Data from hue_110_FLMS001491_00099.txt Node
Date: Tue Feb 07 17:02:05 GMT 2017
User: dcchb
Spectrometer: FLMS00149
Trigger mode: 0
Integration Time (sec): 2.000000E-2
Scans to average: 10
Electric dark correction enabled: true
Nonlinearity correction enabled: false
Boxcar width: 0
XAxis mode: Wavelengths
Number of Pixels in Spectrum: 2048
>>>>>Begin Spectral Data<<<<<
341.393	4.53
341.776	4.53
342.16	4.53
342.543	-58.97
342.927	-66.65
343.31	-67.55
343.693	-70.94
344.077	-68.46
344.46	-67.33
344.843	-58.74
345.226	-51.06
345.61	-42.7
345.993	-18.97
346.376	-13.54
346.759	19
347.142	22.16
347.525	68.94
347.908	47.02
348.291	96.96
348.674	93.35
349.057	111.88
349.44	141.03
349.823	150.52
350.206	168.15
350.588	209.5
350.971	220.57
351.354	234.81
351.737	239.78
352.119	244.08
352.502	267.8
352.884	268.93
353.267	282.27
353.65	301.02
354.032	278.88
354.414	305.32
354.797	319.78
355.179	319.55
355.562	323.4
355.944	339.44
356.326	342.38
356.709	345.77
357.091	343.28
357.473	347.12
357.855	346.22
358.238	353.45
358.62	336.73
359.002	342.6
359.384	336.95
359.766	359.78
360.148	338.31
360.53	327.92
360.912	356.84
361.294	348.03
361.676	330.85
362.057	336.28
362.439	350.06
362.821	313.45
363.203	344.41
363.584	330.17
363.966	315.71
364.348	320.46
364.729	338.54
365.111	328.59
365.493	305.99
365.874	317.29
366.256	327.46
366.637	332.21
367.019	313
367.4	305.77
367.781	327.24
368.163	317.97
368.544	310.06
368.925	331.98
369.306	321.36
369.688	323.17
370.069	322.72
370.45	320.01
370.831	332.21
371.212	305.09
371.593	322.94
371.974	304.41
372.355	337.86
372.736	334.69
373.117	317.75
373.498	318.65
373.879	314.36
374.26	319.78
374.641	327.24
375.021	343.73
375.402	324.98
375.783	334.69
376.163	325.66
376.544	322.49
376.925	331.76
377.305	305.99
377.686	324.98
378.066	330.63
378.447	343.06
378.827	349.61
379.208	332.43
379.588	344.19
379.968	329.95
380.349	352.1
380.729	358.87
381.109	334.24
381.489	332.21
381.87	350.74
382.25	359.55
382.63	340.8
383.01	334.69
383.39	347.35
383.77	361.59
384.15	342.6
384.53	344.64
384.91	325.43
385.29	368.37
385.67	354.36
386.049	366.11
386.429	371.08
386.809	359.55
387.189	356.16
387.568	365.43
387.948	361.59
388.328	353
388.707	371.53
389.087	351.19
389.466	381.02
389.846	388.48
390.225	399.78
390.605	387.12
390.984	385.31
391.363	375.15
391.743	374.47
392.122	368.59
392.501	382.38
392.881	374.92
393.26	390.29
393.639	399.78
394.018	384.64
394.397	388.93
394.776	371.3
395.155	372.43
395.534	380.8
395.913	385.99
396.292	383.73
396.671	418.76
397.05	390.96
397.429	394.81
397.808	397.97
398.186	406.33
398.565	398.65
398.944	414.01
399.323	419.21
399.701	405.88
400.08	420.57
400.458	417.86
400.837	413.34
401.215	417.4
401.594	429.16
401.972	405.43
402.351	426.22
402.729	414.69
403.107	430.51
403.486	440.45
403.864	447.23
404.242	423.05
404.62	427.8
404.999	458.08
405.377	426.9
405.755	465.54
406.133	459.89
406.511	437.29
406.889	468.7
407.267	456.95
407.645	433.45
408.023	443.62
408.401	457.86
408.779	481.13
409.156	457.4
409.534	447.69
409.912	471.19
410.29	480
410.667	465.09
411.045	487.91
411.422	487.23
411.8	514.35
412.178	500.57
412.555	493.56
412.933	497.85
413.31	513.67
413.687	505.31
414.065	510.28
414.442	499.66
414.819	515.93
415.197	531.3
415.574	498.53
415.951	522.03
416.328	519.32
416.705	538.53
417.082	544.63
417.46	523.39
417.837	522.49
418.214	538.53
418.591	532.66
418.967	548.25
419.344	552.09
419.721	540.79
420.098	541.24
420.475	563.39
420.852	553.45
421.228	570.39
421.605	571.98
421.982	574.69
422.358	567.23
422.735	580.56
423.111	584.41
423.488	605.2
423.864	585.76
424.241	610.62
424.617	619.21
424.994	607
425.37	613.56
425.746	607.68
426.123	595.7
426.499	611.07
426.875	630.51
427.251	636.61
427.627	615.37
428.003	640.22
428.379	620.56
428.756	678.19
429.132	652.43
429.507	661.24
429.883	638.42
430.259	660.56
430.635	675.02
431.011	687.68
431.387	697.85
431.763	702.14
432.138	711.41
432.514	717.51
432.89	709.37
433.265	723.38
433.641	738.07
434.016	731.29
434.392	725.19
434.767	730.39
435.143	746.21
435.518	768.81
435.894	749.37
436.269	755.25
436.644	783.72
437.02	778.52
437.395	790.28
437.77	795.25
438.145	772.2
438.52	802.03
438.895	818.98
439.271	811.07
439.646	825.3
440.021	819.65
440.395	823.95
440.77	842.48
441.145	848.13
441.52	884.06
441.895	850.16
442.27	871.86
442.645	878.86
443.019	878.86
443.394	893.32
443.769	861.01
444.143	888.8
444.518	922.7
444.892	909.14
445.267	886.32
445.641	909.82
446.016	898.97
446.39	913.66
446.764	934
447.139	917.5
447.513	929.48
447.887	946.88
448.262	935.58
448.636	966.32
449.01	979.2
449.384	982.36
449.758	979.65
450.132	985.98
450.506	992.53
450.88	1011.96
451.254	1030.04
451.628	1007.45
452.002	1021.46
452.376	1022.13
452.75	1022.13
453.123	1044.96
453.497	1077.95
453.871	1067.56
454.244	1083.38
454.618	1117.27
454.992	1085.64
455.365	1122.02
455.739	1136.48
456.112	1150.27
456.486	1130.61
456.859	1173.32
457.232	1174.22
457.606	1190.04
457.979	1203.15
458.352	1233.65
458.725	1245.18
459.099	1245.18
459.472	1275.91
459.845	1275.23
460.218	1311.39
460.591	1279.08
460.964	1316.14
461.337	1352.07
461.71	1360.43
462.083	1373.99
462.456	1370.15
462.829	1413.08
463.201	1428.45
463.574	1423.71
463.947	1437.72
464.32	1476.36
464.692	1494.89
465.065	1515.91
465.438	1521.1
465.81	1550.71
466.183	1571.27
466.555	1580.54
466.928	1620.99
467.3	1664.83
467.672	1639.75
468.045	1709.8
468.417	1736.92
468.789	1710.93
469.161	1741.44
469.534	1776.92
469.906	1823.02
470.278	1875.45
470.65	1867.31
471.022	1950.7
471.394	1952.51
471.766	1980.53
472.138	2035.21
472.51	2088.77
472.882	2086.74
473.253	2163.35
473.625	2187.75
473.997	2258.94
474.369	2293.29
474.74	2277.92
475.112	2350.23
475.484	2437.24
475.855	2472.94
476.227	2550.91
476.598	2600.62
476.97	2653.05
477.341	2745.48
477.713	2774.63
478.084	2866.15
478.455	2948.19
478.827	3010.78
479.198	3090.55
479.569	3111.8
479.94	3280.83
480.311	3333.49
480.682	3411.45
481.053	3509.3
481.424	3605.8
481.795	3682.86
482.166	3763.31
482.537	3857.54
482.908	3967.82
483.279	4117.65
483.65	4169.4
484.021	4290.52
484.391	4365.32
484.762	4522.38
485.133	4608.25
485.503	4729.83
485.874	4882.82
486.244	4935.48
486.615	5109.48
486.985	5199.43
487.356	5349.48
487.726	5427.44
488.097	5596.25
488.467	5710.6
488.837	5878.96
489.207	6070.36
489.578	6140.87
489.948	6257.93
490.318	6429
490.688	6509.45
491.058	6700.4
491.428	6843
491.798	6947.85
492.168	7172.93
492.538	7266.49
492.908	7366.37
493.278	7531.79
493.648	7601.17
494.017	7875.97
494.387	7946.25
494.757	8063.3
495.126	8224.43
495.496	8302.39
495.866	8406.57
496.235	8627.36
496.605	8668.94
496.974	8762.5
497.344	8945.99
497.713	9036.84
498.082	9122.03
498.452	9267.57
498.821	9433.44
499.19	9488.35
499.559	9687.22
499.928	9742.36
500.298	9859.19
500.667	10042.46
501.036	10063.25
501.405	10162.68
501.774	10265.05
502.143	10384.83
502.512	10436.12
502.88	10566.97
503.249	10630.47
503.618	10719.51
503.987	10759.51
504.356	10900.52
504.724	10996.56
505.093	11064.58
505.462	11125.82
505.83	11278.14
506.199	11316.33
506.567	11495.31
506.936	11434.74
507.304	11597.9
507.672	11673.38
508.041	11822.98
508.409	11907.95
508.777	11989.53
509.145	12056.42
509.514	12069.75
509.882	12187.72
510.25	12178.68
510.618	12332.12
510.986	12325.79
511.354	12439.91
511.722	12559.46
512.09	12644.88
512.458	12615.28
512.826	12690.98
513.193	12772.33
513.561	12745.89
513.929	12919.67
514.297	12982.05
514.664	13041.48
515.032	13089.84
515.4	13163.74
515.767	13168.71
516.135	13228.37
516.502	13169.61
516.869	13396.27
517.237	13356.95
517.604	13335.48
517.972	13578.87
518.339	13540.45
518.706	13536.38
519.073	13572.54
519.44	13692.08
519.808	13790.16
520.175	13641.01
520.542	13860.21
520.909	13826.32
521.276	13836.26
521.643	13983.6
522.009	13981.79
522.376	14057.27
522.743	14033.32
523.11	14198.06
523.477	14251.62
523.843	14360.77
524.21	14331.84
524.577	14405.29
524.943	14386.08
525.31	14437.15
525.676	14614.55
526.043	14604.15
526.409	14708.1
526.776	14735.9
527.142	14580.65
527.508	14753.52
527.874	14842.56
528.241	14880.98
528.607	14814.31
528.973	14837.82
529.339	14877.59
529.705	14926.4
530.071	15035.33
530.437	15024.93
530.803	14978.83
531.169	15069.45
531.535	14976.12
531.901	15034.65
532.267	14983.35
532.632	15002.33
532.998	15016.79
533.364	15042.56
533.73	14973.41
534.095	15069.9
534.461	14997.59
534.826	15129.11
535.192	15098.6
535.557	15005.72
535.923	15114.87
536.288	15054.08
536.653	15065.38
537.019	14979.96
537.384	15113.29
537.749	15050.24
538.114	15037.58
538.479	14988.77
538.845	15014.99
539.21	14876.01
539.575	14923.24
539.94	14904.48
540.305	14912.16
540.67	14842.34
541.034	14860.64
541.399	14884.37
541.764	14756.01
542.129	14847.08
542.494	14757.59
542.858	14853.86
543.223	14709.23
543.587	14766.41
543.952	14749.91
544.316	14727.31
544.681	14600.08
545.045	14710.14
545.41	14682.34
545.774	14675.79
546.138	14583.59
546.503	14577.26
546.867	14511.95
547.231	14615.68
547.595	14519.18
547.959	14506.75
548.324	14444.61
548.688	14418.84
549.052	14449.13
549.416	14433.98
549.779	14459.52
550.143	14326.64
550.507	14385.62
550.871	14423.14
551.235	14304.04
551.599	14320.09
551.962	14276.02
552.326	14324.84
552.689	14318.06
553.053	14201.9
553.417	14194.44
553.78	14370.26
554.143	14254.33
554.507	14214.33
554.87	14241.9
555.234	14303.14
555.597	14146.08
555.96	14156.48
556.323	14211.62
556.686	14109.25
557.05	14259.07
557.413	14146.99
557.776	14129.13
558.139	14214.1
558.502	14217.72
558.865	14104.05
559.228	14233.99
559.59	14162.13
559.953	14123.03
560.316	14254.78
560.679	14222.92
561.041	14344.72
561.404	14345.85
561.767	14268.57
562.129	14215.91
562.492	14345.63
562.854	14280.54
563.217	14195.57
563.579	14244.39
563.941	14353.31
564.304	14374.78
564.666	14419.07
565.028	14438.73
565.39	14493.42
565.753	14447.32
566.115	14410.03
566.477	14513.08
566.839	14441.22
567.201	14567.99
567.563	14561.21
567.925	14623.13
568.287	14520.08
568.648	14558.28
569.01	14594.43
569.372	14692.51
569.734	14639.4
570.095	14686.86
570.457	14749.91
570.819	14676.69
571.18	14641.66
571.542	14716.69
571.903	14774.54
572.265	14777.03
572.626	14768.89
572.987	14813.86
573.349	14823.58
573.71	14852.5
574.071	14828.1
574.432	14899.96
574.794	14962.33
575.155	14968.66
575.516	14890.02
575.877	14918.04
576.238	14967.53
576.599	14958.26
576.96	15072.61
577.32	15021.09
577.681	14956.46
578.042	15010.69
578.403	14947.19
578.763	15015.66
579.124	14948.55
579.485	15048.66
579.845	15119.62
580.206	15001.65
580.566	14993.07
580.927	15025.83
581.287	15101.76
581.648	14981.09
582.008	14997.59
582.368	15034.42
582.728	15019.05
583.089	14956.23
583.449	14961.65
583.809	15016.79
584.169	15032.84
584.529	14942.67
584.889	15141.54
585.249	14918.04
585.609	14937.7
585.969	15104.02
586.329	14904.03
586.688	14997.81
587.048	14891.83
587.408	14921.66
587.768	14913.75
588.127	14810.47
588.487	14879.85
588.846	14976.8
589.206	14794.65
589.565	14872.39
589.925	14860.64
590.284	14902.45
590.643	14882.11
591.003	14917.59
591.362	14889.79
591.721	14811.6
592.08	14814.54
592.44	14864.93
592.799	14793.52
593.158	14780.87
593.517	14819.29
593.876	14833.75
594.235	14756.91
594.593	14768.67
594.952	14822.22
595.311	14679.63
595.67	14758.72
596.029	14830.58
596.387	14811.83
596.746	14837.14
597.104	14768.67
597.463	14755.78
597.822	14706.29
598.18	14760.3
598.538	14701.1
598.897	14700.42
599.255	14704.94
599.613	14903.8
599.972	14800.75
600.33	14776.35
600.688	14757.37
601.046	14759.4
601.404	14853.18
601.762	14765.05
602.12	14828.32
602.478	14854.99
602.836	14828.1
603.194	14700.87
603.552	14771.83
603.91	14679.4
604.268	14719.63
604.625	14733.64
604.983	14742.45
605.341	14732.96
605.698	14817.25
606.056	14818.61
606.413	14746.07
606.771	14865.39
607.128	14789.23
607.485	14716.46
607.843	14831.94
608.2	14855.89
608.557	14933.63
608.914	14918.04
609.272	14922.33
609.629	14928.66
609.986	14937.93
610.343	14873.52
610.7	14962.78
611.057	14916.01
611.414	14976.12
611.771	14943.58
612.127	15036.45
612.484	15008.89
612.841	15092.5
613.198	14943.35
613.554	15052.05
613.911	15020.18
614.267	15061.09
614.624	14997.59
614.98	15060.18
615.337	15145.83
615.693	15060.18
616.05	15062.22
616.406	15282.32
616.762	15094.76
617.118	15114.42
617.475	15114.42
617.831	15195.77
618.187	15264.92
618.543	15225.83
618.899	15147.19
619.255	15247.75
619.611	15205.04
619.967	15261.08
620.323	15266.05
620.678	15167.98
621.034	15146.06
621.39	15268.77
621.746	15213.85
622.101	15429.66
622.457	15259.27
622.812	15296.34
623.168	15323.9
623.523	15256.11
623.879	15309.89
624.234	15232.38
624.589	15322.1
624.945	15411.13
625.3	15388.08
625.655	15249.78
626.01	15293.4
626.365	15324.36
626.72	15228.09
627.075	15268.99
627.43	15271.25
627.785	15298.82
628.14	15282.78
628.495	15233.74
628.85	15249.33
629.205	15177.69
629.559	15313.96
629.914	15182.89
630.269	15155.55
630.623	15124.59
630.978	15143.34
631.332	15217.02
631.687	15034.42
632.041	15112.84
632.396	15034.42
632.75	15065.61
633.104	15064.48
633.459	15006.4
633.813	15017.47
634.167	15023.12
634.521	15037.13
634.875	14943.58
635.229	15027.87
635.583	14974.08
635.937	14829
636.291	14952.62
636.645	14976.34
636.999	14834.43
637.352	14927.53
637.706	14920.07
638.06	14833.75
638.413	14872.17
638.767	14800.53
639.121	14844.14
639.474	14749
639.828	14737.25
640.181	14799.85
640.534	14765.05
640.888	14657.48
641.241	14678.72
641.594	14665.84
641.947	14783.81
642.301	14549.01
642.654	14598.95
643.007	14690.25
643.36	14636.92
643.713	14608.44
644.066	14650.02
644.419	14632.62
644.771	14535.45
645.124	14455.23
645.477	14377.49
645.83	14279.86
646.182	14230.6
646.535	14227.89
646.888	14167.1
647.24	14120.77
647.593	14202.35
647.945	14204.61
648.298	14076.93
648.65	14069.7
649.002	14008.91
649.355	14146.53
649.707	14111.73
650.059	14181.56
650.411	14402.12
650.763	14400.77
651.115	14519.41
651.467	14472.63
651.819	14413.42
652.171	14515.34
652.523	14401.44
652.875	14439.18
653.227	14316.02
653.578	14566.86
653.93	14403.48
654.282	14384.04
654.633	14285.74
654.985	14369.58
655.337	14415.45
655.688	14420.65
656.039	14512.85
656.391	14336.36
656.742	14317.15
657.094	14359.64
657.445	14399.41
657.796	14426.53
658.147	14433.08
658.498	14335.91
658.849	14445.28
659.2	14423.36
659.551	14398.96
659.902	14366.87
660.253	14437.15
660.604	14422.91
660.955	14426.53
661.306	14465.85
661.656	14453.65
662.007	14411.39
662.358	14384.49
662.708	14437.83
663.059	14477.37
663.409	14341.33
663.76	14468.11
664.11	14418.84
664.461	14480.76
664.811	14460.88
665.161	14538.84
665.511	14418.39
665.862	14490.03
666.212	14554.66
666.562	14618.84
666.912	14535.68
667.262	14534.32
667.612	14515.79
667.962	14584.94
668.312	14529.58
668.662	14614.55
669.011	14487.77
669.361	14613.19
669.711	14510.37
670.06	14457.26
670.41	14496.13
670.76	14430.14
671.109	14462.46
671.459	14417.94
671.808	14383.82
672.157	14477.37
672.507	14287.77
672.856	14384.27
673.205	14431.95
673.554	14393.76
673.904	14307.21
674.253	14363.48
674.602	14305.4
674.951	14182.01
675.3	14099.3
675.649	14279.64
675.998	14266.76
676.346	14274.89
676.695	14331.16
677.044	14183.37
677.393	14217.04
677.741	14273.09
678.09	14193.77
678.438	14235.57
678.787	14183.6
679.135	14226.31
679.484	14112.64
679.832	14128.68
680.181	14118.29
680.529	14116.48
680.877	14017.72
681.225	13994.22
681.573	14062.47
681.922	13972.53
682.27	13888.46
682.618	13924.85
682.966	13850.95
683.314	13961.45
683.661	13835.58
684.009	13827.9
684.357	13751.74
684.705	13752.42
685.053	13756.71
685.4	13758.3
685.748	13581.35
686.095	13683.95
686.443	13549.26
686.79	13563.73
687.138	13566.89
687.485	13545.42
687.832	13503.61
688.18	13457.29
688.527	13484.41
688.874	13413.45
689.221	13378.65
689.568	13298.42
689.915	13289.38
690.262	13289.16
690.609	13246.45
690.956	13174.36
691.303	13190.18
691.65	13165.09
691.997	13134.36
692.344	13033.12
692.69	13046
693.037	13049.16
693.383	12865.21
693.73	12919.22
694.077	12821.82
694.423	12851.43
694.769	12800.36
695.116	12759.9
695.462	12693.69
695.808	12676.29
696.155	12697.31
696.501	12569.63
696.847	12555.39
697.193	12553.81
697.539	12555.62
697.885	12416.64
698.231	12310.88
698.577	12315.62
698.923	12293.7
699.269	12217.32
699.614	12213.93
699.96	12185.91
700.306	12147.94
700.651	12015.07
700.997	12073.82
701.342	11976.2
701.688	11930.77
702.033	11913.83
702.379	11885.13
702.724	11830.44
703.069	11867.95
703.415	11699.59
703.76	11766.48
704.105	11730.33
704.45	11698.69
704.795	11624.12
705.14	11550.22
705.485	11590.44
705.83	11548.19
706.175	11482.88
706.52	11451.24
706.865	11392.48
707.209	11246.95
707.554	11352.94
707.899	11377.34
708.243	11245.59
708.588	11268.64
708.932	11193.62
709.277	11100.74
709.621	11108.2
709.966	11023.91
710.31	11118.59
710.654	10995.43
710.998	11075.88
711.342	10956.11
711.687	10963.34
712.031	10967.64
712.375	10916.56
712.719	10936.22
713.063	10794.76
713.407	10889.9
713.75	10830.69
714.094	10831.59
714.438	10804.25
714.782	10771.93
715.125	10690.35
715.469	10746.4
715.812	10617.81
716.156	10625.72
716.499	10547.99
716.843	10600.87
717.186	10580.3
717.53	10628.44
717.873	10578.72
718.216	10561.09
718.559	10523.35
718.902	10514.09
719.246	10533.75
719.589	10507.31
719.932	10462.56
720.275	10504.82
720.617	10458.5
720.96	10451.49
721.303	10463.02
721.646	10493.3
721.989	10385.73
722.331	10421.21
722.674	10426.86
723.016	10400.87
723.359	10408.55
723.701	10316.81
724.044	10324.94
724.386	10269.12
724.729	10399.74
725.071	10376.46
725.413	10244.94
725.755	10288.56
726.097	10251.5
726.439	10235.9
726.782	10152.97
727.124	10231.61
727.465	10187.54
727.807	10199.29
728.149	10197.49
728.491	10154.78
728.833	10179.18
729.175	10099.86
729.516	10179.18
729.858	10126.3
730.199	10165.85
730.541	10161.1
730.882	10195.68
731.224	10167.88
731.565	10129.24
731.906	10102.8
732.248	10180.54
732.589	10087.21
732.93	10061.22
733.271	10105.29
733.612	10149.35
733.953	10119.75
734.294	10103.03
734.635	10052.41
734.976	10131.95
735.317	10131.27
735.658	10066.64
735.999	10074.33
736.339	10109.58
736.68	10118.84
737.021	10045.17
737.361	10094.44
737.702	10092.63
738.042	10042.01
738.383	10124.49
738.723	10179.18
739.063	10106.42
739.404	10106.87
739.744	10170.37
740.084	10131.05
740.424	10173.98
740.764	10110.48
741.104	10186.41
741.444	10127.21
741.784	10197.03
742.124	10236.13
742.464	10238.16
742.804	10242
743.143	10212.17
743.483	10251.5
743.823	10255.79
744.162	10280.87
744.502	10323.81
744.841	10345.96
745.181	10407.2
745.52	10380.98
745.86	10446.29
746.199	10459.85
746.538	10533.52
746.877	10586.63
747.216	10615.78
747.556	10617.14
747.895	10746.4
748.234	10703.91
748.573	10739.17
748.911	10830.46
749.25	10927.64
749.589	10972.16
749.928	11037.01
750.267	11037.46
750.605	11208.98
750.944	11200.17
751.283	11267.06
751.621	11439.94
751.96	11441.3
752.298	11491.69
752.636	11656.2
752.975	11667.05
753.313	11781.17
753.651	11978.46
753.989	11960.83
754.327	12044.9
754.666	12063.65
755.004	12304.55
755.342	12431.33
755.679	12583.41
756.017	12584.32
756.355	12761.49
756.693	12864.99
757.031	12978.2
757.368	13038.54
757.706	13255.03
758.044	13396.5
758.381	13537.96
758.719	13555.59
759.056	13822.7
759.394	13977.05
759.731	13966.88
760.068	14272.63
760.405	14419.52
760.743	14557.37
761.08	14628.56
761.417	14844.14
761.754	15009.34
762.091	15098.83
762.428	15360.51
762.765	15339.5
763.102	15611.58
763.438	15643.67
763.775	15794.4
764.112	16003.44
764.449	16207.05
764.785	16340.6
765.122	16313.94
765.458	16518.9
765.795	16562.52
766.131	16820.14
766.467	16828.72
766.804	16908.95
767.14	17034.82
767.476	17239.33
767.812	17306
768.148	17430.97
768.485	17590.96
768.821	17666.89
769.157	17737.17
769.492	17822.82
769.828	17872.09
770.164	17905.08
770.5	17905.53
770.836	18132.87
771.171	18235.47
771.507	18251.96
771.842	18355.69
772.178	18443.37
772.513	18531.73
772.849	18592.75
773.184	18590.03
773.519	18693.99
773.855	18667.55
774.19	18678.85
774.525	18769.01
774.86	18888.11
775.195	18947.76
775.53	18912.96
775.865	18895.56
776.2	18864.15
776.535	18867.31
776.87	18945.73
777.205	18934.88
777.539	18942.34
777.874	19064.6
778.209	18959.29
778.543	19100.3
778.878	19069.8
779.212	19042
779.547	18994.09
779.881	19131.04
780.215	18940.53
780.55	19068.89
780.884	19039.29
781.218	18961.32
781.552	19185.95
781.886	19081.77
782.22	18927.65
782.554	19018.5
782.888	18950.48
783.222	18981.21
783.556	18795.23
783.889	18927.2
784.223	18792.51
784.557	18734.89
784.89	18873.87
785.224	18805.17
785.557	18785.73
785.891	18710.93
786.224	18738.05
786.558	18765.4
786.891	18599.98
787.224	18598.4
787.557	18664.38
787.891	18536.48
788.224	18581.45
788.557	18607.66
788.89	18489.7
789.223	18411.96
789.556	18368.8
789.888	18399.53
790.221	18308.69
790.554	18237.27
790.887	18246.54
791.219	18272.53
791.552	18175.36
791.884	18125.19
792.217	18114.57
792.549	18018.3
792.882	17901.92
793.214	17882.03
793.546	17981.01
793.879	17855.14
794.211	17763.16
794.543	17888.13
794.875	17730.62
795.207	17826.44
795.539	17745.08
795.871	17657.85
796.203	17580.57
796.535	17611.53
796.867	17536.73
797.198	17417.86
797.53	17404.75
797.862	17388.26
798.193	17375.38
798.525	17257.19
798.856	17346.68
799.188	17233.01
799.519	17223.97
799.85	17095.61
800.182	17123.41
800.513	17091.99
800.844	16853.36
801.175	17037.31
801.506	16966.12
801.837	16936.07
802.168	16831.21
802.499	16781.72
802.83	16679.8
803.161	16780.36
803.491	16775.39
803.822	16856.07
804.153	16601.39
804.483	16536.3
804.814	16480.48
805.145	16514.83
805.475	16497.43
805.805	16385.57
806.136	16375.4
806.466	16435.06
806.796	16313.26
807.126	16254.5
807.457	16196.65
807.787	16297.21
808.117	16123.21
808.447	16019.03
808.777	16026.26
809.107	15989.88
809.436	16026.94
809.766	15951.46
810.096	15937.9
810.426	15795.76
810.755	15946.49
811.085	15882.31
811.414	15827.62
811.744	15736.32
812.073	15706.04
812.403	15691.35
812.732	15568.64
813.061	15658.59
813.39	15483.9
813.719	15485.93
814.049	15616.55
814.378	15572.49
814.707	15474.86
815.036	15436.44
815.365	15284.58
815.693	15212.5
816.022	15310.8
816.351	15262.21
816.68	15153.51
817.008	15242.1
817.337	14981.09
817.665	15046.85
817.994	15063.35
818.322	15049.79
818.651	15034.2
818.979	14990.58
819.307	15045.27
819.636	14974.99
819.964	14905.61
820.292	14886.63
820.62	14978.83
820.948	14831.49
821.276	14876.23
821.604	14926.85
821.932	14909.9
822.259	14916.23
822.587	14839.62
822.915	14781.55
823.243	14817.93
823.57	14809.57
823.898	14882.79
824.225	14807.99
824.553	14854.99
824.88	14776.35
825.207	14879.17
825.535	14887.08
825.862	14864.93
826.189	14842.34
826.516	14892.5
826.843	14855.44
827.17	14880.75
827.497	14923.24
827.824	14849.34
828.151	14979.28
828.478	14835.1
828.805	14905.61
829.131	14824.48
829.458	14774.77
829.785	14790.36
830.111	14849.57
830.438	14922.11
830.764	14824.03
831.09	14907.87
831.417	14793.07
831.743	14934.76
832.069	14863.8
832.395	14760.76
832.722	14852.28
833.048	14725.73
833.374	14776.12
833.7	14757.82
834.026	14728.89
834.351	14789
834.677	14723.92
835.003	14785.61
835.329	14732.06
835.654	14669.23
835.98	14643.24
836.306	14662.23
836.631	14621.1
836.956	14734.32
837.282	14610.7
837.607	14575.22
837.932	14535.23
838.258	14518.28
838.583	14505.85
838.908	14382.69
839.233	14429.01
839.558	14302.91
839.883	14343.59
840.208	14400.54
840.533	14367.77
840.858	14337.49
841.182	14305.85
841.507	14221.56
841.832	14176.14
842.156	14166.87
842.481	14225.85
842.805	14094.33
843.13	14121
843.454	14021.34
843.778	14045.29
844.103	14062.92
844.427	14022.47
844.751	13954.9
845.075	13978.86
845.399	13901.12
845.723	13878.07
846.047	13840.1
846.371	13724.85
846.695	13718.75
847.019	13656.6
847.343	13537.51
847.666	13448.25
847.99	13401.24
848.313	13535.03
848.637	13344.75
848.96	13356.27
849.284	13316.73
849.607	13223.62
849.931	13227.46
850.254	13126.45
850.577	13031.08
850.9	12931.65
851.223	12952.89
851.546	12849.39
851.869	12829.73
852.192	12902.5
852.515	12729.17
852.838	12697.76
853.161	12713.13
853.483	12652.56
853.806	12574.6
854.129	12534.6
854.451	12463.87
854.774	12430.42
855.096	12313.59
855.419	12358.11
855.741	12375.51
856.063	12237.88
856.385	12246.7
856.708	12191.56
857.03	12149.07
857.352	12258.45
857.674	12182.07
857.996	12011.45
858.318	11986.37
858.64	12042.86
858.961	11904.79
859.283	11888.97
859.605	11870.21
859.926	11899.59
860.248	11795.64
860.57	11867.27
860.891	11752.93
861.212	11721.97
861.534	11718.12
861.855	11701.63
862.176	11683.55
862.498	11677.67
862.819	11716.32
863.14	11541.86
863.461	11531.91
863.782	11519.94
864.103	11592.03
864.424	11452.14
864.745	11525.81
865.065	11424.35
865.386	11442.2
865.707	11422.31
866.027	11429.09
866.348	11377.79
866.668	11369.43
866.989	11444.68
867.309	11354.74
867.63	11277.46
867.95	11326.27
868.27	11120.4
868.59	11232.94
868.91	11194.75
869.23	11190.91
869.55	11077.69
869.87	11140.96
870.19	11172.15
870.51	11183.9
870.83	11195.2
871.15	11109.1
871.469	11105.71
871.789	11102.77
872.109	11072.04
872.428	10977.13
872.748	10981.19
873.067	11032.04
873.386	10990.91
873.706	10969.44
874.025	10919.05
874.344	10940.97
874.663	10921.76
874.982	10870.91
875.301	10862.55
875.62	10863.91
875.939	10849.22
876.258	10816.23
876.577	10721.99
876.896	10769.67
877.214	10713.4
877.533	10798.6
877.852	10707.76
878.17	10727.42
878.489	10714.99
878.807	10677.25
879.125	10722.67
879.444	10603.13
879.762	10610.13
880.08	10666.4
880.398	10568.78
880.716	10601.54
881.034	10564.03
881.352	10582.33
881.67	10434.54
881.988	10528.55
882.306	10399.29
882.624	10390.02
882.941	10312.29
883.259	10394.32
883.577	10305.05
883.894	10362
884.212	10304.83
884.529	10414.2
884.846	10271.61
885.164	10271.16
885.481	10178.05
885.798	10233.42
886.115	10177.37
886.432	10137.15
886.75	10142.12
887.067	10066.19
887.383	10055.12
887.7	10116.58
888.017	9978.06
888.334	9995.01
888.651	9966.31
888.967	9971.73
889.284	9945.74
889.6	9842.02
889.917	9860.09
890.233	9835.91
890.55	9765.41
890.866	9802.02
891.182	9798.4
891.498	9724.96
891.815	9644.73
892.131	9687.89
892.447	9663.94
892.763	9577.62
893.079	9555.92
893.395	9570.84
893.71	9521.35
894.026	9517.28
894.342	9462.36
894.657	9390.05
894.973	9401.57
895.289	9368.58
895.604	9333.55
895.92	9265.53
896.235	9207.23
896.55	9231.18
896.865	9176.5
897.181	9171.52
897.496	9157.74
897.811	9086.78
898.126	9102.83
898.441	9030.29
898.756	9021.47
899.071	8983.73
899.386	8954.13
899.7	8905.54
900.015	8879.55
900.33	8837.07
900.644	8813.34
900.959	8852.21
901.273	8808.14
901.588	8786.68
901.902	8689.28
902.216	8700.8
902.531	8636.4
902.845	8608.83
903.159	8585.78
903.473	8524.54
903.787	8530.64
904.101	8394.6
904.415	8508.26
904.729	8465.33
905.042	8361.15
905.356	8358.89
905.67	8358.66
905.984	8330.19
906.297	8275.5
906.611	8226.69
906.924	8234.37
907.237	8182.17
907.551	8173.13
907.864	8147.6
908.177	8061.05
908.491	8055.62
908.804	8006.58
909.117	7969.07
909.43	7927.04
909.743	7920.03
910.056	7914.38
910.368	7906.7
910.681	7850.43
910.994	7794.39
911.307	7776.76
911.619	7715.52
911.932	7718.46
912.244	7673.94
912.557	7649.3
912.869	7599.81
913.181	7530.66
913.494	7523.21
913.806	7519.14
914.118	7471.91
914.43	7359.37
914.742	7412.02
915.054	7392.14
915.366	7342.87
915.678	7289.54
915.99	7287.51
916.302	7266.26
916.613	7229.2
916.925	7170.22
917.236	7172.48
917.548	7139.49
917.859	7085.03
918.171	7057
918.482	7027.17
918.794	7025.59
919.105	6983.79
919.416	6915.54
919.727	6924.13
920.038	6884.13
920.349	6871.92
920.66	6835.54
920.971	6818.14
921.282	6787.63
921.593	6740.4
921.903	6700.4
922.214	6645.26
922.525	6656.79
922.835	6641.2
923.146	6593.74
923.456	6581.08
923.767	6558.03
924.077	6574.76
924.387	6554.42
924.697	6542.67
925.008	6447.75
925.318	6422.9
925.628	6411.6
925.938	6419.96
926.248	6376.12
926.558	6285.5
926.867	6303.58
927.177	6283.24
927.487	6269.45
927.796	6182.68
928.106	6178.38
928.416	6172.51
928.725	6180.64
929.034	6125.73
929.344	6124.37
929.653	6095.9
929.962	6086.41
930.271	5984.04
930.581	6030.36
930.89	5965.28
931.199	5948.11
931.508	5945.85
931.817	5920.99
932.125	5868.56
932.434	5862.23
932.743	5829.47
933.051	5859.75
933.36	5770.03
933.669	5718.73
933.977	5737.26
934.286	5711.95
934.594	5703.37
934.902	5639.87
935.21	5608.45
935.519	5639.64
935.827	5579.53
936.135	5567.33
936.443	5477.84
936.751	5574.78
937.059	5466.99
937.367	5457.27
937.674	5431.06
937.982	5410.49
938.29	5371.85
938.597	5397.16
938.905	5342.47
939.213	5360.1
939.52	5270.84
939.827	5339.99
940.135	5308.58
940.442	5243.94
940.749	5272.87
941.056	5219.76
941.363	5147.68
941.67	5113.1
941.977	5151.29
942.284	5116.04
942.591	5099.54
942.898	5051.86
943.205	5044.63
943.511	5017.74
943.818	5008.02
944.125	4956.72
944.431	4950.62
944.738	4996.72
945.044	4891.86
945.35	4913.11
945.657	4803.96
945.963	4876.04
946.269	4840.11
946.575	4811.19
946.881	4750.85
947.187	4800.34
947.493	4727.12
947.799	4719.89
948.105	4719.66
948.41	4655.71
948.716	4667.46
949.022	4720.12
949.327	4659.55
949.633	4576.39
949.938	4574.58
950.244	4618.42
950.549	4560.12
950.854	4509.73
951.16	4497.97
951.465	4486.9
951.77	4508.82
952.075	4467.92
952.38	4439.67
952.685	4403.74
952.99	4370.52
953.294	4356.28
953.599	4377.53
953.904	4346.34
954.209	4341.37
954.513	4284.65
954.818	4263.86
955.122	4230.64
955.426	4236.06
955.731	4210.75
956.035	4182.95
956.339	4155.39
956.643	4260.47
956.948	4224.31
957.252	4162.84
957.556	4131.88
957.86	4109.74
958.163	4056.63
958.467	4114.48
958.771	4083.07
959.075	4063.18
959.378	4010.76
959.682	4005.78
959.985	3974.15
960.289	3961.27
960.592	3911.78
960.896	3918.33
961.199	3935.73
961.502	3896.86
961.805	3866.35
962.108	3869.29
962.411	3851.66
962.714	3848.5
963.017	3822.29
963.32	3822.51
963.623	3768.05
963.926	3783.42
964.228	3756.3
964.531	3692.12
964.833	3727.15
965.136	3692.12
965.438	3665.23
965.741	3607.6
966.043	3636.53
966.345	3614.16
966.648	3625.91
966.95	3611.22
967.252	3577.1
967.554	3543.88
967.856	3553.82
968.158	3541.84
968.46	3544.55
968.761	3559.02
969.063	3493.93
969.365	3472.92
969.666	3502.97
969.968	3445.35
970.269	3417.55
970.571	3414.84
970.872	3390.66
971.174	3390.43
971.475	3368.97
971.776	3398.12
972.077	3341.4
972.378	3305.24
972.679	3308.63
972.98	3356.99
973.281	3272.24
973.582	3281.96
973.883	3276.09
974.183	3236.54
974.484	3254.84
974.785	3223.66
975.085	3233.38
975.386	3219.82
975.686	3178.91
975.986	3176.88
976.287	3142.76
976.587	3100.95
976.887	3131.68
977.187	3113.38
977.487	3090.33
977.787	3051.46
978.087	3085.13
978.387	3026.38
978.687	3062.53
978.987	3024.34
979.286	3021.63
979.586	3025.47
979.885	2983.21
980.185	2970.56
980.484	2962.42
980.784	2956.55
981.083	2936.66
981.382	2940.73
981.682	2927.17
981.981	2888.53
982.28	2885.14
982.579	2888.75
982.878	2853.72
983.177	2857.34
983.475	2865.25
983.774	2802.88
984.073	2798.58
984.372	2780.96
984.67	2783.67
984.969	2759.26
985.267	2767.4
985.566	2723.11
985.864	2739.83
986.162	2730.56
986.461	2705.25
986.759	2674.97
987.057	2679.27
987.355	2701.19
987.653	2678.14
987.951	2683.11
988.249	2648.31
988.547	2634.97
988.844	2609.89
989.142	2621.64
989.44	2606.73
989.737	2562.66
990.035	2554.3
990.332	2564.47
990.63	2529.44
990.927	2505.26
991.224	2526.05
991.521	2532.15
991.819	2488.31
992.116	2447.63
992.413	2461.19
992.71	2432.94
993.006	2454.64
993.303	2427.52
993.6	2408.99
993.897	2420.97
994.193	2410.57
994.49	2410.35
994.787	2387.07
995.083	2338.03
995.379	2355.43
995.676	2359.5
995.972	2336.22
996.268	2322.66
996.565	2289.45
996.861	2310.46
997.157	2283.8
997.453	2262.55
997.749	2280.41
998.044	2242.44
998.34	2246.28
998.636	2237.24
998.932	2218.94
999.227	2201.54
999.523	2175.78
999.818	2179.84
1000.114	2208.09
1000.409	2165.83
1000.704	2151.82
1001	2149.34
1001.295	2135.33
1001.59	2098.94
1001.885	2117.47
1002.18	2122.22
1002.475	2067.53
1002.77	2089.9
1003.065	2049.45
1003.359	2058.04
1003.654	2044.03
1003.949	2042.9
1004.243	2020.3
1004.538	1996.35
1004.832	2015.1
1005.127	1992.28
1005.421	1980.75
1005.715	1955.44
1006.009	1960.87
1006.304	1925.84
1006.598	1913.18
1006.892	1927.42
1007.186	1907.99
1007.48	1896.69
1007.773	1912.73
1008.067	1895.78
1008.361	1848.55
1008.655	1844.26
1008.948	1839.06
1009.242	1840.19
1009.535	1812.17
1009.829	1794.09
1010.122	1791.15
1010.415	1798.38
1010.708	1754.09
1011.001	1725.62
1011.295	1782.11
1011.588	1725.84
1011.881	1720.19
1012.173	1734.43
1012.466	1738.27
1012.759	1697.6
1013.052	1684.49
1013.344	1692.4
1013.637	1667.31
1013.93	1674.55
1014.222	1665.51
1014.514	1636.81
1014.807	1627.54
1015.099	1639.75
1015.391	1613.08
1015.683	1634.32
1015.976	1626.41
1016.268	1581.89
1016.56	1600.42
1016.851	1580.54
1017.143	1570.59
1017.435	1553.65
1017.727	1550.03
1018.018	1531.73
1018.31	1536.02
1018.602	1510.48
1018.893	1502.8
1019.185	1504.38
1019.476	1470.26
1019.767	1480.65
1020.058	1453.31
1020.35	1460.09
1020.641	1422.35
1020.932	1425.97
1021.223	1418.51
1021.514	1439.75
1021.804	1407.43
1022.095	1417.6
1022.386	1403.37
1022.677	1381.9
1022.967	1369.7
1023.258	1374.44
1023.548	1341.22
1023.839	1345.06
1024.129	1347.32
1024.419	1308.23
1024.709	1320.43
1025	1275.01
1025.29	1320.43
1025.58	1306.87
1025.87	1278.85
1026.16	1286.99
1026.449	1287.89
1026.739	1256.03
1027.029	1282.92
1027.319	1254.22
1027.608	1249.47
1027.898	1205.41
1028.187	1249.92
1028.477	1221
1028.766	1199.08
1029.055	1188.68
1029.344	1191.17
1029.634	1197.04
1029.923	1174.45
1030.212	1176.03
1030.501	1149.59
1030.79	1145.97
1031.078	1174.22
1031.367	1122.92
1031.656	1112.98
1031.945	1111.17
1032.233	1112.3
1032.522	1096.26
1032.81	1128.8
1033.099	1115.92
1033.387	1112.98
1033.675	1097.84
1033.963	1078.4
1034.251	1084.73
1034.54	1058.52
1034.828	1042.92
1035.116	1045.18
1035.403	1039.53
1035.691	1042.92
1035.979	1032.76
1036.267	1039.99
1036.554	1027.33
1036.842	1006.32
1037.129	999.99
1037.417	984.17
1037.704	993.21
1037.992	997.28
1038.279	968.58
1038.566	983.49
1038.853	983.49
1039.14	983.49
