Data from hue_240_FLMS001491_00070.txt Node
Date: Tue Feb 07 16:35:49 GMT 2017
User: dcchb
Spectrometer: FLMS00149
Trigger mode: 0
Integration Time (sec): 2.000000E-2
Scans to average: 10
Electric dark correction enabled: true
Nonlinearity correction enabled: false
Boxcar width: 0
XAxis mode: Wavelengths
Number of Pixels in Spectrum: 2048
>>>>>Begin Spectral Data<<<<<
341.393	5.55
341.776	5.55
342.16	5.55
342.543	-62.92
342.927	-67.89
343.31	-50.94
343.693	-69.7
344.077	-77.16
344.46	-88.91
344.843	-70.61
345.226	-21.12
345.61	-27.67
345.993	-11.85
346.376	-2.13
346.759	27.25
347.142	26.12
347.525	26.57
347.908	51.2
348.291	91.88
348.674	82.84
349.057	114.25
349.44	146.79
349.823	147.69
350.206	158.77
350.588	195.83
350.971	207.81
351.354	236.73
351.737	228.82
352.119	259.1
352.502	259.78
352.884	270.85
353.267	279.89
353.65	294.81
354.032	291.87
354.414	294.36
354.797	309.72
355.179	318.54
355.562	318.76
355.944	319.89
356.326	328.71
356.709	322.6
357.091	328.03
357.473	336.16
357.855	327.12
358.238	324.86
358.62	321.25
359.002	317.18
359.384	326.9
359.766	328.93
360.148	325.99
360.53	333.9
360.912	321.47
361.294	345.88
361.676	332.77
362.057	337.52
362.439	339.78
362.821	310.63
363.203	314.7
363.584	322.83
363.966	313.79
364.348	300.46
364.729	325.77
365.111	309.5
365.493	314.7
365.874	341.59
366.256	314.7
366.637	309.72
367.019	292.1
367.4	318.31
367.781	314.92
368.163	314.7
368.544	292.32
368.925	299.55
369.306	324.41
369.688	303.4
370.069	309.95
370.45	289.16
370.831	317.63
371.212	300.68
371.593	315.83
371.974	306.79
372.355	304.75
372.736	309.05
373.117	303.17
373.498	294.13
373.879	300.01
374.26	306.56
374.641	313.11
375.021	313.34
375.402	316.73
375.783	341.36
376.163	320.8
376.544	347.24
376.925	299.55
377.305	325.09
377.686	324.41
378.066	319.44
378.447	315.15
378.827	327.35
379.208	330.74
379.588	328.93
379.968	311.98
380.349	323.73
380.729	298.88
381.109	334.58
381.489	339.55
381.87	342.94
382.25	342.27
382.63	336.16
383.01	336.39
383.39	332.55
383.77	346.56
384.15	342.49
384.53	340.68
384.91	336.16
385.29	362.83
385.67	318.54
386.049	351.98
386.429	353.11
386.809	353.56
387.189	348.82
387.568	338.65
387.948	345.65
388.328	352.21
388.707	372.32
389.087	353.79
389.466	365.77
389.846	350.4
390.225	361.47
390.605	373.9
390.984	363.73
391.363	356.5
391.743	365.09
392.122	359.89
392.501	361.02
392.881	368.93
393.26	373
393.639	370.29
394.018	388.37
394.397	397.4
394.776	376.84
395.155	365.99
395.534	381.59
395.913	381.13
396.292	390.4
396.671	396.27
397.05	392.66
397.429	415.48
397.808	411.42
398.186	394.92
398.565	379.33
398.944	395.14
399.323	389.5
399.701	412.32
400.08	394.92
400.458	416.61
400.837	418.65
401.215	409.38
401.594	400.57
401.972	415.71
402.351	435.37
402.729	416.39
403.107	421.13
403.486	445.99
403.864	445.77
404.242	423.84
404.62	423.62
404.999	448.25
405.377	435.14
405.755	428.82
406.133	441.92
406.511	441.7
406.889	458.42
407.267	445.31
407.645	454.35
408.023	482.37
408.401	482.6
408.779	450.28
409.156	466.56
409.534	468.36
409.912	490.74
410.29	497.52
410.667	514.24
411.045	522.15
411.422	501.81
411.8	495.26
412.178	528.93
412.555	527.12
412.933	529.15
413.31	544.07
413.687	560.56
414.065	538.64
414.442	567.8
414.819	575.25
415.197	578.42
415.574	588.36
415.951	582.71
416.328	606.21
416.705	605.99
417.082	608.02
417.46	616.16
417.837	620.9
418.214	602.82
418.591	627.68
418.967	630.84
419.344	614.12
419.721	649.38
420.098	655.03
420.475	633.78
420.852	656.38
421.228	674.01
421.605	687.79
421.982	698.41
422.358	679.43
422.735	695.02
423.111	702.26
423.488	697.06
423.864	722.59
424.241	758.3
424.617	742.93
424.994	749.49
425.37	765.3
425.746	758.53
426.123	782.93
426.499	783.16
426.875	811.18
427.251	803.27
427.627	862.03
428.003	833.1
428.379	827
428.756	859.09
429.132	864.51
429.507	859.31
429.883	873.55
430.259	871.52
430.635	902.25
431.011	884.17
431.387	912.87
431.763	918.52
432.138	924.85
432.514	958.75
432.89	951.74
433.265	963.49
433.641	955.81
434.016	998.29
434.392	1022.47
434.767	1032.19
435.143	1043.94
435.518	1062.25
435.894	1071.96
436.269	1086.88
436.644	1108.12
437.02	1083.26
437.395	1143.37
437.77	1128.91
438.145	1192.41
438.52	1153.77
438.895	1174.33
439.271	1166.42
439.646	1227.44
440.021	1234.9
440.395	1255.69
440.77	1226.08
441.145	1231.96
441.52	1278.51
441.895	1264.95
442.27	1312.63
442.645	1264.5
443.019	1302.24
443.394	1290.49
443.769	1321.22
444.143	1298.62
444.518	1362.8
444.892	1362.58
445.267	1374.55
445.641	1360.54
446.016	1405.29
446.39	1389.7
446.764	1385.4
447.139	1403.25
447.513	1409.58
447.887	1432.86
448.262	1420.65
448.636	1438.96
449.01	1455.91
449.384	1458.85
449.758	1457.49
450.132	1492.07
450.506	1513.99
450.88	1529.13
451.254	1507.66
451.628	1520.54
452.002	1563.7
452.376	1576.58
452.75	1569.35
453.123	1552.4
453.497	1611.38
453.871	1632.17
454.244	1645.51
454.618	1650.03
454.992	1685.51
455.365	1663.59
455.739	1699.97
456.112	1728.9
456.486	1747.65
456.859	1765.5
457.232	1774.54
457.606	1775.67
457.979	1778.61
458.352	1815.67
458.725	1880.3
459.099	1875.11
459.472	1877.82
459.845	1911.72
460.218	1916.23
460.591	1945.61
460.964	1939.06
461.337	2009.11
461.71	2014.99
462.083	2056.12
462.456	2048.89
462.829	2030.58
463.201	2101.77
463.574	2076
463.947	2154.42
464.32	2174.08
464.692	2144.25
465.065	2201.2
465.438	2216.57
465.81	2203.01
466.183	2252.72
466.555	2315.55
466.928	2334.3
467.3	2275.55
467.672	2379.05
468.045	2372.72
468.417	2377.01
468.789	2404.58
469.161	2493.85
469.534	2485.26
469.906	2524.13
470.278	2509.44
470.65	2568.65
471.022	2612.71
471.394	2673.5
471.766	2693.39
472.138	2686.61
472.51	2735.87
472.882	2775.2
473.253	2758.25
473.625	2840.73
473.997	2885.47
474.369	2880.96
474.74	2945.13
475.112	2934.51
475.484	3020.84
475.855	3079.14
476.227	3070.33
476.598	3143.77
476.97	3183.55
477.341	3233.94
477.713	3314.16
478.084	3307.84
478.455	3366.14
478.827	3435.29
479.198	3522.29
479.569	3478.91
479.94	3581.5
480.311	3624.21
480.682	3679.13
481.053	3759.12
481.424	3828.5
481.795	3820.59
482.166	3869.86
482.537	3893.58
482.908	3950.31
483.279	4013.35
483.65	4078.89
484.021	4203.18
484.391	4185.1
484.762	4195.72
485.133	4239.56
485.503	4291.99
485.874	4379.22
486.244	4426.23
486.615	4488.82
486.985	4538.31
487.356	4643.39
487.726	4604.07
488.097	4727.46
488.467	4732.43
488.837	4837.51
489.207	4852.43
489.578	4921.58
489.948	4998.87
490.318	4997.96
490.688	5027.79
491.058	5119.09
491.428	5172.19
491.798	5199.99
492.168	5248.58
492.538	5261.01
492.908	5312.3
493.278	5390.04
493.648	5432.53
494.017	5468.46
494.387	5495.12
494.757	5513.88
495.126	5618.06
495.496	5652.63
495.866	5660.09
496.235	5712.75
496.605	5694.89
496.974	5735.34
497.344	5793.2
497.713	5861.44
498.082	5898.73
498.452	5921.33
498.821	5990.93
499.19	5884.27
499.559	5971.27
499.928	6003.13
500.298	6007.88
500.667	6101.89
501.036	6064.83
501.405	6086.29
501.774	6108.22
502.143	6169.23
502.512	6176.46
502.88	6246.74
503.249	6204.71
503.618	6290.81
503.987	6263.24
504.356	6354.54
504.724	6334.2
505.093	6344.14
505.462	6361.99
505.83	6428.66
506.199	6458.49
506.567	6479.28
506.936	6493.74
507.304	6517.47
507.672	6548.88
508.041	6508.88
508.409	6599.95
508.777	6627.3
509.145	6661.87
509.514	6674.98
509.882	6648.09
510.25	6718.59
510.618	6773.51
510.986	6782.55
511.354	6735.09
511.722	6848.76
512.09	6827.29
512.458	6877.01
512.826	6919.27
513.193	6907.97
513.561	6914.52
513.929	6931.47
514.297	7040.85
514.664	7064.57
515.032	6988.87
515.4	7026.16
515.767	7046.27
516.135	7115.65
516.502	7012.15
516.869	7140.96
517.237	7136.44
517.604	7184.12
517.972	7220.28
518.339	7155.87
518.706	7182.76
519.073	7251.69
519.44	7225.47
519.808	7244
520.175	7217.11
520.542	7307.05
520.909	7348.63
521.276	7288.3
521.643	7390.67
522.009	7388.41
522.376	7439.03
522.743	7429.54
523.11	7457.11
523.477	7497.11
523.843	7559.48
524.21	7560.38
524.577	7569.19
524.943	7606.03
525.31	7654.16
525.676	7708.17
526.043	7609.19
526.409	7662.3
526.776	7708.4
527.142	7686.93
527.508	7675.41
527.874	7803.54
528.241	7825.68
528.607	7727.61
528.973	7807.61
529.339	7817.55
529.705	7858.9
530.071	7910.43
530.437	7900.26
530.803	7834.5
531.169	7950.2
531.535	7924.21
531.901	7907.49
532.267	7926.47
532.632	7976.64
532.998	7886.93
533.364	7888.06
533.73	7935.06
534.095	7955.62
534.461	7990.88
534.826	8001.05
535.192	8000.37
535.557	7965.12
535.923	7981.61
536.288	7935.29
536.653	8015.96
537.019	7968.28
537.384	7996.75
537.749	8053.47
538.114	7981.61
538.479	7961.05
538.845	7987.26
539.21	7878.79
539.575	7946.13
539.94	7912.46
540.305	7967.6
540.67	7899.58
541.034	7935.06
541.399	8015.74
541.764	7961.05
542.129	7955.62
542.494	7906.13
542.858	7914.5
543.223	7977.77
543.587	7981.84
543.952	7973.25
544.316	7923.99
544.681	7945
545.045	7922.86
545.41	7927.15
545.774	7913.59
546.138	7894.38
546.503	7927.15
546.867	7834.27
547.231	7959.47
547.595	7904.1
547.959	7888.51
548.324	7900.26
548.688	7860.26
549.052	7863.88
549.416	7860.03
549.779	7814.61
550.143	7808.96
550.507	7918.79
550.871	7871.56
551.235	7857.55
551.599	7849.64
551.962	7876.98
552.326	7872.01
552.689	7847.38
553.053	7862.75
553.417	7841.28
553.78	7966.7
554.143	7800.6
554.507	7854.84
554.87	7850.54
555.234	7959.69
555.597	7811.45
555.96	7871.11
556.323	7886.93
556.686	7850.77
557.05	7855.06
557.413	7912.24
557.776	7907.72
558.139	7946.36
558.502	7926.25
558.865	7940.71
559.228	8034.94
559.59	8041.95
559.953	7954.72
560.316	7960.14
560.679	8021.61
561.041	8046.7
561.404	8086.24
561.767	8096.64
562.129	8045.34
562.492	8095.73
562.854	8045.11
563.217	8120.14
563.579	8136.41
563.941	8143.87
564.304	8214.15
564.666	8185.67
565.028	8175.96
565.39	8241.27
565.753	8302.73
566.115	8265.22
566.477	8315.39
566.839	8304.09
567.201	8337.08
567.563	8356.07
567.925	8372.34
568.287	8413.24
568.648	8426.12
569.01	8407.36
569.372	8474.93
569.734	8467.7
570.095	8506.12
570.457	8465.89
570.819	8493.46
571.18	8543.41
571.542	8563.97
571.903	8574.14
572.265	8585.66
572.626	8575.27
572.987	8590.18
573.349	8669.28
573.71	8659.33
574.071	8736.39
574.432	8662.5
574.794	8756.96
575.155	8761.03
575.516	8712.21
575.877	8770.07
576.238	8717.41
576.599	8828.37
576.96	8784.3
577.32	8815.49
577.681	8868.59
578.042	8862.04
578.403	8860.46
578.763	8888.93
579.124	8952.43
579.485	8908.82
579.845	8918.08
580.206	8986.78
580.566	8951.76
580.927	8955.15
581.287	8983.39
581.648	8941.81
582.008	9090.74
582.368	9025.88
582.728	9023.62
583.089	9021.58
583.449	9005.99
583.809	9095.03
584.169	9082.15
584.529	9091.87
584.889	9144.97
585.249	9123.05
585.609	9091.87
585.969	9154.69
586.329	9168.02
586.688	9152.43
587.048	9121.24
587.408	9139.32
587.768	9136.38
588.127	9128.47
588.487	9138.42
588.846	9244.63
589.206	9182.94
589.565	9211.18
589.925	9223.39
590.284	9229.26
590.643	9195.82
591.003	9208.02
591.362	9253.22
591.721	9285.31
592.08	9234.69
592.44	9288.02
592.799	9274.69
593.158	9271.07
593.517	9274.91
593.876	9276.04
594.235	9203.27
594.593	9282.59
594.952	9316.94
595.311	9235.82
595.67	9281.92
596.029	9350.84
596.387	9302.93
596.746	9318.98
597.104	9337.51
597.463	9313.78
597.822	9381.12
598.18	9281.92
598.538	9339.99
598.897	9346.32
599.255	9322.82
599.613	9452.53
599.972	9354.91
600.33	9411.41
600.688	9414.34
601.046	9412.08
601.404	9443.04
601.762	9462.48
602.12	9492.31
602.478	9442.14
602.836	9440.1
603.194	9474.68
603.552	9452.76
603.91	9390.16
604.268	9493.44
604.625	9402.82
604.983	9477.62
605.341	9396.49
605.698	9516.04
606.056	9528.01
606.413	9471.06
606.771	9514.45
607.128	9506.54
607.485	9424.06
607.843	9474.23
608.2	9476.94
608.557	9542.25
608.914	9532.76
609.272	9545.19
609.629	9605.07
609.986	9619.08
610.343	9553.77
610.7	9598.29
611.057	9603.94
611.414	9552.64
611.771	9585.19
612.127	9620.44
612.484	9651.17
612.841	9638.07
613.198	9626.31
613.554	9625.41
613.911	9671.06
614.267	9701.11
614.624	9711.74
614.98	9684.62
615.337	9741.79
615.693	9630.16
616.05	9709.48
616.406	9704.96
616.762	9752.41
617.118	9730.94
617.475	9672.19
617.831	9708.35
618.187	9779.31
618.543	9740.44
618.899	9775.01
619.255	9848.23
619.611	9779.31
619.967	9831.96
620.323	9836.7
620.678	9785.63
621.034	9827.21
621.39	9802.81
621.746	9738.63
622.101	9903.82
622.457	9767.55
622.812	9798.74
623.168	9815.91
623.523	9816.59
623.879	9876.48
624.234	9727.55
624.589	9797.61
624.945	9820.66
625.3	9825.18
625.655	9815.69
626.01	9784.28
626.365	9741.34
626.72	9804.39
627.075	9760.55
627.43	9786.54
627.785	9728.68
628.14	9855.01
628.495	9870.15
628.85	9739.76
629.205	9749.48
629.559	9770.27
629.914	9757.38
630.269	9738.63
630.623	9716.03
630.978	9753.77
631.332	9751.06
631.687	9749.02
632.041	9711.74
632.396	9687.1
632.75	9618.18
633.104	9683.04
633.459	9620.67
633.813	9666.99
634.167	9620.44
634.521	9572.3
634.875	9674.67
635.229	9661.79
635.583	9588.8
635.937	9594.9
636.291	9573.21
636.645	9555.36
636.999	9535.47
637.352	9608.01
637.706	9552.42
638.06	9537.5
638.413	9474.23
638.767	9518.07
639.121	9532.31
639.474	9466.54
639.828	9367.56
640.181	9451.86
640.534	9445.08
640.888	9403.04
641.241	9387.45
641.594	9447.11
641.947	9470.39
642.301	9391.07
642.654	9395.59
643.007	9393.1
643.36	9383.16
643.713	9357.4
644.066	9369.37
644.419	9338.19
644.771	9268.81
645.124	9213.9
645.477	9169.83
645.83	9073.56
646.182	9149.72
646.535	9035.37
646.888	9011.64
647.24	9008.7
647.593	9067.01
647.945	9010.96
648.298	8994.01
648.65	8995.82
649.002	9021.58
649.355	9067.23
649.707	9015.48
650.059	9052.54
650.411	9143.39
650.763	9129.83
651.115	9253.9
651.467	9244.86
651.819	9199.21
652.171	9192.43
652.523	9237.85
652.875	9170.96
653.227	9162.15
653.578	9250.96
653.93	9155.14
654.282	9184.29
654.633	9129.38
654.985	9167.34
655.337	9166.44
655.688	9146.33
656.039	9200.11
656.391	9161.24
656.742	9195.14
657.094	9184.07
657.445	9207.79
657.796	9118.31
658.147	9191.07
658.498	9192.65
658.849	9180.22
659.2	9166.67
659.551	9193.78
659.902	9220.68
660.253	9173.45
660.604	9153.56
660.955	9156.95
661.306	9174.58
661.656	9191.3
662.007	9234.23
662.358	9129.38
662.708	9172.32
663.059	9176.16
663.409	9135.03
663.76	9153.11
664.11	9189.72
664.461	9160.11
664.811	9201.92
665.161	9192.2
665.511	9190.85
665.862	9138.19
666.212	9203.27
666.562	9191.75
666.912	9135.25
667.262	9148.59
667.612	9168.02
667.962	9193.56
668.312	9158.3
668.662	9122.6
669.011	9167.57
669.361	9147.23
669.711	9156.5
670.06	9072.43
670.41	9092.32
670.76	9038.76
671.109	9074.92
671.459	9073.56
671.808	9109.04
672.157	9144.07
672.507	9071.08
672.856	9054.13
673.205	9088.7
673.554	9093.22
673.904	9122.83
674.253	9110.4
674.602	9071.3
674.951	8956.73
675.3	8955.15
675.649	9071.53
675.998	8985.88
676.346	9051.41
676.695	8999.44
677.044	8968.7
677.393	9017.29
677.741	9085.76
678.09	9001.25
678.438	8941.13
678.787	9018.87
679.135	8995.37
679.484	8921.25
679.832	8938.2
680.181	8867.46
680.529	8896.84
680.877	8854.36
681.225	8874.92
681.573	8843.28
681.922	8810.74
682.27	8773.46
682.618	8816.39
682.966	8765.77
683.314	8824.98
683.661	8736.85
684.009	8747.92
684.357	8730.97
684.705	8652.1
685.053	8677.19
685.4	8690.52
685.748	8654.81
686.095	8593.57
686.443	8629.5
686.79	8562.61
687.138	8593.35
687.485	8638.77
687.832	8535.95
688.18	8513.8
688.527	8484.2
688.874	8491.43
689.221	8424.54
689.568	8444.42
689.915	8420.02
690.262	8389.74
690.609	8420.47
690.956	8312.68
691.303	8360.59
691.65	8280.81
691.997	8284.2
692.344	8296.18
692.69	8292.56
693.037	8264.09
693.383	8106.58
693.73	8201.04
694.077	8146.81
694.423	8148.16
694.769	8117.2
695.116	8037.66
695.462	8063.19
695.808	7993.14
696.155	8061.84
696.501	7943.65
696.847	7960.82
697.193	7884.21
697.539	7886.47
697.885	7942.52
698.231	7792.01
698.577	7815.74
698.923	7772.8
699.269	7745.91
699.614	7729.64
699.96	7720.83
700.306	7710.21
700.651	7655.75
700.997	7653.94
701.342	7593.83
701.688	7626.37
702.033	7604.45
702.379	7597.44
702.724	7484
703.069	7525.8
703.415	7425.24
703.76	7472.7
704.105	7411.68
704.45	7430.21
704.795	7376.66
705.14	7340.73
705.485	7328.97
705.83	7266.83
706.175	7321.29
706.52	7287.39
706.865	7271.8
707.209	7272.03
707.554	7241.52
707.899	7297.56
708.243	7209.2
708.588	7167.85
708.932	7113.39
709.277	7117.23
709.621	7090.34
709.966	7088.3
710.31	7108.64
710.654	6980.73
710.998	7063.44
711.342	6972.15
711.687	6985.48
712.031	7013.73
712.375	6923.11
712.719	6975.31
713.063	6975.31
713.407	6973.5
713.75	6931.02
714.094	6935.99
714.438	6872.71
714.782	6913.39
715.125	6864.35
715.469	6885.82
715.812	6789.55
716.156	6853.28
716.499	6822.32
716.843	6832.26
717.186	6777.12
717.53	6796.56
717.873	6760.63
718.216	6779.38
718.559	6788.2
718.902	6706.39
719.246	6761.31
719.589	6707.75
719.932	6676.79
720.275	6637.92
720.617	6719.5
720.96	6652.38
721.303	6661.19
721.646	6698.26
721.989	6626.85
722.331	6627.75
722.674	6613.96
723.016	6668.88
723.359	6669.33
723.701	6623
724.044	6652.38
724.386	6539.84
724.729	6584.13
725.071	6579.39
725.413	6552.5
725.755	6591.59
726.097	6511.82
726.439	6505.27
726.782	6476.34
727.124	6533.29
727.465	6458.49
727.807	6536.45
728.149	6531.03
728.491	6472.27
728.833	6489.67
729.175	6460.97
729.516	6507.3
729.858	6493.52
730.199	6436.34
730.541	6446.51
730.882	6479.05
731.224	6485.83
731.565	6416
731.906	6429.11
732.248	6420.3
732.589	6427.75
732.93	6382.33
733.271	6403.35
733.612	6440.86
733.953	6437.25
734.294	6407.19
734.635	6375.78
734.976	6392.95
735.317	6412.16
735.658	6421.65
735.999	6412.39
736.339	6405.61
736.68	6467.3
737.021	6413.74
737.361	6444.03
737.702	6501.88
738.042	6426.4
738.383	6413.97
738.723	6458.04
739.063	6420.98
739.404	6406.51
739.744	6391.82
740.084	6422.56
740.424	6424.59
740.764	6425.04
741.104	6463.69
741.444	6466.62
741.784	6459.84
742.124	6491.26
742.464	6418.94
742.804	6472.73
743.143	6519.96
743.483	6492.61
743.823	6444.48
744.162	6460.07
744.502	6554.98
744.841	6517.92
745.181	6567.86
745.52	6592.5
745.86	6589.56
746.199	6640.4
746.538	6683.79
746.877	6712.04
747.216	6722.44
747.556	6716.11
747.895	6690.57
748.234	6714.3
748.573	6802.21
748.911	6836.56
749.25	6855.54
749.589	6810.34
749.928	6924.46
750.267	6927.18
750.605	7039.26
750.944	6968.98
751.283	7067.29
751.621	7119.26
751.96	7141.63
752.298	7199.26
752.636	7244
752.975	7263.66
753.313	7325.36
753.651	7400.38
753.989	7533.04
754.327	7559.25
754.666	7558.12
755.004	7658.46
755.342	7764.67
755.679	7792.46
756.017	7860.49
756.355	7947.49
756.693	8001.95
757.031	8146.81
757.368	8159.69
757.706	8252.34
758.044	8307.93
758.381	8434.93
758.719	8513.35
759.056	8551.77
759.394	8700.46
759.731	8729.39
760.068	8802.61
760.405	8883.96
760.743	8954.02
761.08	9127.57
761.417	9187.23
761.754	9262.48
762.091	9391.07
762.428	9425.19
762.765	9512.42
763.102	9646.65
763.438	9677.16
763.775	9741.57
764.112	9808.46
764.449	9955.35
764.785	10026.76
765.122	10097.04
765.458	10160.54
765.795	10213.64
766.131	10288.44
766.467	10391.49
766.804	10516.69
767.14	10462.22
767.476	10570.24
767.812	10624.03
768.148	10712.16
768.485	10733.86
768.821	10748.32
769.157	10847.07
769.492	10896.11
769.828	10913.96
770.164	11027.63
770.5	11006.17
770.836	11080.29
771.171	11053.85
771.507	11191.25
771.842	11106.5
772.178	11231.02
772.513	11275.99
772.849	11356.21
773.184	11264.69
773.519	11421.07
773.855	11375.65
774.19	11391.69
774.525	11412.48
774.86	11469.43
775.195	11528.64
775.53	11451.58
775.865	11468.75
776.2	11498.58
776.535	11450.9
776.87	11529.32
777.205	11532.25
777.539	11476.66
777.874	11607.73
778.209	11519.82
778.543	11548.3
778.878	11562.53
779.212	11598.01
779.547	11468.75
779.881	11615.41
780.215	11610.9
780.55	11570.67
780.884	11517.56
781.218	11462.42
781.552	11556.89
781.886	11550.11
782.22	11534.51
782.554	11497.23
782.888	11421.07
783.222	11495.19
783.556	11429.21
783.889	11427.85
784.223	11327.74
784.557	11323.9
784.89	11443.89
785.224	11290.9
785.557	11268.31
785.891	11243
786.224	11342.65
786.558	11212.04
786.891	11212.94
787.224	11233.28
787.557	11174.3
787.891	11174.3
788.224	11134.52
788.557	11216.33
788.89	11161.19
789.223	11181.75
789.556	11075.32
789.888	11101.3
790.221	10966.84
790.554	10960.29
790.887	10975.88
791.219	10963
791.552	10904.93
791.884	10879.39
792.217	10828.99
792.549	10892.27
792.882	10877.13
793.214	10756.68
793.546	10831.71
793.879	10733.63
794.211	10713.29
794.543	10745.16
794.875	10599.85
795.207	10736.34
795.539	10679.85
795.871	10668.32
796.203	10648.89
796.535	10523.01
796.867	10516.91
797.198	10494.09
797.53	10506.29
797.862	10485.05
798.193	10429.01
798.525	10411.38
798.856	10468.33
799.188	10352.17
799.519	10281.66
799.85	10271.5
800.182	10285.05
800.513	10315.34
800.844	10141.33
801.175	10270.82
801.506	10208.22
801.837	10175.45
802.168	10145.4
802.499	10138.17
802.83	10031.73
803.161	10059.3
803.491	10065.17
803.822	10139.52
804.153	9979.98
804.483	9951.28
804.814	9921.67
805.145	9916.93
805.475	9948.34
805.805	9899.53
806.136	9951.96
806.466	9899.53
806.796	9840.32
807.126	9723.49
807.457	9825.18
807.787	9832.86
808.117	9743.15
808.447	9657.5
808.777	9720.1
809.107	9635.81
809.436	9632.19
809.766	9668.57
810.096	9610.72
810.426	9578.41
810.755	9589.25
811.085	9531.4
811.414	9559.42
811.744	9429.03
812.073	9473.78
812.403	9454.12
812.732	9438.75
813.061	9432.65
813.39	9398.98
813.719	9401.01
814.049	9416.38
814.378	9347
814.707	9321.24
815.036	9366.89
815.365	9286.89
815.693	9227
816.022	9266.1
816.351	9209.15
816.68	9167.34
817.008	9156.5
817.337	9083.5
817.665	9136.61
817.994	9128.7
818.322	9099.32
818.651	9065.65
818.979	9047.8
819.307	9125.54
819.636	9062.94
819.964	9018.87
820.292	9038.08
820.62	9005.09
820.948	9051.41
821.276	9049.38
821.604	8958.54
821.932	8963.73
822.259	8987.24
822.587	8968.03
822.915	8950.63
823.243	9010.06
823.57	8913.34
823.898	9020.91
824.225	8916.73
824.553	8911.98
824.88	8968.03
825.207	8928.93
825.535	8950.4
825.862	8952.21
826.189	8913.34
826.516	8998.31
826.843	9013.68
827.17	8987.01
827.497	9000.79
827.824	8961.7
828.151	9030.85
828.478	9015.03
828.805	9077.85
829.131	8999.66
829.458	8991.3
829.785	8986.11
830.111	8970.29
830.438	9009.83
830.764	8961.25
831.09	9009.83
831.417	8996.73
831.743	8942.26
832.069	8957.18
832.395	8857.3
832.722	8987.46
833.048	8934.13
833.374	8939.78
833.7	8948.14
834.026	8943.17
834.351	8918.76
834.677	8881.48
835.003	8930.51
835.329	8886.22
835.654	8862.04
835.98	8812.1
836.306	8906.56
836.631	8884.64
836.956	8912.89
837.282	8876.73
837.607	8807.13
837.932	8829.27
838.258	8864.3
838.583	8872.21
838.908	8868.59
839.233	8827.24
839.558	8806.9
839.883	8739.33
840.208	8771.42
840.533	8707.92
840.858	8694.59
841.182	8734.36
841.507	8772.55
841.832	8671.31
842.156	8679.67
842.481	8621.82
842.805	8652.1
843.13	8563.07
843.454	8497.98
843.778	8589.73
844.103	8517.42
844.427	8504.76
844.751	8557.42
845.075	8508.38
845.399	8452.56
845.723	8461.83
846.047	8473.58
846.371	8375.05
846.695	8387.48
847.019	8305.9
847.343	8254.15
847.666	8258.89
847.99	8187.93
848.313	8231.32
848.637	8187.03
848.96	8179.12
849.284	8178.9
849.607	8074.27
849.931	8013.7
850.254	8006.7
850.577	7982.29
850.9	7934.38
851.223	7961.5
851.546	7834.95
851.869	7869.98
852.192	7803.76
852.515	7777.32
852.838	7721.28
853.161	7826.81
853.483	7695.52
853.806	7650.32
854.129	7670.43
854.451	7634.5
854.774	7608.74
855.096	7595.86
855.419	7573.49
855.741	7543.88
856.063	7489.87
856.385	7522.19
856.708	7465.92
857.03	7464.79
857.352	7461.17
857.674	7379.14
857.996	7345.7
858.318	7320.61
858.64	7326.49
858.961	7296.43
859.283	7321.52
859.605	7281.07
859.926	7244.23
860.248	7218.02
860.57	7229.77
860.891	7237.45
861.212	7183.67
861.534	7153.39
861.855	7127.17
862.176	7168.3
862.498	7159.71
862.819	7098.92
863.14	7085.36
863.461	7107.51
863.782	7046.5
864.103	7079.49
864.424	7133.95
864.745	7028.19
865.065	7028.87
865.386	7050.34
865.707	6949.77
866.027	7053.05
866.348	6968.53
866.668	7084.91
866.989	6994.97
867.309	6949.1
867.63	6984.12
867.95	6966.72
868.27	6881.75
868.59	6954.52
868.91	6865.48
869.23	6867.74
869.55	6855.54
869.87	6863.45
870.19	6894.64
870.51	6880.17
870.83	6889.44
871.15	6795.88
871.469	6819.61
871.789	6810.12
872.109	6807.63
872.428	6763.79
872.748	6764.92
873.067	6743.68
873.386	6747.52
873.706	6728.54
874.025	6702.1
874.344	6651.7
874.663	6728.99
874.982	6700.29
875.301	6678.82
875.62	6650.12
875.939	6625.49
876.258	6664.36
876.577	6602.44
876.896	6619.84
877.214	6628.43
877.533	6613.06
877.852	6601.76
878.17	6581.42
878.489	6553.63
878.807	6591.82
879.125	6606.06
879.444	6515.44
879.762	6567.64
880.08	6577.36
880.398	6489.45
880.716	6542.1
881.034	6484.02
881.352	6574.87
881.67	6477.7
881.988	6457.81
882.306	6491.71
882.624	6373.52
882.941	6433.63
883.259	6411.26
883.577	6346.4
883.894	6372.16
884.212	6342.79
884.529	6401.99
884.846	6382.33
885.164	6337.14
885.481	6289.45
885.798	6294.2
886.115	6280.87
886.432	6293.07
886.75	6211.72
887.067	6282.22
887.383	6187.31
887.7	6213.98
888.017	6228.89
888.334	6216.91
888.651	6128.1
888.967	6152.73
889.284	6159.06
889.6	6142.56
889.917	6066.18
890.233	6115.22
890.55	6060.98
890.866	6096.24
891.182	6064.83
891.498	5980.53
891.815	6031.38
892.131	5994.77
892.447	6002.68
892.763	5922.68
893.079	5890.82
893.395	5899.63
893.71	5915.68
894.026	5934.43
894.342	5915.45
894.657	5831.39
894.973	5833.19
895.289	5793.2
895.604	5871.61
895.92	5751.16
896.235	5751.39
896.55	5752.74
896.865	5741.67
897.181	5707.55
897.496	5724.5
897.811	5685.18
898.126	5677.49
898.441	5646.53
898.756	5574.44
899.071	5551.17
899.386	5606.31
899.7	5552.3
900.015	5542.13
900.33	5514.11
900.644	5460.55
900.959	5503.49
901.273	5460.77
901.588	5424.39
901.902	5413.32
902.216	5382.36
902.531	5418.74
902.845	5389.59
903.159	5354.34
903.473	5359.08
903.787	5283.15
904.101	5261.91
904.415	5252.64
904.729	5257.84
905.042	5215.13
905.356	5212.42
905.67	5176.49
905.984	5196.15
906.297	5204.06
906.611	5156.6
906.924	5117.28
907.237	5080.67
907.551	5095.13
907.864	5113.89
908.177	5028.7
908.491	5036.83
908.804	4949.83
909.117	5035.25
909.43	4936.72
909.743	4975.59
910.056	4935.59
910.368	4938.3
910.681	4901.47
910.994	4873.9
911.307	4856.72
911.619	4815.37
911.932	4830.06
912.244	4865.99
912.557	4773.33
912.869	4825.76
913.181	4779.44
913.494	4741.25
913.806	4736.5
914.118	4714.58
914.43	4656.28
914.742	4667.8
915.054	4646.78
915.366	4621.02
915.678	4585.32
915.99	4573.34
916.302	4572.89
916.613	4581.25
916.925	4553
917.236	4511.87
917.548	4473.68
917.859	4503.74
918.171	4508.71
918.482	4444.08
918.794	4424.42
919.105	4448.15
919.416	4421.25
919.727	4420.58
920.038	4366.79
920.349	4353.46
920.66	4321.14
920.971	4296.74
921.282	4308.71
921.593	4269.85
921.903	4243.63
922.214	4245.89
922.525	4247.47
922.835	4245.21
923.146	4181.03
923.456	4183.97
923.767	4176.74
924.077	4169.06
924.387	4129.28
924.697	4109.85
925.008	4078.21
925.318	4090.19
925.628	4055.84
925.938	4040.7
926.248	4044.09
926.558	3998.44
926.867	4022.17
927.177	3977.42
927.487	3915.96
927.796	3949.85
928.106	3956.63
928.416	3902.62
928.725	3896.3
929.034	3916.41
929.344	3936.52
929.653	3857.43
929.962	3841.61
930.271	3771.1
930.581	3776.52
930.89	3784.21
931.199	3775.4
931.508	3804.77
931.817	3761.38
932.125	3748.96
932.434	3720.93
932.743	3695.4
933.051	3689.52
933.36	3690.43
933.669	3670.54
933.977	3640.48
934.286	3627.83
934.594	3610.43
934.902	3576.53
935.21	3615.63
935.519	3589.41
935.827	3580.6
936.135	3560.26
936.443	3507.83
936.751	3494.95
937.059	3482.52
937.367	3532.24
937.674	3492.92
937.982	3456.99
938.29	3459.25
938.597	3447.95
938.905	3408.63
939.213	3438.91
939.52	3371.79
939.827	3400.94
940.135	3411.34
940.442	3361.39
940.749	3358.91
941.056	3374.28
941.363	3295.86
941.67	3319.14
941.977	3263.32
942.284	3283.88
942.591	3256.99
942.898	3226.93
943.205	3224.68
943.511	3206.14
943.818	3234.39
944.125	3225.35
944.431	3193.49
944.738	3152.81
945.044	3187.16
945.35	3134.28
945.657	3139.03
945.963	3125.92
946.269	3096.32
946.575	3101.51
946.881	3060.84
947.187	3055.41
947.493	3063.1
947.799	3031.01
948.105	3041.86
948.41	3034.62
948.716	2983.78
949.022	3015.42
949.327	2959.82
949.633	2985.13
949.938	2941.07
950.244	2992.36
950.549	2915.98
950.854	2934.51
951.16	2893.16
951.465	2890.22
951.77	2893.84
952.075	2876.44
952.38	2864.01
952.685	2836.44
952.99	2847.51
953.294	2877.79
953.599	2820.39
953.904	2768.64
954.209	2796.89
954.513	2770.22
954.818	2782.43
955.122	2768.87
955.426	2755.08
955.731	2743.33
956.035	2716.67
956.339	2713.28
956.643	2703.11
956.948	2691.58
957.252	2661.3
957.556	2698.59
957.86	2664.69
958.163	2659.04
958.467	2634.18
958.771	2613.39
959.075	2632.83
959.378	2608.87
959.682	2586.73
959.985	2541.3
960.289	2554.86
960.592	2570.68
960.896	2575.43
961.199	2554.18
961.502	2539.95
961.805	2525.71
962.108	2497.01
962.411	2492.04
962.714	2454.98
963.017	2481.64
963.32	2467.41
963.623	2476.67
963.926	2446.62
964.228	2452.94
964.531	2435.54
964.833	2429.89
965.136	2432.83
965.438	2419.27
965.741	2429.89
966.043	2416.79
966.345	2388.31
966.648	2336.56
966.95	2329.78
967.252	2332.95
967.554	2295.43
967.856	2327.52
968.158	2310.57
968.46	2285.72
968.761	2321.65
969.063	2278.94
969.365	2296.79
969.666	2296.56
969.968	2227.19
970.269	2245.94
970.571	2271.48
970.872	2253.18
971.174	2242.33
971.475	2202.1
971.776	2205.94
972.077	2188.09
972.378	2185.83
972.679	2202.33
972.98	2190.13
973.281	2180.63
973.582	2158.94
973.883	2121.43
974.183	2150.58
974.484	2147.42
974.785	2125.95
975.085	2078.94
975.386	2112.61
975.686	2099.05
975.986	2110.58
976.287	2083.91
976.587	2050.92
976.887	2054.99
977.187	2063.58
977.487	2072.16
977.787	2014.99
978.087	2008.44
978.387	2010.7
978.687	2032.16
978.987	1992.39
979.286	2000.07
979.586	2001.2
979.885	1989
980.185	1976.57
980.484	1938.61
980.784	2007.98
981.083	1950.13
981.382	1920.98
981.682	1958.72
981.981	1958.04
982.28	1922.56
982.579	1920.53
982.878	1909.91
983.177	1889.57
983.475	1895.67
983.774	1881.21
984.073	1862.68
984.372	1848.44
984.67	1832.4
984.969	1875.33
985.267	1854.99
985.566	1838.5
985.864	1831.72
986.162	1835.33
986.461	1790.59
986.759	1803.02
987.057	1798.72
987.355	1791.27
987.653	1791.49
987.951	1744.26
988.249	1767.31
988.547	1752.62
988.844	1752.17
989.142	1774.77
989.44	1722.34
989.737	1733.41
990.035	1694.09
990.332	1691.16
990.63	1714.66
990.927	1666.75
991.224	1695
991.521	1705.84
991.819	1686.18
992.116	1676.69
992.413	1662.68
992.71	1641.44
993.006	1650.71
993.303	1655
993.6	1633.98
993.897	1645.06
994.193	1632.85
994.49	1608.45
994.787	1602.8
995.083	1596.02
995.379	1589.01
995.676	1589.01
995.972	1582.46
996.268	1538.39
996.565	1554.66
996.861	1542.23
997.157	1564.61
997.453	1542.01
997.749	1532.06
998.044	1500.43
998.34	1513.76
998.636	1510.82
998.932	1507.21
999.227	1512.4
999.523	1487.77
999.818	1472.63
1000.114	1473.31
1000.409	1470.14
1000.704	1472.63
1001	1456.13
1001.295	1448.45
1001.59	1413.2
1001.885	1422.01
1002.18	1434.89
1002.475	1421.11
1002.77	1421.56
1003.065	1411.62
1003.359	1382.24
1003.654	1379.98
1003.949	1384.5
1004.243	1371.16
1004.538	1361
1004.832	1375.68
1005.127	1380.43
1005.421	1356.93
1005.715	1345.18
1006.009	1361.9
1006.304	1328.68
1006.598	1334.56
1006.892	1322.13
1007.186	1314.44
1007.48	1288.23
1007.773	1307.66
1008.067	1297.04
1008.361	1293.88
1008.655	1277.38
1008.948	1279.87
1009.242	1286.87
1009.535	1261.34
1009.829	1230.83
1010.122	1255.24
1010.415	1230.38
1010.708	1228.8
1011.001	1220.89
1011.295	1220.21
1011.588	1222.92
1011.881	1202.36
1012.173	1194.9
1012.466	1197.84
1012.759	1207.1
1013.052	1183.15
1013.344	1181.11
1013.637	1188.12
1013.93	1158.29
1014.222	1146.31
1014.514	1137.95
1014.807	1126.2
1015.099	1154.45
1015.391	1134.56
1015.683	1123.94
1015.976	1116.71
1016.268	1110.38
1016.56	1124.17
1016.851	1105.41
1017.143	1093.21
1017.435	1069.48
1017.727	1084.17
1018.018	1081.23
1018.31	1059.99
1018.602	1049.59
1018.893	1054.34
1019.185	1052.98
1019.476	1027.44
1019.767	1036.03
1020.058	1031.51
1020.35	1041.91
1020.641	1034.68
1020.932	1002.59
1021.223	1024.73
1021.514	1013.43
1021.804	1006.88
1022.095	1013.43
1022.386	989.25
1022.677	991.06
1022.967	989.71
1023.258	981.34
1023.548	961.91
1023.839	986.32
1024.129	951.06
1024.419	977.95
1024.709	955.58
1025	963.94
1025.29	933.21
1025.58	908.35
1025.87	950.16
1026.16	927.79
1026.449	953.1
1026.739	909.03
1027.029	899.54
1027.319	932.08
1027.608	892.31
1027.898	875.13
1028.187	874.91
1028.477	864.29
1028.766	893.44
1029.055	867.9
1029.344	888.92
1029.634	843.72
1029.923	855.92
1030.212	842.82
1030.501	834
1030.79	835.59
1031.078	842.59
1031.367	846.88
1031.656	843.95
1031.945	815.25
1032.233	803.5
1032.522	830.39
1032.81	800.56
1033.099	798.3
1033.387	817.51
1033.675	794.91
1033.963	785.64
1034.251	823.16
1034.54	788.58
1034.828	779.77
1035.116	762.82
1035.403	761.46
1035.691	777.28
1035.979	784.29
1036.267	763.27
1036.554	765.3
1036.842	740.67
1037.129	747.68
1037.417	756.49
1037.704	743.38
1037.992	735.7
1038.279	723.05
1038.566	714.68
1038.853	714.68
1039.14	714.68
