Data from hue_28_FLMS001491_00041.txt Node
Date: Tue Feb 07 17:17:19 GMT 2017
User: dcchb
Spectrometer: FLMS00149
Trigger mode: 0
Integration Time (sec): 2.000000E-2
Scans to average: 10
Electric dark correction enabled: true
Nonlinearity correction enabled: false
Boxcar width: 0
XAxis mode: Wavelengths
Number of Pixels in Spectrum: 2048
>>>>>Begin Spectral Data<<<<<
341.393	-28.12
341.776	-28.12
342.16	-28.12
342.543	-46.2
342.927	-61.34
343.31	-59.53
343.693	-85.97
344.077	-62.47
344.46	-56.59
344.843	-55.69
345.226	-44.39
345.61	-23.38
345.993	-21.34
346.376	4.42
346.759	28.37
347.142	17.75
347.525	39.9
347.908	53.01
348.291	69.05
348.674	76.51
349.057	120.35
349.44	126.9
349.823	140.24
350.206	163.96
350.588	195.83
350.971	218.88
351.354	229.73
351.737	242.83
352.119	245.09
352.502	279.22
352.884	272.89
353.267	281.25
353.65	283.96
354.032	301.36
354.414	290.74
354.797	325.54
355.179	328.03
355.562	312.66
355.944	310.4
356.326	331.64
356.709	343.39
357.091	335.94
357.473	352.21
357.855	352.21
358.238	349.95
358.62	359.21
359.002	351.98
359.384	367.58
359.766	356.5
360.148	322.38
360.53	350.85
360.912	349.72
361.294	324.41
361.676	349.5
362.057	347.01
362.439	314.24
362.821	322.83
363.203	327.8
363.584	341.81
363.966	342.49
364.348	320.8
364.729	315.15
365.111	313.79
365.493	335.71
365.874	326.22
366.256	308.59
366.637	322.38
367.019	320.8
367.4	301.36
367.781	340.46
368.163	318.76
368.544	332.55
368.925	326.45
369.306	321.93
369.688	296.84
370.069	319.67
370.45	288.48
370.831	333.45
371.212	311.53
371.593	298.65
371.974	316.05
372.355	296.39
372.736	315.37
373.117	340.91
373.498	333.45
373.879	326.9
374.26	311.76
374.641	329.84
375.021	299.55
375.402	315.15
375.783	319.67
376.163	353.11
376.544	314.02
376.925	328.71
377.305	327.35
377.686	322.83
378.066	341.81
378.447	318.76
378.827	349.04
379.208	335.03
379.588	325.99
379.968	332.1
380.349	330.74
380.729	345.2
381.109	343.62
381.489	344.98
381.87	361.7
382.25	314.02
382.63	334.81
383.01	364.86
383.39	343.85
383.77	342.49
384.15	315.83
384.53	359.21
384.91	332.55
385.29	360.34
385.67	329.61
386.049	333.45
386.429	348.59
386.809	349.04
387.189	359.89
387.568	355.82
387.948	376.16
388.328	358.76
388.707	368.7
389.087	365.09
389.466	373.68
389.846	358.31
390.225	356.95
390.605	356.95
390.984	375.48
391.363	383.39
391.743	383.85
392.122	358.99
392.501	372.32
392.881	368.48
393.26	367.58
393.639	388.14
394.018	396.73
394.397	383.39
394.776	366.67
395.155	383.85
395.534	374.58
395.913	383.39
396.292	401.47
396.671	394.02
397.05	396.27
397.429	406.22
397.808	381.13
398.186	377.97
398.565	410.51
398.944	410.06
399.323	404.64
399.701	400.79
400.08	384.52
400.458	387.69
400.837	386.78
401.215	411.87
401.594	426.78
401.972	411.42
402.351	405.77
402.729	404.18
403.107	418.42
403.486	404.41
403.864	418.87
404.242	431.3
404.62	428.59
404.999	414.58
405.377	428.82
405.755	412.09
406.133	420.23
406.511	434.69
406.889	413
407.267	425.43
407.645	415.94
408.023	426.56
408.401	435.6
408.779	447.8
409.156	446.67
409.534	455.03
409.912	447.35
410.29	464.07
410.667	441.02
411.045	454.8
411.422	447.8
411.8	462.94
412.178	465.43
412.555	462.26
412.933	475.37
413.31	507.91
413.687	480.79
414.065	511.98
414.442	506.55
414.819	502.26
415.197	489.15
415.574	500.23
415.951	482.6
416.328	504.97
416.705	493.9
417.082	484.41
417.46	505.65
417.837	495.03
418.214	505.88
418.591	524.63
418.967	503.16
419.344	521.47
419.721	528.47
420.098	510.62
420.475	501.58
420.852	516.72
421.228	522.37
421.605	514.01
421.982	537.06
422.358	547.46
422.735	540.23
423.111	515.14
423.488	533.22
423.864	551.07
424.241	558.08
424.617	547.91
424.994	558.3
425.37	576.38
425.746	567.12
426.123	556.27
426.499	558.08
426.875	575.48
427.251	593.56
427.627	591.52
428.003	617.29
428.379	609.15
428.756	601.69
429.132	627.91
429.507	605.31
429.883	599.21
430.259	611.64
430.635	628.13
431.011	636.95
431.387	625.87
431.763	651.18
432.138	625.2
432.514	660
432.89	634.01
433.265	660
433.641	621.35
434.016	676.49
434.392	657.51
434.767	671.97
435.143	685.08
435.518	697.28
435.894	665.42
436.269	678.3
436.644	700
437.02	694.12
437.395	696.38
437.77	714.01
438.145	715.81
438.52	708.81
438.895	729.83
439.271	737.51
439.646	745.19
440.021	752.2
440.395	745.87
440.77	750.62
441.145	739.54
441.52	731.86
441.895	755.14
442.27	756.27
442.645	783.61
443.019	776.15
443.394	774.34
443.769	773.89
444.143	787.68
444.518	769.82
444.892	785.19
445.267	770.5
445.641	817.28
446.016	811.41
446.39	794.23
446.764	800.78
447.139	797.39
447.513	804.63
447.887	816.6
448.262	821.57
448.636	828.35
449.01	852.99
449.384	848.01
449.758	843.95
450.132	851.63
450.506	843.49
450.88	852.31
451.254	850.95
451.628	871.52
452.002	879.43
452.376	886.66
452.75	883.72
453.123	897.73
453.497	903.61
453.871	897.73
454.244	938.41
454.618	921.91
454.992	934.57
455.365	924.85
455.739	967.33
456.112	963.27
456.486	1000.55
456.859	988.35
457.232	968.92
457.606	980.67
457.979	1027.22
458.352	1002.59
458.725	1036.94
459.099	1026.31
459.472	1059.76
459.845	1080.32
460.218	1083.49
460.591	1081.23
460.964	1088.46
461.337	1093.66
461.71	1111.74
462.083	1131.4
462.456	1144.96
462.829	1140.66
463.201	1170.94
463.574	1154.45
463.947	1166.42
464.32	1189.47
464.692	1191.28
465.065	1194.45
465.438	1208.46
465.81	1275.12
466.183	1222.69
466.555	1271.73
466.928	1249.59
467.3	1271.96
467.672	1308.34
468.045	1326.19
468.417	1334.1
468.789	1364.84
469.161	1361.9
469.534	1397.83
469.906	1416.81
470.278	1410.71
470.65	1454.78
471.022	1451.84
471.394	1486.42
471.766	1473.53
472.138	1528.22
472.51	1554.89
472.882	1576.36
473.253	1635.79
473.625	1626.3
473.997	1625.17
474.369	1665.39
474.74	1706.3
475.112	1705.62
475.484	1746.07
475.855	1754.21
476.227	1803.24
476.598	1857.03
476.97	1878.95
477.341	1885.28
477.713	1933.18
478.084	1990.13
478.455	2026.29
478.827	2029
479.198	2091.6
479.569	2099.28
479.94	2166.17
480.311	2196.23
480.682	2232.16
481.053	2298.15
481.424	2359.39
481.795	2382.44
482.166	2434.87
482.537	2485.26
482.908	2504.47
483.279	2587.63
483.65	2593.73
484.021	2681.19
484.391	2714.63
484.762	2742.43
485.133	2799.15
485.503	2841.41
485.874	2915.98
486.244	2974.51
486.615	3032.82
486.985	3053.61
487.356	3140.16
487.726	3188.52
488.097	3251.34
488.467	3267.16
488.837	3343.32
489.207	3382.64
489.578	3516.42
489.948	3489.98
490.318	3582.18
490.688	3571.33
491.058	3675.06
491.428	3735.62
491.798	3754.6
492.168	3807.03
492.538	3907.37
492.908	3940.81
493.278	4019.46
493.648	4042.73
494.017	4115.73
494.387	4149.17
494.757	4219
495.126	4232.56
495.496	4268.72
495.866	4324.76
496.235	4382.16
496.605	4405.44
496.974	4447.24
497.344	4510.52
497.713	4554.36
498.082	4590.97
498.452	4607.24
498.821	4645.2
499.19	4688.59
499.559	4792.54
499.928	4761.36
500.298	4829.83
500.667	4879.09
501.036	4892.65
501.405	4864.63
501.774	4921.81
502.143	4977.17
502.512	4991.63
502.88	5056.27
503.249	5039.77
503.618	5085.42
503.987	5129.48
504.356	5202.25
504.724	5145.98
505.093	5216.71
505.462	5258.29
505.83	5283.38
506.199	5388.01
506.567	5373.09
506.936	5432.3
507.304	5466.2
507.672	5447.67
508.041	5470.72
508.409	5556.82
508.777	5589.81
509.145	5607.44
509.514	5624.39
509.882	5681.56
510.25	5646.08
510.618	5697.15
510.986	5728.56
511.354	5816.7
511.722	5829.8
512.09	5883.81
512.458	5841.1
512.826	5918.16
513.193	5916.36
513.561	5945.28
513.929	5976.02
514.297	6041.55
514.664	6021.66
515.032	6108.22
515.4	6127.42
515.767	6110.7
516.135	6164.48
516.502	6112.73
516.869	6249.68
517.237	6259.17
517.604	6256.01
517.972	6273.41
518.339	6362.22
518.706	6329.45
519.073	6322.67
519.44	6441.31
519.808	6425.49
520.175	6434.99
520.542	6483.57
520.909	6534.42
521.276	6567.64
521.643	6616.22
522.009	6630.91
522.376	6675.21
522.743	6654.42
523.11	6754.53
523.477	6717.24
523.843	6797.24
524.21	6908.65
524.577	6883.79
524.943	6969.66
525.31	7019.38
525.676	7086.95
526.043	6995.42
526.409	7084.23
526.776	7167.17
527.142	7168.75
527.508	7220.73
527.874	7235.87
528.241	7319.93
528.607	7325.81
528.973	7387.5
529.339	7420.72
529.705	7448.29
530.071	7527.39
530.437	7526.26
530.803	7540.95
531.169	7592.92
531.535	7692.13
531.901	7623.88
532.267	7650.1
532.632	7722.64
532.998	7792.24
533.364	7814.16
533.73	7898.9
534.095	7888.73
534.461	7855.06
534.826	8034.04
535.192	7981.61
535.557	7998.56
535.923	8022.06
536.288	8127.15
536.653	8116.75
537.019	8086.47
537.384	8215.5
537.749	8171.21
538.114	8248.27
538.479	8273.58
538.845	8288.27
539.21	8328.04
539.575	8375.5
539.94	8401.04
540.305	8448.04
540.67	8413.24
541.034	8529.39
541.399	8524.65
541.764	8498.43
542.129	8561.94
542.494	8617.08
542.858	8626.79
543.223	8725.1
543.587	8749.95
543.952	8743.17
544.316	8794.92
544.681	8673.57
545.045	8795.15
545.41	8874.24
545.774	8898.65
546.138	8877.18
546.503	8970.06
546.867	8973
547.231	9049.15
547.595	9072.2
547.959	9058.19
548.324	9152.65
548.688	9182.03
549.052	9218.42
549.416	9257.06
549.779	9253.9
550.143	9252.31
550.507	9391.74
550.871	9366.21
551.235	9361.24
551.599	9391.97
551.962	9469.93
552.326	9466.32
552.689	9518.97
553.053	9518.52
553.417	9506.09
553.78	9704.28
554.143	9704.96
554.507	9705.63
554.87	9699.99
555.234	9817.5
555.597	9707.89
555.96	9841.45
556.323	9842.58
556.686	9843.48
557.05	9868.57
557.413	9961
557.776	9898.62
558.139	9970.49
558.502	10027.43
558.865	10000.54
559.228	10109.24
559.59	10147.88
559.953	10255.9
560.316	10229.69
560.679	10243.93
561.041	10267.65
561.404	10379.52
561.767	10444.6
562.129	10351.27
562.492	10439.4
562.854	10443.47
563.217	10536.35
563.579	10537.7
563.941	10593.29
564.304	10588.55
564.666	10766.85
565.028	10711.26
565.39	10755.1
565.753	10799.39
566.115	10853.85
566.477	10816.11
566.839	10869.22
567.201	10984.7
567.563	10971.82
567.925	11034.41
568.287	11123.68
568.648	11108.31
569.01	11132.94
569.372	11198.25
569.734	11164.58
570.095	11287.51
570.457	11327.51
570.819	11264.69
571.18	11361.86
571.542	11501.07
571.903	11453.16
572.265	11510.56
572.626	11616.54
572.987	11662.65
573.349	11761.4
573.71	11791.46
574.071	11819.7
574.432	11939.25
574.794	12010.43
575.155	12044.33
575.516	12073.26
575.877	12221.95
576.238	12268.96
576.599	12389.86
576.96	12390.31
577.32	12448.16
577.681	12576.75
578.042	12681.83
578.403	12743.29
578.763	12806.34
579.124	12942.84
579.485	13026.68
579.845	13183.51
580.206	13310.06
580.566	13391.19
580.927	13526.78
581.287	13709.6
581.648	13831.63
582.008	13915.47
582.368	14040.21
582.728	14231.39
583.089	14359.52
583.449	14521.1
583.809	14659.18
584.169	14913.18
584.529	14982.56
584.889	15335.54
585.249	15417.35
585.609	15679.94
585.969	15908.86
586.329	16031.34
586.688	16237.89
587.048	16487.6
587.408	16715.17
587.768	16967.14
588.127	17239.67
588.487	17323.29
588.846	17745.42
589.206	17910.62
589.565	18091.63
589.925	18417.72
590.284	18784.04
590.643	18946.75
591.003	19231.03
591.362	19642.1
591.721	19851.13
592.08	20069.66
592.44	20414.51
592.799	20658.79
593.158	20965.23
593.517	21253.35
593.876	21492.22
594.235	21765.66
594.593	22240.67
594.952	22468.91
595.311	22571.74
595.67	22991.39
596.029	23490.58
596.387	23695.55
596.746	24012.6
597.104	24241.07
597.463	24556.77
597.822	24957.44
598.18	25114.27
598.538	25490.08
598.897	25846.45
599.255	25974.81
599.613	26508.81
599.972	26639.2
600.33	26967.55
600.688	27281.67
601.046	27431.5
601.404	27867.42
601.762	28050.91
602.12	28476.21
602.478	28767.51
602.836	29092.24
603.194	29096.09
603.552	29440.71
603.91	29628.5
604.268	30078.21
604.625	30230.52
604.983	30733.1
605.341	30699.21
605.698	31134.9
606.056	31387.32
606.413	31712.74
606.771	31876.8
607.128	32171.94
607.485	32246.96
607.843	32432.27
608.2	32763.33
608.557	33195.19
608.914	33267.95
609.272	33589.75
609.629	33856.86
609.986	34083.52
610.343	34105.67
610.7	34516.28
611.057	34659.33
611.414	34737.97
611.771	34913.33
612.127	35497.95
612.484	35389.25
612.841	35694.1
613.198	35848.22
613.554	35988.79
613.911	36229.91
614.267	36455.44
614.624	36488.89
614.98	36810.91
615.337	37102.88
615.693	37284.57
616.05	37254.97
616.406	37715.29
616.762	37698.57
617.118	37760.26
617.475	37859.92
617.831	38223.53
618.187	38283.64
618.543	38458.32
618.899	38784.19
619.255	38734.93
619.611	38864.42
619.967	39130.62
620.323	39241.13
620.678	39211.07
621.034	39165.65
621.39	39277.96
621.746	39419.88
622.101	39828.91
622.457	39630.5
622.812	39711.4
623.168	39802.24
623.523	39956.36
623.879	40129.02
624.234	40162.23
624.589	40195.68
624.945	40286.53
625.3	40530.59
625.655	40582.79
626.01	40624.14
626.365	40625.5
626.72	40562
627.075	40682.22
627.43	40902.33
627.785	40830.47
628.14	41134.86
628.495	41066.62
628.85	40972.38
629.205	41001.31
629.559	41296.22
629.914	41257.57
630.269	41158.82
630.623	41223.9
630.978	41076.56
631.332	41410.56
631.687	41500.96
632.041	41388.19
632.396	41423.9
632.75	41281.98
633.104	41465.25
633.459	41237.69
633.813	41315.2
634.167	41316.55
634.521	41365.37
634.875	41448.3
635.229	41410.34
635.583	41175.54
635.937	41337.57
636.291	41337.12
636.645	41467.96
636.999	41306.84
637.352	41543.89
637.706	41246.5
638.06	41452.82
638.413	41307.06
638.767	41302.77
639.121	41421.86
639.474	41210.34
639.828	41239.49
640.181	41324.92
640.534	41258.93
640.888	41245.37
641.241	41146.62
641.594	41234.98
641.947	41266.84
642.301	41188.42
642.654	41291.47
643.007	41187.07
643.36	41291.24
643.713	41191.36
644.066	41352.71
644.419	41079.27
644.771	40846.51
645.124	40661.88
645.477	40477.25
645.83	40343.47
646.182	40115.23
646.535	39950.94
646.888	40109.13
647.24	39970.15
647.593	40135.57
647.945	40120.43
648.298	39865.52
648.65	39844.05
649.002	39774.67
649.355	39974.22
649.707	39872.3
650.059	40058.96
650.411	40478.61
650.763	40431.38
651.115	40959.28
651.467	40847.19
651.819	40717.02
652.171	40716.34
652.523	40699.62
652.875	40573.75
653.227	40484.94
653.578	40849.22
653.93	40643.35
654.282	40468.44
654.633	40359.52
654.985	40527.42
655.337	40539.85
655.688	40511.15
656.039	40780.75
656.391	40306.41
656.742	40522.45
657.094	40539.85
657.445	40673.63
657.796	40521.55
658.147	40419.86
658.498	40462.79
658.849	40513.41
659.2	40392.51
659.551	40340.76
659.902	40541.66
660.253	40551.6
660.604	40512.96
660.955	40373.3
661.306	40413.53
661.656	40357.48
662.007	40371.72
662.358	40398.39
662.708	40387.54
663.059	40229.58
663.409	40203.59
663.76	40491.49
664.11	40415.11
664.461	40427.54
664.811	40465.96
665.161	40450.36
665.511	40359.74
665.862	40377.14
666.212	40605.39
666.562	40468.22
666.912	40400.65
667.262	40421.21
667.612	40306.64
667.962	40336.24
668.312	40391.38
668.662	40504.15
669.011	40178.73
669.361	40275.23
669.711	40263.7
670.06	40265.51
670.41	40142.57
670.76	40179.18
671.109	40198.39
671.459	40143.7
671.808	40005.63
672.157	40127.21
672.507	39856.03
672.856	39958.4
673.205	40010.83
673.554	40073.88
673.904	39903.26
674.253	40127.89
674.602	40042.92
674.951	39445.19
675.3	39265.76
675.649	39927.44
675.998	39822.81
676.346	39919.08
676.695	39954.56
677.044	39671.4
677.393	39858.51
677.741	39908.23
678.09	39704.17
678.438	39709.37
678.787	39807.67
679.135	39762.02
679.484	39608.58
679.832	39692.87
680.181	39442.03
680.529	39644.51
680.877	39432.99
681.225	39421.01
681.573	39719.76
681.922	39369.49
682.27	39314.57
682.618	39285.2
682.966	39235.48
683.314	39264.41
683.661	39117.52
684.009	39037.97
684.357	38793.68
684.705	38884.98
685.053	39025.54
685.4	38757.3
685.748	38790.29
686.095	38639.56
686.443	38587.81
686.79	38484.99
687.138	38644.08
687.485	38568.6
687.832	38421.72
688.18	38537.19
688.527	38325.9
688.874	38233.02
689.221	38173.36
689.568	38082.97
689.915	37897.21
690.262	37892.24
690.609	37893.59
690.956	37791.68
691.303	37779.92
691.65	37529.08
691.997	37616.54
692.344	37314.63
692.69	37336.32
693.037	37297.9
693.383	36947.63
693.73	37204.12
694.077	37032.37
694.423	36908.31
694.769	36889.1
695.116	36744.25
695.462	36758.03
695.808	36520.52
696.155	36829.44
696.501	36409.34
696.847	36491.82
697.193	36125.96
697.539	36309.23
697.885	36065.62
698.231	35942.68
698.577	35906.75
698.923	35989.92
699.269	35682.58
699.614	35492.75
699.96	35540.66
700.306	35399.65
700.651	35212.31
700.997	35177.96
701.342	35094.12
701.688	35086.89
702.033	34957.85
702.379	34919.89
702.724	34849.61
703.069	35103.16
703.415	34573.91
703.76	34613.23
704.105	34676.05
704.45	34518.77
704.795	34300.02
705.14	34268.38
705.485	34249.17
705.83	34010.76
706.175	34104.32
706.52	34029.29
706.865	33941.61
707.209	33778.67
707.554	33686.92
707.899	33737.55
708.243	33607.15
708.588	33649.19
708.932	33375.07
709.277	33385.24
709.621	33383.66
709.966	33166.49
710.31	33182.98
710.654	32813.05
710.998	32933.72
711.342	32994.97
711.687	32877.91
712.031	32617.12
712.375	32627.07
712.719	32716.1
713.063	32686.05
713.407	32667.74
713.75	32626.61
714.094	32449.67
714.438	32385.72
714.782	32461.87
715.125	32230.47
715.469	32277.47
715.812	32164.48
716.156	32015.33
716.499	32072.05
716.843	32096.01
717.186	31909.57
717.53	32040.64
717.873	31916.35
718.216	31872.06
718.559	31625.96
718.902	31479.53
719.246	31564.72
719.589	31463.48
719.932	31412.63
720.275	31413.09
720.617	31309.81
720.96	31202.02
721.303	31341.22
721.646	31277.5
721.989	31054.23
722.331	31191.85
722.674	31024.85
723.016	31125.41
723.359	30943.49
723.701	31048.8
724.044	30847.9
724.386	30667.57
724.729	30917.28
725.071	30677.51
725.413	30705.99
725.755	30634.35
726.097	30608.36
726.439	30505.77
726.782	30298.99
727.124	30490.85
727.465	30384.86
727.807	30354.81
728.149	30200.01
728.491	30247.47
728.833	30217.19
729.175	30239.56
729.516	30118.21
729.858	30022.61
730.199	30020.13
730.541	29918.66
730.882	29908.27
731.224	30108.26
731.565	29685.22
731.906	29925.89
732.248	29865.1
732.589	29830.3
732.93	29669.86
733.271	29621.5
733.612	29689.29
733.953	29715.05
734.294	29547.37
734.635	29482.29
734.976	29430.99
735.317	29416.53
735.658	29271.45
735.999	29350.77
736.339	29237.55
736.68	29375.85
737.021	29186.25
737.361	28978.57
737.702	29185.12
738.042	29021.06
738.383	29072.36
738.723	29136.08
739.063	29000.27
739.404	29030.32
739.744	28967.5
740.084	28801.63
740.424	28836.21
740.764	28743.33
741.104	28809.31
741.444	28646.15
741.784	28579.71
742.124	28799.82
742.464	28644.12
742.804	28489.1
743.143	28434.86
743.483	28544.24
743.823	28346.95
744.162	28351.02
744.502	28451.36
744.841	28238.93
745.181	28357.8
745.52	28274.86
745.86	28240.06
746.199	28153.29
746.538	28197.35
746.877	28309.89
747.216	28176.11
747.556	28037.58
747.895	27969.79
748.234	28061.76
748.573	27942.44
748.911	27905.16
749.25	27813.18
749.589	27802.79
749.928	27786.74
750.267	27673.3
750.605	27701.77
750.944	27680.76
751.283	27554.43
751.621	27665.16
751.96	27359.63
752.298	27462.91
752.636	27314.66
752.975	27280.09
753.313	27119.19
753.651	27346.53
753.989	27258.39
754.327	27150.37
754.666	26910.83
755.004	27036.93
755.342	26940.21
755.679	27067.44
756.017	26745.86
756.355	26968.91
756.693	26876.26
757.031	26819.76
757.368	26615.02
757.706	26608.47
758.044	26565.53
758.381	26541.58
758.719	26374.57
759.056	26565.76
759.394	26281.24
759.731	26137.97
760.068	26241.02
760.405	25975.04
760.743	26073.79
761.08	26066.56
761.417	25823.18
761.754	25744.08
762.091	25758.09
762.428	25788.38
762.765	25561.49
763.102	25714.48
763.438	25617.08
763.775	25305.9
764.112	25381.61
764.449	25397.65
764.785	25153.82
765.122	25107.04
765.458	24963.76
765.795	25056.42
766.131	24889.64
766.467	24858.46
766.804	24658.91
767.14	24626.15
767.476	24657.33
767.812	24557
768.148	24577.11
768.485	24366.94
768.821	24286.04
769.157	24213.5
769.492	24148.42
769.828	24114.75
770.164	23961.08
770.5	23904.36
770.836	23879.73
771.171	23702.33
771.507	23653.97
771.842	23398.16
772.178	23506.63
772.513	23337.14
772.849	23400.64
773.184	23248.56
773.519	23254.2
773.855	23104.6
774.19	23075.45
774.525	22931.95
774.86	22865.97
775.195	22935.34
775.53	22765.4
775.865	22604.05
776.2	22463.49
776.535	22418.75
776.87	22448.12
777.205	22272.54
777.539	22275.47
777.874	22262.14
778.209	22084.07
778.543	22029.15
778.878	21806.11
779.212	21831.19
779.547	21774.02
779.881	21746.45
780.215	21588.03
780.55	21769.5
780.884	21413.58
781.218	21535.38
781.552	21425.55
781.886	21359.57
782.22	21235.73
782.554	21176.97
782.888	20863.08
783.222	20900.59
783.556	20848.39
783.889	20750.77
784.223	20542.41
784.557	20524.11
784.89	20538.34
785.224	20501.51
785.557	20333.15
785.891	20288.86
786.224	20228.3
786.558	20242.53
786.891	20073.5
787.224	20028.53
787.557	19930.45
787.891	19859.49
788.224	19848.42
788.557	19827.18
788.89	19745.14
789.223	19654.98
789.556	19589.22
789.888	19431.48
790.221	19420.41
790.554	19273.97
790.887	19173.41
791.219	19283.91
791.552	19131.15
791.884	19113.07
792.217	19011.15
792.549	18991.94
792.882	18825.17
793.214	18760.31
793.546	18854.55
793.879	18658.39
794.211	18625.85
794.543	18621.11
794.875	18531.39
795.207	18561.22
795.539	18513.76
795.871	18481.22
796.203	18412.3
796.535	18209.82
796.867	18210.5
797.198	18177.73
797.53	18131.18
797.862	17999.88
798.193	18091.4
798.525	17815.7
798.856	17879.88
799.188	17677.63
799.519	17662.26
799.85	17640.34
800.182	17620.91
800.513	17503.85
800.844	17419.78
801.175	17562.15
801.506	17473.79
801.837	17337.75
802.168	17314.02
802.499	17305.89
802.83	17208.94
803.161	17100.24
803.491	17104.99
803.822	17034.93
804.153	16923.52
804.483	16822.28
804.814	16826.35
805.145	16757.65
805.475	16809.18
805.805	16660.93
806.136	16669.75
806.466	16578.9
806.796	16580.71
807.126	16422.29
807.457	16419.81
807.787	16492.57
808.117	16389.3
808.447	16298
808.777	16350.21
809.107	16179.81
809.436	16294.84
809.766	16207.84
810.096	16165.58
810.426	16038.58
810.755	16053.72
811.085	16011.01
811.414	16035.41
811.744	15860.28
812.073	15805.14
812.403	15803.1
812.732	15749.77
813.061	15754.29
813.39	15692.6
813.719	15589.1
814.049	15790.22
814.378	15547.51
814.707	15496.67
815.036	15478.14
815.365	15412.6
815.693	15263.23
816.022	15258.48
816.351	15317.92
816.68	15283.79
817.008	15248.09
817.337	15076.57
817.665	15111.59
817.994	15067.75
818.322	15128.32
818.651	15005.38
818.979	14893.75
819.307	15022.78
819.636	14948.43
819.964	14794.54
820.292	14818.95
820.62	14929.68
820.948	14824.37
821.276	14820.75
821.604	14791.15
821.932	14871.83
822.259	14865.05
822.587	14765.61
822.915	14734.88
823.243	14882
823.57	14790.92
823.898	14769.23
824.225	14646.97
824.553	14733.75
824.88	14748.67
825.207	14790.7
825.535	14709.12
825.862	14831.38
826.189	14631.15
826.516	14677.48
826.843	14751.83
827.17	14734.88
827.497	14843.13
827.824	14784.15
828.151	14790.7
828.478	14742.34
828.805	14851.49
829.131	14654.66
829.458	14685.84
829.785	14676.13
830.111	14608.56
830.438	14758.84
830.764	14700.76
831.09	14644.26
831.417	14718.38
831.743	14701.44
832.069	14602.91
832.395	14590.93
832.722	14638.61
833.048	14544.38
833.374	14685.39
833.7	14494.21
834.026	14517.71
834.351	14486.75
834.677	14564.94
835.003	14552.29
835.329	14553.64
835.654	14519.07
835.98	14386.19
836.306	14473.42
836.631	14423.7
836.956	14531.27
837.282	14444.95
837.607	14347.09
837.932	14309.13
838.258	14395.68
838.583	14283.37
838.908	14179.87
839.233	14212.86
839.558	14166.53
839.883	14167.44
840.208	14069.59
840.533	14102.36
840.858	14091.73
841.182	14122.24
841.507	14131.96
841.832	13957.95
842.156	13985.97
842.481	14005.18
842.805	13915.92
843.13	13990.49
843.454	13898.74
843.778	13848.35
844.103	13852.87
844.427	13796.37
844.751	13754.12
845.075	13784.4
845.399	13729.48
845.723	13619.2
846.047	13648.13
846.371	13519.09
846.695	13488.36
847.019	13425.99
847.343	13339.89
847.666	13240.91
847.99	13207.24
848.313	13175.15
848.637	13143.96
848.96	13079.11
849.284	13082.04
849.607	12952.78
849.931	13022.61
850.254	12869.39
850.577	12790.98
850.9	12697.87
851.223	12720.02
851.546	12602.06
851.869	12649.06
852.192	12643.18
852.515	12456.75
852.838	12455.17
853.161	12601.15
853.483	12382.4
853.806	12368.84
854.129	12323.64
854.451	12301.95
854.774	12263.08
855.096	12162.97
855.419	12086.81
855.741	12159.58
856.063	12023.54
856.385	12035.06
856.708	11957.78
857.03	11963.2
857.352	11992.81
857.674	11821.29
857.996	11865.8
858.318	11755.07
858.64	11687.05
858.961	11720.95
859.283	11659.93
859.605	11628.97
859.926	11708.29
860.248	11610.22
860.57	11528.19
860.891	11581.74
861.212	11542.87
861.534	11458.36
861.855	11456.1
862.176	11497
862.498	11436.21
862.819	11481.41
863.14	11350.11
863.461	11377.23
863.782	11322.54
864.103	11377.68
864.424	11331.58
864.745	11341.75
865.065	11218.14
865.386	11181.3
865.707	11222.43
866.027	11169.78
866.348	11166.16
866.668	11194.18
866.989	11113.51
867.309	11141.53
867.63	11113.51
867.95	11147.4
868.27	11053.85
868.59	10991.7
868.91	11005.49
869.23	11018.82
869.55	10970.69
869.87	10926.85
870.19	10892.5
870.51	10914.42
870.83	10908.99
871.15	10795.78
871.469	10935.88
871.789	10900.86
872.109	10830.58
872.428	10766.17
872.748	10767.75
873.067	10729.79
873.386	10817.7
873.706	10725.04
874.025	10713.29
874.344	10672.16
874.663	10688.43
874.982	10644.82
875.301	10648.89
875.62	10573.63
875.939	10555.78
876.258	10623.8
876.577	10607.53
876.896	10515.1
877.214	10548.32
877.533	10611.15
877.852	10454.32
878.17	10547.19
878.489	10517.59
878.807	10440.08
879.125	10431.49
879.444	10416.35
879.762	10387.88
880.08	10455.9
880.398	10387.65
880.716	10352.62
881.034	10325.51
881.352	10333.41
881.67	10238.5
881.988	10287.99
882.306	10246.86
882.624	10253.42
882.941	10166.19
883.259	10104.95
883.577	10121.44
883.894	10120.09
884.212	10092.52
884.529	10080.77
884.846	10001.9
885.164	10008.23
885.481	10031.5
885.798	10056.59
886.115	9983.14
886.432	9953.31
886.75	9975.23
887.067	9866.08
887.383	9880.77
887.7	9945.18
888.017	9776.37
888.334	9791.51
888.651	9831.96
888.967	9746.31
889.284	9705.41
889.6	9678.52
889.917	9630.38
890.233	9627.9
890.55	9584.51
890.866	9598.97
891.182	9585.19
891.498	9547.9
891.815	9454.12
892.131	9487.11
892.447	9409.6
892.763	9430.39
893.079	9399.88
893.395	9328.7
893.71	9370.73
894.026	9339.09
894.342	9245.31
894.657	9293.22
894.973	9195.14
895.289	9188.36
895.604	9191.07
895.92	9068.14
896.235	9077.63
896.55	9076.27
896.865	9037.4
897.181	9054.13
897.496	9085.54
897.811	8950.63
898.126	8859.78
898.441	8895.26
898.756	8812.32
899.071	8824.3
899.386	8851.87
899.7	8780.24
900.015	8718.99
900.33	8617.75
900.644	8622.73
900.959	8652.33
901.273	8597.64
901.588	8572.78
901.902	8551.54
902.216	8509.28
902.531	8486.68
902.845	8445.1
903.159	8377.31
903.473	8410.3
903.787	8315.84
904.101	8395.84
904.415	8342.28
904.729	8285.11
905.042	8294.15
905.356	8198.78
905.67	8209.18
905.984	8195.84
906.297	8134.15
906.611	8079.91
906.924	8025.68
907.237	8041.95
907.551	8013.7
907.864	7922.86
908.177	7973.93
908.491	7995.62
908.804	7895.51
909.117	7812.58
909.43	7706.82
909.743	7820.71
910.056	7703.88
910.368	7691.68
910.681	7690.32
910.994	7643.32
911.307	7629.53
911.619	7573.71
911.932	7537.1
912.244	7502.08
912.557	7482.42
912.869	7400.84
913.181	7399.71
913.494	7428.18
913.806	7364.68
914.118	7315.19
914.43	7299.14
914.742	7281.07
915.054	7263.44
915.366	7225.7
915.678	7246.72
915.99	7190.9
916.302	7136.66
916.613	7145.93
916.925	7052.82
917.236	7098.47
917.548	6980.06
917.859	6986.16
918.171	7007.17
918.482	6943.67
918.794	6894.86
919.105	6909.32
919.416	6825.26
919.727	6804.24
920.038	6764.02
920.349	6693.74
920.66	6729.44
920.971	6672.95
921.282	6691.7
921.593	6633.17
921.903	6598.15
922.214	6598.15
922.525	6597.02
922.835	6524.48
923.146	6468.66
923.456	6472.73
923.767	6449
924.077	6377.59
924.387	6408.55
924.697	6350.92
925.008	6331.26
925.318	6368.55
925.628	6370.13
925.938	6239.29
926.248	6236.35
926.558	6215.33
926.867	6197.7
927.177	6174.88
927.487	6171.94
927.796	6073.41
928.106	6091.94
928.416	6060.53
928.725	6036.35
929.034	5954.32
929.344	5943.02
929.653	5963.36
929.962	5942.8
930.271	5912.29
930.581	5872.97
930.89	5814.44
931.199	5841.33
931.508	5786.64
931.817	5806.75
932.125	5707.77
932.434	5768.34
932.743	5625.52
933.051	5633.2
933.36	5636.82
933.669	5614.44
933.977	5553.43
934.286	5581
934.594	5602.69
934.902	5525.18
935.21	5570.83
935.519	5504.62
935.827	5446.54
936.135	5392.53
936.443	5388.69
936.751	5397.73
937.059	5317.05
937.367	5335.58
937.674	5332.87
937.982	5335.13
938.29	5333.32
938.597	5256.03
938.905	5258.97
939.213	5222.81
939.52	5152.53
939.827	5152.99
940.135	5133.55
940.442	5175.81
940.749	5129.26
941.056	5098.52
941.363	5072.99
941.67	5037.51
941.977	5031.18
942.284	4999.32
942.591	4950.51
942.898	4945.76
943.205	4910.96
943.511	4907.12
943.818	4921.13
944.125	4855.37
944.431	4855.37
944.738	4847.91
945.044	4790.96
945.35	4767.01
945.657	4776.72
945.963	4697.63
946.269	4679.78
946.575	4679.1
946.881	4699.89
947.187	4634.36
947.493	4658.76
947.799	4614.47
948.105	4574.7
948.41	4605.66
948.716	4580.35
949.022	4528.82
949.327	4538.09
949.633	4478.65
949.938	4510.07
950.244	4477.3
950.549	4455.38
950.854	4412.21
951.16	4450.86
951.465	4420.8
951.77	4379.45
952.075	4376.28
952.38	4318.88
952.685	4292.67
952.99	4278.88
953.294	4277.53
953.599	4233.69
953.904	4233.01
954.209	4194.37
954.513	4191.66
954.818	4161.37
955.122	4162.05
955.426	4200.47
955.731	4095.16
956.035	4096.06
956.339	4094.03
956.643	4080.25
956.948	4010.19
957.252	4054.94
957.556	3993.02
957.86	3946.46
958.163	3979.01
958.467	3965.45
958.771	3920.48
959.075	3943.75
959.378	3897.88
959.682	3878.22
959.985	3852
960.289	3910.31
960.592	3836.64
960.896	3835.05
961.199	3802.06
961.502	3793.7
961.805	3824.43
962.108	3761.16
962.411	3748.96
962.714	3708.5
963.017	3726.81
963.32	3746.47
963.623	3675.06
963.926	3686.58
964.228	3666.92
964.531	3646.13
964.833	3630.77
965.136	3579.24
965.438	3597.09
965.741	3564.33
966.043	3529.3
966.345	3556.87
966.648	3520.49
966.95	3499.47
967.252	3465.8
967.554	3505.8
967.856	3473.71
968.158	3439.13
968.46	3443.43
968.761	3437.1
969.063	3379.47
969.365	3418.12
969.666	3395.74
969.968	3345.8
970.269	3365.91
970.571	3346.48
970.872	3311.23
971.174	3313.94
971.475	3322.3
971.776	3247.95
972.077	3261.74
972.378	3272.81
972.679	3224.22
972.98	3221.74
973.281	3209.53
973.582	3174.73
973.883	3154.62
974.183	3174.05
974.484	3197.33
974.785	3144.45
975.085	3144.45
975.386	3151.23
975.686	3113.72
975.986	3079.82
976.287	3061.97
976.587	3039.82
976.887	3095.86
977.187	3027.39
977.487	2997.34
977.787	2994.4
978.087	2930.45
978.387	2964.12
978.687	2986.49
978.987	2923.67
979.286	2944.91
979.586	2942.2
979.885	2887.73
980.185	2908.3
980.484	2871.69
980.784	2876.21
981.083	2839.37
981.382	2838.24
981.682	2834.63
981.981	2782.43
982.28	2834.85
982.579	2795.08
982.878	2804.8
983.177	2783.56
983.475	2745.14
983.774	2725.25
984.073	2753.05
984.372	2701.3
984.67	2729.32
984.969	2728.42
985.267	2690
985.566	2735.42
985.864	2664.69
986.162	2661.3
986.461	2636.67
986.759	2635.54
987.057	2591.25
987.355	2607.29
987.653	2597.35
987.951	2572.26
988.249	2556.9
988.547	2530.68
988.844	2531.81
989.142	2545.82
989.44	2484.81
989.737	2517.8
990.035	2478.03
990.332	2494.98
990.63	2464.92
990.927	2465.6
991.224	2433.06
991.521	2399.39
991.819	2446.16
992.116	2407.52
992.413	2404.58
992.71	2395.77
993.006	2365.94
993.303	2379.05
993.6	2340.4
993.897	2354.42
994.193	2326.62
994.49	2349.9
994.787	2321.65
995.083	2312.16
995.379	2330.24
995.676	2278.71
995.972	2260.18
996.268	2268.09
996.565	2234.19
996.861	2290.01
997.157	2236.9
997.453	2220.86
997.749	2187.19
998.044	2194.42
998.34	2197.13
998.636	2193.74
998.932	2169.34
999.227	2172.5
999.523	2144.7
999.818	2131.82
1000.114	2136.79
1000.409	2106.51
1000.704	2115.78
1001	2071.03
1001.295	2092.05
1001.59	2099.96
1001.885	2056.8
1002.18	2059.73
1002.475	2022.22
1002.77	2051.82
1003.065	2036.46
1003.359	1994.2
1003.654	2013.63
1003.949	1998.04
1004.243	1974.99
1004.538	1965.27
1004.832	1952.84
1005.127	1955.1
1005.421	1893.18
1005.715	1927.08
1006.009	1915.33
1006.304	1892.51
1006.598	1882.11
1006.892	1886.86
1007.186	1857.93
1007.48	1843.47
1007.773	1826.52
1008.067	1833.75
1008.361	1838.04
1008.655	1826.75
1008.948	1785.39
1009.242	1793.98
1009.535	1776.58
1009.829	1776.35
1010.122	1782
1010.415	1759.63
1010.708	1766.18
1011.001	1736.58
1011.295	1709.46
1011.588	1714.88
1011.881	1709.23
1012.173	1703.13
1012.466	1680.53
1012.759	1677.6
1013.052	1686.64
1013.344	1627.2
1013.637	1636.47
1013.93	1627.88
1014.222	1643.7
1014.514	1634.21
1014.807	1609.12
1015.099	1598.5
1015.391	1575.68
1015.683	1590.82
1015.976	1562.57
1016.268	1558.96
1016.56	1568.67
1016.851	1541.1
1017.143	1523.02
1017.435	1541.56
1017.727	1520.09
1018.018	1511.73
1018.31	1491.39
1018.602	1491.16
1018.893	1485.29
1019.185	1478.05
1019.476	1443.93
1019.767	1460.88
1020.058	1440.54
1020.35	1445.96
1020.641	1396.02
1020.932	1412.97
1021.223	1424.5
1021.514	1398.96
1021.804	1368
1022.095	1371.62
1022.386	1374.78
1022.677	1365.51
1022.967	1358.74
1023.258	1339.98
1023.548	1324.61
1023.839	1305.4
1024.129	1325.97
1024.419	1285.52
1024.709	1281
1025	1284.16
1025.29	1281.22
1025.58	1256.82
1025.87	1258.17
1026.16	1241.22
1026.449	1269.7
1026.739	1236.03
1027.029	1243.71
1027.319	1213.65
1027.608	1185.86
1027.898	1197.61
1028.187	1202.58
1028.477	1197.84
1028.766	1200.77
1029.055	1177.72
1029.344	1189.93
1029.634	1173.88
1029.923	1145.18
1030.212	1137.72
1030.501	1127.78
1030.79	1129.36
1031.078	1111.96
1031.367	1130.72
1031.656	1137.95
1031.945	1112.64
1032.233	1099.08
1032.522	1103.6
1032.81	1104.96
1033.099	1073.09
1033.387	1094.56
1033.675	1039.65
1033.963	1057.73
1034.251	1052.75
1034.54	1053.43
1034.828	1055.69
1035.116	1025.18
1035.403	1031.51
1035.691	1021.8
1035.979	1019.54
1036.267	1009.82
1036.554	972.53
1036.842	991.29
1037.129	999.42
1037.417	989.03
1037.704	981.57
1037.992	972.76
1038.279	963.94
1038.566	961.91
1038.853	961.91
1039.14	961.91
