Data from hue_130_FLMS001491_00004.txt Node
Date: Tue Feb 07 16:57:04 GMT 2017
User: dcchb
Spectrometer: FLMS00149
Trigger mode: 0
Integration Time (sec): 2.000000E-2
Scans to average: 10
Electric dark correction enabled: true
Nonlinearity correction enabled: false
Boxcar width: 0
XAxis mode: Wavelengths
Number of Pixels in Spectrum: 2048
>>>>>Begin Spectral Data<<<<<
341.393	-30.51
341.776	-30.51
342.16	-30.51
342.543	-53.56
342.927	-65.31
343.31	-79.55
343.693	-87.68
344.077	-52.88
344.46	-47.23
344.843	-50.39
345.226	-33.45
345.61	-19.66
345.993	-0.68
346.376	-7.91
346.759	23.28
347.142	16.04
347.525	16.04
347.908	49.72
348.291	74.12
348.674	86.78
349.057	113.44
349.44	143.95
349.823	142.14
350.206	153.22
350.588	211.07
350.971	213.78
351.354	222.14
351.737	243.61
352.119	246.55
352.502	256.94
352.884	276.38
353.267	275.02
353.65	287.45
354.032	319.99
354.414	311.86
354.797	316.6
355.179	304.17
355.562	317.28
355.944	319.09
356.326	321.12
356.709	339.65
357.091	337.39
357.473	338.07
357.855	352.76
358.238	345.53
358.62	355.7
359.002	349.14
359.384	347.34
359.766	333.78
360.148	331.29
360.53	348.24
360.912	324.96
361.294	326.55
361.676	344.85
362.057	318.86
362.439	327.9
362.821	320.22
363.203	344.17
363.584	333.1
363.966	334.91
364.348	327.45
364.729	331.97
365.111	322.48
365.493	318.41
365.874	317.96
366.256	329.48
366.637	316.83
367.019	307.79
367.4	317.28
367.781	300.56
368.163	336.49
368.544	306.21
368.925	324.06
369.306	309.82
369.688	317.96
370.069	306.66
370.45	313.44
370.831	317.73
371.212	308.01
371.593	308.24
371.974	310.27
372.355	334.68
372.736	306.43
373.117	298.52
373.498	338.75
373.879	324.51
374.26	327.22
374.641	309.82
375.021	328.35
375.402	336.94
375.783	348.01
376.163	320.9
376.544	323.83
376.925	342.36
377.305	324.96
377.686	324.51
378.066	333.55
378.447	318.41
378.827	336.26
379.208	319.31
379.588	324.96
379.968	337.39
380.349	322.93
380.729	338.07
381.109	340.33
381.489	346.66
381.87	343.49
382.25	361.12
382.63	323.83
383.01	343.49
383.39	335.58
383.77	350.05
384.15	329.26
384.53	338.3
384.91	352.08
385.29	350.95
385.67	376.94
386.049	368.13
386.429	358.18
386.809	359.99
387.189	364.28
387.568	339.2
387.948	366.32
388.328	351.4
388.707	374.68
389.087	362.02
389.466	367.67
389.846	366.32
390.225	408.12
390.605	367
390.984	374.45
391.363	363.83
391.743	375.81
392.122	350.73
392.501	369.03
392.881	375.13
393.26	395.7
393.639	365.19
394.018	376.26
394.397	391.63
394.776	395.02
395.155	401.57
395.534	402.93
395.913	394.57
396.292	373.78
396.671	393.44
397.05	389.37
397.429	392.08
397.808	405.87
398.186	394.79
398.565	387.33
398.944	437.73
399.323	409.03
399.701	399.09
400.08	409.71
400.458	400.67
400.837	425.07
401.215	421.46
401.594	396.15
401.972	414.68
402.351	413.32
402.729	396.83
403.107	421.68
403.486	436.6
403.864	444.73
404.242	417.16
404.62	425.07
404.999	434.79
405.377	442.25
405.755	446.32
406.133	446.77
406.511	445.19
406.889	431.85
407.267	458.07
407.645	449.03
408.023	426.2
408.401	465.52
408.779	465.75
409.156	478.86
409.534	482.25
409.912	460.55
410.29	458.29
410.667	467.78
411.045	469.37
411.422	474.79
411.8	489.25
412.178	466.88
412.555	510.72
412.933	476.6
413.31	485.86
413.687	496.03
414.065	511.62
414.442	483.38
414.819	481.12
415.197	507.11
415.574	508.01
415.951	503.26
416.328	519.99
416.705	534.45
417.082	531.51
417.46	525.41
417.837	539.19
418.214	524.05
418.591	546.2
418.967	554.56
419.344	521.34
419.721	561.57
420.098	562.02
420.475	554.79
420.852	545.3
421.228	577.61
421.605	542.81
421.982	572.41
422.358	553.88
422.735	569.25
423.111	566.31
423.488	589.36
423.864	583.71
424.241	613.77
424.617	612.19
424.994	595.92
425.37	626.2
425.746	622.36
426.123	612.19
426.499	623.94
426.875	597.95
427.251	633.66
427.627	638.63
428.003	653.54
428.379	645.18
428.756	640.89
429.132	642.24
429.507	685.41
429.883	674.56
430.259	684.73
430.635	675.01
431.011	670.04
431.387	694.45
431.763	722.01
432.138	705.52
432.514	722.69
432.89	687.21
433.265	710.94
433.641	719.3
434.016	745.97
434.392	737.61
434.767	738.51
435.143	716.37
435.518	754.1
435.894	759.98
436.269	771.96
436.644	788.45
437.02	795.46
437.395	802.24
437.77	785.06
438.145	799.3
438.52	770.6
438.895	841.56
439.271	821.22
439.646	804.72
440.021	838.4
440.395	823.71
440.77	854.44
441.145	840.2
441.52	859.19
441.895	841.79
442.27	874.55
442.645	874.1
443.019	876.14
443.394	871.16
443.769	880.2
444.143	895.57
444.518	909.35
444.892	919.75
445.267	921.78
445.641	910.71
446.016	909.13
446.39	917.72
446.764	922.01
447.139	937.38
447.513	944.83
447.887	944.83
448.262	943.25
448.636	957.04
449.01	980.77
449.384	964.49
449.758	980.99
450.132	968.11
450.506	969.01
450.88	988.9
451.254	993.87
451.628	1006.3
452.002	1032.06
452.376	1021.89
452.75	1071.84
453.123	1046.07
453.497	1058.05
453.871	1082.01
454.244	1086.75
454.618	1132.63
454.992	1112.74
455.365	1109.35
455.739	1143.92
456.112	1164.49
456.486	1135.34
456.859	1161.55
457.232	1191.61
457.606	1207.2
457.979	1193.64
458.352	1235.67
458.725	1256.92
459.099	1268.44
459.472	1284.03
459.845	1302.34
460.218	1321.77
460.591	1313.41
460.964	1347.76
461.337	1350.92
461.71	1346.86
462.083	1385.95
462.456	1394.77
462.829	1391.6
463.201	1421.88
463.574	1422.79
463.947	1450.81
464.32	1489.45
464.692	1504.37
465.065	1516.8
465.438	1564.7
465.81	1576.91
466.183	1606.74
466.555	1609.22
466.928	1635.66
467.3	1663.01
467.672	1665.94
468.045	1705.04
468.417	1731.03
468.789	1748.2
469.161	1776
469.534	1808.09
469.906	1859.84
470.278	1883.57
470.65	1894.19
471.022	1977.8
471.394	2005.6
471.766	2011.7
472.138	2067.29
472.51	2110
472.882	2147.51
473.253	2217.79
473.625	2241.07
473.997	2299.83
474.369	2307.28
474.74	2348.19
475.112	2399.03
475.484	2491.01
475.855	2561.51
476.227	2577.33
476.598	2652.81
476.97	2708.63
477.341	2796.76
477.713	2827.72
478.084	2881.28
478.455	2999.24
478.827	3016.19
479.198	3155.17
479.569	3221.61
479.94	3307.94
480.311	3343.19
480.682	3471.55
481.053	3573.01
481.424	3721.48
481.795	3748.15
482.166	3866.11
482.537	3925.32
482.908	4106.56
483.279	4139.33
483.65	4276.72
484.021	4425.19
484.391	4493.22
484.762	4590.61
485.133	4639.2
485.503	4807.33
485.874	4994.67
486.244	5060.21
486.615	5193.54
486.985	5373.87
487.356	5444.38
487.726	5603.92
488.097	5797.14
488.467	5871.94
488.837	6044.13
489.207	6146.05
489.578	6384.01
489.948	6453.62
490.318	6588.53
490.688	6670.11
491.058	6871.68
491.428	7016.54
491.798	7165.69
492.168	7331.33
492.538	7452.01
492.908	7605
493.278	7817.42
493.648	7851.54
494.017	8029.62
494.387	8173.57
494.757	8309.61
495.126	8471.19
495.496	8572.88
495.866	8622.6
496.235	8837.06
496.605	8970.16
496.974	9047.45
497.344	9198.4
497.713	9345.74
498.082	9457.83
498.452	9644.94
498.821	9686.07
499.19	9747.09
499.559	9953.64
499.928	10093.97
500.298	10139.85
500.667	10254.87
501.036	10389.78
501.405	10511.14
501.774	10556.56
502.143	10647.18
502.512	10754.52
502.88	10938.24
503.249	10983.21
503.618	11048.52
503.987	11113.15
504.356	11237.44
504.724	11341.17
505.093	11430.66
505.462	11510.43
505.83	11705.91
506.199	11711.78
506.567	11875.85
506.936	11900.25
507.304	12107.7
507.672	12160.13
508.041	12168.49
508.409	12327.36
508.777	12337.98
509.145	12464.53
509.514	12405.78
509.882	12521.03
510.25	12518.77
510.618	12690.06
510.986	12684.64
511.354	12772.32
511.722	12974.35
512.09	13003.5
512.458	13054.8
512.826	13166.43
513.193	13210.73
513.561	13249.37
513.929	13265.64
514.297	13358.74
514.664	13401.46
515.032	13445.52
515.4	13504.28
515.767	13583.82
516.135	13591.73
516.502	13574.78
516.869	13703.37
517.237	13787.66
517.604	13730.94
517.972	13812.97
518.339	13877.15
518.706	13920.54
519.073	13890.71
519.44	13949.46
519.808	14094.09
520.175	14110.59
520.542	14140.19
520.909	14199.4
521.276	14234.43
521.643	14265.61
522.009	14333.86
522.376	14389.9
522.743	14426.06
523.11	14499.05
523.477	14594.42
523.843	14615.89
524.21	14655.66
524.577	14703.79
524.943	14746.96
525.31	14799.84
525.676	14743.79
526.043	14845.03
526.409	14830.8
526.776	14954.41
527.142	14899.95
527.508	14979.04
527.874	15092.03
528.241	14997.8
528.607	15081.64
528.973	15090.68
529.339	15077.57
529.705	15155.99
530.071	15152.82
530.437	15210
530.803	15183.33
531.169	15162.77
531.535	15111.24
531.901	15043.22
532.267	15175.42
532.632	15192.37
532.998	15187.85
533.364	15251.58
533.73	15179.94
534.095	15185.59
534.461	15161.41
534.826	15122.77
535.192	15165.02
535.557	15163.44
535.923	15121.64
536.288	15075.08
536.653	15165.7
537.019	15030.57
537.384	15006.84
537.749	14991.47
538.114	15038.93
538.479	14955.09
538.845	15014.07
539.21	14928.87
539.575	14867.18
539.94	14796.45
540.305	14960.96
540.67	14844.13
541.034	14866.95
541.399	14831.93
541.764	14734.3
542.129	14739.95
542.494	14684.59
542.858	14687.3
543.223	14672.38
543.587	14699.95
543.952	14562.55
544.316	14492.27
544.681	14522.56
545.045	14553.06
545.41	14526.62
545.774	14496.57
546.138	14454.54
546.503	14440.52
546.867	14335.44
547.231	14342
547.595	14316.69
547.959	14305.84
548.324	14245.5
548.688	14255.44
549.052	14163.24
549.416	14157.59
549.779	14231.04
550.143	14165.5
550.507	14206.63
550.871	14062.91
551.235	14038.27
551.599	14081.44
551.962	14012.74
552.326	14047.77
552.689	14055
553.053	13970.25
553.417	13925.06
553.78	14007.54
554.143	13987.43
554.507	13928
554.87	13853.87
555.234	13976.13
555.597	13824.27
555.96	13820.43
556.323	13830.37
556.686	13794.21
557.05	13778.39
557.413	13821.78
557.776	13812.52
558.139	13817.49
558.502	13688
558.865	13746.53
559.228	13805.96
559.59	13803.48
559.953	13767.32
560.316	13871.73
560.679	13839.41
561.041	13827.43
561.404	13898.62
561.767	13863.59
562.129	13885.74
562.492	13937.49
562.854	13826.53
563.217	13909.69
563.579	13879.18
563.941	13898.84
564.304	13951.05
564.666	13917.6
565.028	13964.83
565.39	13908.79
565.753	13914.44
566.115	13963.7
566.477	14024.94
566.839	13958.05
567.201	14095.22
567.563	13975.45
567.925	14106.75
568.287	14059.97
568.648	14089.35
569.01	14087.31
569.372	14128.67
569.734	14106.07
570.095	14249.57
570.457	14226.97
570.819	14216.12
571.18	14209.34
571.542	14243.69
571.903	14226.52
572.265	14231.26
572.626	14250.02
572.987	14271.72
573.349	14247.53
573.71	14319.62
574.071	14346.97
574.432	14387.87
574.794	14394.42
575.155	14283.01
575.516	14376.8
575.877	14378.83
576.238	14358.04
576.599	14399.62
576.96	14341.32
577.32	14314.2
577.681	14377.02
578.042	14431.26
578.403	14414.31
578.763	14430.13
579.124	14358.49
579.485	14427.19
579.845	14556.45
580.206	14442.33
580.566	14400.07
580.927	14430.81
581.287	14491.37
581.648	14454.76
582.008	14500.18
582.368	14504.25
582.728	14490.24
583.089	14510.58
583.449	14489.79
583.809	14386.74
584.169	14445.72
584.529	14407.98
584.889	14340.41
585.249	14386.51
585.609	14263.13
585.969	14409.11
586.329	14255.67
586.688	14345.16
587.048	14349
587.408	14331.6
587.768	14315.78
588.127	14288.66
588.487	14346.29
588.846	14389.68
589.206	14204.6
589.565	14252.73
589.925	14389
590.284	14176.58
590.643	14306.29
591.003	14302
591.362	14311.49
591.721	14288.44
592.08	14263.35
592.44	14227.42
592.799	14303.13
593.158	14251.83
593.517	14187.88
593.876	14197.14
594.235	14170.7
594.593	14187.42
594.952	14187.65
595.311	14196.24
595.67	14187.65
596.029	14210.47
596.387	14252.96
596.746	14206.86
597.104	14140.19
597.463	14217.93
597.822	14223.13
598.18	14139.74
598.538	14100.65
598.897	14153.98
599.255	14066.75
599.613	14215.45
599.972	14162.11
600.33	14219.29
600.688	14080.31
601.046	14162.11
601.404	14274.2
601.762	14222.22
602.12	14220.42
602.478	14253.18
602.836	14259.96
603.194	14119.63
603.552	14131.38
603.91	14142.68
604.268	14179.74
604.625	14061.33
604.983	14126.41
605.341	14079.4
605.698	14139.29
606.056	14120.76
606.413	14121.89
606.771	14118.95
607.128	14252.51
607.485	14109.46
607.843	14208.44
608.2	14253.86
608.557	14226.52
608.914	14169.57
609.272	14294.99
609.629	14254.09
609.986	14264.48
610.343	14280.08
610.7	14278.72
611.057	14326.4
611.414	14335.22
611.771	14364.14
612.127	14449.79
612.484	14289.79
612.841	14399.62
613.198	14348.1
613.554	14324.37
613.911	14437.36
614.267	14381.99
614.624	14439.39
614.98	14382.22
615.337	14478.94
615.693	14559.17
616.05	14442.11
616.406	14428.55
616.762	14556
617.118	14542.44
617.475	14571.37
617.831	14573.63
618.187	14617.02
618.543	14602.33
618.899	14635.1
619.255	14608.43
619.611	14565.94
619.967	14699.27
620.323	14645.72
620.678	14601.88
621.034	14552.39
621.39	14546.28
621.746	14565.27
622.101	14732.27
622.457	14536.79
622.812	14610.24
623.168	14551.71
623.523	14606.62
623.879	14703.12
624.234	14568.43
624.589	14671.25
624.945	14704.7
625.3	14642.78
625.655	14648.65
626.01	14603.01
626.365	14653.85
626.72	14552.84
627.075	14619.73
627.43	14654.76
627.785	14642.78
628.14	14557.58
628.495	14572.95
628.85	14585.83
629.205	14583.57
629.559	14606.62
629.914	14504.48
630.269	14614.31
630.623	14483.46
630.978	14517.36
631.332	14496.12
631.687	14573.85
632.041	14525.72
632.396	14482.78
632.75	14516.45
633.104	14522.78
633.459	14436.68
633.813	14451.15
634.167	14455.44
634.521	14426.29
634.875	14437.13
635.229	14338.15
635.583	14351.26
635.937	14376.35
636.291	14358.04
636.645	14267.65
636.999	14158.95
637.352	14255.67
637.706	14210.25
638.06	14160.98
638.413	14139.06
638.767	14123.7
639.121	14186.97
639.474	14080.08
639.828	14132.74
640.181	14069.46
640.534	14163.7
640.888	14087.09
641.241	13946.3
641.594	14036.02
641.947	14030.37
642.301	14049.8
642.654	14071.04
643.007	14104.71
643.36	14047.09
643.713	13960.99
644.066	14088.67
644.419	13964.83
644.771	13923.7
645.124	13836.25
645.477	13790.82
645.83	13665.4
646.182	13583.82
646.535	13607.1
646.888	13548.8
647.24	13570.49
647.593	13607.78
647.945	13489.81
648.298	13449.59
648.65	13429.25
649.002	13383.83
649.355	13494.11
649.707	13477.84
650.059	13546.76
650.411	13677.15
650.763	13771.62
651.115	13897.04
651.467	13805.96
651.819	13851.61
652.171	13730.71
652.523	13810.94
652.875	13742.24
653.227	13753.31
653.578	13840.31
653.93	13870.6
654.282	13806.87
654.633	13819.75
654.985	13766.64
655.337	13799.64
655.688	13756.25
656.039	13850.71
656.391	13738.85
656.742	13733.2
657.094	13828.56
657.445	13745.85
657.796	13859.75
658.147	13744.72
658.498	13683.71
658.849	13762.8
659.2	13804.83
659.551	13768.68
659.902	13858.17
660.253	13799.86
660.604	13813.87
660.955	13769.58
661.306	13814.33
661.656	13825.17
662.007	13870.14
662.358	13842.57
662.708	13837.83
663.059	13766.87
663.409	13795.12
663.76	13817.94
664.11	13957.83
664.461	13906.08
664.811	13884.38
665.161	13869.69
665.511	13779.07
665.862	13864.27
666.212	13891.84
666.562	13903.14
666.912	13813.87
667.262	13762.35
667.612	13914.21
667.962	13877.6
668.312	13858.17
668.662	13892.06
669.011	13822.01
669.361	13861.78
669.711	13788.79
670.06	13789.24
670.41	13813.42
670.76	13790.6
671.109	13825.63
671.459	13835.57
671.808	13753.99
672.157	13837.15
672.507	13695.01
672.856	13722.58
673.205	13759.19
673.554	13757.6
673.904	13726.19
674.253	13739.53
674.602	13805.96
674.951	13484.17
675.3	13412.75
675.649	13654.33
675.998	13708.57
676.346	13636.25
676.695	13621.34
677.044	13590.15
677.393	13590.83
677.741	13590.83
678.09	13562.58
678.438	13536.82
678.787	13593.09
679.135	13483.94
679.484	13457.73
679.832	13475.58
680.181	13417.5
680.529	13502.7
680.877	13383.38
681.225	13407.33
681.573	13410.27
681.922	13299.31
682.27	13384.05
682.618	13246.43
682.966	13237.62
683.314	13305.64
683.661	13215.7
684.009	13235.13
684.357	13132.31
684.705	13258.86
685.053	13193.1
685.4	13243.72
685.748	13157.62
686.095	12981.58
686.443	12967.79
686.79	13005.76
687.138	13035.59
687.485	13051.86
687.832	12867.46
688.18	12944.97
688.527	12832.66
688.874	12837.4
689.221	12790.4
689.568	12895.48
689.915	12748.82
690.262	12816.16
690.609	12752.43
690.956	12652.1
691.303	12603.06
691.65	12563.96
691.997	12542.27
692.344	12502.95
692.69	12406.45
693.037	12432.89
693.383	12325.1
693.73	12321.03
694.077	12215.5
694.423	12175.5
694.769	12227.25
695.116	12055.73
695.462	12119.46
695.808	11983.64
696.155	12148.83
696.501	11951.1
696.847	11989.29
697.193	11847.37
697.539	11843.76
697.885	11775.96
698.231	11776.19
698.577	11750.2
698.923	11808.28
699.269	11666.59
699.614	11615.06
699.96	11578.68
700.306	11633.37
700.651	11436.99
700.997	11421.39
701.342	11431.11
701.688	11386.82
702.033	11361.51
702.379	11359.48
702.724	11274.96
703.069	11305.92
703.415	11123.32
703.76	11156.32
704.105	11174.62
704.45	11126.26
704.795	11079.03
705.14	11036.77
705.485	11006.26
705.83	11013.27
706.175	10970.56
706.52	10878.13
706.865	10865.93
707.209	10887.4
707.554	10862.09
707.899	10897.11
708.243	10745.93
708.588	10674.07
708.932	10662.09
709.277	10645.14
709.621	10622.32
709.966	10574.86
710.31	10616.44
710.654	10517.69
710.998	10465.94
711.342	10484.02
711.687	10421.65
712.031	10391.82
712.375	10421.42
712.719	10395.21
713.063	10407.18
713.407	10485.83
713.75	10351.59
714.094	10396.79
714.438	10361.76
714.782	10290.35
715.125	10305.49
715.469	10252.39
715.812	10164.7
716.156	10170.58
716.499	10159.73
716.843	10251.48
717.186	10126.51
717.53	10192.27
717.873	10140.98
718.216	10174.87
718.559	10074.31
718.902	10035.89
719.246	10017.59
719.589	10005.61
719.932	10049.23
720.275	9984.14
720.617	9960.87
720.96	9973.75
721.303	9964.71
721.646	9979.4
721.989	9880.19
722.331	9981.43
722.674	9922.9
723.016	9900.76
723.359	9889.01
723.701	9957.03
724.044	9826.18
724.386	9773.75
724.729	9867.54
725.071	9786.86
725.413	9794.77
725.755	9799.52
726.097	9719.07
726.439	9701.67
726.782	9767.43
727.124	9886.75
727.465	9700.76
727.807	9740.76
728.149	9747.54
728.491	9714.55
728.833	9706.86
729.175	9723.59
729.516	9639.97
729.858	9620.99
730.199	9728.56
730.541	9702.57
730.882	9702.57
731.224	9661.89
731.565	9633.19
731.906	9715.9
732.248	9651.27
732.589	9602.91
732.93	9565.17
733.271	9661.44
733.612	9651.27
733.953	9700.54
734.294	9591.61
734.635	9609.69
734.976	9605.62
735.317	9653.98
735.658	9591.61
735.999	9663.7
736.339	9624.15
736.68	9700.54
737.021	9629.13
737.361	9637.26
737.702	9644.49
738.042	9670.03
738.383	9661.89
738.723	9708.45
739.063	9628.9
739.404	9720.65
739.744	9715.68
740.084	9753.42
740.424	9728.33
740.764	9644.27
741.104	9758.84
741.444	9703.93
741.784	9726.52
742.124	9809.01
742.464	9807.2
742.804	9835.67
743.143	9774.21
743.483	9886.97
743.823	9790.03
744.162	9854.2
744.502	9938.5
744.841	10003.35
745.181	9971.26
745.52	10016.23
745.86	10084.93
746.199	10060.98
746.538	10122.67
746.877	10233.4
747.216	10193.63
747.556	10271.59
747.895	10312.95
748.234	10345.94
748.573	10387.07
748.911	10437.24
749.25	10447.63
749.589	10497.8
749.928	10605.6
750.267	10679.72
750.605	10840.84
750.944	10838.81
751.283	10914.97
751.621	11039.26
751.96	11012.14
752.298	11210.55
752.636	11347.5
752.975	11268.4
753.313	11447.61
753.651	11679.47
753.989	11635.63
754.327	11686.25
754.666	11823.64
755.004	11999.46
755.342	12133.92
755.679	12308.83
756.017	12345.21
756.355	12619.33
756.693	12693.9
757.031	12769.38
757.368	12888.93
757.706	13038.08
758.044	13166.21
758.381	13424.73
758.719	13544.28
759.056	13701.33
759.394	13829.92
759.731	13952.63
760.068	14213.86
760.405	14313.3
760.743	14483.91
761.08	14686.39
761.417	14762.78
761.754	14946.5
762.091	15126.83
762.428	15332.93
762.765	15443.89
763.102	15700.15
763.438	15804.78
763.775	15939.47
764.112	16145.11
764.449	16421.94
764.785	16427.36
765.122	16496.52
765.458	16747.58
765.795	16915.94
766.131	17026.9
766.467	17220.79
766.804	17325.87
767.14	17369.71
767.476	17611.29
767.812	17718.63
768.148	17891.73
768.485	17907.55
768.821	18079.75
769.157	18201.78
769.492	18256.47
769.828	18401.55
770.164	18409.23
770.5	18519.06
770.836	18665.72
771.171	18667.31
771.507	18963.8
771.842	18933.97
772.178	19096.67
772.513	19150.46
772.849	19196.11
773.184	19300.28
773.519	19413.95
773.855	19398.81
774.19	19372.15
774.525	19559.94
774.86	19641.07
775.195	19726.03
775.53	19732.36
775.865	19677.9
776.2	19794.73
776.535	19674.96
776.87	19867.05
777.205	19731.91
777.539	19820.5
777.874	20094.84
778.209	19888.06
778.543	19875.64
778.878	19902.75
779.212	19984.79
779.547	19970.1
779.881	20073.14
780.215	19983.66
780.55	20086.03
780.884	20066.37
781.218	19974.84
781.552	20087.16
781.886	20182.97
782.22	19984.56
782.554	20077.21
782.888	19964.45
783.222	19961.74
783.556	19958.35
783.889	19919.48
784.223	19799.48
784.557	19949.31
784.89	19861.62
785.224	19803.32
785.557	19818.01
785.891	19765.36
786.224	19862.53
786.558	19832.25
786.891	19721.97
787.224	19746.37
787.557	19691.91
787.891	19600.61
788.224	19620.73
788.557	19618.24
788.89	19632.7
789.223	19640.61
789.556	19437.91
789.888	19514.52
790.221	19502.99
790.554	19247.18
790.887	19357.23
791.219	19251.25
791.552	19233.39
791.884	19215.31
792.217	19207.18
792.549	19277.46
792.882	19108.88
793.214	19133.51
793.546	19148.88
793.879	18951.14
794.211	18923.8
794.543	19000.18
794.875	18965.15
795.207	18973.29
795.539	18912.5
795.871	18864.59
796.203	18799.05
796.535	18633.63
796.867	18643.58
797.198	18630.24
797.53	18670.47
797.862	18559.06
798.193	18554.09
798.525	18523.35
798.856	18434.54
799.188	18319.07
799.519	18302.57
799.85	18138.51
800.182	18283.59
800.513	18283.36
800.844	18047.66
801.175	18146.87
801.506	18128.79
801.837	17993.65
802.168	18009.47
802.499	17896.7
802.83	17774.45
803.161	17877.72
803.491	17898.96
803.822	17939.87
804.153	17792.53
804.483	17661.23
804.814	17574.91
805.145	17565.64
805.475	17566.77
805.805	17505.75
806.136	17350.28
806.466	17481.12
806.796	17555.92
807.126	17331.07
807.457	17324.52
807.787	17314.57
808.117	17212.65
808.447	17207.01
808.777	17173.79
809.107	17119.32
809.436	17074.81
809.766	16973.79
810.096	16971.31
810.426	16970.63
810.755	16991.19
811.085	16989.38
811.414	16904.19
811.744	16857.86
812.073	16792.55
812.403	16734.48
812.732	16692.44
813.061	16710.52
813.39	16677.75
813.719	16617.64
814.049	16582.16
814.378	16603.18
814.707	16469.4
815.036	16479.11
815.365	16445.22
815.693	16284.77
816.022	16352.79
816.351	16287.71
816.68	16278.67
817.008	16310.31
817.337	16218.1
817.665	16173.81
817.994	16039.58
818.322	16097.2
818.651	15949.41
818.979	15914.61
819.307	16096.98
819.636	16040.93
819.964	15986.02
820.292	15940.6
820.62	16030.54
820.948	16018.34
821.276	15948.06
821.604	15871.67
821.932	15924.1
822.259	15961.61
822.587	15879.58
822.915	15902.63
823.243	16012.91
823.57	15827.61
823.898	15868.28
824.225	15864.89
824.553	15852.69
824.88	15846.36
825.207	15914.16
825.535	15881.39
825.862	15855.63
826.189	15803.65
826.516	15920.26
826.843	16039.13
827.17	15866.7
827.497	15978.79
827.824	15918.23
828.151	15981.73
828.478	15942.41
828.805	15930.65
829.131	15939.24
829.458	15916.42
829.785	15874.16
830.111	15923.42
830.438	16001.16
830.764	15994.61
831.09	15970.65
831.417	15837.55
831.743	15880.49
832.069	15916.64
832.395	15801.62
832.722	15860.15
833.048	15762.52
833.374	15886.81
833.7	15866.25
834.026	15855.85
834.351	15765.24
834.677	15791.45
835.003	15866.48
835.329	15758.46
835.654	15711.45
835.98	15654.5
836.306	15743.77
836.631	15640.49
836.956	15703.99
837.282	15703.54
837.607	15598.46
837.932	15603.88
838.258	15652.24
838.583	15588.74
838.908	15504.9
839.233	15473.27
839.558	15447.96
839.883	15326.15
840.208	15345.13
840.533	15419.93
840.858	15338.13
841.182	15311.01
841.507	15388.07
841.832	15221.52
842.156	15231.92
842.481	15253.84
842.805	15143.1
843.13	15168.41
843.454	15093.16
843.778	15073.05
844.103	14999.61
844.427	14969.55
844.751	14954.18
845.075	14981.98
845.399	14843.68
845.723	14753.28
846.047	14785.15
846.371	14793.28
846.695	14699.05
847.019	14581.09
847.343	14591.93
847.666	14456.57
847.99	14376.35
848.313	14391.71
848.637	14335.67
848.96	14277.14
849.284	14296.57
849.607	14205.28
849.931	14164.83
850.254	14027.88
850.577	14029.24
850.9	13855
851.223	13891.84
851.546	13748.11
851.869	13713.99
852.192	13665.18
852.515	13667.21
852.838	13561.9
853.161	13629.25
853.483	13561.9
853.806	13477.16
854.129	13462.92
854.451	13365.75
854.774	13277.17
855.096	13251.63
855.419	13149.48
855.741	13305.19
856.063	13193.1
856.385	13114.91
856.708	13137.06
857.03	13055.25
857.352	13069.71
857.674	12987.46
857.996	12947.23
858.318	12879.66
858.64	12863.84
858.961	12856.16
859.283	12841.92
859.605	12713.79
859.926	12734.35
860.248	12749.27
860.57	12626.11
860.891	12673.79
861.212	12561.93
861.534	12562.38
861.855	12494.36
862.176	12594.25
862.498	12476.73
862.819	12551.53
863.14	12384.99
863.461	12417.53
863.782	12322.39
864.103	12451.2
864.424	12413.68
864.745	12342.27
865.065	12300.69
865.386	12244.88
865.707	12244.42
866.027	12282.39
866.348	12210.07
866.668	12161.94
866.989	12205.55
867.309	12097.31
867.63	12202.62
867.95	12114.94
868.27	12000.81
868.59	12055.28
868.91	12095.05
869.23	11955.62
869.55	11890.53
869.87	11956.52
870.19	11912.91
870.51	11965.34
870.83	11942.74
871.15	11860.71
871.469	11894.15
871.789	11886.24
872.109	11855.51
872.428	11779.35
872.748	11826.81
873.067	11827.71
873.386	11792.68
873.706	11795.17
874.025	11720.82
874.344	11619.36
874.663	11693.7
874.982	11668.17
875.301	11631.11
875.62	11643.99
875.939	11630.43
876.258	11611.9
876.577	11593.14
876.896	11546.14
877.214	11577.77
877.533	11486.03
877.852	11484.22
878.17	11550.2
878.489	11450.32
878.807	11453.71
879.125	11374.39
879.444	11420.26
879.762	11431.34
880.08	11409.19
880.398	11331.45
880.716	11324.45
881.034	11249.65
881.352	11337.78
881.67	11263.21
881.988	11247.39
882.306	11224.56
882.624	11174.85
882.941	11082.87
883.259	11111.35
883.577	11075.19
883.894	11140.72
884.212	11088.3
884.529	11018.47
884.846	11035.19
885.164	11021.18
885.481	10943.89
885.798	10952.71
886.115	10844.91
886.432	10814.86
886.75	10786.84
887.067	10797
887.383	10800.39
887.7	10902.09
888.017	10719.72
888.334	10773.05
888.651	10756.1
888.967	10698.02
889.284	10634.97
889.6	10694.63
889.917	10534.86
890.233	10531.93
890.55	10452.83
890.866	10502.77
891.182	10492.38
891.498	10370.57
891.815	10404.92
892.131	10361.08
892.447	10302.55
892.763	10281.54
893.079	10289.45
893.395	10118.38
893.71	10165.16
894.026	10130.36
894.342	10173.74
894.657	9999.74
894.973	10122.22
895.289	10031.15
895.604	10002
895.92	9898.95
896.235	9902.34
896.55	9836.13
896.865	9872.73
897.181	9785.51
897.496	9829.8
897.811	9825.28
898.126	9778.5
898.441	9689.69
898.756	9590.03
899.071	9627.09
899.386	9582.35
899.7	9548.68
900.015	9508.68
900.33	9448.57
900.644	9355.01
900.959	9451.95
901.273	9410.15
901.588	9408.11
901.902	9306.42
902.216	9323.37
902.531	9261.23
902.845	9216.48
903.159	9149.59
903.473	9145.97
903.787	9094
904.101	9053.1
904.415	9061.91
904.729	9022.14
905.042	8972.65
905.356	8943.95
905.67	8914.79
905.984	8892.42
906.297	8838.86
906.611	8820.33
906.924	8758.19
907.237	8692.2
907.551	8752.54
907.864	8663.95
908.177	8656.5
908.491	8634.12
908.804	8509.15
909.117	8487.46
909.43	8458.08
909.743	8502.38
910.056	8349.38
910.368	8355.49
910.681	8335.6
910.994	8316.39
911.307	8264.64
911.619	8259.67
911.932	8218.54
912.244	8180.12
912.557	8186.68
912.869	8095.38
913.181	8108.94
913.494	8057.64
913.806	8021.48
914.118	7986
914.43	7969.96
914.742	7939
915.054	7913.46
915.366	7875.05
915.678	7813.81
915.99	7792.79
916.302	7779
916.613	7741.72
916.925	7686.8
917.236	7679.8
917.548	7618.33
917.859	7653.58
918.171	7577.2
918.482	7564.55
918.794	7481.61
919.105	7470.54
919.416	7395.74
919.727	7440.03
920.038	7369.52
920.349	7371.33
920.66	7315.74
920.971	7279.36
921.282	7288.4
921.593	7236.65
921.903	7195.07
922.214	7202.52
922.525	7117.1
922.835	7141.51
923.146	7035.07
923.456	7016.09
923.767	7022.87
924.077	6966.82
924.387	7002.75
924.697	6932.47
925.008	6887.05
925.318	6873.04
925.628	6899.03
925.938	6885.69
926.248	6720.95
926.558	6809.76
926.867	6757.56
927.177	6640.73
927.487	6646.6
927.796	6625.59
928.106	6624.68
928.416	6572.48
928.725	6588.08
929.034	6509.66
929.344	6521.64
929.653	6558.7
929.962	6449.77
930.271	6444.35
930.581	6394.18
930.89	6388.53
931.199	6315.09
931.508	6333.39
931.817	6317.35
932.125	6267.86
932.434	6281.87
932.743	6215.88
933.051	6168.2
933.36	6171.36
933.669	6156.9
933.977	6107.64
934.286	6087.98
934.594	6075.32
934.902	6055.21
935.21	5970.92
935.519	6002.1
935.827	5954.87
936.135	5912.84
936.443	5862.9
936.751	5863.57
937.059	5885.04
937.367	5840.75
937.674	5866.74
937.982	5821.32
938.29	5709.45
938.597	5724.37
938.905	5751.04
939.213	5703.35
939.52	5648.89
939.827	5661.55
940.135	5633.52
940.442	5611.38
940.749	5599.85
941.056	5559.85
941.363	5495.67
941.67	5450.25
941.977	5445.73
942.284	5437.15
942.591	5410.93
942.898	5359.63
943.205	5418.16
943.511	5386.98
943.818	5342.46
944.125	5328.22
944.431	5287.09
944.738	5255.91
945.044	5219.07
945.35	5203.48
945.657	5167.1
945.963	5111.05
946.269	5164.61
946.575	5126.64
946.881	5115.12
947.187	5087.78
947.493	5081.67
947.799	5004.61
948.105	5022.69
948.41	4948.12
948.716	4981.34
949.022	4986.76
949.327	4913.32
949.633	4934.33
949.938	4913.77
950.244	4962.58
950.549	4854.11
950.854	4844.17
951.16	4781.8
951.465	4760.33
951.77	4754.9
952.075	4761.91
952.38	4768.46
952.685	4738.86
952.99	4685.07
953.294	4631.97
953.599	4665.64
953.904	4624.06
954.209	4599.88
954.513	4620.67
954.818	4562.14
955.122	4552.87
955.426	4511.75
955.731	4507.68
956.035	4485.76
956.339	4460.45
956.643	4480.11
956.948	4389.04
957.252	4377.96
957.556	4398.53
957.86	4388.13
958.163	4359.43
958.467	4325.08
958.771	4327.57
959.075	4311.3
959.378	4292.09
959.682	4270.62
959.985	4219.1
960.289	4211.87
960.592	4205.99
960.896	4179.33
961.199	4200.79
961.502	4182.94
961.805	4138.65
962.108	4092.1
962.411	4076.05
962.714	4080.57
963.017	4037.63
963.32	4043.74
963.623	4003.51
963.926	4029.95
964.228	3962.61
964.531	3959.67
964.833	3989.95
965.136	3911.08
965.438	3895.04
965.741	3878.54
966.043	3900.46
966.345	3868.37
966.648	3861.14
966.95	3875.38
967.252	3819.11
967.554	3815.94
967.856	3809.84
968.158	3749.05
968.46	3762.61
968.761	3723.07
969.063	3727.59
969.365	3662.5
969.666	3710.86
969.968	3647.59
970.269	3670.19
970.571	3679
970.872	3633.12
971.174	3610.3
971.475	3579.34
971.776	3584.54
972.077	3539.34
972.378	3541.38
972.679	3507.03
972.98	3587.25
973.281	3510.64
973.582	3463.64
973.883	3508.61
974.183	3468.38
974.484	3438.55
974.785	3386.13
975.085	3396.52
975.386	3407.37
975.686	3402.62
975.986	3346.58
976.287	3366.24
976.587	3319.23
976.887	3316.97
977.187	3309.97
977.487	3288.95
977.787	3266.58
978.087	3219.58
978.387	3251.21
978.687	3277.65
978.987	3194.94
979.286	3183.42
979.586	3184.55
979.885	3166.47
980.185	3178.22
980.484	3117.21
980.784	3101.61
981.083	3158.11
981.382	3105.46
981.682	3091.44
981.981	3075.63
982.28	3022.97
982.579	3043.31
982.878	3035.4
983.177	3026.14
983.475	2994.95
983.774	3001.28
984.073	2963.09
984.372	2961.96
984.67	2947.27
984.969	2911.79
985.267	2947.49
985.566	2931.22
985.864	2879.47
986.162	2897.55
986.461	2809.42
986.759	2877.44
987.057	2840.15
987.355	2796.99
987.653	2818.68
987.951	2811.68
988.249	2791.11
988.547	2777.55
988.844	2747.72
989.142	2768.97
989.44	2764.22
989.737	2730.78
990.035	2743.88
990.332	2722.87
990.63	2684
990.927	2686.03
991.224	2640.16
991.521	2636.09
991.819	2634.06
992.116	2625.24
992.413	2645.58
992.71	2608.97
993.006	2598.58
993.303	2584.11
993.6	2584.34
993.897	2549.31
994.193	2564
994.49	2524.68
994.787	2520.16
995.083	2509.31
995.379	2471.57
995.676	2510.22
995.972	2436.77
996.268	2456.66
996.565	2400.16
996.861	2405.13
997.157	2401.07
997.453	2413.5
997.749	2383.21
998.044	2347.06
998.34	2368.3
998.636	2379.6
998.932	2329.43
999.227	2318.81
999.523	2315.87
999.818	2262.99
1000.114	2293.5
1000.409	2272.03
1000.704	2249.66
1001	2288.75
1001.295	2236.55
1001.59	2264.35
1001.885	2262.31
1002.18	2199.26
1002.475	2206.27
1002.77	2178.93
1003.065	2154.75
1003.359	2176.67
1003.654	2178.47
1003.949	2139.83
1004.243	2110
1004.538	2132.6
1004.832	2121.98
1005.127	2118.36
1005.421	2074.07
1005.715	2086.95
1006.009	2044.69
1006.304	2060.96
1006.598	2046.05
1006.892	2014.86
1007.186	2015.99
1007.48	1993.85
1007.773	1987.07
1008.067	1973.51
1008.361	1973.06
1008.655	1938.71
1008.948	1960.85
1009.242	1927.86
1009.535	1933.28
1009.829	1891.7
1010.122	1895.09
1010.415	1864.36
1010.708	1855.54
1011.001	1859.61
1011.295	1862.78
1011.588	1809.44
1011.881	1833.4
1012.173	1813.96
1012.466	1841.31
1012.759	1780.29
1013.052	1778.26
1013.344	1774.87
1013.637	1775.55
1013.93	1740.75
1014.222	1732.16
1014.514	1749.11
1014.807	1739.16
1015.099	1708.43
1015.391	1706.62
1015.683	1695.32
1015.976	1700.75
1016.268	1685.83
1016.56	1658.04
1016.851	1655.78
1017.143	1650.58
1017.435	1629.11
1017.727	1631.37
1018.018	1635.21
1018.31	1627.98
1018.602	1609
1018.893	1573.97
1019.185	1561.77
1019.476	1586.4
1019.767	1541.2
1020.058	1559.96
1020.35	1529.9
1020.641	1536.91
1020.932	1495.78
1021.223	1495.78
1021.514	1499.4
1021.804	1487.87
1022.095	1492.84
1022.386	1466.18
1022.677	1446.74
1022.967	1443.35
1023.258	1451.04
1023.548	1436.35
1023.839	1418.27
1024.129	1409.68
1024.419	1410.58
1024.709	1403.58
1025	1380.53
1025.29	1380.53
1025.58	1364.26
1025.87	1350.92
1026.16	1333.07
1026.449	1334.65
1026.739	1322.45
1027.029	1315.9
1027.319	1320.19
1027.608	1292.4
1027.898	1308.89
1028.187	1299.17
1028.477	1282
1028.766	1253.98
1029.055	1266.41
1029.344	1252.17
1029.634	1249.91
1029.923	1246.07
1030.212	1232.74
1030.501	1207.88
1030.79	1213.98
1031.078	1167.65
1031.367	1196.13
1031.656	1177.14
1031.945	1174.66
1032.233	1165.85
1032.522	1161.1
1032.81	1155
1033.099	1138.5
1033.387	1139.41
1033.675	1129.46
1033.963	1142.34
1034.251	1121.55
1034.54	1109.35
1034.828	1120.87
1035.116	1079.97
1035.403	1085.85
1035.691	1078.39
1035.979	1086.53
1036.267	1051.72
1036.554	1065.28
1036.842	1063.02
1037.129	1019.18
1037.417	1048.56
1037.704	1029.58
1037.992	1010.82
1038.279	1037.03
1038.566	1015.11
1038.853	1015.11
1039.14	1015.11
