Data from hue_340_FLMS001491_70.txt Node
Date: Mon Feb 06 15:43:27 GMT 2017
User: dcchb
Spectrometer: FLMS00149
Trigger mode: 0
Integration Time (sec): 2.000000E-2
Scans to average: 10
Electric dark correction enabled: true
Nonlinearity correction enabled: false
Boxcar width: 0
XAxis mode: Wavelengths
Number of Pixels in Spectrum: 2048
>>>>>Begin Spectral Data<<<<<
341.393	0
341.776	0
342.16	0
342.543	-55.37
342.927	-67.12
343.31	-42.94
343.693	-81.13
344.077	-66.89
344.46	-45.42
344.843	-65.99
345.226	-47.23
345.61	-38.64
345.993	-11.53
346.376	4.29
346.759	1.13
347.142	11.3
347.525	46.33
347.908	62.15
348.291	68.02
348.674	95.59
349.057	110.96
349.44	112.09
349.823	162.48
350.206	152.76
350.588	187.11
350.971	184.63
351.354	210.16
351.737	226.89
352.119	238.64
352.502	252.42
352.884	267.79
353.267	282.7
353.65	290.39
354.032	284.74
354.414	308.92
354.797	311.86
355.179	312.76
355.562	332.87
355.944	315.02
356.326	328.13
356.709	339.2
357.091	334.45
357.473	346.21
357.855	341.91
358.238	343.49
358.62	325.19
359.002	332.65
359.384	333.1
359.766	333.1
360.148	322.7
360.53	350.05
360.912	331.06
361.294	316.15
361.676	339.2
362.057	322.7
362.439	314.79
362.821	320.44
363.203	322.03
363.584	324.96
363.966	310.5
364.348	295.13
364.729	303.72
365.111	305.08
365.493	324.51
365.874	315.47
366.256	319.54
366.637	320.44
367.019	323.83
367.4	293.55
367.781	315.47
368.163	317.51
368.544	306.88
368.925	305.75
369.306	317.96
369.688	298.52
370.069	314.57
370.45	296.26
370.831	307.34
371.212	301.24
371.593	298.52
371.974	302.59
372.355	305.08
372.736	331.06
373.117	291.97
373.498	301.91
373.879	298.3
374.26	300.11
374.641	295.13
375.021	322.7
375.402	323.38
375.783	321.12
376.163	330.39
376.544	310.05
376.925	331.06
377.305	321.12
377.686	310.05
378.066	303.95
378.447	310.73
378.827	324.51
379.208	315.25
379.588	327.45
379.968	324.96
380.349	322.93
380.729	314.34
381.109	321.8
381.489	322.48
381.87	325.42
382.25	325.64
382.63	312.76
383.01	338.07
383.39	305.53
383.77	328.8
384.15	317.96
384.53	333.1
384.91	341.91
385.29	346.21
385.67	336.49
386.049	334.91
386.429	353.89
386.809	343.49
387.189	348.01
387.568	343.49
387.948	355.24
388.328	336.71
388.707	325.87
389.087	372.42
389.466	350.73
389.846	341.23
390.225	333.78
390.605	345.08
390.984	365.41
391.363	354.34
391.743	366.32
392.122	350.5
392.501	367.67
392.881	348.01
393.26	356.15
393.639	361.8
394.018	361.8
394.397	355.92
394.776	374.68
395.155	371.74
395.534	353.89
395.913	369.71
396.292	364.28
396.671	357.96
397.05	390.05
397.429	353.89
397.808	370.61
398.186	362.48
398.565	366.77
398.944	368.58
399.323	381.23
399.701	392.98
400.08	360.22
400.458	375.13
400.837	388.01
401.215	388.92
401.594	384.4
401.972	388.24
402.351	390.72
402.729	388.46
403.107	388.92
403.486	398.63
403.864	388.92
404.242	384.17
404.62	378.07
404.999	431.63
405.377	384.17
405.755	409.93
406.133	402.7
406.511	416.26
406.889	414.68
407.267	403.38
407.645	424.17
408.023	426.2
408.401	418.75
408.779	433.21
409.156	448.35
409.534	434.11
409.912	413.77
410.29	433.21
410.667	445.19
411.045	434.34
411.422	446.77
411.8	442.7
412.178	480.89
412.555	456.71
412.933	457.62
413.31	478.41
413.687	486.31
414.065	477.05
414.442	475.02
414.819	487.67
415.197	478.41
415.574	512.3
415.951	503.72
416.328	492.87
416.705	485.86
417.082	504.85
417.46	508.46
417.837	519.31
418.214	510.27
418.591	500.1
418.967	540.32
419.344	537.61
419.721	539.19
420.098	538.97
420.475	537.84
420.852	529.25
421.228	542.36
421.605	568.8
421.982	546.65
422.358	580.78
422.735	556.6
423.111	576.71
423.488	582.58
423.864	560.66
424.241	579.65
424.617	571.74
424.994	590.94
425.37	583.71
425.746	574.67
426.123	591.17
426.499	595.24
426.875	595.01
427.251	611.28
427.627	641.57
428.003	619.87
428.379	624.62
428.756	639.31
429.132	637.72
429.507	633.43
429.883	671.39
430.259	666.42
430.635	669.36
431.011	669.36
431.387	673.65
431.763	687.89
432.138	669.81
432.514	703.48
432.89	724.05
433.265	720.43
433.641	706.87
434.016	729.25
434.392	724.27
434.767	746.42
435.143	713.2
435.518	747.78
435.894	739.19
436.269	747.1
436.644	758.17
437.02	758.4
437.395	764.05
437.77	759.53
438.145	769.7
438.52	787.1
438.895	812.86
439.271	821
439.646	810.83
440.021	792.75
440.395	813.54
440.77	805.85
441.145	813.09
441.52	847.89
441.895	809.24
442.27	825.06
442.645	835.01
443.019	853.99
443.394	842.69
443.769	838.4
444.143	827.1
444.518	885.4
444.892	832.97
445.267	868
445.641	862.12
446.016	874.55
446.39	869.13
446.764	892.18
447.139	886.76
447.513	885.17
447.887	892.41
448.262	882.91
448.636	931.27
449.01	900.32
449.384	901.22
449.758	920.65
450.132	919.07
450.506	926.3
450.88	917.72
451.254	942.8
451.628	927.89
452.002	956.59
452.376	932.18
452.75	962.91
453.123	964.49
453.497	979.18
453.871	998.62
454.244	987.54
454.618	984.61
454.992	1006.3
455.365	1021.89
455.739	1015.34
456.112	1058.73
456.486	1000.88
456.859	1016.02
457.232	1039.75
457.606	1023.48
457.979	1044.72
458.352	1053.76
458.725	1065.06
459.099	1092.17
459.472	1079.07
459.845	1095.34
460.218	1112.74
460.591	1070.03
460.964	1101.21
461.337	1135.56
461.71	1138.05
462.083	1145.73
462.456	1143.02
462.829	1184.6
463.201	1168.33
463.574	1186.86
463.947	1192.74
464.32	1213.53
464.692	1206.52
465.065	1225.5
465.438	1207.65
465.81	1259.63
466.183	1235
466.555	1274.09
466.928	1308.89
467.3	1244.26
467.672	1314.32
468.045	1322
468.417	1337.14
468.789	1349.12
469.161	1349.57
469.534	1378.27
469.906	1405.39
470.278	1389.12
470.65	1430.7
471.022	1432.28
471.394	1438.15
471.766	1450.36
472.138	1468.89
472.51	1519.06
472.882	1498.04
473.253	1539.62
473.625	1555.21
473.997	1582.56
474.369	1566.96
474.74	1604.48
475.112	1629.79
475.484	1649.45
475.855	1703.01
476.227	1701.65
476.598	1710.92
476.97	1748.2
477.341	1785.26
477.713	1790.24
478.084	1813.96
478.455	1847.86
478.827	1899.61
479.198	1919.72
479.569	1906.16
479.94	1948.65
480.311	1971.02
480.682	1969.67
481.053	2033.62
481.424	2093.28
481.795	2082.66
482.166	2128.31
482.537	2156.1
482.908	2144.58
483.279	2176.89
483.65	2239.26
484.021	2262.99
484.391	2306.83
484.762	2306.83
485.133	2343.44
485.503	2368.75
485.874	2390.67
486.244	2458.47
486.615	2484.68
486.985	2505.7
487.356	2484.91
487.726	2509.31
488.097	2577.33
488.467	2573.72
488.837	2669.99
489.207	2639.48
489.578	2694.39
489.948	2728.97
490.318	2767.16
490.688	2758.35
491.058	2805.35
491.428	2873.82
491.798	2882.64
492.168	2927.83
492.538	2895.97
492.908	2947.04
493.278	2957.21
493.648	2960.83
494.017	3005.34
494.387	3060.48
494.757	3070.88
495.126	3067.72
495.496	3110.65
495.866	3110.65
496.235	3153.14
496.605	3178
496.974	3239.46
497.344	3275.62
497.713	3243.3
498.082	3296.86
498.452	3262.97
498.821	3270.65
499.19	3298.44
499.559	3378.89
499.928	3399.68
500.298	3367.6
500.667	3404.66
501.036	3409.85
501.405	3437.65
501.774	3408.05
502.143	3462.51
502.512	3480.36
502.88	3543.64
503.249	3518.1
503.618	3508.16
503.987	3527.59
504.356	3565.1
504.724	3583.63
505.093	3564.65
505.462	3603.07
505.83	3669.73
506.199	3646.01
506.567	3698.89
506.936	3677.87
507.304	3718.09
507.672	3729.39
508.041	3731.65
508.409	3752.67
508.777	3789.28
509.145	3789.05
509.514	3765.78
509.882	3800.8
510.25	3817.98
510.618	3860.01
510.986	3848.49
511.354	3865.21
511.722	3893
512.09	3909.73
512.458	3859.79
512.826	3909.5
513.193	3937.07
513.561	3933.46
513.929	3984.3
514.297	3964.19
514.664	3998.99
515.032	4020.69
515.4	4033.57
515.767	4051.19
516.135	4006.22
516.502	4006.9
516.869	4087.35
517.237	4075.83
517.604	4059.1
517.972	4096.84
518.339	4107.01
518.706	4142.94
519.073	4154.69
519.44	4136.16
519.808	4187.01
520.175	4152.43
520.542	4198.31
520.909	4190.4
521.276	4193.11
521.643	4257.06
522.009	4278.08
522.376	4261.58
522.743	4319.89
523.11	4363.05
523.477	4353.11
523.843	4396.04
524.21	4438.3
524.577	4455.02
524.943	4480.33
525.31	4469.49
525.676	4514.46
526.043	4525.53
526.409	4486.21
526.776	4602.59
527.142	4554
527.508	4638.3
527.874	4603.04
528.241	4616.83
528.607	4652.31
528.973	4705.19
529.339	4693.21
529.705	4745.19
530.071	4754.68
530.437	4733.21
530.803	4776.82
531.169	4818.4
531.535	4774.79
531.901	4787.9
532.267	4838.06
532.632	4892.75
532.998	4895.01
533.364	4913.77
533.73	4954.22
534.095	4984.73
534.461	5033.54
534.826	4978.4
535.192	5000.09
535.557	5012.52
535.923	5053.88
536.288	5098.62
536.653	5111.73
537.019	5128
537.384	5152.41
537.749	5153.54
538.114	5167.55
538.479	5189.69
538.845	5171.84
539.21	5202.58
539.575	5248.68
539.94	5295.91
540.305	5319.86
540.67	5302.01
541.034	5329.58
541.399	5335.23
541.764	5350.37
542.129	5398.5
542.494	5450.25
542.858	5415.22
543.223	5377.94
543.587	5468.1
543.952	5496.35
544.316	5496.35
544.681	5525.5
545.045	5537.48
545.41	5600.76
545.774	5582.9
546.138	5610.93
546.503	5618.16
546.867	5655.22
547.231	5713.52
547.595	5703.58
547.959	5720.3
548.324	5723.92
548.688	5802.79
549.052	5718.95
549.416	5793.29
549.779	5797.36
550.143	5772.28
550.507	5861.77
550.871	5868.09
551.235	5901.99
551.599	5917.36
551.962	5932.27
552.326	5946.96
552.689	5942.44
553.053	5982.22
553.417	6001.2
553.78	6059.05
554.143	6033.51
554.507	6068.32
554.87	6071.25
555.234	6100.18
555.597	6137.69
555.96	6142.21
556.323	6129.1
556.686	6151.02
557.05	6273.73
557.413	6201.19
557.776	6210.91
558.139	6253.39
558.502	6257.69
558.865	6258.59
559.228	6335.65
559.59	6318.03
559.953	6406.16
560.316	6395.09
560.679	6450.68
561.041	6467.85
561.404	6434.18
561.767	6569.77
562.129	6477.34
562.492	6581.75
562.854	6556.66
563.217	6538.36
563.579	6578.58
563.941	6599.6
564.304	6663.78
564.666	6668.53
565.028	6637.57
565.39	6715.53
565.753	6704.23
566.115	6715.76
566.477	6694.06
566.839	6740.84
567.201	6777.22
567.563	6817.67
567.925	6871.91
568.287	6868.29
568.648	6909.87
569.01	6899.03
569.372	6963.66
569.734	6951
570.095	7024.9
570.457	7041.4
570.819	7093.15
571.18	7122.98
571.542	7162.75
571.903	7192.13
572.265	7165.24
572.626	7204.33
572.987	7229.19
573.349	7304.89
573.71	7399.13
574.071	7404.1
574.432	7484.77
574.794	7539.69
575.155	7556.86
575.516	7566.58
575.877	7646.8
576.238	7757.31
576.599	7740.81
576.96	7802.28
577.32	7889.96
577.681	7926.12
578.042	7987.36
578.403	8066.68
578.763	8195.26
579.124	8201.82
579.485	8363.4
579.845	8400.68
580.206	8539.66
580.566	8663.28
580.927	8681.35
581.287	8811.52
581.648	8888.35
582.008	9101.68
582.368	9145.52
582.728	9293.77
583.089	9470.49
583.449	9602.46
583.809	9671.61
584.169	9888.78
584.529	9951.6
584.889	10232.5
585.249	10324.02
585.609	10457.58
585.969	10661.64
586.329	10815.99
586.688	11082.42
587.048	11209.42
587.408	11359.93
587.768	11618.9
588.127	11850.76
588.487	11996.29
588.846	12312.9
589.206	12528.26
589.565	12813.67
589.925	12961.02
590.284	13182.03
590.643	13472.19
591.003	13644.84
591.362	14042.57
591.721	14242.34
592.08	14514.65
592.44	14754.19
592.799	15004.35
593.158	15288.19
593.517	15573.6
593.876	15839.36
594.235	16045.91
594.593	16285
594.952	16615.61
595.311	16869.39
595.67	17162.49
596.029	17488.81
596.387	17876.59
596.746	18085.63
597.104	18341.66
597.463	18561.55
597.822	18894.87
598.18	19062.78
598.538	19407.85
598.897	19687.17
599.255	19914.05
599.613	20450.54
599.972	20651.43
600.33	20991.76
600.688	21062.95
601.046	21398.99
601.404	21752.2
601.762	22016.37
602.12	22355.8
602.478	22671.49
602.836	22838.95
603.194	22958.04
603.552	23349.22
603.91	23589.44
604.268	23825.14
604.625	24028.97
604.983	24336.99
605.341	24530.2
605.698	24796.86
606.056	25128.15
606.413	25252.9
606.771	25685.2
607.128	25879.32
607.485	25931.52
607.843	26261.23
608.2	26524.73
608.557	26880.65
608.914	27017.14
609.272	27216.23
609.629	27594.08
609.986	27776.9
610.343	27837.01
610.7	28235.19
611.057	28355.64
611.414	28509.76
611.771	28795.85
612.127	28949.97
612.484	29206.01
612.841	29464.54
613.198	29568.49
613.554	29646.68
613.911	29992.21
614.267	30085.99
614.624	30383.61
614.98	30451.18
615.337	30659.76
615.693	30944.95
616.05	30944.72
616.406	31226.3
616.762	31246.41
617.118	31534.54
617.475	31492.73
617.831	31631.26
618.187	31920.29
618.543	32014.75
618.899	32389.88
619.255	32480.73
619.611	32393.95
619.967	32767.95
620.323	32785.8
620.678	32707.61
621.034	32950.77
621.39	32889.53
621.746	33103.08
622.101	33508.27
622.457	33409.97
622.812	33546.91
623.168	33576.74
623.523	33755.95
623.879	33965.21
624.234	33729.51
624.589	33967.92
624.945	34101.25
625.3	34118.2
625.655	34258.31
626.01	34195.49
626.365	34321.36
626.72	34405.65
627.075	34367.01
627.43	34424.41
627.785	34480.22
628.14	34746.21
628.495	34734
628.85	34814.23
629.205	34662.82
629.559	34970.83
629.914	34894.22
630.269	34977.39
630.623	35035.91
630.978	34850.38
631.332	35117.95
631.687	35215.12
632.041	35138.51
632.396	35208.11
632.75	35138.51
633.104	35192.29
633.459	35088.57
633.813	35170.37
634.167	35178.06
634.521	35179.64
634.875	35273.87
635.229	35210.83
635.583	35035.01
635.937	35147.55
636.291	35224.38
636.645	35167.44
636.999	35053.77
637.352	35302.12
637.706	35198.17
638.06	35218.96
638.413	35272.74
638.767	35157.04
639.121	35358.17
639.474	35125.63
639.828	35158.17
640.181	35247.21
640.534	35244.05
640.888	35137.16
641.241	35053.77
641.594	34995.92
641.947	35253.54
642.301	35168.57
642.654	35213.09
643.007	35206.08
643.36	35174.22
643.713	35128.34
644.066	35228.45
644.419	35023.71
644.771	34790.27
645.124	34523.39
645.477	34388.7
645.83	34254.69
646.182	34268.03
646.535	34116.17
646.888	34191.19
647.24	34086.56
647.593	34251.53
647.945	34098.76
648.298	34035.72
648.65	34028.26
649.002	33863.06
649.355	34126.11
649.707	34089.73
650.059	34132.44
650.411	34555.7
650.763	34545.53
651.115	35041.11
651.467	34824.17
651.819	34886.54
652.171	34628.24
652.523	34756.15
652.875	34664.4
653.227	34568.58
653.578	34811.29
653.93	34752.53
654.282	34494.46
654.633	34491.97
654.985	34466.66
655.337	34717.05
655.688	34727
656.039	34792.08
656.391	34402.26
656.742	34551.63
657.094	34516.15
657.445	34600.67
657.796	34570.84
658.147	34448.59
658.498	34465.31
658.849	34528.13
659.2	34459.66
659.551	34461.69
659.902	34529.94
660.253	34462.14
660.604	34468.92
660.955	34404.52
661.306	34536.49
661.656	34462.37
662.007	34379.21
662.358	34467.57
662.708	34440.9
663.059	34267.35
663.409	34234.58
663.76	34550.5
664.11	34347.8
664.461	34412.2
664.811	34386.21
665.161	34388.25
665.511	34264.18
665.862	34389.83
666.212	34448.13
666.562	34465.76
666.912	34368.14
667.262	34225.54
667.612	34400.45
667.962	34313.45
668.312	34285.2
668.662	34424.63
669.011	34347.8
669.361	34311.64
669.711	34194.81
670.06	34217.63
670.41	34132.66
670.76	34232.55
671.109	34337.85
671.459	34295.82
671.808	34136.96
672.157	34418.53
672.507	34079.78
672.856	34055.83
673.205	34036.85
673.554	34132.44
673.904	34045.88
674.253	34211.98
674.602	34128.82
674.951	33578.1
675.3	33414.49
675.649	33981.48
675.998	34033.46
676.346	33920.24
676.695	34081.82
677.044	33827.13
677.393	33983.97
677.741	33878.88
678.09	33896.06
678.438	33724.09
678.787	33790.3
679.135	33906.91
679.484	33692.9
679.832	33879.11
680.181	33559.8
680.529	33633.24
680.877	33499.46
681.225	33521.15
681.573	33693.13
681.922	33424.43
682.27	33454.04
682.618	33463.98
682.966	33240.48
683.314	33526.35
683.661	33372.46
684.009	33175.17
684.357	33179.24
684.705	33088.62
685.053	33085.68
685.4	33057.21
685.748	32874.84
686.095	32861.96
686.443	32857.44
686.79	32826.26
687.138	32897.21
687.485	32800.72
687.832	32688.86
688.18	32675.3
688.527	32605.7
688.874	32545.81
689.221	32501.97
689.568	32374.74
689.915	32323.9
690.262	32311.01
690.609	32271.69
690.956	32049.78
691.303	32165.71
691.65	31880.07
691.997	31945.83
692.344	31713.52
692.69	31744.7
693.037	31702.67
693.383	31630.35
693.73	31636.68
694.077	31423.81
694.423	31434.43
694.769	31307.2
695.116	31341.32
695.462	31256.13
695.808	31062.69
696.155	31293.41
696.501	31043.93
696.847	31014.55
697.193	30709.7
697.539	30927.1
697.885	30630.38
698.231	30617.95
698.577	30494.79
698.923	30406.66
699.269	30261.58
699.614	30123.5
699.96	30117.4
700.306	30163.95
700.651	30069.72
700.997	29932.32
701.342	29946.78
701.688	29844.64
702.033	29749.95
702.379	29789.95
702.724	29564.65
703.069	29647.36
703.415	29262.96
703.76	29413.01
704.105	29401.49
704.45	29293.47
704.795	29179.12
705.14	29085.56
705.485	29161.27
705.83	28963.31
706.175	28911.56
706.52	28972.8
706.865	28742.97
707.209	28863.2
707.554	28551.57
707.899	28732.8
708.243	28603.09
708.588	28563.09
708.932	28342.08
709.277	28416.43
709.621	28367.84
709.966	28154.29
710.31	28253.04
710.654	28140.28
710.998	28061.18
711.342	28074.97
711.687	28051.69
712.031	27930.79
712.375	27789.78
712.719	27797.69
713.063	27739.16
713.407	27795.2
713.75	27592.95
714.094	27636.79
714.438	27563.34
714.782	27545.94
715.125	27393.18
715.469	27412.39
715.812	27340.52
716.156	27145.27
716.499	27178.27
716.843	27188.89
717.186	27103.47
717.53	27217.14
717.873	27141.21
718.216	27082.9
718.559	26872.51
718.902	26782.57
719.246	26836.81
719.589	26872.74
719.932	26683.14
720.275	26662.8
720.617	26597.72
720.96	26657.38
721.303	26542.13
721.646	26486.31
721.989	26378.06
722.331	26478.85
722.674	26432.3
723.016	26394.33
723.359	26272.08
723.701	26285.18
724.044	26019.65
724.386	25998.19
724.729	26145.08
725.071	26052.65
725.413	26078.64
725.755	26051.97
726.097	25828.25
726.439	25741.92
726.782	25829.6
727.124	25938.53
727.465	25817.63
727.807	25683.84
728.149	25679.55
728.491	25753.45
728.833	25709.61
729.175	25612.21
729.516	25501.7
729.858	25476.39
730.199	25519.55
730.541	25483.62
730.882	25577.41
731.224	25522.27
731.565	25377.41
731.906	25360.69
732.248	25288.37
732.589	25157.76
732.93	25121.15
733.271	25220.58
733.612	25148.49
733.953	25143.75
734.294	25033.47
734.635	25000.02
734.976	24979.46
735.317	24861.49
735.658	24835.96
735.999	24835.05
736.339	24828.27
736.68	24918.21
737.021	24805.68
737.361	24661.95
737.702	24887.03
738.042	24755.51
738.383	24654.04
738.723	24703.98
739.063	24488.85
739.404	24492.69
739.744	24509.41
740.084	24418.34
740.424	24479.36
740.764	24459.02
741.104	24374.27
741.444	24233.49
741.784	24234.39
742.124	24256.31
742.464	24238.23
742.804	24214.73
743.143	24099.71
743.483	24135.18
743.823	24078.69
744.162	24084.79
744.502	24017.9
744.841	23812.26
745.181	23962.76
745.52	23888.64
745.86	23934.06
746.199	23870.11
746.538	23846.6
746.877	23844.34
747.216	23849.54
747.556	23838.92
747.895	23758.25
748.234	23692.71
748.573	23628.08
748.911	23660.85
749.25	23531.13
749.589	23432.6
749.928	23398.03
750.267	23460.85
750.605	23323
750.944	23405.94
751.283	23315.09
751.621	23349.89
751.96	23133.63
752.298	23170.24
752.636	23118.49
752.975	23036.68
753.313	22971.83
753.651	23100.41
753.989	22934.99
754.327	22900.87
754.666	22728.67
755.004	22801.21
755.342	22760.76
755.679	22782.23
756.017	22610.25
756.355	22675.79
756.693	22583.59
757.031	22608.9
757.368	22383.82
757.706	22449.35
758.044	22275.35
758.381	22386.53
758.719	22288.45
759.056	22311.05
759.394	22248.68
759.731	22057.95
760.068	21961.91
760.405	21958.07
760.743	21982.7
761.08	21887.79
761.417	21792.42
761.754	21744.51
762.091	21747.9
762.428	21628.36
762.765	21454.8
763.102	21504.75
763.438	21420.68
763.775	21394.69
764.112	21382.26
764.449	21406.44
764.785	21227.46
765.122	21052.1
765.458	21122.16
765.795	20988.83
766.131	21024.53
766.467	20918.32
766.804	20692.79
767.14	20731.21
767.476	20629.74
767.812	20654.82
768.148	20663.64
768.485	20516.52
768.821	20348.17
769.157	20407.15
769.492	20253.7
769.828	20305.91
770.164	20047.38
770.5	20016.2
770.836	20029.53
771.171	19902.3
771.507	19810.55
771.842	19663.44
772.178	19774.85
772.513	19685.13
772.849	19600.84
773.184	19513.16
773.519	19525.81
773.855	19472.48
774.19	19391.13
774.525	19364.01
774.86	19274.3
775.195	19255.54
775.53	19104.81
775.865	19109.33
776.2	18921.31
776.535	18755.89
776.87	18825.49
777.205	18703.91
777.539	18631.37
777.874	18696.23
778.209	18578.72
778.543	18560.42
778.878	18404.94
779.212	18370.59
779.547	18268.45
779.881	18305.73
780.215	18135.34
780.55	18065.51
780.884	18123.14
781.218	18009.92
781.552	17971.05
781.886	17809.25
782.22	17788.23
782.554	17802.92
782.888	17531.97
783.222	17484.74
783.556	17462.37
783.889	17365.87
784.223	17240.68
784.557	17278.19
784.89	17294.69
785.224	17155.26
785.557	17027.8
785.891	17026.9
786.224	16995.94
786.558	17062.38
786.891	16849.27
787.224	16738.77
787.557	16750.52
787.891	16787.81
788.224	16714.59
788.557	16675.04
788.89	16574.48
789.223	16539.45
789.556	16448.61
789.888	16289.74
790.221	16341.49
790.554	16215.39
790.887	16144.89
791.219	16115.96
791.552	16053.36
791.884	16044.1
792.217	15928.85
792.549	15955.29
792.882	15803.88
793.214	15880.49
793.546	15827.61
793.879	15619.25
794.211	15638.91
794.543	15617.67
794.875	15522.76
795.207	15522.3
795.539	15506.26
795.871	15388.52
796.203	15273.27
796.535	15172.71
796.867	15191.92
797.198	15168.41
797.53	15154.4
797.862	15033.28
798.193	15016.33
798.525	15009.32
798.856	15072.82
799.188	14814.07
799.519	14745.38
799.85	14674.87
800.182	14656.56
800.513	14659.05
800.844	14507.87
801.175	14686.85
801.506	14601.42
801.837	14489.79
802.168	14489.79
802.499	14472.84
802.83	14295.44
803.161	14318.27
803.491	14380.19
803.822	14337.25
804.153	14217.03
804.483	14048.44
804.814	14089.35
805.145	14084.6
805.475	14110.59
805.805	14029.46
806.136	14088.44
806.466	14011.16
806.796	13954.44
807.126	13866.08
807.457	13811.84
807.787	13803.93
808.117	13717.83
808.447	13604.61
808.777	13663.14
809.107	13646.19
809.436	13572.07
809.766	13594.9
810.096	13560.32
810.426	13508.12
810.755	13423.38
811.085	13377.5
811.414	13423.38
811.744	13345.19
812.073	13259.09
812.403	13263.83
812.732	13181.8
813.061	13217.51
813.39	13107.68
813.719	13152.2
814.049	13233.1
814.378	13091.63
814.707	13091.18
815.036	12875.14
815.365	12923.95
815.693	12784.97
816.022	12820.23
816.351	12845.99
816.68	12754.92
817.008	12814.13
817.337	12652.32
817.665	12560.35
817.994	12693.68
818.322	12608.26
818.651	12625.88
818.979	12615.71
819.307	12568.26
819.636	12485.1
819.964	12522.83
820.292	12555.6
820.62	12446
820.948	12432.89
821.276	12421.14
821.604	12422.5
821.932	12419.11
822.259	12466.11
822.587	12436.28
822.915	12335.27
823.243	12476.28
823.57	12373.69
823.898	12432.44
824.225	12321.71
824.553	12328.49
824.88	12308.15
825.207	12391.76
825.535	12276.97
825.862	12391.09
826.189	12300.02
826.516	12452.78
826.843	12405.78
827.17	12433.35
827.497	12352.67
827.824	12345.21
828.151	12340.92
828.478	12365.1
828.805	12335.95
829.131	12446.9
829.458	12341.6
829.785	12192.45
830.111	12361.93
830.438	12351.09
830.764	12361.93
831.09	12385.21
831.417	12293.46
831.743	12415.49
832.069	12316.51
832.395	12221.6
832.722	12233.8
833.048	12289.62
833.374	12231.54
833.7	12132.56
834.026	12272.45
834.351	12209.4
834.677	12146.8
835.003	12273.58
835.329	12245.33
835.654	12206.91
835.98	12088.95
836.306	12131.43
836.631	12103.64
836.956	12101.6
837.282	12132.56
837.607	12027.71
837.932	11996.07
838.258	12045.11
838.583	11948.84
838.908	11878.78
839.233	11999.68
839.558	12016.41
839.883	11850.99
840.208	11839.46
840.533	11797.66
840.858	11808.5
841.182	11837.88
841.507	11838.33
841.832	11710.65
842.156	11745.45
842.481	11655.96
842.805	11727.15
843.13	11607.6
843.454	11611.45
843.778	11512.69
844.103	11505.23
844.427	11530.77
844.751	11520.6
845.075	11486.93
845.399	11422.75
845.723	11361.74
846.047	11415.07
846.371	11304.34
846.695	11267.27
847.019	11227.5
847.343	11143.89
847.666	11146.83
847.99	11107.05
848.313	11056.66
848.637	10967.4
848.96	10959.94
849.284	10934.18
849.607	10859.15
849.931	10897.57
850.254	10857.12
850.577	10801.75
850.9	10596.56
851.223	10686.05
851.546	10660.28
851.869	10560.85
852.192	10633.62
852.515	10504.58
852.838	10448.31
853.161	10446.73
853.483	10377.58
853.806	10361.31
854.129	10354.08
854.451	10279.05
854.774	10246.74
855.096	10246.74
855.419	10183.69
855.741	10172.84
856.063	10079.96
856.385	10097.36
856.708	10100.3
857.03	10039.96
857.352	10064.14
857.674	10023.24
857.996	9913.41
858.318	9834.54
858.64	9902.56
858.961	9826.18
859.283	9777.82
859.605	9745.51
859.926	9801.78
860.248	9705.28
860.57	9752.06
860.891	9689.91
861.212	9698.73
861.534	9680.65
861.855	9622.57
862.176	9619.41
862.498	9637.71
862.819	9618.05
863.14	9596.13
863.461	9553.65
863.782	9542.12
864.103	9497.38
864.424	9507.32
864.745	9490.15
865.065	9469.58
865.386	9430.26
865.707	9383.71
866.027	9385.52
866.348	9389.36
866.668	9335.12
866.989	9357.49
867.309	9308
867.63	9304.84
867.95	9357.27
868.27	9229.36
868.59	9211.96
868.91	9268
869.23	9250.15
869.55	9235.92
869.87	9272.98
870.19	9190.94
870.51	9266.2
870.83	9166.31
871.15	9096.03
871.469	9143.49
871.789	9134.22
872.109	9127.67
872.428	9066.65
872.748	9112.3
873.067	9100.33
873.386	9010.16
873.706	9045.41
874.025	8935.36
874.344	8955.7
874.663	8981.46
874.982	8921.12
875.301	8957.5
875.62	8898.98
875.939	8888.58
876.258	8880.67
876.577	8896.94
876.896	8889.71
877.214	8845.42
877.533	8884.74
877.852	8869.82
878.17	8772.2
878.489	8795.02
878.807	8795.25
879.125	8779.43
879.444	8750.96
879.762	8710.96
880.08	8736.27
880.398	8691.75
880.716	8710.28
881.034	8625.31
881.352	8688.81
881.67	8645.87
881.988	8690.62
882.306	8605.42
882.624	8634.58
882.941	8581.92
883.259	8533.56
883.577	8423.06
883.894	8531.08
884.212	8507.35
884.529	8520.45
884.846	8468.03
885.164	8443.17
885.481	8378.31
885.798	8361.81
886.115	8349.61
886.432	8322.72
886.75	8334.02
887.067	8314.58
887.383	8270.07
887.7	8258.09
888.017	8211.08
888.334	8250.4
888.651	8221.03
888.967	8177.19
889.284	8154.14
889.6	8086.57
889.917	8089.96
890.233	8085.66
890.55	8040.01
890.866	8101.71
891.182	8068.04
891.498	7986
891.815	8016.74
892.131	7997.98
892.447	7906.91
892.763	7916.18
893.079	7859.23
893.395	7856.06
893.71	7789.4
894.026	7862.62
894.342	7811.09
894.657	7680.7
894.973	7734.49
895.289	7693.58
895.604	7707.37
895.92	7700.59
896.235	7597.99
896.55	7633.02
896.865	7579.46
897.181	7571.55
897.496	7597.54
897.811	7548.28
898.126	7507.15
898.441	7488.84
898.756	7470.54
899.071	7375.17
899.386	7367.94
899.7	7344.21
900.015	7366.13
900.33	7303.54
900.644	7298.57
900.959	7238.91
901.273	7230.77
901.588	7173.82
901.902	7157.55
902.216	7124.78
902.531	7155.97
902.845	7142.41
903.159	7046.37
903.473	7055.41
903.787	7055.63
904.101	7026.03
904.415	7026.03
904.729	6958.01
905.042	6922.98
905.356	6900.38
905.67	6879.82
905.984	6918.69
906.297	6832.59
906.611	6815.87
906.924	6757.34
907.237	6791.46
907.551	6741.07
907.864	6682.54
908.177	6694.06
908.491	6606.38
908.804	6595.53
909.117	6553.27
909.43	6539.26
909.743	6513.5
910.056	6544.23
910.368	6530.68
910.681	6448.19
910.994	6449.1
911.307	6404.35
911.619	6374.97
911.932	6395.76
912.244	6357.35
912.557	6313.51
912.869	6285.26
913.181	6243.45
913.494	6237.8
913.806	6194.19
914.118	6171.14
914.43	6140.63
914.742	6158.26
915.054	6120.29
915.366	6106.96
915.678	6075.55
915.99	6021.31
916.302	5965.72
916.613	5970.24
916.925	5966.85
917.236	5927.98
917.548	5940.86
917.859	5895.21
918.171	5840.98
918.482	5792.39
918.794	5825.38
919.105	5826.74
919.416	5748.1
919.727	5740.64
920.038	5733.63
920.349	5734.76
920.66	5665.61
920.971	5672.17
921.282	5643.69
921.593	5601.43
921.903	5553.07
922.214	5543.58
922.525	5577.25
922.835	5549.68
923.146	5476.69
923.456	5445.73
923.767	5455.9
924.077	5427.43
924.387	5429.01
924.697	5424.72
925.008	5360.09
925.318	5332.52
925.628	5328.45
925.938	5297.26
926.248	5219.75
926.558	5219.52
926.867	5179.52
927.177	5162.58
927.487	5168.68
927.796	5117.15
928.106	5107.44
928.416	5141.11
928.725	5087.1
929.034	5044.61
929.344	5070.38
929.653	5078.51
929.962	4980.66
930.271	4991.96
930.581	4957.38
930.89	4921
931.199	4891.62
931.508	4899.76
931.817	4900.21
932.125	4818.18
932.434	4847.33
932.743	4834.22
933.051	4772.08
933.36	4815.69
933.669	4723.72
933.977	4730.5
934.286	4711.06
934.594	4713.1
934.902	4695.92
935.21	4676.94
935.519	4639.65
935.827	4654.79
936.135	4590.84
936.443	4540.45
936.751	4550.16
937.059	4560.11
937.367	4508.36
937.674	4486.66
937.982	4469.49
938.29	4438.98
938.597	4460.45
938.905	4371.18
939.213	4410.28
939.52	4364.18
939.827	4391.75
940.135	4365.99
940.442	4361.24
940.749	4328.47
941.056	4337.74
941.363	4306.1
941.67	4251.41
941.977	4259.55
942.284	4215.71
942.591	4224.07
942.898	4170.96
943.205	4203.05
943.511	4191.75
943.818	4168.03
944.125	4105.2
944.431	4084.64
944.738	4109.5
945.044	4059.78
945.35	4046.9
945.657	4020.91
945.963	4022.27
946.269	4022.49
946.575	4004.64
946.881	3991.31
947.187	3954.92
947.493	3951.53
947.799	3898.43
948.105	3884.64
948.41	3891.65
948.716	3886.9
949.022	3853.01
949.327	3857.75
949.633	3817.3
949.938	3792.89
950.244	3800.35
950.549	3780.92
950.854	3729.39
951.16	3724.2
951.465	3719
951.77	3685.1
952.075	3659.34
952.38	3647.36
952.685	3655.05
952.99	3642.84
953.294	3605.33
953.599	3578.89
953.904	3562.17
954.209	3573.47
954.513	3569.4
954.818	3562.62
955.122	3553.13
955.426	3554.93
955.731	3475.61
956.035	3477.87
956.339	3481.49
956.643	3440.81
956.948	3447.14
957.252	3463.64
957.556	3425.67
957.86	3401.72
958.163	3409.18
958.467	3369.85
958.771	3366.47
959.075	3351.55
959.378	3300.93
959.682	3304.55
959.985	3278.56
960.289	3271.1
960.592	3265.68
960.896	3229.07
961.199	3259.58
961.502	3251.44
961.805	3185.45
962.108	3174.15
962.411	3157.21
962.714	3174.38
963.017	3119.24
963.32	3174.61
963.623	3111.78
963.926	3124.21
964.228	3094.38
964.531	3103.87
964.833	3099.35
965.136	3016.64
965.438	3074.72
965.741	3055.51
966.043	3011.67
966.345	3009.64
966.648	2963.76
966.95	2994.27
967.252	2957.66
967.554	2970.54
967.856	2963.76
968.158	2906.82
968.46	2922.64
968.761	2958.11
969.063	2886.48
969.365	2900.94
969.666	2896.87
969.968	2857.1
970.269	2840.83
970.571	2817.55
970.872	2833.15
971.174	2802.86
971.475	2860.94
971.776	2789.08
972.077	2765.8
972.378	2767.84
972.679	2757.89
972.98	2742.07
973.281	2747.05
973.582	2719.7
973.883	2736.65
974.183	2728.97
974.484	2707.05
974.785	2654.62
975.085	2659.37
975.386	2669.08
975.686	2644
975.986	2675.18
976.287	2627.05
976.587	2606.03
976.887	2627.28
977.187	2594.51
977.487	2579.82
977.787	2552.7
978.087	2567.16
978.387	2550.67
978.687	2553.61
978.987	2520.61
979.286	2517.9
979.586	2508.18
979.885	2475.87
980.185	2452.14
980.484	2484.45
980.784	2462.31
981.083	2431.57
981.382	2417.34
981.682	2386.83
981.981	2396.32
982.28	2415.53
982.579	2410.33
982.878	2430.22
983.177	2375.53
983.475	2357.45
983.774	2348.86
984.073	2338.47
984.372	2318.58
984.67	2277.68
984.969	2295.31
985.267	2313.16
985.566	2285.14
985.864	2272.26
986.162	2293.05
986.461	2266.61
986.759	2230.22
987.057	2251.47
987.355	2222.31
987.653	2233.39
987.951	2189.09
988.249	2193.39
988.547	2203.78
988.844	2184.8
989.142	2181.19
989.44	2172.6
989.737	2151.13
990.035	2131.47
990.332	2122.88
990.63	2116.55
990.927	2111.13
991.224	2114.52
991.521	2122.66
991.819	2094.41
992.116	2086.05
992.413	2077.69
992.71	2066.61
993.006	2049.66
993.303	2077.69
993.6	2042.88
993.897	2011.7
994.193	2013.05
994.49	2006.27
994.787	2001.3
995.083	1993.85
995.379	1983.45
995.676	1914.07
995.972	1956.56
996.268	1945.94
996.565	1936.22
996.861	1921.76
997.157	1931.02
997.453	1930.8
997.749	1907.52
998.044	1861.87
998.34	1865.71
998.636	1862.55
998.932	1869.1
999.227	1857.35
999.523	1841.08
999.818	1843.12
1000.114	1852.38
1000.409	1810.12
1000.704	1790.69
1001	1820.52
1001.295	1797.47
1001.59	1818.48
1001.885	1764.7
1002.18	1755.89
1002.475	1748.88
1002.77	1754.53
1003.065	1737.36
1003.359	1745.94
1003.654	1703.91
1003.949	1700.29
1004.243	1677.92
1004.538	1674.98
1004.832	1675.44
1005.127	1684.25
1005.421	1666.4
1005.715	1649.9
1006.009	1647.19
1006.304	1658.49
1006.598	1649.67
1006.892	1637.25
1007.186	1623.91
1007.48	1625.04
1007.773	1631.6
1008.067	1585.72
1008.361	1563.12
1008.655	1568.32
1008.948	1543.91
1009.242	1540.07
1009.535	1534.87
1009.829	1539.62
1010.122	1510.92
1010.415	1486.51
1010.708	1508.89
1011.001	1489.68
1011.295	1503.69
1011.588	1496.01
1011.881	1485.61
1012.173	1492.16
1012.466	1452.62
1012.759	1458.72
1013.052	1466.85
1013.344	1412.39
1013.637	1452.84
1013.93	1445.61
1014.222	1423.92
1014.514	1424.37
1014.807	1413.75
1015.099	1378.04
1015.391	1381.88
1015.683	1378.04
1015.976	1405.61
1016.268	1360.19
1016.56	1337.59
1016.851	1334.65
1017.143	1347.76
1017.435	1346.86
1017.727	1326.07
1018.018	1330.81
1018.31	1295.33
1018.602	1285.62
1018.893	1281.77
1019.185	1278.38
1019.476	1274.09
1019.767	1264.15
1020.058	1288.1
1020.35	1265.5
1020.641	1212.85
1020.932	1224.37
1021.223	1217.37
1021.514	1222.34
1021.804	1186.41
1022.095	1213.53
1022.386	1211.72
1022.677	1229.8
1022.967	1180.31
1023.258	1172.4
1023.548	1145.05
1023.839	1168.56
1024.129	1143.92
1024.419	1137.82
1024.709	1124.94
1025	1128.78
1025.29	1097.15
1025.58	1116.58
1025.87	1080.42
1026.16	1112.74
1026.449	1126.07
1026.739	1104.15
1027.029	1074.1
1027.319	1085.17
1027.608	1064.6
1027.898	1078.39
1028.187	1063.93
1028.477	1041.1
1028.766	1043.36
1029.055	1027.77
1029.344	1028.9
1029.634	1051.27
1029.923	1016.7
1030.212	1020.09
1030.501	993.42
1030.79	1025.51
1031.078	992.29
1031.367	999.97
1031.656	998.84
1031.945	973.76
1032.233	968.56
1032.522	959.75
1032.81	973.99
1033.099	941.22
1033.387	943.03
1033.675	951.61
1033.963	948
1034.251	938.05
1034.54	904.38
1034.828	916.13
1035.116	937.15
1035.403	882.24
1035.691	896.25
1035.979	898.73
1036.267	879.3
1036.554	904.61
1036.842	865.97
1037.129	893.76
1037.417	887.43
1037.704	880.2
1037.992	863.71
1038.279	860.99
1038.566	844.95
1038.853	844.95
1039.14	844.95
