Data from hue_240_FLMS001491_00020.txt Node
Date: Tue Feb 07 16:35:08 GMT 2017
User: dcchb
Spectrometer: FLMS00149
Trigger mode: 0
Integration Time (sec): 2.000000E-2
Scans to average: 10
Electric dark correction enabled: true
Nonlinearity correction enabled: false
Boxcar width: 0
XAxis mode: Wavelengths
Number of Pixels in Spectrum: 2048
>>>>>Begin Spectral Data<<<<<
341.393	14.38
341.776	14.38
342.16	14.38
342.543	-52.74
342.927	-64.26
343.31	-59.97
343.693	-82.57
344.077	-60.65
344.46	-60.42
344.843	-76.01
345.226	-33.08
345.61	-43.02
345.993	-5.28
346.376	12.57
346.759	5.34
347.142	33.36
347.525	45.34
347.908	45.79
348.291	77.88
348.674	96.86
349.057	103.87
349.44	116.07
349.823	141.83
350.206	158.1
350.588	176.63
350.971	200.36
351.354	213.02
351.737	217.54
352.119	246.24
352.502	267.48
352.884	273.35
353.267	279.91
353.65	286.46
354.032	288.95
354.414	302.96
354.797	322.62
355.179	322.62
355.562	328.72
355.944	323.75
356.326	330.98
356.709	325.1
357.091	307.7
357.473	334.6
357.855	327.36
358.238	336.4
358.62	320.36
359.002	336.63
359.384	321.94
359.766	328.27
360.148	316.97
360.53	337.31
360.912	332.34
361.294	328.72
361.676	319.68
362.057	337.99
362.439	341.38
362.821	330.75
363.203	351.54
363.584	345.44
363.966	323.97
364.348	335.5
364.729	320.13
365.111	310.87
365.493	307.03
365.874	314.48
366.256	309.96
366.637	334.6
367.019	284.43
367.4	276.74
367.781	315.84
368.163	323.3
368.544	315.61
368.925	304.99
369.306	313.13
369.688	301.38
370.069	309.06
370.45	300.7
370.831	295.05
371.212	312.9
371.593	309.06
371.974	310.42
372.355	307.25
372.736	316.52
373.117	311.77
373.498	323.52
373.879	321.26
374.26	309.74
374.641	313.58
375.021	301.83
375.402	314.71
375.783	350.41
376.163	337.31
376.544	339.34
376.925	325.78
377.305	325.33
377.686	332.79
378.066	310.64
378.447	331.66
378.827	330.53
379.208	326.23
379.588	341.38
379.968	329.62
380.349	325.33
380.729	332.34
381.109	324.65
381.489	329.85
381.87	348.83
382.25	330.98
382.63	315.61
383.01	347.93
383.39	343.86
383.77	326.23
384.15	352.22
384.53	334.6
384.91	346.35
385.29	328.27
385.67	357.19
386.049	349.06
386.429	363.97
386.809	356.97
387.189	326.23
387.568	355.84
387.948	363.97
388.328	369.17
388.707	341.15
389.087	356.52
389.466	358.32
389.846	367.82
390.225	357.65
390.605	366.91
390.984	351.32
391.363	377.31
391.743	363.52
392.122	355.84
392.501	368.95
392.881	373.46
393.26	369.85
393.639	370.98
394.018	371.43
394.397	383.18
394.776	396.74
395.155	394.26
395.534	368.95
395.913	379.57
396.292	392.9
396.671	391.32
397.05	381.6
397.429	379.79
397.808	384.09
398.186	419.79
398.565	400.13
398.944	390.41
399.323	402.84
399.701	424.08
400.08	396.06
400.458	420.7
400.837	415.5
401.215	422.5
401.594	405.33
401.972	424.99
402.351	427.25
402.729	426.8
403.107	439.23
403.486	439
403.864	436.29
404.242	425.67
404.62	457.76
404.999	460.24
405.377	443.07
405.755	461.37
406.133	429.28
406.511	460.69
406.889	470.41
407.267	469.96
407.645	471.09
408.023	458.21
408.401	456.63
408.779	483.74
409.156	481.26
409.534	475.16
409.912	482.61
410.29	491.65
410.667	499.56
411.045	511.77
411.422	525.78
411.8	497.53
412.178	552.67
412.555	523.29
412.933	525.78
413.31	541.37
413.687	551.99
414.065	575.27
414.442	550.64
414.819	577.53
415.197	604.19
415.574	579.34
415.951	568.49
416.328	577.53
416.705	594.48
417.082	589.73
417.46	607.36
417.837	601.48
418.214	631.09
418.591	629.96
418.967	640.35
419.344	626.11
419.721	626.57
420.098	641.93
420.475	617.07
420.852	652.33
421.228	679.9
421.605	697.3
421.982	697.52
422.358	693.46
422.735	697.52
423.111	713.34
423.488	710.41
423.864	731.87
424.241	741.59
424.617	747.47
424.994	755.83
425.37	768.71
425.746	755.15
426.123	761.25
426.499	761.25
426.875	803.51
427.251	789.95
427.627	818.88
428.003	831.31
428.379	862.94
428.756	831.08
429.132	850.97
429.507	864.07
429.883	878.76
430.259	903.39
430.635	877.63
431.011	880.57
431.387	916.95
431.763	942.04
432.138	933.68
432.514	950.62
432.89	963.51
433.265	979.32
433.641	978.42
434.016	972.09
434.392	1009.61
434.767	1027.46
435.143	1043.05
435.518	1043.73
435.894	1056.38
436.269	1082.15
436.644	1102.94
437.02	1114.01
437.395	1103.84
437.77	1157.62
438.145	1145.42
438.52	1153.33
438.895	1175.93
439.271	1170.05
439.646	1199.43
440.021	1238.98
440.395	1192.43
440.77	1227.23
441.145	1249.83
441.52	1267.23
441.895	1299.99
442.27	1287.11
442.645	1278.07
443.019	1309.03
443.394	1325.98
443.769	1332.54
444.143	1316.49
444.518	1353.33
444.892	1348.13
445.267	1375.02
445.641	1382.93
446.016	1387
446.39	1371.4
446.764	1400.78
447.139	1404.85
447.513	1383.16
447.887	1420.89
448.262	1427.45
448.636	1421.12
449.01	1458.18
449.384	1441.23
449.758	1464.06
450.132	1493.21
450.506	1504.28
450.88	1489.14
451.254	1543.38
451.628	1539.31
452.002	1550.38
452.376	1585.18
452.75	1598.29
453.123	1588.8
453.497	1610.04
453.871	1654.79
454.244	1653.21
454.618	1640.1
454.992	1698.63
455.365	1684.16
455.739	1706.54
456.112	1711.28
456.486	1753.54
456.859	1740.89
457.232	1726.65
457.606	1794.44
457.979	1781.56
458.352	1846.42
458.725	1833.77
459.099	1871.73
459.472	1881.9
459.845	1910.6
460.218	1943.14
460.591	1960.77
460.964	1912.41
461.337	1989.02
461.71	2044.61
462.083	2049.58
462.456	2072.4
462.829	2021.33
463.201	2069.47
463.574	2099.07
463.947	2115.57
464.32	2136.36
464.692	2155.11
465.065	2196.02
465.438	2196.02
465.81	2209.8
466.183	2263.36
466.555	2273.3
466.928	2320.76
467.3	2304.71
467.672	2324.15
468.045	2415.67
468.417	2431.04
468.789	2426.74
469.161	2465.84
469.534	2453.86
469.906	2519.85
470.278	2542.45
470.65	2592.16
471.022	2583.58
471.394	2644.82
471.766	2662.9
472.138	2712.84
472.51	2743.35
472.882	2758.71
473.253	2785.83
473.625	2784.02
473.997	2880.74
474.369	2880.74
474.74	2923.68
475.112	3002.1
475.484	3038.71
475.855	3044.58
476.227	3082.77
476.598	3145.37
476.97	3162.77
477.341	3234.18
477.713	3241.19
478.084	3305.59
478.455	3394.85
478.827	3419.03
479.198	3490.44
479.569	3506.94
479.94	3565.7
480.311	3592.59
480.682	3660.84
481.053	3720.95
481.424	3785.35
481.795	3820.83
482.166	3860.6
482.537	3921.62
482.908	3979.02
483.279	4005.01
483.65	4078.68
484.021	4140.15
484.391	4173.59
484.762	4227.15
485.133	4268.05
485.503	4296.75
485.874	4373.59
486.244	4369.07
486.615	4485
486.985	4524.77
487.356	4614.94
487.726	4609.51
488.097	4697.42
488.467	4721.15
488.837	4776.06
489.207	4836.62
489.578	4884.08
489.948	4934.02
490.318	4980.12
490.688	5010.18
491.058	5019.9
491.428	5134.47
491.798	5189.61
492.168	5273.67
492.538	5247.23
492.908	5362.71
493.278	5403.61
493.648	5407
494.017	5470.51
494.387	5462.6
494.757	5494.23
495.126	5590.05
495.496	5547.79
495.866	5628.02
496.235	5680.67
496.605	5653.55
496.974	5705.3
497.344	5789.59
497.713	5853.55
498.082	5843.15
498.452	5842.25
498.821	5922.47
499.19	5937.84
499.559	5988.68
499.928	6000.66
500.298	6033.88
500.667	6086.76
501.036	6059.42
501.405	6044.73
501.774	6122.47
502.143	6162.24
502.512	6196.59
502.88	6181.45
503.249	6305.51
503.618	6249.02
503.987	6271.84
504.356	6302.35
504.724	6329.69
505.093	6300.77
505.462	6416.92
505.83	6409.46
506.199	6403.81
506.567	6497.15
506.936	6465.06
507.304	6503.02
507.672	6507.31
508.041	6576.92
508.409	6658.05
508.777	6641.1
509.145	6686.29
509.514	6644.71
509.882	6700.3
510.25	6695.11
510.618	6770.81
510.986	6748.89
511.354	6750.02
511.722	6820.98
512.09	6894.2
512.458	6862.56
512.826	6821.2
513.193	6918.6
513.561	6924.7
513.929	6879.51
514.297	6975.1
514.664	6986.62
515.032	7059.16
515.4	7052.16
515.767	7077.47
516.135	7113.17
516.502	7000.41
516.869	7133.29
517.237	7153.17
517.604	7152.5
517.972	7159.05
518.339	7215.32
518.706	7180.74
519.073	7178.26
519.44	7164.25
519.808	7271.14
520.175	7258.26
520.542	7271.14
520.909	7375.77
521.276	7317.69
521.643	7372.15
522.009	7393.17
522.376	7413.96
522.743	7407.18
523.11	7451.7
523.477	7548.42
523.843	7540.06
524.21	7542.54
524.577	7540.28
524.943	7602.65
525.31	7579.15
525.676	7700.73
526.043	7680.17
526.409	7776.21
526.776	7798.81
527.142	7759.49
527.508	7761.07
527.874	7730.79
528.241	7763.33
528.607	7812.37
528.973	7824.12
529.339	7839.48
529.705	7864.34
530.071	7921.29
530.437	7907.96
530.803	7945.24
531.169	7924.45
531.535	7919.48
531.901	7880.39
532.267	8001.96
532.632	7957.22
532.998	7974.17
533.364	8015.52
533.73	8007.39
534.095	8031.57
534.461	8034.96
534.826	8039.48
535.192	7990.44
535.557	8054.17
535.923	8007.16
536.288	8002.64
536.653	7975.07
537.019	8004.9
537.384	7971.91
537.749	8016.43
538.114	7993.38
538.479	7997.22
538.845	8048.97
539.21	7990.67
539.575	8011.23
539.94	8044.22
540.305	8084.9
540.67	7970.55
541.034	8035.64
541.399	8004.22
541.764	8009.2
542.129	7973.04
542.494	8042.64
542.858	8060.72
543.223	8050.33
543.587	8018.91
543.952	8039.7
544.316	8032.7
544.681	7943.66
545.045	8005.13
545.41	8053.49
545.774	8008.97
546.138	7998.57
546.503	8026.82
546.867	7987.05
547.231	8007.84
547.595	8006.48
547.959	8016.65
548.324	7998.12
548.688	7974.39
549.052	8002.42
549.416	8005.35
549.779	8006.71
550.143	7978.24
550.507	7994.28
550.871	8006.03
551.235	8034.05
551.599	8019.37
551.962	8034.73
552.326	8029.99
552.689	7997.67
553.053	7952.47
553.417	8005.13
553.78	8044.68
554.143	7981.4
554.507	8005.13
554.87	8046.03
555.234	8054.62
555.597	7970.78
555.96	8046.94
556.323	8028.4
556.686	8081.96
557.05	8086.26
557.413	8056.65
557.776	8088.06
558.139	8122.41
558.502	8130.1
558.865	8122.41
559.228	8167.16
559.59	8209.19
559.953	8142.75
560.316	8225.69
560.679	8220.26
561.041	8232.02
561.404	8260.94
561.767	8219.81
562.129	8244.67
562.492	8287.61
562.854	8285.8
563.217	8255.07
563.579	8320.15
563.941	8292.58
564.304	8377.55
564.666	8389.75
565.028	8339.58
565.39	8395.4
565.753	8442.86
566.115	8444.89
566.477	8530.99
566.839	8559.69
567.201	8589.52
567.563	8488.28
567.925	8549.75
568.287	8625.45
568.648	8585.68
569.01	8645.34
569.372	8674.94
569.734	8635.62
570.095	8667.26
570.457	8754.94
570.819	8669.97
571.18	8702.51
571.542	8695.28
571.903	8749.52
572.265	8746.8
572.626	8849.4
572.987	8835.39
573.349	8874.03
573.71	8829.74
574.071	8907.7
574.432	8908.16
574.794	8935.95
575.155	8940.25
575.516	8913.35
575.877	9003.07
576.238	8975.27
576.599	9020.47
576.96	8977.08
577.32	9067.93
577.681	9094.14
578.042	9142.05
578.403	9120.13
578.763	9174.82
579.124	9130.52
579.485	9133.69
579.845	9177.08
580.206	9154.48
580.566	9221.37
580.927	9217.75
581.287	9240.12
581.648	9185.89
582.008	9244.42
582.368	9258.2
582.728	9314.02
583.089	9276.06
583.449	9290.29
583.809	9307.92
584.169	9370.29
584.529	9352.89
584.889	9392.44
585.249	9349.73
585.609	9294.59
585.969	9418.88
586.329	9407.35
586.688	9383.85
587.048	9412.32
587.408	9399.44
587.768	9414.36
588.127	9404.41
588.487	9400.8
588.846	9500.23
589.206	9441.7
589.565	9348.14
589.925	9410.74
590.284	9430.63
590.643	9524.86
591.003	9535.03
591.362	9508.82
591.721	9524.86
592.08	9536.61
592.44	9536.61
592.799	9595.6
593.158	9554.69
593.517	9500.68
593.876	9554.69
594.235	9507.69
594.593	9529.83
594.952	9588.59
595.311	9597.18
595.67	9578.65
596.029	9571.87
596.387	9706.33
596.746	9685.54
597.104	9648.25
597.463	9620.68
597.822	9623.62
598.18	9585.88
598.538	9554.47
598.897	9627.23
599.255	9542.72
599.613	9734.35
599.972	9624.75
600.33	9682.15
600.688	9692.09
601.046	9678.3
601.404	9730.51
601.762	9648.7
602.12	9789.04
602.478	9753.56
602.836	9752.43
603.194	9665.2
603.552	9738.87
603.91	9715.82
604.268	9739.09
604.625	9675.82
604.983	9742.94
605.341	9749.94
605.698	9746.55
606.056	9800.79
606.413	9754.01
606.771	9808.02
607.128	9775.7
607.485	9733.44
607.843	9831.75
608.2	9815.02
608.557	9840.79
608.914	9818.64
609.272	9875.81
609.629	9869.03
609.986	9976.6
610.343	9861.8
610.7	9952.42
611.057	9944.06
611.414	9945.19
611.771	9916.49
612.127	9940.67
612.484	9939.31
612.841	9984.29
613.198	9925.98
613.554	9955.59
613.911	9992.42
614.267	9988.35
614.624	9929.6
614.98	9984.06
615.337	10047.79
615.693	10006.66
616.05	9966.21
616.406	10016.15
616.762	10018.18
617.118	10040.1
617.475	10002.14
617.831	10112.87
618.187	10070.61
618.543	10053.66
618.899	10101.8
619.255	10043.27
619.611	10056.83
619.967	10116.03
620.323	10137.5
620.678	10019.99
621.034	10044.62
621.39	10091.4
621.746	10081.01
622.101	10101.34
622.457	10072.64
622.812	10070.84
623.168	10096.15
623.523	10094.34
623.879	10142.25
624.234	10040.33
624.589	10155.81
624.945	10095.69
625.3	10117.62
625.655	10106.54
626.01	10067.67
626.365	10112.64
626.72	10113.32
627.075	10135.02
627.43	10070.16
627.785	10031.97
628.14	10099.31
628.495	10154.45
628.85	10050.72
629.205	10090.05
629.559	10082.36
629.914	9993.55
630.269	9991.74
630.623	10006.66
630.978	9958.75
631.332	10112.64
631.687	9979.31
632.041	9964.17
632.396	10016.83
632.75	9944.96
633.104	9926.89
633.459	9921.01
633.813	9866.32
634.167	9889.82
634.521	9883.05
634.875	9861.8
635.229	9902.03
635.583	9793.56
635.937	9788.58
636.291	9846.21
636.645	9824.06
636.999	9882.82
637.352	9874.23
637.706	9761.24
638.06	9776.61
638.413	9737.74
638.767	9731.64
639.121	9730.05
639.474	9721.02
639.828	9693.22
640.181	9705.42
640.534	9815.25
640.888	9709.26
641.241	9658.42
641.594	9664.75
641.947	9686.89
642.301	9684.18
642.654	9697.74
643.007	9655.71
643.36	9643.96
643.713	9628.59
644.066	9622.94
644.419	9612.09
644.771	9567.8
645.124	9431.53
645.477	9424.3
645.83	9314.92
646.182	9380.01
646.535	9316.96
646.888	9309.95
647.24	9274.7
647.593	9295.49
647.945	9270.86
648.298	9286.22
648.65	9284.42
649.002	9198.77
649.355	9303.63
649.707	9244.64
650.059	9340.69
650.411	9439.67
650.763	9415.71
651.115	9476.28
651.467	9464.07
651.819	9448.93
652.171	9416.39
652.523	9477.41
652.875	9432.21
653.227	9429.95
653.578	9420.46
653.93	9415.26
654.282	9384.3
654.633	9408.93
654.985	9435.15
655.337	9368.48
655.688	9419.1
656.039	9421.81
656.391	9347.69
656.742	9296.62
657.094	9396.05
657.445	9412.55
657.796	9408.48
658.147	9361.48
658.498	9410.06
658.849	9369.61
659.2	9423.85
659.551	9364.41
659.902	9417.75
660.253	9397.41
660.604	9441.47
660.955	9329.84
661.306	9374.13
661.656	9354.47
662.007	9367.8
662.358	9386.56
662.708	9352.44
663.059	9451.87
663.409	9360.8
663.76	9423.17
664.11	9398.99
664.461	9429.27
664.811	9424.3
665.161	9410.97
665.511	9351.76
665.862	9371.65
666.212	9396.96
666.562	9464.07
666.912	9408.48
667.262	9334.36
667.612	9346.34
667.962	9434.92
668.312	9346.34
668.662	9396.05
669.011	9373
669.361	9398.76
669.711	9350.63
670.06	9371.19
670.41	9283.51
670.76	9353.79
671.109	9387.24
671.459	9336.39
671.808	9278.32
672.157	9377.07
672.507	9270.86
672.856	9251.88
673.205	9255.94
673.554	9325.09
673.904	9249.84
674.253	9345.88
674.602	9242.84
674.951	9123.52
675.3	9137.53
675.649	9185.89
675.998	9304.3
676.346	9217.75
676.695	9248.94
677.044	9189.73
677.393	9205.77
677.741	9224.98
678.09	9220.92
678.438	9193.8
678.787	9143.4
679.135	9171.65
679.484	9113.8
679.832	9192.22
680.181	9076.74
680.529	9093.69
680.877	9036.06
681.225	9081.26
681.573	9097.76
681.922	8981.37
682.27	9003.97
682.618	8978.44
682.966	8942.96
683.314	9005.33
683.661	9001.71
684.009	8857.76
684.357	8801.27
684.705	8914.26
685.053	8915.16
685.4	8874.26
685.748	8811.89
686.095	8808.05
686.443	8816.63
686.79	8768.05
687.138	8738.67
687.485	8799.23
687.832	8751.32
688.18	8740.7
688.527	8661.16
688.874	8713.36
689.221	8669.97
689.568	8659.57
689.915	8591.78
690.262	8508.17
690.609	8556.53
690.956	8518.56
691.303	8476.3
691.65	8507.04
691.997	8497.09
692.344	8448.73
692.69	8387.49
693.037	8385.46
693.383	8356.53
693.73	8386.59
694.077	8317.21
694.423	8300.26
694.769	8259.36
695.116	8269.3
695.462	8229.76
695.808	8206.03
696.155	8235.4
696.501	8106.37
696.847	8213.26
697.193	8031.57
697.539	8086.93
697.885	8061.62
698.231	8018.24
698.577	8024.11
698.923	7991.8
699.269	7993.6
699.614	7845.36
699.96	7815.75
700.306	7914.51
700.651	7785.93
700.997	7761.52
701.342	7832.48
701.688	7742.08
702.033	7735.08
702.379	7692.59
702.724	7659.37
703.069	7742.54
703.415	7596.55
703.76	7612.37
704.105	7608.3
704.45	7587.06
704.795	7540.51
705.14	7550
705.485	7523.56
705.83	7503.22
706.175	7474.52
706.52	7479.27
706.865	7426.39
707.209	7428.65
707.554	7407.86
707.899	7350.23
708.243	7375.77
708.588	7382.32
708.932	7214.87
709.277	7331.7
709.621	7291.7
709.966	7267.75
710.31	7236.79
710.654	7141.2
710.998	7179.16
711.342	7195.21
711.687	7122.44
712.031	7180.74
712.375	7159.5
712.719	7154.98
713.063	7120.41
713.407	7104.14
713.75	7053.74
714.094	7106.62
714.438	7041.54
714.782	7020.52
715.125	7052.84
715.469	6986.62
715.812	7008.54
716.156	6966.29
716.499	6955.89
716.843	6996.57
717.186	6925.16
717.53	6974.65
717.873	6953.4
718.216	6955.21
718.559	6881.54
718.902	6853.52
719.246	6866.4
719.589	6829.79
719.932	6827.76
720.275	6791.6
720.617	6807.19
720.96	6792.28
721.303	6802.9
721.646	6851.49
721.989	6752.96
722.331	6754.77
722.674	6774.43
723.016	6779.62
723.359	6773.3
723.701	6821.66
724.044	6722
724.386	6746.63
724.729	6777.59
725.071	6717.25
725.413	6724.94
725.755	6701.43
726.097	6668.67
726.439	6647.88
726.782	6633.19
727.124	6735.78
727.465	6587.76
727.807	6662.11
728.149	6612.17
728.491	6647.65
728.833	6618.05
729.175	6625.73
729.516	6672.73
729.858	6587.09
730.199	6684.26
730.541	6625.73
730.882	6586.41
731.224	6658.95
731.565	6599.29
731.906	6617.59
732.248	6592.96
732.589	6624.6
732.93	6557.93
733.271	6513.87
733.612	6615.11
733.953	6574.43
734.294	6573.75
734.635	6517.48
734.976	6600.42
735.317	6568.33
735.658	6566.3
735.999	6630.48
736.339	6524.26
736.68	6609.01
737.021	6659.85
737.361	6545.51
737.702	6627.76
738.042	6604.49
738.383	6620.08
738.723	6596.35
739.063	6529.24
739.404	6630.25
739.744	6610.36
740.084	6596.35
740.424	6623.02
740.764	6553.42
741.104	6627.99
741.444	6560.87
741.784	6610.14
742.124	6626.63
742.464	6620.98
742.804	6635.67
743.143	6644.71
743.483	6587.09
743.823	6661.66
744.162	6645.84
744.502	6736.46
744.841	6688.1
745.181	6747.99
745.52	6747.08
745.86	6699.85
746.199	6758.83
746.538	6766.07
746.877	6835.67
747.216	6858.94
747.556	6801.32
747.895	6919.96
748.234	6882.9
748.573	6935.78
748.911	6941.43
749.25	6940.52
749.589	6991.82
749.928	7048.32
750.267	7140.29
750.605	7137.35
750.944	7161.76
751.283	7179.61
751.621	7288.09
751.96	7301.19
752.298	7284.92
752.636	7368.76
752.975	7398.36
753.313	7485.37
753.651	7561.3
753.989	7629.09
754.327	7682.65
754.666	7660.05
755.004	7789.99
755.342	7853.49
755.679	7912.48
756.017	7995.41
756.355	8091.68
756.693	8145.92
757.031	8266.36
757.368	8275.63
757.706	8390.66
758.044	8421.84
758.381	8501.84
758.719	8570.99
759.056	8705.9
759.394	8802.62
759.731	8799.23
760.068	8911.55
760.405	9030.19
760.743	9079.68
761.08	9167.13
761.417	9230.18
761.754	9315.15
762.091	9399.67
762.428	9553.56
762.765	9577.06
763.102	9730.05
763.438	9796.95
763.775	9863.61
764.112	9920.78
764.449	10062.25
764.785	10157.84
765.122	10200.1
765.458	10225.18
765.795	10303.15
766.131	10409.13
766.467	10402.13
766.804	10497.04
767.14	10578.17
767.476	10608.9
767.812	10693.19
768.148	10812.51
768.485	10796.24
768.821	10839.18
769.157	10965.5
769.492	10920.53
769.828	11022.68
770.164	11056.57
770.5	11144.03
770.836	11122.56
771.171	11158.94
771.507	11266.51
771.842	11198.72
772.178	11297.7
772.513	11416.56
772.849	11424.93
773.184	11350.35
773.519	11496.79
773.855	11487.3
774.19	11469.44
774.525	11554.87
774.86	11559.16
775.195	11635.77
775.53	11555.09
775.865	11552.83
776.2	11518.71
776.535	11578.14
776.87	11600.97
777.205	11564.36
777.539	11603
777.874	11655.43
778.209	11564.36
778.543	11584.92
778.878	11555.77
779.212	11655.43
779.547	11628.08
779.881	11617.69
780.215	11611.14
780.55	11680.29
780.884	11627.86
781.218	11671.02
781.552	11634.19
781.886	11666.73
782.22	11637.58
782.554	11617.69
782.888	11529.33
783.222	11578.37
783.556	11560.74
783.889	11544.02
784.223	11483.23
784.557	11478.48
784.89	11556.22
785.224	11439.39
785.557	11516.45
785.891	11362.78
786.224	11446.62
786.558	11414.98
786.891	11391.48
787.224	11355.55
787.557	11352.84
787.891	11324.59
788.224	11309.67
788.557	11287.08
788.89	11277.81
789.223	11340.18
789.556	11313.06
789.888	11231.03
790.221	11205.04
790.554	11130.92
790.887	11148.1
791.219	11071.49
791.552	11065.61
791.884	11103.35
792.217	11012.06
792.549	10994.43
792.882	11020.19
793.214	10863.81
793.546	11002.56
793.879	10869.46
794.211	10829.24
794.543	10895.67
794.875	10858.61
795.207	10946.52
795.539	10789.91
795.871	10813.87
796.203	10707.66
796.535	10690.03
796.867	10679.63
797.198	10640.77
797.53	10640.99
797.862	10567.32
798.193	10604.61
798.525	10556.7
798.856	10622.69
799.188	10403.71
799.519	10441.9
799.85	10482.58
800.182	10401.9
800.513	10413.2
800.844	10331.85
801.175	10409.36
801.506	10313.54
801.837	10344.28
802.168	10245.97
802.499	10270.15
802.83	10169.14
803.161	10139.76
803.491	10175.69
803.822	10132.98
804.153	10162.81
804.483	10055.7
804.814	10059.09
805.145	10017.05
805.475	9993.32
805.805	9966.88
806.136	10020.67
806.466	9994.45
806.796	9927.34
807.126	9927.79
807.457	9890.28
807.787	9899.09
808.117	9821.35
808.447	9798.75
808.777	9802.82
809.107	9781.13
809.436	9767.57
809.766	9730.73
810.096	9697.51
810.426	9671.98
810.755	9687.34
811.085	9684.63
811.414	9656.61
811.744	9597.18
812.073	9557.4
812.403	9620.68
812.732	9549.95
813.061	9521.47
813.39	9478.08
813.719	9448.93
814.049	9542.04
814.378	9476.05
814.707	9411.87
815.036	9460.23
815.365	9379.78
815.693	9322.83
816.022	9370.52
816.351	9268.37
816.68	9219.56
817.008	9297.52
817.337	9184.76
817.665	9257.75
817.994	9206.9
818.322	9232.44
818.651	9160.35
818.979	9061.15
819.307	9187.7
819.636	9138.88
819.964	9200.35
820.292	9142.05
820.62	9135.27
820.948	9106.34
821.276	9138.43
821.604	9079.22
821.932	9122.39
822.259	9131.43
822.587	9063.18
822.915	9109.73
823.243	9082.39
823.57	9066.12
823.898	9100.47
824.225	9052.56
824.553	9057.76
824.88	9079.22
825.207	9062.05
825.535	9050.3
825.862	9101.82
826.189	9083.29
826.516	9101.6
826.843	9103.63
827.17	9139.11
827.497	9118.32
827.824	9086.23
828.151	9107.47
828.478	9066.8
828.805	9062.28
829.131	9081.94
829.458	9116.74
829.785	9114.48
830.111	9071.32
830.438	9119
830.764	9061.6
831.09	9044.88
831.417	9046.01
831.743	9055.72
832.069	9020.24
832.395	9069.96
832.722	9112.22
833.048	8978.66
833.374	9059.11
833.7	9048.49
834.026	9030.64
834.351	9046.68
834.677	9004.88
835.003	9006.01
835.329	9029.73
835.654	8945.22
835.98	8974.59
836.306	9038.55
836.631	9041.71
836.956	9001.03
837.282	9002.39
837.607	8953.8
837.932	8928.04
838.258	8852.34
838.583	8889.4
838.908	8857.54
839.233	8895.27
839.558	8852.56
839.883	8835.84
840.208	8788.38
840.533	8830.42
840.858	8765.79
841.182	8797.88
841.507	8799.01
841.832	8704.55
842.156	8789.51
842.481	8660.7
842.805	8642.4
843.13	8713.58
843.454	8654.83
843.778	8648.05
844.103	8624.55
844.427	8600.37
844.751	8602.4
845.075	8658.9
845.399	8565.57
845.723	8554.04
846.047	8432.24
846.371	8476.98
846.695	8437.43
847.019	8385.68
847.343	8360.15
847.666	8308.85
847.99	8287.61
848.313	8302.52
848.637	8206.93
848.96	8180.72
849.284	8173.94
849.607	8058.46
849.931	8069.53
850.254	7995.64
850.577	7981.63
850.9	7956.99
851.223	7975.75
851.546	7957.45
851.869	7865.47
852.192	7912.48
852.515	7858.69
852.838	7855.53
853.161	7815.53
853.483	7808.07
853.806	7730.79
854.129	7800.39
854.451	7721.52
854.774	7709.77
855.096	7664.35
855.419	7597.68
855.741	7598.13
856.063	7561.07
856.385	7574.18
856.708	7568.76
857.03	7484.92
857.352	7533.05
857.674	7467.29
857.996	7465.93
858.318	7404.92
858.64	7417.35
858.961	7372.15
859.283	7371.02
859.605	7331.02
859.926	7364.69
860.248	7291.25
860.57	7283.79
860.891	7273.4
861.212	7266.39
861.534	7260.97
861.855	7215.32
862.176	7203.79
862.498	7212.38
862.819	7176.68
863.14	7195.88
863.461	7153.63
863.782	7179.39
864.103	7131.71
864.424	7129.67
864.745	7092.84
865.065	7103.91
865.386	7081.54
865.707	7075.21
866.027	7063.46
866.348	7060.52
866.668	7023.01
866.989	7012.84
867.309	6995.21
867.63	6965.38
867.95	7037.92
868.27	6940.75
868.59	6929.68
868.91	6951.37
869.23	6981.65
869.55	6914.76
869.87	6914.31
870.19	6893.97
870.51	6935.78
870.83	6924.48
871.15	6846.74
871.469	6891.49
871.789	6839.74
872.109	6863.24
872.428	6828.89
872.748	6859.85
873.067	6804.48
873.386	6799.06
873.706	6784.6
874.025	6748.66
874.344	6771.49
874.663	6763.35
874.982	6761.09
875.301	6767.42
875.62	6722.45
875.939	6694.65
876.258	6708.21
876.577	6690.81
876.896	6677.71
877.214	6716.57
877.533	6693.75
877.852	6669.8
878.17	6642.23
878.489	6618.95
878.807	6639.06
879.125	6598.84
879.444	6620.53
879.762	6627.31
880.08	6656.46
880.398	6583.7
880.716	6588.44
881.034	6564.49
881.352	6557.03
881.67	6539.86
881.988	6576.69
882.306	6509.12
882.624	6513.42
882.941	6434.55
883.259	6469.8
883.577	6443.59
883.894	6399.97
884.212	6428.9
884.529	6372.86
884.846	6389.13
885.164	6371.5
885.481	6363.82
885.798	6389.8
886.115	6329.24
886.432	6319.98
886.75	6305.74
887.067	6263.93
887.383	6291.5
887.7	6303.48
888.017	6247.66
888.334	6245.17
888.651	6264.38
888.967	6204.95
889.284	6215.8
889.6	6159.08
889.917	6117.49
890.233	6122.69
890.55	6126.53
890.866	6128.34
891.182	6111.17
891.498	6052.86
891.815	6003.83
892.131	6048.57
892.447	6067.1
892.763	5989.14
893.079	5985.52
893.395	5978.06
893.71	5963.6
894.026	5936.71
894.342	5890.83
894.657	5814.45
894.973	5892.64
895.289	5867.11
895.604	5860.33
895.92	5835.02
896.235	5834.34
896.55	5807.67
896.865	5794.79
897.181	5784.17
897.496	5709.14
897.811	5718.18
898.126	5711.18
898.441	5720.44
898.756	5657.85
899.071	5648.81
899.386	5649.26
899.7	5631.63
900.015	5554.35
900.33	5553.67
900.644	5532.65
900.959	5550.05
901.273	5578.53
901.588	5466.44
901.902	5450.39
902.216	5470.28
902.531	5438.19
902.845	5435.48
903.159	5455.37
903.473	5350.96
903.787	5377.85
904.101	5343.05
904.415	5282.04
904.729	5366.33
905.042	5231.19
905.356	5229.16
905.67	5245.2
905.984	5226.44
906.297	5269.61
906.611	5178.08
906.924	5143.28
907.237	5152.1
907.551	5160.91
907.864	5078.88
908.177	5114.81
908.491	5080.23
908.804	5090.63
909.117	4990.74
909.43	4974.93
909.743	4990.07
910.056	4981.48
910.368	4964.3
910.681	4928.83
910.994	4922.95
911.307	4840.69
911.619	4816.74
911.932	4863.74
912.244	4844.53
912.557	4793.01
912.869	4785.1
913.181	4781.48
913.494	4793.69
913.806	4755.5
914.118	4742.84
914.43	4706.23
914.742	4655.84
915.054	4631.88
915.366	4638.21
915.678	4640.7
915.99	4630.98
916.302	4560.25
916.613	4570.87
916.925	4583.98
917.236	4558.67
917.548	4515.73
917.859	4530.64
918.171	4426.24
918.482	4473.92
918.794	4453.58
919.105	4491.77
919.416	4413.58
919.727	4397.09
920.038	4424.88
920.349	4371.55
920.66	4352.57
920.971	4331.33
921.282	4292.91
921.593	4274.38
921.903	4300.14
922.214	4293.81
922.525	4277.09
922.835	4256.53
923.146	4179.47
923.456	4236.87
923.767	4174.27
924.077	4156.42
924.387	4138.11
924.697	4168.85
925.008	4103.76
925.318	4123.87
925.628	4102.18
925.938	4101.5
926.248	4046.59
926.558	4016.08
926.867	4058.11
927.177	3981.28
927.487	4045.68
927.796	3953.26
928.106	3955.52
928.416	3933.37
928.725	3939.25
929.034	3936.53
929.344	3900.38
929.653	3918.68
929.962	3889.98
930.271	3881.4
930.581	3809.53
930.89	3833.94
931.199	3761.85
931.508	3809.53
931.817	3774.51
932.125	3779.02
932.434	3751
932.743	3718.69
933.051	3691.12
933.36	3718.91
933.669	3665.36
933.977	3647.05
934.286	3642.53
934.594	3674.39
934.902	3641.85
935.21	3619.48
935.519	3560.95
935.827	3643.66
936.135	3578.13
936.443	3559.37
936.751	3567.28
937.059	3528.86
937.367	3555.75
937.674	3546.49
937.982	3527.28
938.29	3522.08
938.597	3492.48
938.905	3496.77
939.213	3447.28
939.52	3403.89
939.827	3412.48
940.135	3334.97
940.442	3384.23
940.749	3393.5
941.056	3391.46
941.363	3333.16
941.67	3320.73
941.977	3300.62
942.284	3272.15
942.591	3304.69
942.898	3274.18
943.205	3275.08
943.511	3213.84
943.818	3239.15
944.125	3185.82
944.431	3217.01
944.738	3174.75
945.044	3150.34
945.35	3196.89
945.657	3194.63
945.963	3120.06
946.269	3123.45
946.575	3110.57
946.881	3075.31
947.187	3070.79
947.493	3088.2
947.799	3080.96
948.105	3071.92
948.41	3043
948.716	3015.43
949.022	2984.24
949.327	3027.86
949.633	2980.4
949.938	2980.4
950.244	2969.78
950.549	2952.38
950.854	2892.27
951.16	2933.17
951.465	2902.21
951.77	2914.87
952.075	2903.12
952.38	2882.55
952.685	2882.1
952.99	2821.76
953.294	2807.98
953.599	2807.07
953.904	2829.45
954.209	2809.11
954.513	2814.53
954.818	2789.22
955.122	2788.54
955.426	2780.41
955.731	2770.46
956.035	2694.31
956.339	2729.11
956.643	2732.27
956.948	2717.81
957.252	2675.1
957.556	2716.23
957.86	2676
958.163	2701.77
958.467	2685.04
958.771	2630.13
959.075	2608.43
959.378	2621.99
959.682	2665.61
959.985	2621.32
960.289	2608.66
960.592	2603.24
960.896	2583.12
961.199	2519.4
961.502	2544.48
961.805	2542.9
962.108	2511.26
962.411	2516.69
962.714	2525.72
963.017	2465.61
963.32	2480.53
963.623	2477.14
963.926	2481.43
964.228	2447.08
964.531	2480.08
964.833	2455.9
965.136	2422.45
965.438	2397.82
965.741	2424.48
966.043	2387.88
966.345	2390.13
966.648	2359.4
966.95	2391.04
967.252	2382.68
967.554	2336.35
967.856	2334.09
968.158	2338.38
968.46	2345.62
968.761	2318.5
969.063	2311.49
969.365	2305.84
969.666	2298.61
969.968	2268.78
970.269	2244.15
970.571	2297.71
970.872	2257.48
971.174	2222
971.475	2199.41
971.776	2236.92
972.077	2233.53
972.378	2220.65
972.679	2191.27
972.98	2208.67
973.281	2205.06
973.582	2183.81
973.883	2151.95
974.183	2189.69
974.484	2177.03
974.785	2150.82
975.085	2126.19
975.386	2113.98
975.686	2103.59
975.986	2102.46
976.287	2118.73
976.587	2080.09
976.887	2116.7
977.187	2067.66
977.487	2071.27
977.787	2031.95
978.087	2052.06
978.387	2032.63
978.687	2020.43
978.987	2031.05
979.286	2016.13
979.586	1972.29
979.885	1994.67
980.185	1983.82
980.484	2001.9
980.784	2000.77
981.083	1954.67
981.382	1940.88
981.682	1955.8
981.981	1931.84
982.28	1940.88
982.579	1911.96
982.878	1925.97
983.177	1923.48
983.475	1939.98
983.774	1865.63
984.073	1870.83
984.372	1841.9
984.67	1868.57
984.969	1864.95
985.267	1834.67
985.566	1827.89
985.864	1829.7
986.162	1811.62
986.461	1815.69
986.759	1798.96
987.057	1770.94
987.355	1782.24
987.653	1812.97
987.951	1786.53
988.249	1772.3
988.547	1784.95
988.844	1782.92
989.142	1751.28
989.44	1753.09
989.737	1738.85
990.035	1698.4
990.332	1716.71
990.63	1710.83
990.927	1714.67
991.224	1708.57
991.521	1701.57
991.819	1702.02
992.116	1714.22
992.413	1688.91
992.71	1666.76
993.006	1655.46
993.303	1644.62
993.6	1640.1
993.897	1646.88
994.193	1614.34
994.49	1633.09
994.787	1625.18
995.083	1550.61
995.379	1613.43
995.676	1583.38
995.972	1593.77
996.268	1586.09
996.565	1574.56
996.861	1569.82
997.157	1543.83
997.453	1565.98
997.749	1556.03
998.044	1535.47
998.34	1551.96
998.636	1531.4
998.932	1523.94
999.227	1504.06
999.523	1502.25
999.818	1509.03
1000.114	1495.47
1000.409	1465.64
1000.704	1482.81
1001	1492.08
1001.295	1467.9
1001.59	1446.2
1001.885	1441.01
1002.18	1430.61
1002.475	1407.56
1002.77	1427.45
1003.065	1409.37
1003.359	1428.13
1003.654	1394.45
1003.949	1409.6
1004.243	1405.75
1004.538	1363.27
1004.832	1399.65
1005.127	1383.61
1005.421	1358.3
1005.715	1358.07
1006.009	1343.83
1006.304	1338.19
1006.598	1325.08
1006.892	1319.65
1007.186	1329.15
1007.48	1307.23
1007.773	1315.13
1008.067	1325.53
1008.361	1283.95
1008.655	1277.85
1008.948	1269.71
1009.242	1259.09
1009.535	1263.16
1009.829	1273.33
1010.122	1264.51
1010.415	1270.62
1010.708	1226.32
1011.001	1228.81
1011.295	1254.12
1011.588	1217.51
1011.881	1185.87
1012.173	1175.48
1012.466	1203.95
1012.759	1202.37
1013.052	1181.35
1013.344	1157.17
1013.637	1200.79
1013.93	1141.35
1014.222	1173.22
1014.514	1184.52
1014.807	1149.94
1015.099	1146.33
1015.391	1137.29
1015.683	1141.58
1015.976	1120.11
1016.268	1114.01
1016.56	1148.81
1016.851	1114.24
1017.143	1088.7
1017.435	1107.23
1017.727	1095.25
1018.018	1100.23
1018.31	1082.82
1018.602	1076.05
1018.893	1083.73
1019.185	1064.07
1019.476	1047.12
1019.767	1064.07
1020.058	1053.22
1020.35	1036.5
1020.641	1045.54
1020.932	1026.33
1021.223	996.5
1021.514	1005.76
1021.804	999.44
1022.095	1011.64
1022.386	994.69
1022.677	981.81
1022.967	963.96
1023.258	975.26
1023.548	973.45
1023.839	958.99
1024.129	976.61
1024.419	961.92
1024.709	958.99
1025	970.96
1025.29	942.04
1025.58	928.48
1025.87	928.7
1026.16	925.31
1026.449	909.27
1026.739	906.33
1027.029	905.2
1027.319	881.47
1027.608	901.36
1027.898	909.72
1028.187	902.72
1028.477	887.35
1028.766	892.32
1029.055	873.56
1029.344	853.45
1029.634	888.93
1029.923	882.38
1030.212	852.77
1030.501	851.42
1030.79	846.22
1031.078	848.25
1031.367	810.52
1031.656	824.3
1031.945	808.71
1032.233	816.39
1032.522	827.01
1032.81	814.58
1033.099	811.87
1033.387	819.1
1033.675	800.57
1033.963	786.34
1034.251	782.72
1034.54	788.6
1034.828	785.43
1035.116	767.13
1035.403	777.97
1035.691	780.91
1035.979	760.35
1036.267	769.84
1036.554	739.1
1036.842	777.75
1037.129	730.74
1037.417	741.14
1037.704	744.08
1037.992	726
1038.279	726.45
1038.566	734.36
1038.853	734.36
1039.14	734.36
