Data from hue_210_FLMS001491_00039.txt Node
Date: Tue Feb 07 16:41:07 GMT 2017
User: dcchb
Spectrometer: FLMS00149
Trigger mode: 0
Integration Time (sec): 2.000000E-2
Scans to average: 10
Electric dark correction enabled: true
Nonlinearity correction enabled: false
Boxcar width: 0
XAxis mode: Wavelengths
Number of Pixels in Spectrum: 2048
>>>>>Begin Spectral Data<<<<<
341.393	0.62
341.776	0.62
342.16	0.62
342.543	-57.68
342.927	-61.98
343.31	-62.65
343.693	-73.73
344.077	-71.92
344.46	-61.52
344.843	-71.47
345.226	-17.46
345.61	-34.63
345.993	-23.56
346.376	-16.55
346.759	16.67
347.142	31.81
347.525	37.91
347.908	83.33
348.291	57.34
348.674	92.82
349.057	113.61
349.44	101.18
349.823	134.4
350.206	167.85
350.588	178.02
350.971	198.81
351.354	239.03
351.737	240.62
352.119	258.24
352.502	259.82
352.884	288.52
353.267	277.45
353.65	283.1
354.032	292.59
354.414	293.27
354.797	325.81
355.179	324.23
355.562	323.78
355.944	333.27
356.326	349.54
356.709	356.32
357.091	326.04
357.473	340.73
357.855	355.19
358.238	330.33
358.62	342.08
359.002	344.34
359.384	349.99
359.766	349.99
360.148	331.01
360.53	331.91
360.912	355.19
361.294	314.96
361.676	326.94
362.057	357.67
362.439	350.22
362.821	338.01
363.203	329.2
363.584	342.53
363.966	323.78
364.348	325.58
364.729	320.39
365.111	316.77
365.493	307.73
365.874	317.45
366.256	308.86
366.637	308.86
367.019	332.59
367.4	333.49
367.781	326.94
368.163	320.16
368.544	316.55
368.925	328.97
369.306	338.24
369.688	313.38
370.069	321.29
370.45	284
370.831	315.42
371.212	306.6
371.593	317.68
371.974	317.68
372.355	312.93
372.736	321.29
373.117	298.69
373.498	322.87
373.879	343.21
374.26	296.66
374.641	321.07
375.021	308.41
375.402	326.04
375.783	332.36
376.163	328.07
376.544	326.04
376.925	334.62
377.305	335.08
377.686	327.17
378.066	314.06
378.447	325.81
378.827	342.08
379.208	314.74
379.588	331.46
379.968	324.23
380.349	338.92
380.729	317.68
381.109	325.36
381.489	324
381.87	333.95
382.25	354.06
382.63	328.75
383.01	343.89
383.39	360.61
383.77	344.34
384.15	363.78
384.53	359.03
384.91	359.71
385.29	333.95
385.67	350.89
386.049	344.12
386.429	355.41
386.809	351.8
387.189	356.09
387.568	368.07
387.948	340.95
388.328	379.37
388.707	370.33
389.087	377.56
389.466	376.66
389.846	365.13
390.225	382.76
390.605	369.88
390.984	360.84
391.363	369.2
391.743	372.14
392.122	368.52
392.501	381.85
392.881	397
393.26	389.54
393.639	375.07
394.018	391.8
394.397	390.67
394.776	400.16
395.155	410.78
395.534	407.84
395.913	388.63
396.292	401.74
396.671	411.91
397.05	415.75
397.429	390.89
397.808	390.89
398.186	428.63
398.565	417.79
398.944	414.4
399.323	414.62
399.701	417.11
400.08	415.3
400.458	425.24
400.837	414.4
401.215	430.67
401.594	430.89
401.972	442.42
402.351	438.58
402.729	457.11
403.107	447.16
403.486	428.41
403.864	449.65
404.242	474.28
404.62	458.24
404.999	465.47
405.377	449.65
405.755	483.09
406.133	475.64
406.511	472.93
406.889	488.29
407.267	489.87
407.645	476.32
408.023	489.65
408.401	504.79
408.779	502.3
409.156	550.44
409.534	541.85
409.912	554.28
410.29	546.82
410.667	557.89
411.045	558.12
411.422	565.58
411.8	566.93
412.178	571
412.555	605.58
412.933	596.99
413.31	607.39
413.687	611.23
414.065	636.31
414.442	655.07
414.819	639.7
415.197	671.79
415.574	658.68
415.951	650.55
416.328	685.58
416.705	678.34
417.082	691.68
417.46	725.57
417.837	721.73
418.214	727.61
418.591	739.36
418.967	756.31
419.344	773.03
419.721	780.26
420.098	771
420.475	786.59
420.852	812.35
421.228	822.75
421.605	812.8
421.982	828.62
422.358	845.57
422.735	886.02
423.111	876.3
423.488	887.38
423.864	912.46
424.241	949.07
424.617	925.34
424.994	950.65
425.37	959.92
425.746	1001.73
426.123	977.09
426.499	993.59
426.875	1013.93
427.251	1023.87
427.627	1060.03
428.003	1082.17
428.379	1095.73
428.756	1104.55
429.132	1090.08
429.507	1106.58
429.883	1112.68
430.259	1182.29
430.635	1150.87
431.011	1150.2
431.387	1185.22
431.763	1209.18
432.138	1229.52
432.514	1269.06
432.89	1264.54
433.265	1279.68
433.641	1289.4
434.016	1321.94
434.392	1343.41
434.767	1372.79
435.143	1362.62
435.518	1420.7
435.894	1446.23
436.269	1454.37
436.644	1506.34
437.02	1507.47
437.395	1574.82
437.77	1551.09
438.145	1608.49
438.52	1605.33
438.895	1631.99
439.271	1668.15
439.646	1690.97
440.021	1699.79
440.395	1743.85
440.77	1738.43
441.145	1804.87
441.52	1827.69
441.895	1837.64
442.27	1831.31
442.645	1862.95
443.019	1888.03
443.394	1886.9
443.769	1893.68
444.143	1891.65
444.518	1962.83
444.892	1967.12
445.267	1953.11
445.641	2023.17
446.016	2013.9
446.39	2035.37
446.764	2057.52
447.139	2045.99
447.513	2065.43
447.887	2075.6
448.262	2100.23
448.636	2126.22
449.01	2124.63
449.384	2189.04
449.758	2181.36
450.132	2214.35
450.506	2221.13
450.88	2229.04
451.254	2236.49
451.628	2293.67
452.002	2295.02
452.376	2336.15
452.75	2365.08
453.123	2341.8
453.497	2379.09
453.871	2374.34
454.244	2445.75
454.618	2470.84
454.992	2513.32
455.365	2517.39
455.739	2542.93
456.112	2592.87
456.486	2605.07
456.859	2615.69
457.232	2685.3
457.606	2646.88
457.979	2718.06
458.352	2752.64
458.725	2776.82
459.099	2806.88
459.472	2854.56
459.845	2863.82
460.218	2909.25
460.591	2927.55
460.964	2977.49
461.337	3039.64
461.71	3044.38
462.083	3064.95
462.456	3109.01
462.829	3110.82
463.201	3189.69
463.574	3167.54
463.947	3196.92
464.32	3288.9
464.692	3314.66
465.065	3333.64
465.438	3381.32
465.81	3434.66
466.183	3449.57
466.555	3529.79
466.928	3536.8
467.3	3562.56
467.672	3593.75
468.045	3694.54
468.417	3682.78
468.789	3715.78
469.161	3756
469.534	3810.69
469.906	3901.54
470.278	3932.27
470.65	3932.72
471.022	4003.45
471.394	4077.58
471.766	4137.46
472.138	4165.94
472.51	4265.82
472.882	4345.82
473.253	4348.98
473.625	4389.66
473.997	4514.4
474.369	4505.81
474.74	4572.7
475.112	4627.17
475.484	4690.44
475.855	4751.68
476.227	4808.86
476.598	4895.63
476.97	4943.54
477.341	5091.79
477.713	5113.93
478.084	5138.79
478.455	5246.81
478.827	5296.53
479.198	5420.14
479.569	5448.16
479.94	5585.33
480.311	5663.3
480.682	5757.76
481.053	5875.95
481.424	5863.29
481.795	5950.97
482.166	6094.7
482.537	6090.63
482.908	6233
483.279	6278.42
483.65	6403.16
484.021	6502.37
484.391	6489.72
484.762	6554.8
485.133	6643.61
485.503	6698.07
485.874	6903.72
486.244	6878.86
486.615	7070.49
486.985	7062.36
487.356	7161.11
487.726	7218.51
488.097	7340.77
488.467	7407.66
488.837	7466.87
489.207	7516.58
489.578	7684.49
489.948	7703.92
490.318	7912.5
490.688	7837.03
491.058	7983.91
491.428	8037.02
491.798	8187.52
492.168	8292.61
492.538	8262.55
492.908	8344.81
493.278	8471.81
493.648	8412.83
494.017	8584.58
494.387	8587.51
494.757	8663.22
495.126	8764.46
495.496	8708.19
495.866	8718.58
496.235	8854.85
496.605	8966.26
496.974	8940.5
497.344	9035.64
497.713	9119.93
498.082	9079.7
498.452	9183.88
498.821	9193.6
499.19	9284.45
499.559	9335.97
499.928	9290.77
500.298	9362.86
500.667	9474.5
501.036	9394.05
501.405	9486.02
501.774	9509.52
502.143	9530.31
502.512	9520.15
502.88	9652.57
503.249	9676.07
503.618	9695.06
503.987	9691.67
504.356	9726.24
504.724	9746.58
505.093	9737.09
505.462	9799.01
505.83	9864.54
506.199	9885.79
506.567	9987.03
506.936	9933.69
507.304	10042.62
507.672	10004.43
508.041	10055.27
508.409	10126
508.777	10137.76
509.145	10205.55
509.514	10140.92
509.882	10196.51
510.25	10245.32
510.618	10288.71
510.986	10302.27
511.354	10319.45
511.722	10345.89
512.09	10441.48
512.458	10335.04
512.826	10430.4
513.193	10480.35
513.561	10436.73
513.929	10473.79
514.297	10539.33
514.664	10561.47
515.032	10574.13
515.4	10689.38
515.767	10624.97
516.135	10646.44
516.502	10504.3
516.869	10692.09
517.237	10650.28
517.604	10527.58
517.972	10678.53
518.339	10661.36
518.706	10697.06
519.073	10739.1
519.44	10758.53
519.808	10787.68
520.175	10679.89
520.542	10919.2
520.909	10846.21
521.276	10772.99
521.643	10913.55
522.009	10902.26
522.376	10819.32
522.743	10921.69
523.11	10966.89
523.477	11011.63
523.843	10954.46
524.21	11028.81
524.577	11076.49
524.943	10986.1
525.31	11063.83
525.676	11165.98
526.043	11088.47
526.409	11159.65
526.776	11148.58
527.142	11173.89
527.508	11132.76
527.874	11165.07
528.241	11234.9
528.607	11193.1
528.973	11218.41
529.339	11157.62
529.705	11247.33
530.071	11209.59
530.437	11192.19
530.803	11229.48
531.169	11240.33
531.535	11149.25
531.901	11125.3
532.267	11139.54
532.632	11128.01
532.998	11191.97
533.364	11188.58
533.73	11167.56
534.095	11108.58
534.461	11074.91
534.826	11131.18
535.192	11055.02
535.557	11100.89
535.923	11087.34
536.288	11030.16
536.653	11052.53
537.019	11041.46
537.384	10976.83
537.749	11018.86
538.114	10903.39
538.479	10933.67
538.845	10908.36
539.21	10789.26
539.575	10767.57
539.94	10820.22
540.305	10950.16
540.67	10805.08
541.034	10751.53
541.399	10726.67
541.764	10727.57
542.129	10623.62
542.494	10620.46
542.858	10641.25
543.223	10545.43
543.587	10568.48
543.952	10509.05
544.316	10546.11
544.681	10481.93
545.045	10461.36
545.41	10444.41
545.774	10431.53
546.138	10514.7
546.503	10379.56
546.867	10304.08
547.231	10291.88
547.595	10269.73
547.959	10290.75
548.324	10188.6
548.688	10163.74
549.052	10205.32
549.416	10145.44
549.779	10072.22
550.143	10020.02
550.507	10100.92
550.871	10107.7
551.235	9982.51
551.599	10059.34
551.962	9963.3
552.326	9998.55
552.689	9978.21
553.053	9806.47
553.417	9852.79
553.78	9895.95
554.143	9841.49
554.507	9840.36
554.87	9808.05
555.234	9850.08
555.597	9848.27
555.96	9772.57
556.323	9759.91
556.686	9726.92
557.05	9748.84
557.413	9721.5
557.776	9687.15
558.139	9737.54
558.502	9728.28
558.865	9722.4
559.228	9708.16
559.59	9620.03
559.953	9560.6
560.316	9717.43
560.679	9636.07
561.041	9678.33
561.404	9649.63
561.767	9711.33
562.129	9684.89
562.492	9673.14
562.854	9679.91
563.217	9640.82
563.579	9722.85
563.941	9697.99
564.304	9752.23
564.666	9729.63
565.028	9757.65
565.39	9730.31
565.753	9761.04
566.115	9761.04
566.477	9749.29
566.839	9797.2
567.201	9785
567.563	9807.82
567.925	9852.34
568.287	9770.76
568.648	9754.04
569.01	9856.63
569.372	9885.33
569.734	9780.25
570.095	9911.77
570.457	9885.33
570.819	9857.09
571.18	9843.53
571.542	9963.98
571.903	9971.21
572.265	9917.2
572.626	9910.19
572.987	9956.74
573.349	9887.82
573.71	9970.53
574.071	9978.21
574.432	10057.53
574.794	10083.75
575.155	10026.35
575.516	10031.09
575.877	10034.48
576.238	10093.46
576.599	10102.28
576.96	10113.35
577.32	10116.97
577.681	10138.43
578.042	10156.96
578.403	10133.46
578.763	10167.36
579.124	10135.72
579.485	10224.31
579.845	10211.43
580.206	10215.27
580.566	10186.34
580.927	10209.39
581.287	10233.35
581.648	10160.35
582.008	10255.72
582.368	10265.66
582.728	10308.15
583.089	10308.15
583.449	10293.68
583.809	10250.07
584.169	10300.92
584.529	10308.6
584.889	10295.94
585.249	10285.77
585.609	10226.57
585.969	10346.11
586.329	10334.81
586.688	10293.01
587.048	10283.51
587.408	10211.2
587.768	10223.63
588.127	10318.32
588.487	10368.48
588.846	10349.28
589.206	10357.19
589.565	10289.16
589.925	10359.67
590.284	10324.42
590.643	10278.54
591.003	10363.06
591.362	10413.68
591.721	10324.87
592.08	10325.55
592.44	10396.96
592.799	10352.44
593.158	10331.65
593.517	10312.67
593.876	10338.2
594.235	10398.09
594.593	10290.29
594.952	10336.17
595.311	10376.85
595.67	10387.69
596.029	10448.93
596.387	10417.75
596.746	10368.94
597.104	10355.83
597.463	10451.87
597.822	10456.17
598.18	10422.95
598.538	10360.12
598.897	10440.12
599.255	10386.79
599.613	10469.05
599.972	10399.22
600.33	10360.8
600.688	10349.05
601.046	10441.48
601.404	10475.83
601.762	10422.95
602.12	10471.08
602.478	10481.7
602.836	10456.84
603.194	10359.9
603.552	10437.41
603.91	10401.25
604.268	10416.62
604.625	10446.45
604.983	10438.09
605.341	10349.73
605.698	10410.97
606.056	10452.32
606.413	10469.27
606.771	10537.29
607.128	10456.17
607.485	10462.04
607.843	10469.5
608.2	10568.03
608.557	10551.3
608.914	10487.13
609.272	10514.24
609.629	10506.56
609.986	10495.26
610.343	10575.48
610.7	10602.15
611.057	10568.71
611.414	10572.77
611.771	10519.89
612.127	10624.97
612.484	10603.51
612.841	10617.29
613.198	10587.24
613.554	10540.46
613.911	10610.96
614.267	10640.79
614.624	10605.99
614.98	10624.07
615.337	10695.71
615.693	10699.78
616.05	10620
616.406	10695.48
616.762	10690.74
617.118	10647.35
617.475	10631.53
617.831	10689.83
618.187	10739.77
618.543	10688.25
618.899	10821.13
619.255	10698.87
619.611	10749.04
619.967	10779.1
620.323	10769.38
620.678	10721.24
621.034	10669.72
621.39	10764.63
621.746	10751.3
622.101	10825.2
622.457	10736.38
622.812	10752.2
623.168	10753.33
623.523	10756.04
623.879	10807.34
624.234	10689.61
624.589	10789.72
624.945	10757.85
625.3	10787.68
625.655	10750.85
626.01	10833.33
626.365	10747.46
626.72	10671.98
627.075	10725.31
627.43	10740.23
627.785	10722.37
628.14	10726.89
628.495	10744.75
628.85	10692.09
629.205	10697.74
629.559	10754.69
629.914	10682.15
630.269	10698.65
630.623	10599.89
630.978	10702.94
631.332	10725.76
631.687	10656.84
632.041	10629.72
632.396	10649.83
632.75	10530.97
633.104	10651.87
633.459	10516.28
633.813	10576.84
634.167	10510.85
634.521	10472.21
634.875	10539.33
635.229	10530.74
635.583	10468.14
635.937	10465.88
636.291	10421.82
636.645	10472.89
636.999	10417.97
637.352	10485.09
637.706	10381.59
638.06	10458.43
638.413	10355.15
638.767	10309.73
639.121	10398.31
639.474	10292.55
639.828	10256.85
640.181	10339.56
640.534	10281.03
640.888	10301.59
641.241	10253.91
641.594	10276.06
641.947	10223.4
642.301	10211.43
642.654	10288.03
643.007	10297.53
643.36	10245.1
643.713	10203.29
644.066	10285.77
644.419	10188.38
644.771	10175.04
645.124	10103.18
645.477	10067.93
645.83	9963.75
646.182	9952.9
646.535	9897.99
646.888	9891.21
647.24	9881.04
647.593	9921.94
647.945	9840.59
648.298	9870.19
648.65	9807.14
649.002	9863.86
649.355	9867.25
649.707	9855.05
650.059	9960.36
650.411	10064.99
650.763	10050.75
651.115	10061.83
651.467	10073.58
651.819	10109.06
652.171	10041.04
652.523	10085.33
652.875	10022.73
653.227	9980.02
653.578	10085.33
653.93	10093.92
654.282	10029.06
654.633	9984.54
654.985	10161.03
655.337	10072.45
655.688	10053.92
656.039	10094.14
656.391	10053.92
656.742	10091.66
657.094	10075.38
657.445	10032.67
657.796	10057.76
658.147	10139.56
658.498	10095.95
658.849	10057.76
659.2	10092.79
659.551	10074.71
659.902	10094.14
660.253	10053.92
660.604	10149.28
660.955	10034.48
661.306	10137.53
661.656	10109.28
662.007	10128.72
662.358	10130.75
662.708	10084.88
663.059	10164.2
663.409	10079
663.76	10117.64
664.11	10227.92
664.461	10156.29
664.811	10137.3
665.161	10117.19
665.511	10150.64
665.862	10136.17
666.212	10208.04
666.562	10204.87
666.912	10114.71
667.262	10092.33
667.612	10138.66
667.962	10154.7
668.312	10120.81
668.662	10222.05
669.011	10148.83
669.361	10102.5
669.711	10062.73
670.06	10109.06
670.41	10056.18
670.76	10083.07
671.109	10101.15
671.459	10061.37
671.808	10059.79
672.157	10024.09
672.507	10018.89
672.856	10063.86
673.205	10073.58
673.554	10126.46
673.904	10047.14
674.253	10101.82
674.602	10051.43
674.951	9899.8
675.3	9798.78
675.649	10021.6
675.998	10024.09
676.346	10003.52
676.695	10021.83
677.044	9943.86
677.393	9928.5
677.741	9969.85
678.09	9934.37
678.438	9980.7
678.787	9949.29
679.135	9864.32
679.484	9862.51
679.832	9828.61
680.181	9775.51
680.529	9825.67
680.877	9774.83
681.225	9731.67
681.573	9832.91
681.922	9787.93
682.27	9671.1
682.618	9739.35
682.966	9667.26
683.314	9700.03
683.661	9663.87
684.009	9580.71
684.357	9593.14
684.705	9600.82
685.053	9578
685.4	9601.05
685.748	9530.09
686.095	9482.41
686.443	9461.62
686.79	9465.01
687.138	9477.43
687.485	9440.15
687.832	9396.08
688.18	9419.58
688.527	9401.28
688.874	9363.77
689.221	9359.25
689.568	9295.07
689.915	9256.65
690.262	9274.28
690.609	9267.04
690.956	9196.54
691.303	9205.58
691.65	9054.85
691.997	9106.82
692.344	9073.83
692.69	9067.28
693.037	9002.42
693.383	8952.7
693.73	8982.98
694.077	8919.26
694.423	8933.95
694.769	8923.1
695.116	8909.77
695.462	8817.11
695.808	8782.54
696.155	8737.79
696.501	8743.89
696.847	8713.16
697.193	8613.5
697.539	8689.88
697.885	8562.88
698.231	8538.48
698.577	8543.45
698.923	8492.38
699.269	8471.81
699.614	8476.33
699.96	8470
700.306	8380.97
700.651	8401.98
700.997	8393.4
701.342	8342.1
701.688	8350.46
702.033	8236.34
702.379	8235.89
702.724	8220.29
703.069	8234.53
703.415	8138.94
703.76	8101.2
704.105	8103.23
704.45	8108.88
704.795	8055.78
705.14	8006.74
705.485	8009
705.83	7974.42
706.175	7997.47
706.52	7872.73
706.865	7858.04
707.209	7874.76
707.554	7830.02
707.899	7854.2
708.243	7745.05
708.588	7758.16
708.932	7759.29
709.277	7682.45
709.621	7731.94
709.966	7670.7
710.31	7646.75
710.654	7603.81
710.998	7618.05
711.342	7579.63
711.687	7568.78
712.031	7500.09
712.375	7500.09
712.719	7508.67
713.063	7457.37
713.407	7536.02
713.75	7470.71
714.094	7527.66
714.438	7415.12
714.782	7444.49
715.125	7437.26
715.469	7441.33
715.812	7338.51
716.156	7324.95
716.499	7377.38
716.843	7369.92
717.186	7241.34
717.53	7338.96
717.873	7307.32
718.216	7271.84
718.559	7237.04
718.902	7320.2
719.246	7306.64
719.589	7268.9
719.932	7198.85
720.275	7233.65
720.617	7190.04
720.96	7183.26
721.303	7160.43
721.646	7206.76
721.989	7136.25
722.331	7190.71
722.674	7161.79
723.016	7103.49
723.359	7148.46
723.701	7158.85
724.044	7164.73
724.386	7109.59
724.729	7097.16
725.071	7111.62
725.413	7153.43
725.755	7100.55
726.097	7033.2
726.439	7032.75
726.782	7023.04
727.124	7037.72
727.465	7000.21
727.807	7019.19
728.149	7113.65
728.491	7035.46
728.833	7011.28
729.175	7012.64
729.516	6996.82
729.858	7030.72
730.199	7042.24
730.541	6985.75
730.882	6973.55
731.224	7086.99
731.565	6973.09
731.906	7033.88
732.248	7015.13
732.589	6946.88
732.93	6993.21
733.271	7009.7
733.612	6983.94
733.953	6982.81
734.294	6979.42
734.635	6976.94
734.976	6981.45
735.317	7067.1
735.658	6990.04
735.999	6986.88
736.339	6974
736.68	7033.2
737.021	7040.89
737.361	7028.01
737.702	7040.44
738.042	6997.5
738.383	6994.79
738.723	7044.28
739.063	7031.62
739.404	7048.57
739.744	7072.75
740.084	7059.64
740.424	7064.16
740.764	7051.96
741.104	7164.5
741.444	7071.85
741.784	7103.49
742.124	7122.69
742.464	7155.91
742.804	7145.52
743.143	7197.95
743.483	7166.76
743.823	7169.47
744.162	7164.27
744.502	7223.48
744.841	7251.5
745.181	7339.86
745.52	7325.4
745.86	7392.07
746.199	7398.85
746.538	7367.21
746.877	7540.54
747.216	7594.77
747.556	7566.3
747.895	7568.33
748.234	7652.17
748.573	7694.66
748.911	7777.37
749.25	7857.36
749.589	7851.26
749.928	7944.14
750.267	7988.89
750.605	8032.5
750.944	8093.74
751.283	8166.96
751.621	8287.41
751.96	8324.92
752.298	8429.33
752.636	8519.27
752.975	8564.01
753.313	8646.5
753.651	8791.8
753.989	8794.51
754.327	8937.79
754.666	9084.68
755.004	9169.65
755.342	9375.29
755.679	9434.27
756.017	9601.05
756.355	9675.4
756.693	9813.47
757.031	9957.42
757.368	10052.56
757.706	10242.84
758.044	10357.64
758.381	10542.49
758.719	10674.92
759.056	10909.49
759.394	10994.23
759.731	11191.29
760.068	11309.48
760.405	11471.28
760.743	11640.54
761.08	11897.03
761.417	11964.37
761.754	12138.16
762.091	12357.13
762.428	12400.07
762.765	12584.02
763.102	12883.9
763.438	12977.46
763.775	13041.41
764.112	13343.77
764.449	13521.62
764.785	13664.89
765.122	13758.68
765.458	13924.32
765.795	14115.28
766.131	14317.76
766.467	14489.96
766.804	14508.26
767.14	14639.33
767.476	14809.95
767.812	15043.84
768.148	15254.23
768.485	15266.89
768.821	15320.22
769.157	15614.9
769.492	15743.71
769.828	15837.27
770.164	15910.71
770.5	16077.94
770.836	16201.33
771.171	16247.2
771.507	16402.9
771.842	16375.56
772.178	16603.57
772.513	16697.81
772.849	16802.67
773.184	16815.09
773.519	16939.16
773.855	16952.94
774.19	17111.58
774.525	17084.92
774.86	17208.08
775.195	17354.52
775.53	17380.05
775.865	17425.93
776.2	17465.47
776.535	17456.21
776.87	17555.64
777.205	17641.51
777.539	17622.76
777.874	17750.21
778.209	17653.49
778.543	17810.77
778.878	17696.2
779.212	17826.59
779.547	17849.64
779.881	17912.92
780.215	17869.76
780.55	18025.68
780.884	17907.27
781.218	17923.77
781.552	18098.9
781.886	18047.15
782.22	18069.3
782.554	18106.81
782.888	17904.11
783.222	17980.94
783.556	17980.71
783.889	17945.46
784.223	17852.58
784.557	17921.51
784.89	18014.16
785.224	17991.56
785.557	17939.13
785.891	17956.08
786.224	17945.91
786.558	17930.32
786.891	17886.03
787.224	17802.64
787.557	17884.9
787.891	17865.01
788.224	17847.38
788.557	17901.62
788.89	17848.97
789.223	17942.75
789.556	17813.26
789.888	17766.03
790.221	17729.87
790.554	17615.07
790.887	17708.4
791.219	17554.51
791.552	17546.15
791.884	17639.25
792.217	17517.22
792.549	17535.08
792.882	17475.19
793.214	17384.12
793.546	17467.51
793.879	17394.97
794.211	17331.01
794.543	17373.05
794.875	17366.49
795.207	17362.42
795.539	17310.67
795.871	17302.09
796.203	17206.04
796.535	17121.3
796.867	17116.1
797.198	17068.65
797.53	17062.09
797.862	16956.11
798.193	16996.78
798.525	16873.17
798.856	16957.92
799.188	16805.38
799.519	16805.6
799.85	16719.73
800.182	16667.53
800.513	16709.79
800.844	16665.04
801.175	16727.87
801.506	16744.59
801.837	16617.36
802.168	16630.92
802.499	16510.92
802.83	16457.36
803.161	16404.26
803.491	16490.81
803.822	16444.71
804.153	16360.87
804.483	16235.45
804.814	16155.9
805.145	16184.83
805.475	16241.78
805.805	16220.53
806.136	16176.69
806.466	16198.16
806.796	16010.6
807.126	15963.37
807.457	15988.22
807.787	16064.61
808.117	15941.67
808.447	15905.29
808.777	15811.51
809.107	15786.42
809.436	15742.58
809.766	15758.17
810.096	15695.35
810.426	15658.06
810.755	15780.09
811.085	15656.03
811.414	15633.88
811.744	15509.59
812.073	15476.6
812.403	15573.09
812.732	15384.85
813.061	15437.28
813.39	15354.12
813.719	15357.51
814.049	15442.02
814.378	15251.07
814.707	15295.59
815.036	15241.35
815.365	15199.54
815.693	15087.68
816.022	15116.83
816.351	15111.64
816.68	14984.41
817.008	15105.99
817.337	14914.13
817.665	14922.04
817.994	15032.09
818.322	14939.21
818.651	14877.97
818.979	14857.63
819.307	14920.68
819.636	14825.09
819.964	14813.57
820.292	14851.53
820.62	14769.95
820.948	14757.3
821.276	14811.08
821.604	14834.36
821.932	14826.22
822.259	14861.93
822.587	14764.3
822.915	14701.03
823.243	14779.89
823.57	14699.44
823.898	14840.01
824.225	14744.41
824.553	14761.59
824.88	14769.27
825.207	14778.09
825.535	14745.54
825.862	14708.03
826.189	14755.26
826.516	14855.6
826.843	14837.52
827.17	14870.29
827.497	14821.25
827.824	14876.39
828.151	14833.23
828.478	14834.13
828.805	14945.31
829.131	14835.49
829.458	14797.97
829.785	14737.18
830.111	14824.41
830.438	14879.78
830.764	14777.18
831.09	14868.03
831.417	14762.27
831.743	14834.58
832.069	14820.12
832.395	14734.25
832.722	14840.91
833.048	14679.56
833.374	14794.36
833.7	14669.61
834.026	14719.33
834.351	14758.65
834.677	14696.96
835.003	14791.87
835.329	14665.32
835.654	14642.5
835.98	14709.84
836.306	14734.47
836.631	14519.79
836.956	14581.03
837.282	14665.55
837.607	14551.43
837.932	14523.18
838.258	14591.42
838.583	14518.43
838.908	14421.26
839.233	14482.27
839.558	14401.82
839.883	14430.75
840.208	14267.59
840.533	14346.23
840.858	14283.86
841.182	14350.3
841.507	14248.61
841.832	14196.86
842.156	14208.61
842.481	14177.42
842.805	14139.46
843.13	14129.97
843.454	14071.89
843.778	13976.3
844.103	13966.58
844.427	13975.85
844.751	14023.98
845.075	13893.36
845.399	13886.13
845.723	13736.98
846.047	13834.38
846.371	13773.82
846.695	13663.31
847.019	13660.6
847.343	13584.22
847.666	13482.07
847.99	13461.74
848.313	13553.94
848.637	13412.47
848.96	13388.74
849.284	13339.03
849.607	13204.79
849.931	13170.67
850.254	13059.04
850.577	13110.79
850.9	12973.61
851.223	12937.68
851.546	12920.51
851.869	12798.93
852.192	12793.73
852.515	12717.58
852.838	12674.86
853.161	12705.37
853.483	12613.62
853.806	12564.58
854.129	12596.9
854.451	12490.69
854.774	12448.43
855.096	12352.16
855.419	12348.09
855.741	12344.48
856.063	12342.44
856.385	12279.17
856.708	12284.14
857.03	12249.79
857.352	12232.16
857.674	12132.96
857.996	12047.08
858.318	12036.46
858.64	12008.67
858.961	11915.79
859.283	11917.14
859.605	11898.84
859.926	11934.77
860.248	11858.39
860.57	11830.59
860.891	11829.69
861.212	11771.39
861.534	11757.37
861.855	11678.28
862.176	11696.13
862.498	11642.35
862.819	11671.95
863.14	11556.93
863.461	11589.02
863.782	11577.72
864.103	11544.05
864.424	11482.58
864.745	11455.24
865.065	11393.77
865.386	11358.29
865.707	11378.63
866.027	11401
866.348	11388.12
866.668	11345.18
866.989	11281
867.309	11271.51
867.63	11298.18
867.95	11307.44
868.27	11225.64
868.59	11234.45
868.91	11244.39
869.23	11189.93
869.55	11161.91
869.87	11227.67
870.19	11193.32
870.51	11159.88
870.83	11192.64
871.15	11132.08
871.469	11162.36
871.789	11126.88
872.109	11068.35
872.428	10985.87
872.748	11067.45
873.067	10986.77
873.386	10986.77
873.706	11025.64
874.025	10948.13
874.344	10917.17
874.663	10924.4
874.982	10868.58
875.301	10874.91
875.62	10830.85
875.939	10811.18
876.258	10873.78
876.577	10771.41
876.896	10817.29
877.214	10768.25
877.533	10777.29
877.852	10775.03
878.17	10732.54
878.489	10736.61
878.807	10725.76
879.125	10730.96
879.444	10710.85
879.762	10673.79
880.08	10685.99
880.398	10603.96
880.716	10607.35
881.034	10506.11
881.352	10612.09
881.67	10551.08
881.988	10485.54
882.306	10445.09
882.624	10477.41
882.941	10455.71
883.259	10400.35
883.577	10376.85
883.894	10388.6
884.212	10385.43
884.529	10321.93
884.846	10280.58
885.164	10241.93
885.481	10255.49
885.798	10275.83
886.115	10179.79
886.432	10182.73
886.75	10151.54
887.067	10191.54
887.383	10028.38
887.7	10115.84
888.017	10026.35
888.334	10007.36
888.651	10005.33
888.967	9952.45
889.284	9904.54
889.6	9951.32
889.917	9851.89
890.233	9860.93
890.55	9853.92
890.866	9842.62
891.182	9835.62
891.498	9736.86
891.815	9698.22
892.131	9714.72
892.447	9676.98
892.763	9659.58
893.079	9547.04
893.395	9552.69
893.71	9608.28
894.026	9512.91
894.342	9454.84
894.657	9487.6
894.973	9456.64
895.289	9373.03
895.604	9335.52
895.92	9302.07
896.235	9212.58
896.55	9272.69
896.865	9218.01
897.181	9214.39
897.496	9198.57
897.811	9190.89
898.126	9149.53
898.441	9093.04
898.756	9006.03
899.071	9003.32
899.386	9048.97
899.7	8913.83
900.015	8884.23
900.33	8837.68
900.644	8871.8
900.959	8859.15
901.273	8840.16
901.588	8733.27
901.902	8658.02
902.216	8643.78
902.531	8614.63
902.845	8590.45
903.159	8595.88
903.473	8528.53
903.787	8523.56
904.101	8419.61
904.415	8411.02
904.729	8408.76
905.042	8438.37
905.356	8364.7
905.67	8304.36
905.984	8327.18
906.297	8242.66
906.611	8265.49
906.924	8201.54
907.237	8183.01
907.551	8166.96
907.864	8134.64
908.177	8103.01
908.491	8108.88
908.804	7940.98
909.117	7979.17
909.43	7952.95
909.743	7914.09
910.056	7866.4
910.368	7871.15
910.681	7782.34
910.994	7816.24
911.307	7767.42
911.619	7669.8
911.932	7681.78
912.244	7649.23
912.557	7613.3
912.869	7570.37
913.181	7524.27
913.494	7519.29
913.806	7489.01
914.118	7518.39
914.43	7451.95
914.742	7401.78
915.054	7387.32
915.366	7344.16
915.678	7372.63
915.99	7271.62
916.302	7239.53
916.613	7219.87
916.925	7257.38
917.236	7154.56
917.548	7137.16
917.859	7164.05
918.171	7038.18
918.482	7052.41
918.794	7034.11
919.105	7007.89
919.416	6931.74
919.727	6955.47
920.038	6964.96
920.349	6865.3
920.66	6866.2
920.971	6840.89
921.282	6821.91
921.593	6731.52
921.903	6762.25
922.214	6733.1
922.525	6698.3
922.835	6709.82
923.146	6626.89
923.456	6583.27
923.767	6592.09
924.077	6513.67
924.387	6554.8
924.697	6497.63
925.008	6486.33
925.318	6409.04
925.628	6449.72
925.938	6422.37
926.248	6348.25
926.558	6286.78
926.867	6316.61
927.177	6282.72
927.487	6274.35
927.796	6153.68
928.106	6176.5
928.416	6145.32
928.725	6174.7
929.034	6162.72
929.344	6136.51
929.653	6120.01
929.962	6026.45
930.271	5984.19
930.581	6002.27
930.89	5978.32
931.199	5998.43
931.508	5905.32
931.817	5930.86
932.125	5882.5
932.434	5855.61
932.743	5818.32
933.051	5805.67
933.36	5818.77
933.669	5736.29
933.977	5696.52
934.286	5712.11
934.594	5698.55
934.902	5645.44
935.21	5653.35
935.519	5607.71
935.827	5592.34
936.135	5582.4
936.443	5544.2
936.751	5470.31
937.059	5527.03
937.367	5506.47
937.674	5482.51
937.982	5412
938.29	5402.51
938.597	5405.45
938.905	5378.56
939.213	5287.04
939.52	5316.41
939.827	5333.14
940.135	5256.08
940.442	5220.82
940.749	5210.88
941.056	5230.54
941.363	5195.06
941.67	5199.81
941.977	5096.76
942.284	5093.14
942.591	5082.52
942.898	5076.87
943.205	5054.5
943.511	5058.34
943.818	4989.87
944.125	4951
944.431	4949.42
944.738	5005.24
945.044	4954.39
945.35	4941.51
945.657	4873.49
945.963	4892.7
946.269	4835.52
946.575	4828.07
946.881	4795.98
947.187	4808.63
947.493	4763.89
947.799	4739.93
948.105	4687.28
948.41	4725.92
948.716	4720.27
949.022	4694.28
949.327	4663.1
949.633	4630.33
949.938	4636.88
950.244	4602.08
950.549	4593.95
950.854	4522.76
951.16	4530.45
951.465	4494.29
951.77	4449.77
952.075	4436.66
952.38	4455.65
952.685	4389.66
952.99	4388.75
953.294	4391.01
953.599	4362.31
953.904	4359.83
954.209	4332.94
954.513	4342.88
954.818	4321.86
955.122	4314.41
955.426	4289.32
955.731	4250.91
956.035	4274.63
956.339	4235.76
956.643	4192.83
956.948	4171.13
957.252	4135.2
957.556	4151.92
957.86	4145.15
958.163	4113.06
958.467	4113.51
958.771	4063.34
959.075	4045.26
959.378	4007.97
959.682	4021.08
959.985	3999.39
960.289	3945.38
960.592	3941.53
960.896	3980.18
961.199	3918.94
961.502	3923.91
961.805	3929.78
962.108	3878.03
962.411	3823.57
962.714	3814.53
963.017	3807.53
963.32	3778.15
963.623	3785.15
963.926	3761.88
964.228	3740.18
964.531	3781.31
964.833	3742.22
965.136	3694.76
965.438	3701.54
965.741	3667.19
966.043	3671.03
966.345	3686.4
966.648	3643.01
966.95	3618.61
967.252	3581.77
967.554	3580.64
967.856	3574.31
968.158	3527.99
968.46	3565.73
968.761	3496.12
969.063	3545.61
969.365	3484.15
969.666	3462.45
969.968	3427.88
970.269	3433.98
970.571	3443.47
970.872	3396.46
971.174	3356.01
971.475	3385.84
971.776	3402.57
972.077	3348.33
972.378	3337.71
972.679	3362.34
972.98	3323.02
973.281	3293.64
973.582	3303.81
973.883	3244.38
974.183	3226.98
974.484	3219.75
974.785	3243.25
975.085	3235.11
975.386	3260.42
975.686	3186.75
975.986	3168.45
976.287	3125.51
976.587	3122.35
976.887	3125.29
977.187	3127.54
977.487	3093.42
977.787	3083.03
978.087	3056.36
978.387	3059.07
978.687	3041.67
978.987	3040.54
979.286	3040.77
979.586	2986.98
979.885	2956.93
980.185	3007.55
980.484	2960.32
980.784	2946.98
981.083	2943.59
981.382	2915.35
981.682	2883.03
981.981	2897.04
982.28	2896.59
982.579	2893.2
982.878	2874.67
983.177	2887.33
983.475	2825.41
983.774	2819.53
984.073	2793.99
984.372	2812.3
984.67	2810.04
984.969	2760.55
985.267	2774.33
985.566	2750.61
985.864	2776.59
986.162	2738.85
986.461	2719.87
986.759	2719.19
987.057	2713.54
987.355	2685.07
987.653	2682.58
987.951	2652.3
988.249	2683.94
988.547	2621.34
988.844	2634.22
989.142	2608.01
989.44	2605.75
989.737	2545.64
990.035	2558.52
990.332	2573.44
990.63	2526.66
990.927	2553.55
991.224	2524.62
991.521	2500.22
991.819	2489.82
992.116	2532.53
992.413	2493.66
992.71	2442.59
993.006	2473.55
993.303	2413.44
993.6	2424.74
993.897	2432.42
994.193	2438.3
994.49	2425.87
994.787	2402.82
995.083	2408.69
995.379	2384.97
995.676	2355.59
995.972	2356.27
996.268	2318.07
996.565	2323.27
996.861	2285.76
997.157	2303.16
997.453	2273.33
997.749	2281.47
998.044	2247.34
998.34	2256.16
998.636	2255.93
998.932	2242.82
999.227	2209.38
999.523	2225.2
999.818	2179.1
1000.114	2157.4
1000.409	2161.24
1000.704	2133.22
1001	2146.55
1001.295	2124.86
1001.59	2115.82
1001.885	2120.79
1002.18	2128.48
1002.475	2082.6
1002.77	2046.44
1003.065	2063.84
1003.359	2082.6
1003.654	2036.95
1003.949	2025.43
1004.243	2003.28
1004.538	2014.13
1004.832	1998.99
1005.127	1976.61
1005.421	1986.33
1005.715	1987.01
1006.009	1967.35
1006.304	1919.89
1006.598	1951.98
1006.892	1915.6
1007.186	1894.36
1007.48	1909.05
1007.773	1911.98
1008.067	1882.61
1008.361	1830.4
1008.655	1854.36
1008.948	1841.48
1009.242	1838.31
1009.535	1838.09
1009.829	1778.88
1010.122	1777.98
1010.415	1792.89
1010.708	1787.69
1011.001	1785.43
1011.295	1779.56
1011.588	1764.87
1011.881	1709.5
1012.173	1717.19
1012.466	1694.59
1012.759	1702.95
1013.052	1690.97
1013.344	1684.19
1013.637	1705.89
1013.93	1669.5
1014.222	1649.17
1014.514	1643.29
1014.807	1647.36
1015.099	1622.73
1015.391	1630.64
1015.683	1594.7
1015.976	1599.45
1016.268	1596.51
1016.56	1566.68
1016.851	1574.14
1017.143	1576.17
1017.435	1550.86
1017.727	1540.92
1018.018	1536.4
1018.31	1530.3
1018.602	1483.75
1018.893	1512.45
1019.185	1490.3
1019.476	1500.02
1019.767	1476.97
1020.058	1479.45
1020.35	1458.66
1020.641	1432.9
1020.932	1438.32
1021.223	1417.76
1021.514	1444.65
1021.804	1397.42
1022.095	1405.78
1022.386	1381.83
1022.677	1385.9
1022.967	1366.69
1023.258	1371.66
1023.548	1355.84
1023.839	1357.2
1024.129	1337.99
1024.419	1354.94
1024.709	1356.07
1025	1302.28
1025.29	1298.89
1025.58	1288.72
1025.87	1293.92
1026.16	1287.37
1026.449	1283.53
1026.739	1257.54
1027.029	1243.98
1027.319	1240.59
1027.608	1263.87
1027.898	1245.56
1028.187	1226.35
1028.477	1200.59
1028.766	1223.41
1029.055	1197.88
1029.344	1194.71
1029.634	1178.9
1029.923	1171.21
1030.212	1175.51
1030.501	1154.49
1030.79	1140.25
1031.078	1139.57
1031.367	1142.96
1031.656	1141.16
1031.945	1141.61
1032.233	1129.63
1032.522	1110.2
1032.81	1072.23
1033.099	1107.03
1033.387	1078.79
1033.675	1100.03
1033.963	1087.82
1034.251	1094.83
1034.54	1069.97
1034.828	1077.88
1035.116	1033.59
1035.403	1065.23
1035.691	1048.5
1035.979	1035.62
1036.267	1017.77
1036.554	1016.19
1036.842	1000.14
1037.129	1008.96
1037.417	1008.96
1037.704	1012.57
1037.992	1002.85
1038.279	948.85
1038.566	983.19
1038.853	983.19
1039.14	983.19
