Data from hue_150_FLMS001491_00088.txt Node
Date: Tue Feb 07 16:54:40 GMT 2017
User: dcchb
Spectrometer: FLMS00149
Trigger mode: 0
Integration Time (sec): 2.000000E-2
Scans to average: 10
Electric dark correction enabled: true
Nonlinearity correction enabled: false
Boxcar width: 0
XAxis mode: Wavelengths
Number of Pixels in Spectrum: 2048
>>>>>Begin Spectral Data<<<<<
341.393	-25.49
341.776	-25.49
342.16	-25.49
342.543	-65.72
342.927	-42.22
343.31	-51.71
343.693	-95.77
344.077	-66.4
344.46	-69.11
344.843	-25.49
345.226	-41.76
345.61	-15.1
345.993	-16.91
346.376	-7.42
346.759	-13.74
347.142	30.32
347.525	21.96
347.908	67.39
348.291	69.87
348.674	93.6
349.057	120.27
349.44	112.13
349.823	144.67
350.206	145.35
350.588	186.03
350.971	197.78
351.354	220.38
351.737	237.32
352.119	251.79
352.502	252.24
352.884	280.26
353.267	264.44
353.65	299.7
354.032	292.92
354.414	282.75
354.797	317.1
355.179	330.66
355.562	317.77
355.944	316.19
356.326	332.24
356.709	318.68
357.091	344.89
357.473	329.3
357.855	322.75
358.238	344.67
358.62	338.56
359.002	349.86
359.384	342.18
359.766	347.38
360.148	336.3
360.53	334.04
360.912	302.86
361.294	307.6
361.676	322.52
362.057	337.43
362.439	336.08
362.821	321.84
363.203	311.9
363.584	306.93
363.966	325.91
364.348	329.75
364.729	319.58
365.111	314.38
365.493	297.44
365.874	304.22
366.256	308.51
366.637	299.24
367.019	298.79
367.4	315.74
367.781	319.58
368.163	303.31
368.544	313.03
368.925	309.41
369.306	295.18
369.688	327.27
370.069	326.36
370.45	322.75
370.831	289.07
371.212	318.68
371.593	303.76
371.974	293.82
372.355	313.93
372.736	331.33
373.117	313.48
373.498	321.39
373.879	330.88
374.26	310.32
374.641	324.78
375.021	318.45
375.402	326.59
375.783	317.1
376.163	308.06
376.544	338.34
376.925	318.45
377.305	327.72
377.686	308.96
378.066	332.69
378.447	321.39
378.827	326.59
379.208	335.4
379.588	330.66
379.968	325.23
380.349	343.08
380.729	329.53
381.109	316.19
381.489	333.14
381.87	338.56
382.25	348.73
382.63	358.68
383.01	327.27
383.39	343.99
383.77	343.31
384.15	342.41
384.53	338.79
384.91	366.36
385.29	343.76
385.67	356.19
386.049	341.95
386.429	344.89
386.809	336.08
387.189	359.13
387.568	364.1
387.948	363.87
388.328	363.2
388.707	324.33
389.087	371.11
389.466	364.1
389.846	375.4
390.225	358.68
390.605	383.99
390.984	358.9
391.363	359.13
391.743	380.6
392.122	378.56
392.501	372.01
392.881	381.95
393.26	380.82
393.639	376.76
394.018	373.37
394.397	383.54
394.776	380.15
395.155	386.47
395.534	389.86
395.913	354.84
396.292	380.6
396.671	382.18
397.05	375.4
397.429	379.92
397.808	375.85
398.186	404.78
398.565	411.33
398.944	399.81
399.323	405
399.701	419.24
400.08	403.65
400.458	409.52
400.837	397.77
401.215	422.4
401.594	440.48
401.972	409.07
402.351	404.33
402.729	420.6
403.107	414.49
403.486	402.07
403.864	426.92
404.242	422.86
404.62	430.09
404.999	405.23
405.377	426.7
405.755	449.3
406.133	430.09
406.511	431.9
406.889	439.35
407.267	450.43
407.645	456.53
408.023	445.23
408.401	475.06
408.779	441.39
409.156	456.08
409.534	463.76
409.912	457.43
410.29	449.07
410.667	470.31
411.045	494.72
411.422	477.09
411.8	470.31
412.178	481.16
412.555	505.34
412.933	487.04
413.31	487.49
413.687	488.17
414.065	489.97
414.442	493.81
414.819	513.02
415.197	515.51
415.574	506.92
415.951	517.54
416.328	518.22
416.705	499.46
417.082	525.23
417.46	526.81
417.837	524.1
418.214	522.97
418.591	550.08
418.967	515.74
419.344	541.5
419.721	566.58
420.098	556.64
420.475	557.09
420.852	564.1
421.228	562.97
421.605	551.21
421.982	562.97
422.358	567.26
422.735	589.18
423.111	558.45
423.488	578.11
423.864	578.78
424.241	598.67
424.617	602.74
424.994	601.16
425.37	604.55
425.746	627.6
426.123	607.94
426.499	586.47
426.875	586.24
427.251	639.12
427.627	620.37
428.003	647.71
428.379	661.72
428.756	636.86
429.132	668.05
429.507	670.08
429.883	656.52
430.259	674.83
430.635	677.09
431.011	687.71
431.387	686.35
431.763	729.29
432.138	712.11
432.514	710.76
432.89	700.14
433.265	711.44
433.641	748.72
434.016	725.22
434.392	774.03
434.767	752.34
435.143	762.06
435.518	772.68
435.894	775.39
436.269	754.6
436.644	787.59
437.02	790.98
437.395	810.19
437.77	816.29
438.145	837.08
438.52	816.07
438.895	839.34
439.271	797.54
439.646	842.05
440.021	848.83
440.395	865.33
440.77	855.39
441.145	856.07
441.52	873.69
441.895	865.78
442.27	889.51
442.645	880.02
443.019	897.42
443.394	895.39
443.769	906.01
444.143	892.9
444.518	890.41
444.892	907.82
445.267	919.34
445.641	947.59
446.016	932
446.39	938.55
446.764	958.89
447.139	941.71
447.513	957.76
447.887	960.02
448.262	964.31
448.636	966.12
449.01	984.42
449.384	990.98
449.758	999.34
450.132	995.5
450.506	1004.99
450.88	1036.63
451.254	1025.78
451.628	1026.23
452.002	1060.81
452.376	1056.96
452.75	1075.49
453.123	1090.41
453.497	1098.77
453.871	1084.76
454.244	1094.25
454.618	1122.27
454.992	1119.79
455.365	1140.35
455.739	1153.91
456.112	1197.3
456.486	1162.27
456.859	1192.78
457.232	1164.98
457.606	1226.45
457.979	1219.9
458.352	1243.4
458.725	1273
459.099	1280.01
459.472	1286.11
459.845	1306
460.218	1320.23
460.591	1301.93
460.964	1331.76
461.337	1369.05
461.71	1356.84
462.083	1410.17
462.456	1431.42
462.829	1412.66
463.201	1436.84
463.574	1450.63
463.947	1473.68
464.32	1517.29
464.692	1526.33
465.065	1514.35
465.438	1556.61
465.81	1590.28
466.183	1614.24
466.555	1642.94
466.928	1656.72
467.3	1684.29
467.672	1682.26
468.045	1743.95
468.417	1730.39
468.789	1784.18
469.161	1831.18
469.534	1803.61
469.906	1888.35
470.278	1903.27
470.65	1932.42
471.022	1974.68
471.394	2021.01
471.766	2070.95
472.138	2069.37
472.51	2100.55
472.882	2155.92
473.253	2214.9
473.625	2246.09
473.997	2302.35
474.369	2336.93
474.74	2397.95
475.112	2431.84
475.484	2518.17
475.855	2549.81
476.227	2576.02
476.598	2661.44
476.97	2736.69
477.341	2786.18
477.713	2859.4
478.084	2902.56
478.455	3002.9
478.827	3009.91
479.198	3148.66
479.569	3191.82
479.94	3342.78
480.311	3378.94
480.682	3441.53
481.053	3568.99
481.424	3649.44
481.795	3787.29
482.166	3867.74
482.537	3889.88
482.908	4055.75
483.279	4089.43
483.65	4213.94
484.021	4320.61
484.391	4407.38
484.762	4510.43
485.133	4639.92
485.503	4752.69
485.874	4880.14
486.244	4987.71
486.615	5096.86
486.985	5207.36
487.356	5400.58
487.726	5455.49
488.097	5617.52
488.467	5703.85
488.837	5842.6
489.207	5984.97
489.578	6117.4
489.948	6282.14
490.318	6369.82
490.688	6463.38
491.058	6651.84
491.428	6800.77
491.798	6911.27
492.168	7049.57
492.538	7208.89
492.908	7256.12
493.278	7450.24
493.648	7617.7
494.017	7639.39
494.387	7868.76
494.757	7910.79
495.126	8110.79
495.496	8167.06
495.866	8292.25
496.235	8434.62
496.605	8527.95
496.974	8626.71
497.344	8793.71
497.713	8892.69
498.082	8967.49
498.452	9164.55
498.821	9155.96
499.19	9302.17
499.559	9313.7
499.928	9464.43
500.298	9591.88
500.667	9708.04
501.036	9704.42
501.405	9897.18
501.774	9983.96
502.143	10014.92
502.512	10123.84
502.88	10253.78
503.249	10249.04
503.618	10304.63
503.987	10461.91
504.356	10540.33
504.724	10623.04
505.093	10661.23
505.462	10696.71
505.83	10811.74
506.199	10898.96
506.567	11102.58
506.936	11084.95
507.304	11209.69
507.672	11202.23
508.041	11224.61
508.409	11374.43
508.777	11517.48
509.145	11566.52
509.514	11559.06
509.882	11642.22
510.25	11678.15
510.618	11699.17
510.986	11827.75
511.354	11896.45
511.722	11958.37
512.09	12033.62
512.458	12055.32
512.826	12118.14
513.193	12163.56
513.561	12113.4
513.929	12310.68
514.297	12333.05
514.664	12387.29
515.032	12442.65
515.4	12470.67
515.767	12514.06
516.135	12593.38
516.502	12595.42
516.869	12655.08
517.237	12724.68
517.604	12674.06
517.972	12834.73
518.339	12815.3
518.706	12882.19
519.073	12854.39
519.44	12898.46
519.808	13004.9
520.175	12934.39
520.542	13137.32
520.909	13099.81
521.276	12986.82
521.643	13072.24
522.009	13189.07
522.376	13222.07
522.743	13264.55
523.11	13326.47
523.477	13389.07
523.843	13489.41
524.21	13481.27
524.577	13523.98
524.943	13573.7
525.31	13553.13
525.676	13573.7
526.043	13729.4
526.409	13640.36
526.776	13714.48
527.142	13756.97
527.508	13796.06
527.874	13906.57
528.241	13795.61
528.607	13767.82
528.973	13874.25
529.339	13835.84
529.705	13911.77
530.071	13973.91
530.437	13917.42
530.803	13990.18
531.169	14004.42
531.535	13844.65
531.901	13875.84
532.267	13918.77
532.632	13896.63
532.998	13948.6
533.364	14012.1
533.73	13881.94
534.095	13926
534.461	13975.04
534.826	13938.66
535.192	14000.8
535.557	14018.2
535.923	13859.79
536.288	13957.19
536.653	13848.72
537.019	13777.76
537.384	13811.43
537.749	13776.4
538.114	13850.53
538.479	13794.93
538.845	13813.46
539.21	13638.55
539.575	13712.45
539.94	13589.97
540.305	13774.6
540.67	13667.71
541.034	13663.19
541.399	13585.22
541.764	13576.18
542.129	13598.1
542.494	13576.41
542.858	13543.64
543.223	13455.96
543.587	13476.3
543.952	13388.62
544.316	13394.94
544.681	13342.29
545.045	13374.61
545.41	13389.07
545.774	13395.17
546.138	13294.38
546.503	13278.79
546.867	13254.61
547.231	13277.66
547.595	13194.27
547.959	13222.75
548.324	13140.26
548.688	13102.75
549.052	13124.44
549.416	13080.15
549.779	13061.85
550.143	13000.6
550.507	13095.74
550.871	13013.26
551.235	12959.7
551.599	12985.92
551.962	12964.45
552.326	12916.54
552.689	12990.89
553.053	12886.71
553.417	12842.87
553.78	13028.17
554.143	12823.21
554.507	12840.61
554.87	12853.26
555.234	12938.69
555.597	12779.59
555.96	12730.1
556.323	12874.96
556.686	12685.36
557.05	12808.75
557.413	12804.45
557.776	12740.5
558.139	12794.51
558.502	12647.39
558.865	12722.87
559.228	12812.81
559.59	12752.48
559.953	12814.39
560.316	12858.91
560.679	12822.98
561.041	12829.76
561.404	12792.25
561.767	12873.38
562.129	12747.28
562.492	12889.87
562.854	12828.86
563.217	12795.19
563.579	12832.47
563.941	12912.25
564.304	12942.75
564.666	12971.45
565.028	12955.86
565.39	12923.32
565.753	12970.32
566.115	12980.94
566.477	13052.81
566.839	12939.59
567.201	13001.73
567.563	13026.59
567.925	13094.39
568.287	13085.57
568.648	13090.09
569.01	13109.53
569.372	13138.68
569.734	13116.53
570.095	13165.35
570.457	13142.52
570.819	13142.3
571.18	13122.18
571.542	13105.01
571.903	13236.76
572.265	13259.81
572.626	13285.57
572.987	13296.42
573.349	13320.6
573.71	13369.18
574.071	13333.48
574.432	13413.93
574.794	13390.2
575.155	13342.74
575.516	13356.75
575.877	13356.98
576.238	13367.83
576.599	13414.38
576.96	13362.4
577.32	13418.9
577.681	13399.46
578.042	13488.05
578.403	13382.29
578.763	13408.28
579.124	13389.97
579.485	13454.83
579.845	13447.15
580.206	13452.34
580.566	13401.72
580.927	13390.65
581.287	13515.17
581.648	13383.42
582.008	13492.34
582.368	13416.64
582.728	13502.06
583.089	13459.58
583.449	13448.28
583.809	13441.04
584.169	13405.79
584.529	13395.85
584.889	13435.4
585.249	13403.31
585.609	13307.04
585.969	13355.4
586.329	13353.14
586.688	13351.56
587.048	13405.11
587.408	13355.62
587.768	13368.05
588.127	13283.53
588.487	13341.16
588.846	13348.17
589.206	13274.95
589.565	13229.07
589.925	13296.19
590.284	13219.36
590.643	13311.78
591.003	13291.44
591.362	13237.89
591.721	13246.02
592.08	13247.83
592.44	13299.81
592.799	13328.05
593.158	13229.98
593.517	13268.39
593.876	13248.28
594.235	13250.09
594.593	13210.54
594.952	13284.89
595.311	13212.8
595.67	13275.63
596.029	13355.85
596.387	13286.7
596.746	13247.83
597.104	13153.37
597.463	13220.71
597.822	13265.91
598.18	13199.02
598.538	13208.06
598.897	13212.35
599.255	13148.4
599.613	13292.35
599.972	13180.71
600.33	13186.81
600.688	13151.79
601.046	13160.83
601.404	13250.77
601.762	13192.46
602.12	13212.8
602.478	13228.4
602.836	13228.85
603.194	13220.94
603.552	13180.03
603.91	13229.3
604.268	13136.42
604.625	13140.04
604.983	13190.43
605.341	13124.9
605.698	13147.04
606.056	13240.15
606.413	13272.24
606.771	13255.29
607.128	13198.57
607.485	13112.01
607.843	13123.54
608.2	13271.33
608.557	13290.31
608.914	13220.71
609.272	13282.86
609.629	13332.8
609.986	13408.73
610.343	13305.91
610.7	13353.82
611.057	13357.66
611.414	13321.05
611.771	13356.75
612.127	13494.15
612.484	13377.32
612.841	13545.22
613.198	13384.1
613.554	13447.82
613.911	13520.82
614.267	13514.94
614.624	13438.33
614.98	13517.2
615.337	13538.67
615.693	13425.68
616.05	13519.01
616.406	13632.68
616.762	13496.86
617.118	13553.13
617.475	13515.85
617.831	13575.5
618.187	13648.72
618.543	13640.36
618.899	13650.98
619.255	13615.05
619.611	13639.46
619.967	13716.07
620.323	13682.85
620.678	13628.38
621.034	13597.42
621.39	13607.59
621.746	13500.93
622.101	13655.73
622.457	13630.19
622.812	13647.82
623.168	13621.38
623.523	13576.41
623.879	13657.31
624.234	13542.06
624.589	13714.03
624.945	13688.72
625.3	13657.99
625.655	13564.66
626.01	13645.79
626.365	13600.14
626.72	13684.43
627.075	13611.44
627.43	13606.24
627.785	13510.42
628.14	13563.75
628.495	13566.69
628.85	13578.89
629.205	13489.86
629.559	13663.64
629.914	13542.51
630.269	13553.36
630.623	13494.15
630.978	13477.88
631.332	13604.43
631.687	13624.32
632.041	13466.81
632.396	13499.35
632.75	13452.8
633.104	13470.87
633.459	13383.19
633.813	13352.69
634.167	13378
634.521	13344.1
634.875	13462.51
635.229	13366.47
635.583	13331.9
635.937	13437.43
636.291	13352.46
636.645	13332.12
636.999	13259.35
637.352	13238.11
637.706	13269.3
638.06	13249.86
638.413	13313.36
638.767	13232.01
639.121	13173.71
639.474	13117.21
639.828	13131.9
640.181	13148.62
640.534	13112.47
640.888	13143.43
641.241	13079.25
641.594	13060.94
641.947	13096.65
642.301	13058.23
642.654	13056.2
643.007	12980.49
643.36	13081.51
643.713	13082.18
644.066	13144.78
644.419	13006.25
644.771	12988.85
645.124	12839.7
645.477	12880.83
645.83	12734.85
646.182	12678.13
646.535	12651.91
646.888	12633.38
647.24	12601.07
647.593	12659.14
647.945	12632.03
648.298	12613.95
648.65	12615.3
649.002	12523.55
649.355	12593.84
649.707	12473.39
650.059	12680.84
650.411	12795.64
650.763	12755.19
651.115	12942.07
651.467	12838.57
651.819	12873.38
652.171	12888.74
652.523	12772.59
652.875	12838.35
653.227	12826.37
653.578	12874.05
653.93	12808.75
654.282	12813.26
654.633	12789.31
654.985	12798.8
655.337	12777.33
655.688	12763.77
656.039	12824.11
656.391	12677
656.742	12799.48
657.094	12775.3
657.445	12753.83
657.796	12868.18
658.147	12847.61
658.498	12776.66
658.849	12807.62
659.2	12805.36
659.551	12752.7
659.902	12839.25
660.253	12855.07
660.604	12782.08
660.955	12754.28
661.306	12842.19
661.656	12760.38
662.007	12863.66
662.358	12843.09
662.708	12824.79
663.059	12775.75
663.409	12763.1
663.76	12830.67
664.11	12888.97
664.461	12881.29
664.811	12932.81
665.161	12994.28
665.511	12817.11
665.862	12874.96
666.212	12842.64
666.562	12864.11
666.912	12837.22
667.262	12760.16
667.612	12895.3
667.962	12888.07
668.312	12785.47
668.662	12869.08
669.011	12790.21
669.361	12880.83
669.711	12796.32
670.06	12833.38
670.41	12812.81
670.76	12825.02
671.109	12771.91
671.459	12795.41
671.808	12778.01
672.157	12679.03
672.507	12663.44
672.856	12687.84
673.205	12713.15
673.554	12786.37
673.904	12763.1
674.253	12802.64
674.602	12722.87
674.951	12509.09
675.3	12507.06
675.649	12639.26
675.998	12653.95
676.346	12631.35
676.695	12698.01
677.044	12606.49
677.393	12634.06
677.741	12676.77
678.09	12519.49
678.438	12506.83
678.787	12608.3
679.135	12571.92
679.484	12519.71
679.832	12553.38
680.181	12512.03
680.529	12449.43
680.877	12475.65
681.225	12481.75
681.573	12474.74
681.922	12349.32
682.27	12386.16
682.618	12389.1
682.966	12280.17
683.314	12349.32
683.661	12275.43
684.009	12222.77
684.357	12209.66
684.705	12225.03
685.053	12236.78
685.4	12129.67
685.748	12116.33
686.095	12099.16
686.443	11983.46
686.79	11997.69
687.138	12034.08
687.485	12003.34
687.832	11983.91
688.18	12074.3
688.527	11942.55
688.874	11966.96
689.221	11850.8
689.568	11827.53
689.915	11865.49
690.262	11789.56
690.609	11814.2
690.956	11753.41
691.303	11700.98
691.65	11622.56
691.997	11701.66
692.344	11476.8
692.69	11523.58
693.037	11569.68
693.383	11337.15
693.73	11458.72
694.077	11321.78
694.423	11406.3
694.769	11313.87
695.116	11307.54
695.462	11230.48
695.808	11198.62
696.155	11294.66
696.501	11182.57
696.847	11169.01
697.193	11065.97
697.539	11089.47
697.885	11011.73
698.231	10964.73
698.577	10885.41
698.923	10922.92
699.269	10838.4
699.614	10774.45
699.96	10811.28
700.306	10770.61
700.651	10717.73
700.997	10685.19
701.342	10676.37
701.688	10591.4
702.033	10588.92
702.379	10542.14
702.724	10496.94
703.069	10544.17
703.415	10409.94
703.76	10439.54
704.105	10393.22
704.45	10315.25
704.795	10351.63
705.14	10276.16
705.485	10277.06
705.83	10159.55
706.175	10182.83
706.52	10122.71
706.865	10127.69
707.209	10080.23
707.554	10031.19
707.899	10083.17
708.243	9985.77
708.588	9959.78
708.932	9997.97
709.277	9945.09
709.621	9932.66
709.966	9882.95
710.31	9941.7
710.654	9837.3
710.998	9814.93
711.342	9814.7
711.687	9783.06
712.031	9802.27
712.375	9723.18
712.719	9769.05
713.063	9684.76
713.407	9742.84
713.75	9636.4
714.094	9636.4
714.438	9575.84
714.782	9591.88
715.125	9535.61
715.469	9567.7
715.812	9486.12
716.156	9434.14
716.499	9502.62
716.843	9517.31
717.186	9369.51
717.53	9470.98
717.873	9421.72
718.216	9459
718.559	9401.38
718.902	9350.08
719.246	9377.2
719.589	9286.8
719.932	9299.68
720.275	9313.92
720.617	9273.7
720.96	9249.06
721.303	9294.71
721.646	9275.5
721.989	9185.34
722.331	9259.91
722.674	9169.74
723.016	9197.31
723.359	9231.66
723.701	9147.82
724.044	9146.69
724.386	9152.57
724.729	9200.48
725.071	9110.54
725.413	9120.71
725.755	9035.51
726.097	9026.02
726.439	9047.94
726.782	9031.44
727.124	9089.52
727.465	9015.85
727.807	9040.48
728.149	9015.62
728.491	9032.35
728.833	9027.15
729.175	8981.73
729.516	9016.08
729.858	8962.29
730.199	8969.07
730.541	8982.41
730.882	8953.03
731.224	9059.69
731.565	8885.01
731.906	9001.16
732.248	9005
732.589	8943.31
732.93	8953.93
733.271	8950.99
733.612	8900.83
733.953	8983.99
734.294	8971.33
734.635	8944.44
734.976	8911.67
735.317	8972.24
735.658	8894.27
735.999	8991.44
736.339	9012.23
736.68	8950.09
737.021	8964.1
737.361	8919.13
737.702	8941.5
738.042	8962.52
738.383	8921.84
738.723	9007.26
739.063	8957.55
739.404	9038
739.744	8995.29
740.084	8958.68
740.424	8991.9
740.764	9058.79
741.104	9024.21
741.444	9021.73
741.784	8955.97
742.124	9005.46
742.464	9006.59
742.804	9064.89
743.143	9103.76
743.483	9111.22
743.823	9084.1
744.162	9134.72
744.502	9155.06
744.841	9132.23
745.181	9247.48
745.52	9247.26
745.86	9280.93
746.199	9313.7
746.538	9300.36
746.877	9408.83
747.216	9513.92
747.556	9466.01
747.895	9533.58
748.234	9536.06
748.573	9549.85
748.911	9608.6
749.25	9660.81
749.589	9638.66
749.928	9838.43
750.267	9820.58
750.605	9905.32
750.944	10007.01
751.283	10022.83
751.621	10130.85
751.96	10198.87
752.298	10299.88
752.636	10377.17
752.975	10423.95
753.313	10486.77
753.651	10579.65
753.989	10643.38
754.327	10729.93
754.666	10832.53
755.004	10995.46
755.342	11138.51
755.679	11228
756.017	11282.01
756.355	11427.31
756.693	11490.59
757.031	11636.8
757.368	11813.97
757.706	11833.86
758.044	12070.01
758.381	12239.49
758.719	12364.91
759.056	12510.22
759.394	12629.77
759.731	12768.29
760.068	12923.77
760.405	12991.57
760.743	13110.21
761.08	13311.1
761.417	13441.04
761.754	13622.06
762.091	13733.47
762.428	13862.05
762.765	13951.09
763.102	14197.41
763.438	14247.58
763.775	14472.66
764.112	14589.26
764.449	14817.51
764.785	14912.19
765.122	15008.01
765.458	15193.77
765.795	15260.66
766.131	15500.88
766.467	15618.39
766.804	15701.32
767.14	15761.89
767.476	15922.56
767.812	15991.03
768.148	16226.06
768.485	16328.88
768.821	16358.03
769.157	16541.98
769.492	16614.29
769.828	16700.62
770.164	16781.3
770.5	16894.51
770.836	17074.17
771.171	17070.55
771.507	17306.93
771.842	17185.81
772.178	17346.93
772.513	17356.87
772.849	17469.87
773.184	17543.31
773.519	17579.24
773.855	17640.26
774.19	17706.92
774.525	17825.56
774.86	17872.34
775.195	17975.39
775.53	17981.72
775.865	17962.28
776.2	17964.54
776.535	17954.6
776.87	17995.05
777.205	18063.52
777.539	18061.94
777.874	18212.67
778.209	18116.63
778.543	18181.49
778.878	18116.18
779.212	18225.78
779.547	18185.78
779.881	18313.23
780.215	18257.19
780.55	18330.86
780.884	18258.32
781.218	18340.58
781.552	18303.97
781.886	18243.4
782.22	18322.72
782.554	18226.23
782.888	18268.94
783.222	18174.71
783.556	18163.41
783.889	18175.16
784.223	18181.71
784.557	18109.17
784.89	18187.59
785.224	18052.45
785.557	18041.15
785.891	18012.22
786.224	18007.7
786.558	18138.77
786.891	17937.65
787.224	17917.09
787.557	17988.27
787.891	18007.03
788.224	17903.75
788.557	17945.33
788.89	17928.16
789.223	17937.88
789.556	17863.08
789.888	17786.92
790.221	17849.06
790.554	17713.93
790.887	17588.51
791.219	17703.98
791.552	17611.78
791.884	17584.89
792.217	17466.25
792.549	17499.92
792.882	17413.37
793.214	17352.58
793.546	17449.3
793.879	17337.67
794.211	17250.44
794.543	17355.07
794.875	17267.16
795.207	17368.63
795.539	17185.13
795.871	17229.65
796.203	17037.33
796.535	16906.26
796.867	17071.46
797.198	16994.85
797.53	17026.04
797.862	16854.51
798.193	16979.71
798.525	16889.32
798.856	16852.25
799.188	16669.21
799.519	16657.91
799.85	16605.71
800.182	16687.06
800.513	16680.28
800.844	16426.05
801.175	16588.53
801.506	16664.69
801.837	16436.22
802.168	16381.76
802.499	16348.54
802.83	16291.82
803.161	16207.75
803.491	16344.25
803.822	16194.64
804.153	16147.19
804.483	16086.63
804.814	16047.3
805.145	16036
805.475	16014.54
805.805	15967.98
806.136	16015.21
806.466	15994.42
806.796	15872.39
807.126	15849.57
807.457	15802.11
807.787	15832.85
808.117	15742
808.447	15710.14
808.777	15706.75
809.107	15601.89
809.436	15638.05
809.766	15596.02
810.096	15547.66
810.426	15471.5
810.755	15524.61
811.085	15420.88
811.414	15521.22
811.744	15363.03
812.073	15358.51
812.403	15367.55
812.732	15201
813.061	15263.82
813.39	15216.59
813.719	15215.01
814.049	15205.52
814.378	15163.49
814.707	15105.18
815.036	15086.2
815.365	14986.99
815.693	14952.42
816.022	14977.05
816.351	14928.24
816.68	14856.15
817.008	14903.38
817.337	14783.16
817.665	14703.84
817.994	14798.98
818.322	14723.72
818.651	14695.93
818.979	14661.35
819.307	14751.97
819.636	14619.09
819.964	14590.85
820.292	14589.94
820.62	14551.75
820.948	14537.74
821.276	14667
821.604	14540.68
821.932	14621.35
822.259	14505.65
822.587	14554.24
822.915	14517.4
823.243	14575.03
823.57	14531.41
823.898	14556.72
824.225	14458.65
824.553	14416.16
824.88	14488.02
825.207	14598.3
825.535	14466.1
825.862	14542.48
826.189	14643.27
826.516	14569.6
826.843	14638.08
827.17	14588.36
827.497	14585.87
827.824	14613.67
828.151	14553.78
828.478	14506.78
828.805	14648.24
829.131	14587
829.458	14552.65
829.785	14441.02
830.111	14544.07
830.438	14614.8
830.764	14613.44
831.09	14571.18
831.417	14491.86
831.743	14667
832.069	14551.3
832.395	14430.17
832.722	14561.02
833.048	14496.38
833.374	14496.84
833.7	14464.52
834.026	14450.74
834.351	14373
834.677	14433.79
835.003	14478.98
835.329	14442.6
835.654	14408.93
835.98	14270.85
836.306	14434.47
836.631	14337.74
836.956	14343.62
837.282	14375.94
837.607	14260.01
837.932	14231.98
838.258	14253.45
838.583	14208.71
838.908	14176.84
839.233	14156.28
839.558	14208.93
839.883	14157.86
840.208	14122.16
840.533	14075.6
840.858	14007.36
841.182	14009.39
841.507	14036.06
841.832	14032.89
842.156	13916.51
842.481	13961.03
842.805	13973.69
843.13	13927.36
843.454	13834.03
843.778	13830.19
844.103	13801.49
844.427	13789.96
844.751	13787.93
845.075	13702.51
845.399	13655.5
845.723	13600.14
846.047	13663.64
846.371	13453.47
846.695	13497.09
847.019	13360.37
847.343	13354.72
847.666	13216.19
847.99	13238.79
848.313	13150.43
848.637	13133.26
848.96	13154.95
849.284	13080.83
849.607	12973.03
849.931	12988.4
850.254	12837.9
850.577	12756.09
850.9	12722.42
851.223	12772.59
851.546	12756.32
851.869	12557.9
852.192	12588.41
852.515	12532.14
852.838	12460.73
853.161	12427.51
853.483	12380.96
853.806	12316.33
854.129	12328.08
854.451	12279.95
854.774	12176.9
855.096	12207.86
855.419	12057.8
855.741	12144.81
856.063	12001.08
856.385	12047.41
856.708	11970.35
857.03	11990.24
857.352	11923.8
857.674	11852.61
857.996	11787.3
858.318	11785.95
858.64	11797.7
858.961	11766.29
859.283	11696.01
859.605	11700.3
859.926	11651.49
860.248	11616.23
860.57	11603.35
860.891	11507.08
861.212	11528.1
861.534	11534.65
861.855	11450.14
862.176	11535.33
862.498	11387.31
862.819	11480.64
863.14	11359.29
863.461	11413.75
863.782	11355.9
864.103	11402
864.424	11299.18
864.745	11254.44
865.065	11230.71
865.386	11205.85
865.707	11219.18
866.027	11230.03
866.348	11168.34
866.668	11124.72
866.989	11162.01
867.309	11064.16
867.63	11085.4
867.95	11084.95
868.27	11012.86
868.59	11122.24
868.91	11068
869.23	11002.46
869.55	11011.05
869.87	11016.25
870.19	10969.7
870.51	10940.77
870.83	10948.68
871.15	10912.3
871.469	10874.78
871.789	10912.3
872.109	10912.98
872.428	10789.36
872.748	10849.7
873.067	10860.77
873.386	10819.42
873.706	10826.2
874.025	10738.29
874.344	10720.66
874.663	10686.54
874.982	10698.97
875.301	10679.54
875.62	10630.27
875.939	10747.33
876.258	10688.35
876.577	10645.41
876.896	10573.32
877.214	10622.59
877.533	10603.15
877.852	10508.24
878.17	10517.96
878.489	10530.16
878.807	10558.41
879.125	10490.61
879.444	10523.38
879.762	10482.48
880.08	10506.88
880.398	10379.43
880.716	10409.03
881.034	10364.29
881.352	10402.48
881.67	10308.7
881.988	10348.92
882.306	10301.92
882.624	10180.57
882.941	10244.07
883.259	10156.16
883.577	10163.39
883.894	10198.42
884.212	10168.81
884.529	10180.57
884.846	10103.96
885.164	10182.83
885.481	9991.19
885.798	10001.36
886.115	9983.96
886.432	9964.75
886.75	9972.89
887.067	9936.28
887.383	9942.38
887.7	9925.66
888.017	9824.42
888.334	9879.78
888.651	9861.25
888.967	9773.12
889.284	9752.1
889.6	9746.68
889.917	9664.2
890.233	9724.08
890.55	9627.59
890.866	9630.3
891.182	9604.99
891.498	9619
891.815	9526.35
892.131	9472.56
892.447	9458.1
892.763	9451.77
893.079	9418.78
893.395	9390.98
893.71	9335.62
894.026	9318.67
894.342	9269.86
894.657	9212.91
894.973	9232.79
895.289	9188.05
895.604	9184.43
895.92	9105.34
896.235	9122.51
896.55	9084.55
896.865	9020.6
897.181	9033.25
897.496	9005.46
897.811	8998
898.126	8960.71
898.441	9021.5
898.756	8860.15
899.071	8863.76
899.386	8843.43
899.7	8802.3
900.015	8747.16
900.33	8723.88
900.644	8626.03
900.959	8713.03
901.273	8625.58
901.588	8597.33
901.902	8511.68
902.216	8535.19
902.531	8486.37
902.845	8434.4
903.159	8460.61
903.473	8343.1
903.787	8317.11
904.101	8330.67
904.415	8280.28
904.729	8264.01
905.042	8223.55
905.356	8178.81
905.67	8166.38
905.984	8146.72
906.297	8191.24
906.611	8064.24
906.924	8101.75
907.237	8075.76
907.551	7999.61
907.864	7947.86
908.177	7965.03
908.491	7877.35
908.804	7880.97
909.117	7827.41
909.43	7834.86
909.743	7734.3
910.056	7641.2
910.368	7693.63
910.681	7658.6
910.994	7699.73
911.307	7579.28
911.619	7518.49
911.932	7542.22
912.244	7476.91
912.557	7485.72
912.869	7380.41
913.181	7410.92
913.494	7389.45
913.806	7347.65
914.118	7337.7
914.43	7309.91
914.742	7270.81
915.054	7223.13
915.366	7193.98
915.678	7139.06
915.99	7166.41
916.302	7018.39
916.613	7109.46
916.925	6988.56
917.236	7021.33
917.548	7016.81
917.859	6993.3
918.171	6933.87
918.482	6943.36
918.794	6913.31
919.105	6855
919.416	6814.33
919.727	6791.95
920.038	6768.45
920.349	6752.63
920.66	6742.92
920.971	6765.29
921.282	6746.31
921.593	6619.3
921.903	6638.51
922.214	6567.55
922.525	6543.15
922.835	6548.12
923.146	6505.63
923.456	6501.57
923.767	6511.96
924.077	6416.14
924.387	6467.44
924.697	6359.65
925.008	6365.98
925.318	6323.04
925.628	6278.97
925.938	6329.82
926.248	6252.53
926.558	6210.5
926.867	6192.87
927.177	6147.23
927.487	6135.02
927.796	6101.8
928.106	6113.1
928.416	6040.56
928.725	6084.4
929.034	6041.47
929.344	6043.27
929.653	5991.07
929.962	5922.37
930.271	5893.45
930.581	5876.27
930.89	5870.4
931.199	5828.14
931.508	5797.18
931.817	5851.87
932.125	5742.72
932.434	5772.55
932.743	5710.85
933.051	5723.96
933.36	5666.33
933.669	5631.31
933.977	5655.71
934.286	5637.18
934.594	5636.05
934.902	5544.3
935.21	5529.16
935.519	5537.07
935.827	5524.42
936.135	5467.24
936.443	5477.86
936.751	5373.01
937.059	5418.66
937.367	5411.65
937.674	5354.25
937.982	5419.56
938.29	5323.07
938.597	5296.4
938.905	5244.42
939.213	5216.63
939.52	5201.49
939.827	5236.97
940.135	5202.84
940.442	5178.44
940.749	5175.73
941.056	5156.97
941.363	5130.3
941.67	5073.36
941.977	5064.99
942.284	5031.55
942.591	4992.23
942.898	4945.68
943.205	4990.87
943.511	4957.88
943.818	4939.57
944.125	4872.23
944.431	4891.21
944.738	4857.09
945.044	4843.08
945.35	4794.72
945.657	4804.89
945.963	4738.9
946.269	4745.45
946.575	4738.45
946.881	4749.3
947.187	4707.94
947.493	4652.12
947.799	4638.11
948.105	4623.2
948.41	4592.01
948.716	4575.29
949.022	4559.02
949.327	4574.39
949.633	4516.76
949.938	4500.94
950.244	4521.73
950.549	4453.71
950.854	4421.62
951.16	4446.48
951.465	4444.22
951.77	4372.36
952.075	4385.01
952.38	4426.14
952.685	4363.32
952.99	4331.45
953.294	4300.72
953.599	4285.35
953.904	4308.86
954.209	4226.15
954.513	4212.14
954.818	4194.28
955.122	4198.12
955.426	4243.77
955.731	4213.94
956.035	4141.18
956.339	4127.39
956.643	4118.35
956.948	4093.49
957.252	4088.52
957.556	4064.12
957.86	4038.35
958.163	4012.82
958.467	4036.77
958.771	4055.3
959.075	4006.04
959.378	3946.38
959.682	3918.58
959.985	3941.18
960.289	3910.9
960.592	3846.95
960.896	3869.55
961.199	3875.87
961.502	3843.56
961.805	3804.91
962.108	3794.97
962.411	3788.87
962.714	3759.72
963.017	3769.43
963.32	3762.2
963.623	3723.33
963.926	3731.7
964.228	3695.54
964.531	3679.27
964.833	3672.71
965.136	3640.62
965.438	3640.17
965.741	3597.46
966.043	3644.92
966.345	3582.32
966.648	3560.17
966.95	3544.36
967.252	3510.91
967.554	3538.03
967.856	3546.62
968.158	3489.67
968.46	3476.79
968.761	3458.26
969.063	3468.2
969.365	3435.66
969.666	3414.19
969.968	3395.43
970.269	3397.47
970.571	3409.22
970.872	3364.02
971.174	3328.77
971.475	3359.05
971.776	3372.16
972.077	3334.19
972.378	3269.56
972.679	3307.53
972.98	3224.59
973.281	3253.29
973.582	3265.49
973.883	3216.91
974.183	3215.1
974.484	3190.69
974.785	3212.39
975.085	3194.53
975.386	3142.11
975.686	3166.51
975.986	3138.72
976.287	3117.25
976.587	3113.41
976.887	3040.87
977.187	3056.46
977.487	3014.2
977.787	3037.93
978.087	2985.5
978.387	2995.44
978.687	3022.56
978.987	2966.52
979.286	2939.85
979.586	2972.62
979.885	2956.12
980.185	2903.69
980.484	2903.69
980.784	2870.93
981.083	2874.09
981.382	2853.53
981.682	2839.29
981.981	2847.43
982.28	2846.97
982.579	2849.23
982.878	2776.24
983.177	2802.68
983.475	2796.35
983.774	2784.6
984.073	2741.67
984.372	2732.17
984.67	2731.95
984.969	2706.86
985.267	2718.84
985.566	2727.43
985.864	2698.95
986.162	2689.24
986.461	2659.18
986.759	2659.63
987.057	2628.67
987.355	2591.61
987.653	2603.82
987.951	2579.64
988.249	2606.75
988.547	2573.76
988.844	2593.87
989.142	2570.6
989.44	2554.55
989.737	2558.39
990.035	2541.67
990.332	2513.87
990.63	2468.45
990.927	2494.67
991.224	2484.95
991.521	2521.33
991.819	2475.01
992.116	2436.36
992.413	2470.03
992.71	2415.8
993.006	2430.03
993.303	2399.3
993.6	2421
993.897	2379.19
994.193	2362.01
994.49	2352.97
994.787	2352.52
995.083	2333.99
995.379	2301.45
995.676	2287.67
995.972	2272.07
996.268	2274.78
996.565	2272.3
996.861	2255.12
997.157	2297.16
997.453	2237.95
997.749	2208.12
998.044	2240.66
998.34	2199.31
998.636	2199.76
998.932	2171.28
999.227	2177.39
999.523	2141.23
999.818	2129.7
1000.114	2112.08
1000.409	2149.14
1000.704	2120.66
1001	2087.22
1001.295	2077.95
1001.59	2063.04
1001.885	2067.11
1002.18	2056.49
1002.475	2037.28
1002.77	2067.56
1003.065	2047.67
1003.359	2028.46
1003.654	1995.02
1003.949	1985.75
1004.243	1982.59
1004.538	1974.91
1004.832	1963.38
1005.127	1965.19
1005.421	1962.48
1005.715	1925.87
1006.009	1924.51
1006.304	1901.69
1006.598	1901.01
1006.892	1881.57
1007.186	1851.97
1007.48	1866.43
1007.773	1854.91
1008.067	1839.09
1008.361	1836.83
1008.655	1818.75
1008.948	1831.18
1009.242	1839.77
1009.535	1797.51
1009.829	1781.24
1010.122	1773.1
1010.415	1752.09
1010.708	1756.38
1011.001	1746.89
1011.295	1716.16
1011.588	1687.23
1011.881	1710.73
1012.173	1693.78
1012.466	1727.68
1012.759	1666.89
1013.052	1662.15
1013.344	1663.5
1013.637	1649.49
1013.93	1634.8
1014.222	1606.55
1014.514	1609.49
1014.807	1630.28
1015.099	1585.76
1015.391	1580.57
1015.683	1596.38
1015.976	1577.18
1016.268	1568.36
1016.56	1542.15
1016.851	1536.27
1017.143	1576.27
1017.435	1549.15
1017.727	1496.95
1018.018	1509.38
1018.31	1479.1
1018.602	1492.43
1018.893	1490.17
1019.185	1494.92
1019.476	1486.33
1019.767	1453.34
1020.058	1460.34
1020.35	1448.59
1020.641	1417.63
1020.932	1389.84
1021.223	1413.56
1021.514	1394.58
1021.804	1372.89
1022.095	1377.86
1022.386	1385.99
1022.677	1364.3
1022.967	1361.59
1023.258	1364.98
1023.548	1316.62
1023.839	1349.61
1024.129	1306
1024.419	1305.09
1024.709	1302.38
1025	1283.4
1025.29	1280.46
1025.58	1303.74
1025.87	1270.97
1026.16	1272.78
1026.449	1237.07
1026.739	1252.89
1027.029	1258.99
1027.319	1221.03
1027.608	1223.06
1027.898	1196.17
1028.187	1199.56
1028.477	1202.04
1028.766	1181.25
1029.055	1164.08
1029.344	1196.17
1029.634	1174.7
1029.923	1195.94
1030.212	1143.97
1030.501	1147.13
1030.79	1135.38
1031.078	1139.45
1031.367	1099.45
1031.656	1113.23
1031.945	1101.26
1032.233	1095.61
1032.522	1094.02
1032.81	1075.27
1033.099	1080.92
1033.387	1088.38
1033.675	1073.46
1033.963	1071.88
1034.251	1048.83
1034.54	1044.99
1034.828	1020.13
1035.116	1005.44
1035.403	1004.31
1035.691	1013.58
1035.979	1029.17
1036.267	993.01
1036.554	995.27
1036.842	987.81
1037.129	1003.63
1037.417	983.29
1037.704	982.62
1037.992	949.85
1038.279	953.24
1038.566	952.33
1038.853	952.33
1039.14	952.33
