Data from hue_110_FLMS001491_00067.txt Node
Date: Tue Feb 07 17:01:40 GMT 2017
User: dcchb
Spectrometer: FLMS00149
Trigger mode: 0
Integration Time (sec): 2.000000E-2
Scans to average: 10
Electric dark correction enabled: true
Nonlinearity correction enabled: false
Boxcar width: 0
XAxis mode: Wavelengths
Number of Pixels in Spectrum: 2048
>>>>>Begin Spectral Data<<<<<
341.393	-15
341.776	-15
342.16	-15
342.543	-51.38
342.927	-66.98
343.31	-59.74
343.693	-77.14
344.077	-68.33
344.46	-52.51
344.843	-60.42
345.226	-22.68
345.61	-49.35
345.993	-33.98
346.376	12.8
346.759	18.22
347.142	11.21
347.525	36.75
347.908	63.42
348.291	81.72
348.674	79.69
349.057	120.36
349.44	130.99
349.823	122.85
350.206	159.69
350.588	195.84
350.971	195.84
351.354	220.93
351.737	226.12
352.119	242.62
352.502	283.75
352.884	279.68
353.267	289.17
353.65	297.76
354.032	293.69
354.414	306.12
354.797	317.87
355.179	331.43
355.562	326.69
355.944	348.83
356.326	328.04
356.709	331.66
357.091	329.85
357.473	324.88
357.855	340.7
358.238	324.2
358.62	348.38
359.002	320.58
359.384	336.86
359.766	322.39
360.148	341.15
360.53	336.4
360.912	325.78
361.294	324.2
361.676	337.53
362.057	328.95
362.439	351.54
362.821	344.54
363.203	319.23
363.584	319.68
363.966	316.07
364.348	310.64
364.729	310.64
365.111	330.75
365.493	323.07
365.874	311.32
366.256	314.03
366.637	325.1
367.019	290.98
367.4	311.09
367.781	309.06
368.163	321.04
368.544	312.9
368.925	300.92
369.306	317.42
369.688	305.67
370.069	301.6
370.45	303.18
370.831	326.91
371.212	303.41
371.593	344.54
371.974	297.53
372.355	304.54
372.736	317.65
373.117	325.78
373.498	326.91
373.879	331.43
374.26	315.16
374.641	319.91
375.021	306.57
375.402	300.02
375.783	311.09
376.163	305.22
376.544	313.35
376.925	319.91
377.305	324.43
377.686	319
378.066	330.75
378.447	312.9
378.827	344.09
379.208	335.73
379.588	336.18
379.968	327.36
380.349	349.28
380.729	334.6
381.109	322.39
381.489	337.31
381.87	332.79
382.25	331.88
382.63	331.43
383.01	342.73
383.39	353.8
383.77	340.47
384.15	333.69
384.53	346.12
384.91	359.91
385.29	377.98
385.67	322.39
386.049	374.82
386.429	360.13
386.809	341.38
387.189	366.23
387.568	349.28
387.948	382.5
388.328	337.99
388.707	367.82
389.087	349.96
389.466	366.46
389.846	363.52
390.225	376.4
390.605	377.31
390.984	392.67
391.363	361.04
391.743	369.85
392.122	372.79
392.501	365.1
392.881	381.83
393.26	373.24
393.639	381.37
394.018	387.93
394.397	371.88
394.776	398.32
395.155	396.74
395.534	402.16
395.913	388.61
396.292	407.59
396.671	382.5
397.05	398.1
397.429	382.28
397.808	380.02
398.186	400.13
398.565	391.54
398.944	374.59
399.323	400.58
399.701	416.18
400.08	416.85
400.458	406.23
400.837	404.42
401.215	416.85
401.594	417.53
401.972	421.6
402.351	418.66
402.729	435.61
403.107	436.29
403.486	421.83
403.864	425.67
404.242	421.37
404.62	422.95
404.999	429.06
405.377	422.95
405.755	427.02
406.133	407.36
406.511	439.9
406.889	446.68
407.267	449.17
407.645	456.4
408.023	435.38
408.401	466.57
408.779	442.62
409.156	452.33
409.534	433.8
409.912	469.06
410.29	486.68
410.667	459.11
411.045	479.45
411.422	471.99
411.8	482.61
412.178	465.89
412.555	489.39
412.933	473.35
413.31	510.41
413.687	487.36
414.065	478.55
414.442	487.13
414.819	498.21
415.197	509.05
415.574	500.92
415.951	528.49
416.328	518.77
416.705	516.74
417.082	537.08
417.46	541.14
417.837	528.49
418.214	510.86
418.591	527.81
418.967	511.54
419.344	532.78
419.721	537.08
420.098	534.14
420.475	565.78
420.852	565.55
421.228	536.17
421.605	570.97
421.982	569.62
422.358	568.71
422.735	549.73
423.111	563.06
423.488	573.69
423.864	583.63
424.241	595.15
424.617	568.71
424.994	589.28
425.37	605.55
425.746	607.13
426.123	599.67
426.499	593.35
426.875	605.78
427.251	631.99
427.627	624.76
428.003	655.04
428.379	632.67
428.756	644.42
429.132	640.8
429.507	670.86
429.883	663.63
430.259	640.35
430.635	653.91
431.011	667.02
431.387	692.1
431.763	687.81
432.138	697.75
432.514	722.16
432.89	699.56
433.265	718.77
433.641	721.7
434.016	716.73
434.392	727.58
434.767	735.26
435.143	759.22
435.518	749.05
435.894	771.19
436.269	764.19
436.644	772.55
437.02	771.65
437.395	796.96
437.77	792.89
438.145	790.63
438.52	791.76
438.895	796.96
439.271	807.8
439.646	801.02
440.021	835.15
440.395	829.72
440.77	812.32
441.145	833.34
441.52	849.38
441.895	866.79
442.27	862.27
442.645	867.92
443.019	869.04
443.394	859.55
443.769	885.09
444.143	876.5
444.518	901.13
444.892	871.3
445.267	896.16
445.641	910.4
446.016	915.15
446.39	909.27
446.764	946.11
447.139	919.67
447.513	956.73
447.887	936.16
448.262	949.27
448.636	941.13
449.01	945.88
449.384	965.77
449.758	953.79
450.132	984.52
450.506	981.13
450.88	994.69
451.254	1008.7
451.628	1010.06
452.002	1018.65
452.376	1011.19
452.75	1025.88
453.123	1039.66
453.497	1066.33
453.871	1074.92
454.244	1071.53
454.618	1082.37
454.992	1092.77
455.365	1089.15
455.739	1121.69
456.112	1154.24
456.486	1167.57
456.859	1132.77
457.232	1206.44
457.606	1180.22
457.979	1193.56
458.352	1216.38
458.725	1208.92
459.099	1234.91
459.472	1256.15
459.845	1270.84
460.218	1280.79
460.591	1301.35
460.964	1312.42
461.337	1330.28
461.71	1364.85
462.083	1382.7
462.456	1384.96
462.829	1353.33
463.201	1418.86
463.574	1418.18
463.947	1460.22
464.32	1481.46
464.692	1504.28
465.065	1508.35
465.438	1518.75
465.81	1565.98
466.183	1606.43
466.555	1617.95
466.928	1606.88
467.3	1629.93
467.672	1666.31
468.045	1705.18
468.417	1737.5
468.789	1743.6
469.161	1742.69
469.534	1790.38
469.906	1888.45
470.278	1864.95
470.65	1919.41
471.022	1944.04
471.394	2027.88
471.766	2006.42
472.138	2042.12
472.51	2095.45
472.882	2137.49
473.253	2203.93
473.625	2214.77
473.997	2287.09
474.369	2331.15
474.74	2323.24
475.112	2444.82
475.484	2482.56
475.855	2504.71
476.227	2584.93
476.598	2666.51
476.97	2717.13
477.341	2792.61
477.713	2858.6
478.084	2891.82
478.455	2965.94
478.827	3061.3
479.198	3152.83
479.569	3195.99
479.94	3328.42
480.311	3366.15
480.682	3501.97
481.053	3565.02
481.424	3674.39
481.795	3748.07
482.166	3882.75
482.537	3912.35
482.908	4069.86
483.279	4156.64
483.65	4301.27
484.021	4443.41
484.391	4586.01
484.762	4646.57
485.133	4742.39
485.503	4840.24
485.874	5001.82
486.244	5044.08
486.615	5215.82
486.985	5353.22
487.356	5552.54
487.726	5621.46
488.097	5809.48
488.467	5910.27
488.837	6066.2
489.207	6151.84
489.578	6344.16
489.948	6503.02
490.318	6650.14
490.688	6708.67
491.058	6875.67
491.428	7055.55
491.798	7131.25
492.168	7419.16
492.538	7479.94
492.908	7605.14
493.278	7807.85
493.648	7856.21
494.017	8037.67
494.387	8193.82
494.757	8317.89
495.126	8495.74
495.496	8566.92
495.866	8694.15
496.235	8866.35
496.605	9031.77
496.974	9149.96
497.344	9273.12
497.713	9339.33
498.082	9496.84
498.452	9632.88
498.821	9704.29
499.19	9839.43
499.559	9991.97
499.928	10083.27
500.298	10157.16
500.667	10376.14
501.036	10376.37
501.405	10559.64
501.774	10599.18
502.143	10732.74
502.512	10831.72
502.88	10920.98
503.249	11000.08
503.618	11109
503.987	11244.59
504.356	11365.49
504.724	11358.03
505.093	11485.49
505.462	11545.37
505.83	11624.24
506.199	11650
506.567	11929.09
506.936	11944.23
507.304	12086.83
507.672	12132.25
508.041	12297.22
508.409	12269.88
508.777	12378.35
509.145	12501.51
509.514	12473.03
509.882	12567.04
510.25	12558.46
510.618	12765.68
510.986	12793.7
511.354	12881.16
511.722	13012.68
512.09	13090.19
512.458	13026.69
512.826	13165.67
513.193	13206.8
513.561	13330.19
513.929	13361.82
514.297	13454.48
514.664	13488.83
515.032	13499.22
515.4	13633.68
515.767	13616.51
516.135	13687.24
516.502	13696.28
516.869	13851.08
517.237	13823.28
517.604	13927.46
517.972	13928.36
518.339	13996.84
518.706	14103.73
519.073	14025.08
519.44	14080.45
519.808	14207.23
520.175	14186.66
520.542	14324.96
520.909	14369.03
521.276	14364.74
521.643	14473.88
522.009	14478.18
522.376	14531.51
522.743	14621.9
523.11	14748.91
523.477	14814.21
523.843	14801.56
524.21	14952.29
524.577	14999.97
524.943	14925.17
525.31	15055.34
525.676	15014.44
526.043	15095.56
526.409	15201.78
526.776	15236.58
527.142	15213.07
527.508	15187.76
527.874	15274.54
528.241	15296.46
528.607	15372.62
528.973	15389.79
529.339	15436.35
529.705	15427.08
530.071	15546.4
530.437	15587.3
530.803	15506.63
531.169	15505.5
531.535	15457.81
531.901	15522.44
532.267	15496.91
532.632	15580.97
532.998	15569.45
533.364	15567.42
533.73	15589.11
534.095	15618.94
534.461	15638.37
534.826	15629.56
535.192	15616.23
535.557	15623.46
535.923	15602.67
536.288	15486.74
536.653	15576.91
537.019	15466.63
537.384	15519.28
537.749	15456.46
538.114	15463.24
538.479	15442.22
538.845	15467.98
539.21	15386.86
539.575	15369.68
539.94	15387.99
540.305	15383.01
540.67	15373.75
541.034	15457.59
541.399	15358.61
541.764	15276.8
542.129	15287.42
542.494	15263.24
542.858	15249.46
543.223	15285.84
543.587	15279.06
543.952	15135.11
544.316	15149.12
544.681	15128.56
545.045	15094.21
545.41	15143.47
545.774	15120.2
546.138	15056.47
546.503	15037.03
546.867	14970.14
547.231	15035.45
547.595	14933.08
547.959	14957.26
548.324	14948.45
548.688	14864.61
549.052	14911.16
549.416	14909.81
549.779	14813.76
550.143	14886.98
550.507	14847.43
550.871	14802.92
551.235	14722.92
551.599	14795.46
551.962	14753.43
552.326	14727.44
552.689	14771.05
553.053	14582.81
553.417	14622.58
553.78	14769.92
554.143	14591.85
554.507	14690.83
554.87	14622.81
555.234	14704.39
555.597	14465.07
555.96	14611.28
556.323	14595.46
556.686	14548.46
557.05	14587.1
557.413	14548.91
557.776	14544.39
558.139	14541.68
558.502	14500.32
558.865	14535.58
559.228	14556.37
559.59	14542.81
559.953	14577.84
560.316	14633.2
560.679	14574
561.041	14588.23
561.404	14708.68
561.767	14691.28
562.129	14605.63
562.492	14724.5
562.854	14579.64
563.217	14647.67
563.579	14717.95
563.941	14769.47
564.304	14752.52
564.666	14823.25
565.028	14764.05
565.39	14739.87
565.753	14791.84
566.115	14821.45
566.477	14821.9
566.839	14789.81
567.201	14883.37
567.563	14911.61
567.925	14927.66
568.287	14876.81
568.648	14968.11
569.01	15011.05
569.372	15029.12
569.734	14981.89
570.095	15003.59
570.457	15074.32
570.819	15016.47
571.18	15060.76
571.542	15075
571.903	15050.37
572.265	15160.65
572.626	15092.4
572.987	15147.99
573.349	15235.67
573.71	15216.46
574.071	15140.31
574.432	15194.32
574.794	15236.35
575.155	15212.17
575.516	15227.76
575.877	15205.84
576.238	15217.82
576.599	15263.69
576.96	15260.3
577.32	15321.09
577.681	15219.63
578.042	15324.03
578.403	15322.9
578.763	15285.16
579.124	15280.64
579.485	15405.84
579.845	15425.5
580.206	15339.62
580.566	15296.46
580.927	15317.93
581.287	15289
581.648	15329.46
582.008	15417.36
582.368	15323.13
582.728	15323.35
583.089	15305.28
583.449	15244.71
583.809	15323.58
584.169	15335.33
584.529	15230.93
584.889	15341.66
585.249	15242.23
585.609	15235.45
585.969	15242.9
586.329	15186.86
586.688	15269.57
587.048	15168.78
587.408	15198.39
587.768	15183.92
588.127	15091.72
588.487	15090.59
588.846	15178.27
589.206	15078.84
589.565	15097.82
589.925	15091.04
590.284	15086.3
590.643	15080.42
591.003	15188.67
591.362	15182.11
591.721	15159.06
592.08	15023.93
592.44	15206.07
592.799	15169.23
593.158	15080.2
593.517	15096.47
593.876	15102.57
594.235	15067.77
594.593	15030.71
594.952	15157.48
595.311	14926.3
595.67	15007.2
596.029	15109.35
596.387	15051.5
596.746	15148.67
597.104	14973.76
597.463	14895.34
597.822	14986.19
598.18	14976.92
598.538	14905.06
598.897	14980.76
599.255	14879.07
599.613	14996.58
599.972	14950.71
600.33	15030.93
600.688	14974.21
601.046	15025.28
601.404	15088.56
601.762	15054.21
602.12	15074.55
602.478	14996.36
602.836	15105.28
603.194	14962.23
603.552	15019.18
603.91	14923.59
604.268	15031.84
604.625	14963.14
604.983	14979.41
605.341	15068.22
605.698	15071.84
606.056	15089.24
606.413	15004.04
606.771	15125.85
607.128	15009.46
607.485	15005.4
607.843	15044.72
608.2	15014.66
608.557	15118.84
608.914	15057.6
609.272	15140.53
609.629	15098.28
609.986	15056.24
610.343	15072.97
610.7	15216.24
611.057	15130.59
611.414	15104.83
611.771	15095.11
612.127	15184.6
612.484	15114.09
612.841	15225.5
613.198	15117.94
613.554	15267.99
613.911	15308.44
614.267	15273.19
614.624	15215.56
614.98	15189.8
615.337	15421.43
615.693	15373.75
616.05	15356.12
616.406	15383.92
616.762	15373.75
617.118	15423.46
617.475	15303.24
617.831	15331.04
618.187	15377.82
618.543	15423.24
618.899	15517.47
619.255	15517.93
619.611	15379.4
619.967	15412.17
620.323	15490.36
620.678	15422.11
621.034	15396.8
621.39	15422.56
621.746	15341.21
622.101	15485.38
622.457	15392.96
622.812	15408.1
623.168	15426.4
623.523	15419.62
623.879	15539.85
624.234	15374.43
624.589	15432.73
624.945	15371.71
625.3	15381.88
625.655	15423.92
626.01	15393.86
626.365	15484.48
626.72	15457.36
627.075	15449.45
627.43	15325.16
627.785	15436.8
628.14	15439.96
628.495	15451.03
628.85	15412.84
629.205	15379.4
629.559	15449
629.914	15440.87
630.269	15351.15
630.623	15364.03
630.978	15272.06
631.332	15383.92
631.687	15326.74
632.041	15291.26
632.396	15280.87
632.75	15280.42
633.104	15280.64
633.459	15198.84
633.813	15159.74
634.167	15225.28
634.521	15140.31
634.875	15182.79
635.229	15095.79
635.583	15063.25
635.937	15096.02
636.291	15072.74
636.645	15198.16
636.999	15072.51
637.352	15071.38
637.706	15030.48
638.06	15049.69
638.413	15043.14
638.767	14924.49
639.121	14985.06
639.474	14931.27
639.828	14959.75
640.181	14867.32
640.534	14907.77
640.888	14835.01
641.241	14782.58
641.594	14857.83
641.947	14845.85
642.301	14807.89
642.654	14909.35
643.007	14795.23
643.36	14868
643.713	14683.37
644.066	14867.32
644.419	14733.77
644.771	14661.68
645.124	14562.24
645.477	14517.5
645.83	14478.86
646.182	14408.35
646.535	14354.57
646.888	14327.22
647.24	14155.7
647.593	14338.52
647.945	14386.2
648.298	14247.68
648.65	14159.09
649.002	14178.3
649.355	14265.08
649.707	14312.31
650.059	14435.69
650.411	14529.25
650.763	14566.76
651.115	14630.49
651.467	14650.38
651.819	14614.9
652.171	14583.03
652.523	14564.5
652.875	14530.61
653.227	14558.4
653.578	14611.73
653.93	14510.04
654.282	14640.21
654.633	14530.38
654.985	14496.26
655.337	14590.49
655.688	14643.82
656.039	14620.32
656.391	14510.72
656.742	14573.54
657.094	14555.24
657.445	14711.84
657.796	14610.38
658.147	14585.52
658.498	14584.84
658.849	14590.72
659.2	14620.1
659.551	14657.38
659.902	14624.62
660.253	14675.69
660.604	14620.32
660.955	14537.16
661.306	14606.76
661.656	14662.35
662.007	14664.39
662.358	14660.77
662.708	14624.84
663.059	14778.74
663.409	14569.02
663.76	14632.52
664.11	14677.72
664.461	14591.4
664.811	14612.86
665.161	14624.62
665.511	14637.5
665.862	14639.08
666.212	14676.14
666.562	14662.81
666.912	14635.69
667.262	14685.86
667.612	14626.88
667.962	14631.85
668.312	14602.92
668.662	14745.52
669.011	14710.71
669.361	14676.14
669.711	14606.31
670.06	14637.04
670.41	14588.01
670.76	14519.31
671.109	14636.82
671.459	14594.79
671.808	14524.51
672.157	14565.18
672.507	14552.53
672.856	14453.09
673.205	14551.4
673.554	14582.58
673.904	14541.45
674.253	14555.46
674.602	14521.79
674.951	14352.76
675.3	14243.83
675.649	14477.5
675.998	14390.27
676.346	14426.88
676.695	14481.57
677.044	14341.23
677.393	14433.89
677.741	14405.86
678.09	14416.71
678.438	14319.76
678.787	14303.49
679.135	14334.45
679.484	14162.93
679.832	14299.88
680.181	14170.62
680.529	14238.18
680.877	14167
681.225	14131.75
681.573	14199.54
681.922	14080
682.27	14046.33
682.618	13986.67
682.966	14067.57
683.314	14158.19
683.661	13936.72
684.009	13971.98
684.357	13934.01
684.705	13919.78
685.053	13908.02
685.4	13814.92
685.748	13817.41
686.095	13852.88
686.443	13749.38
686.79	13701.7
687.138	13766.78
687.485	13755.94
687.832	13650.4
688.18	13633.23
688.527	13609.05
688.874	13545.77
689.221	13491.76
689.568	13445.21
689.915	13506
690.262	13488.37
690.609	13413.57
690.956	13362.95
691.303	13287.48
691.65	13288.38
691.997	13275.5
692.344	13158.21
692.69	13106.24
693.037	13152.79
693.383	13048.84
693.73	13055.84
694.077	12923.87
694.423	12931.55
694.769	12860.82
695.116	12863.08
695.462	12739.24
695.808	12748.73
696.155	12788.28
696.501	12673.71
696.847	12707.38
697.193	12532.69
697.539	12597.55
697.885	12490.21
698.231	12359.36
698.577	12398.01
698.923	12352.36
699.269	12340.38
699.614	12304.9
699.96	12217.9
700.306	12224.68
700.651	12091.57
700.997	12156.43
701.342	12063.1
701.688	12047.73
702.033	12049.09
702.379	11949.66
702.724	11908.98
703.069	11903.56
703.415	11794.41
703.76	11763.45
704.105	11777.68
704.45	11780.17
704.795	11661.3
705.14	11640.06
705.485	11606.16
705.83	11532.49
706.175	11522.1
706.52	11501.08
706.865	11440.52
707.209	11429.22
707.554	11332.72
707.899	11392.61
708.243	11341.54
708.588	11316.23
708.932	11212.5
709.277	11207.76
709.621	11250.47
709.966	11205.04
710.31	11238.94
710.654	11099.74
710.998	11049.79
711.342	11105.16
711.687	11037.59
712.031	10981.55
712.375	10978.61
712.719	10971.6
713.063	10991.26
713.407	10952.4
713.75	10841.66
714.094	10908.78
714.438	10861.78
714.782	10931.38
715.125	10749.24
715.469	10835.34
715.812	10792.85
716.156	10665.62
716.499	10746.98
716.843	10666.75
717.186	10730.71
717.53	10690.48
717.873	10697.94
718.216	10655.68
718.559	10615
718.902	10565.06
719.246	10539.07
719.589	10579.07
719.932	10488.23
720.275	10471.05
720.617	10533.2
720.96	10532.52
721.303	10502.46
721.646	10465.4
721.989	10518.73
722.331	10464.5
722.674	10457.49
723.016	10472.18
723.359	10386.31
723.701	10442.58
724.044	10360.09
724.386	10339.08
724.729	10351.28
725.071	10324.62
725.413	10286.65
725.755	10263.6
726.097	10386.08
726.439	10265.41
726.782	10257.27
727.124	10286.42
727.465	10217.5
727.807	10225.41
728.149	10132.3
728.491	10166.88
728.833	10224.96
729.175	10128.01
729.516	10202.36
729.858	10164.17
730.199	10172.53
730.541	10175.92
730.882	10231.51
731.224	10274.45
731.565	10150.16
731.906	10197.84
732.248	10209.82
732.589	10145.86
732.93	10042.14
733.271	10104.06
733.612	10025.87
733.953	10167.78
734.294	10137.5
734.635	10118.29
734.976	10242.36
735.317	10094.34
735.658	10166.88
735.999	10071.51
736.339	10088.24
736.68	10172.53
737.021	10125.98
737.361	10139.99
737.702	10202.36
738.042	10096.6
738.383	10206.65
738.723	10149.48
739.063	10182.25
739.404	10258.85
739.744	10258.63
740.084	10198.74
740.424	10192.42
740.764	10226.54
741.104	10309.02
741.444	10217.5
741.784	10133.89
742.124	10231.28
742.464	10290.27
742.804	10234.9
743.143	10285.07
743.483	10354.9
743.823	10373.2
744.162	10353.32
744.502	10423.37
744.841	10423.82
745.181	10469.7
745.52	10481
745.86	10568.9
746.199	10627.43
746.538	10676.47
746.877	10709.92
747.216	10760.99
747.556	10803.47
747.895	10773.87
748.234	10861.1
748.573	10936.58
748.911	10912.4
749.25	11039.62
749.589	11044.6
749.928	11105.61
750.267	11201.2
750.605	11237.13
750.944	11340.18
751.283	11424.7
751.621	11486.62
751.96	11490.01
752.298	11666.05
752.636	11826.27
752.975	11835.31
753.313	11957.11
753.651	12044.8
753.989	12146.26
754.327	12318.24
754.666	12310.33
755.004	12597.1
755.342	12692.69
755.679	12736.08
756.017	12796.64
756.355	13047.93
756.693	13095.16
757.031	13331.09
757.368	13396.85
757.706	13483.63
758.044	13661.02
758.381	13790.74
758.719	13990.28
759.056	14148.24
759.394	14265.98
759.731	14365.64
760.068	14637.04
760.405	14621
760.743	14811.28
761.08	14988.67
761.417	15186.86
761.754	15377.59
762.091	15452.84
762.428	15639.5
762.765	15626.4
763.102	15942.55
763.438	15993.39
763.775	16137.34
764.112	16335.53
764.449	16556.99
764.785	16643.55
765.122	16605.81
765.458	16789.98
765.795	16985.01
766.131	17189.52
766.467	17299.8
766.804	17337.99
767.14	17437.87
767.476	17648.49
767.812	17664.76
768.148	17874.25
768.485	17841.71
768.821	17824.53
769.157	18094.81
769.492	18143.62
769.828	18225.65
770.164	18267.68
770.5	18411.41
770.836	18577.51
771.171	18526.66
771.507	18631.97
771.842	18642.14
772.178	18779.08
772.513	18789.03
772.849	18891.4
773.184	18919.87
773.519	19088
773.855	18902.47
774.19	19083.26
774.525	19161.67
774.86	19142.69
775.195	19237.38
775.53	19292.29
775.865	19246.19
776.2	19170.71
776.535	19109.47
776.87	19290.71
777.205	19296.81
777.539	19333.42
777.874	19398.95
778.209	19329.8
778.543	19375.68
778.878	19351.72
779.212	19379.29
779.547	19376.35
779.881	19422
780.215	19337.03
780.55	19421.55
780.884	19299.07
781.218	19417.48
781.552	19424.26
781.886	19400.99
782.22	19373.19
782.554	19425.39
782.888	19236.92
783.222	19278.5
783.556	19057.27
783.889	19132.75
784.223	19038.74
784.557	19104.5
784.89	19131.39
785.224	18982.69
785.557	19022.24
785.891	19035.57
786.224	18980.43
786.558	18989.02
786.891	18853.88
787.224	18913.09
787.557	18926.2
787.891	18846.43
788.224	18819.76
788.557	18883.03
788.89	18763.26
789.223	18864.73
789.556	18662.02
789.888	18688.92
790.221	18643.49
790.554	18530.28
790.887	18489.6
791.219	18501.35
791.552	18442.14
791.884	18372.09
792.217	18421.58
792.549	18448.24
792.882	18283.73
793.214	18292.77
793.546	18276.95
793.879	18108.59
794.211	18133.22
794.543	18247.12
794.875	18167.57
795.207	18076.5
795.539	17991.53
795.871	18076.95
796.203	17916.28
796.535	17863.63
796.867	17777.98
797.198	17781.37
797.53	17766.45
797.862	17600.58
798.193	17652.33
798.525	17539.57
798.856	17612.56
799.188	17352.23
799.519	17248.5
799.85	17296.86
800.182	17344.77
800.513	17430.87
800.844	17137.09
801.175	17339.35
801.506	17220.25
801.837	17215.73
802.168	17154.94
802.499	17088.51
802.83	16968.73
803.161	16952.01
803.491	16977.77
803.822	16955.85
804.153	16847.61
804.483	16712.47
804.814	16705.46
805.145	16674.96
805.475	16631.12
805.805	16638.12
806.136	16565.13
806.466	16559.03
806.796	16538.69
807.126	16484.68
807.457	16411.46
807.787	16474.74
808.117	16366.72
808.447	16290.11
808.777	16334.4
809.107	16331.24
809.436	16158.59
809.766	16175.99
810.096	16111.81
810.426	16041.98
810.755	16120.62
811.085	16068.42
811.414	16018.93
811.744	15972.83
812.073	15958.37
812.403	15872.49
812.732	15745.94
813.061	15815.54
813.39	15737.35
813.719	15778.26
814.049	15819.61
814.378	15762.21
814.707	15647.19
815.036	15666.17
815.365	15507.3
815.693	15525.16
816.022	15588.43
816.351	15408.1
816.68	15350.02
817.008	15461.88
817.337	15214.2
817.665	15326.52
817.994	15289.23
818.322	15262.34
818.651	15142.12
818.979	15100.08
819.307	15229.12
819.636	15162
819.964	15064.83
820.292	15143.92
820.62	15080.2
820.948	15113.87
821.276	15091.95
821.604	15076.13
821.932	15113.19
822.259	15090.82
822.587	15123.13
822.915	15051.72
823.243	15043.14
823.57	14962.46
823.898	15057.37
824.225	14940.99
824.553	14991.61
824.88	15042.68
825.207	15104.15
825.535	14992.29
825.862	15007.88
826.189	15044.27
826.516	15053.3
826.843	15001.55
827.17	15020.99
827.497	15054.66
827.824	15037.71
828.151	15087.2
828.478	14983.93
828.805	15133.98
829.131	15000.42
829.458	15068.22
829.785	14909.35
830.111	14936.02
830.438	15104.83
830.764	14999.07
831.09	15055.11
831.417	15006.53
831.743	14986.41
832.069	15028.9
832.395	14929.24
832.722	14974.21
833.048	14979.41
833.374	14961.56
833.7	14858.28
834.026	14909.81
834.351	14929.01
834.677	14917.49
835.003	14898.51
835.329	14887.89
835.654	14821.45
835.98	14862.35
836.306	14943.25
836.631	14743.26
836.956	14855.57
837.282	14891.95
837.607	14696.03
837.932	14741.45
838.258	14674.56
838.583	14677.72
838.908	14588.46
839.233	14648.12
839.558	14603.37
839.883	14562.24
840.208	14479.76
840.533	14505.07
840.858	14502.81
841.182	14533.77
841.507	14423.04
841.832	14398.63
842.156	14386.88
842.481	14340.33
842.805	14374.9
843.13	14291.97
843.454	14258.75
843.778	14224.63
844.103	14166.77
844.427	14127.23
844.751	14195.02
845.075	14064.4
845.399	14102.6
845.723	13960.45
846.047	14076.61
846.371	13922.49
846.695	13834.81
847.019	13830.06
847.343	13696.5
847.666	13623.29
847.99	13536.06
848.313	13607.02
848.637	13453.8
848.96	13433.01
849.284	13422.84
849.607	13274.59
849.931	13317.76
850.254	13232.11
850.577	13119.8
850.9	13018.1
851.223	13048.16
851.546	12999.8
851.869	12933.13
852.192	12990.53
852.515	12846.36
852.838	12822.63
853.161	12798.22
853.483	12806.13
853.806	12706.93
854.129	12710.32
854.451	12645.46
854.774	12601.62
855.096	12404.33
855.419	12513.48
855.741	12499.93
856.063	12421.74
856.385	12405.69
856.708	12354.17
857.03	12292.02
857.352	12324.56
857.674	12249.76
857.996	12249.54
858.318	12163.66
858.64	12165.7
858.961	12081.86
859.283	12057.68
859.605	12022.88
859.926	12055.42
860.248	11950.11
860.57	11912.37
860.891	12039.37
861.212	11804.12
861.534	11832.15
861.855	11821.07
862.176	11759.15
862.498	11799.83
862.819	11818.36
863.14	11768.42
863.461	11758.93
863.782	11697.91
864.103	11630.34
864.424	11615.66
864.745	11575.2
865.065	11543.11
865.386	11522.78
865.707	11503.34
866.027	11543.11
866.348	11506.73
866.668	11473.06
866.989	11376.11
867.309	11352.39
867.63	11488.2
867.95	11414.98
868.27	11361.42
868.59	11280.75
868.91	11387.19
869.23	11332.72
869.55	11296.12
869.87	11289.56
870.19	11271.71
870.51	11280.3
870.83	11253.18
871.15	11221.09
871.469	11224.93
871.789	11133.86
872.109	11210.47
872.428	11106.29
872.748	11224.93
873.067	11115.56
873.386	11173.18
873.706	11099.28
874.025	10991.04
874.344	10972.96
874.663	11014.99
874.982	10994.88
875.301	10977.71
875.62	10882.34
875.939	11026.29
876.258	11024.03
876.577	10878.73
876.896	10895.9
877.214	10801.44
877.533	10838.05
877.852	10856.8
878.17	10774.32
878.489	10784.49
878.807	10822.68
879.125	10756.47
879.444	10782.23
879.762	10759.63
880.08	10693.87
880.398	10678.96
880.716	10712.4
881.034	10628.56
881.352	10672.63
881.67	10627.66
881.988	10574.78
882.306	10536.81
882.624	10530.94
882.941	10477.15
883.259	10445.52
883.577	10526.19
883.894	10493.88
884.212	10409.36
884.529	10385.18
884.846	10360.09
885.164	10366.65
885.481	10313.54
885.798	10287.33
886.115	10250.72
886.432	10299.31
886.75	10187.44
887.067	10208.69
887.383	10266.09
887.7	10181.12
888.017	10163.94
888.334	10176.82
888.651	10135.92
888.967	10073.77
889.284	10004.4
889.6	9979.77
889.917	9931.86
890.233	9961.24
890.55	9874.23
890.866	9926.89
891.182	9901.12
891.498	9782.71
891.815	9818.41
892.131	9787
892.447	9738.19
892.763	9695.48
893.079	9636.5
893.395	9592.21
893.71	9557.63
894.026	9559.89
894.342	9580.45
894.657	9516.5
894.973	9459.55
895.289	9451.64
895.604	9471.3
895.92	9401.93
896.235	9324.64
896.55	9335.94
896.865	9286.9
897.181	9250.07
897.496	9228.83
897.811	9240.8
898.126	9211.88
898.441	9190.86
898.756	9124.2
899.071	9072.45
899.386	9036.74
899.7	9000.81
900.015	8962.39
900.33	8905.9
900.644	8906.35
900.959	8915.61
901.273	8867.03
901.588	8833.13
901.902	8713.81
902.216	8731.89
902.531	8728.73
902.845	8672.46
903.159	8619.8
903.473	8635.39
903.787	8593.36
904.101	8514.95
904.415	8559.69
904.729	8504.55
905.042	8446.02
905.356	8436.76
905.67	8414.16
905.984	8443.31
906.297	8393.82
906.611	8262.75
906.924	8258.46
907.237	8227.27
907.551	8213.48
907.864	8170.77
908.177	8145.69
908.491	8176.88
908.804	8054.62
909.117	8087.39
909.43	8025.47
909.743	7984.11
910.056	7938.24
910.368	7929.42
910.681	7890.33
910.994	7856.43
911.307	7848.07
911.619	7799.71
911.932	7737.79
912.244	7659.83
912.557	7704.57
912.869	7614.63
913.181	7603.78
913.494	7567.63
913.806	7508.87
914.118	7496.44
914.43	7461.87
914.742	7523.79
915.054	7458.02
915.366	7371.47
915.678	7386.39
915.99	7357.01
916.302	7253.06
916.613	7258.93
916.925	7145.49
917.236	7189.56
917.548	7223
917.859	7095.77
918.171	7163.57
918.482	7055.77
918.794	7051.26
919.105	7072.05
919.416	7009.67
919.727	6982.1
920.038	6964.25
920.349	6906.85
920.66	6855.33
920.971	6880.41
921.282	6858.04
921.593	6803.8
921.903	6759.96
922.214	6740.53
922.525	6767.19
922.835	6706.41
923.146	6660.53
923.456	6648.78
923.767	6612.62
924.077	6587.99
924.387	6552.29
924.697	6542.12
925.008	6443.81
925.318	6505.96
925.628	6469.58
925.938	6442.91
926.248	6412.4
926.558	6371.73
926.867	6380.99
927.177	6299.18
927.487	6303.7
927.796	6294.21
928.106	6254.67
928.416	6206.76
928.725	6162.24
929.034	6109.13
929.344	6157.49
929.653	6174.44
929.962	6056.71
930.271	6076.14
930.581	6104.84
930.89	6012.64
931.199	5990.49
931.508	5992.07
931.817	5974.45
932.125	5930.83
932.434	5944.39
932.743	5833.89
933.051	5865.07
933.36	5788.01
933.669	5764.28
933.977	5781.23
934.286	5797.5
934.594	5756.6
934.902	5682.25
935.21	5665.98
935.519	5705.98
935.827	5619.65
936.135	5574.01
936.443	5616.04
936.751	5565.87
937.059	5573.1
937.367	5510.73
937.674	5531.3
937.982	5510.96
938.29	5419.21
938.597	5449.94
938.905	5371.98
939.213	5393.9
939.52	5392.77
939.827	5320.68
940.135	5282.49
940.442	5258.53
940.749	5265.09
941.056	5216.5
941.363	5201.13
941.67	5180.8
941.977	5136.96
942.284	5149.61
942.591	5092.89
942.898	5075.26
943.205	5043.85
943.511	5053.79
943.818	5023.96
944.125	4981.03
944.431	4970.41
944.738	5024.64
945.044	4925.21
945.35	4951.65
945.657	4895.38
945.963	4869.39
946.269	4858.77
946.575	4855.15
946.881	4795.04
947.187	4830.97
947.493	4777.19
947.799	4766.8
948.105	4743.29
948.41	4726.8
948.716	4687.25
949.022	4696.29
949.327	4680.7
949.633	4657.19
949.938	4602.73
950.244	4610.64
950.549	4570.87
950.854	4548.95
951.16	4552.34
951.465	4572.68
951.77	4499.91
952.075	4490.42
952.38	4441.38
952.685	4445.22
952.99	4442.06
953.294	4400.7
953.599	4385.56
953.904	4371.55
954.209	4401.83
954.513	4314.6
954.818	4343.76
955.122	4309.18
955.426	4238.45
955.731	4260.59
956.035	4217.21
956.339	4228.28
956.643	4203.19
956.948	4202.29
957.252	4129.98
957.556	4140.82
957.86	4131.78
958.163	4141.28
958.467	4084.1
958.771	4096.53
959.075	4045.68
959.378	4039.13
959.682	4035.97
959.985	4005.69
960.289	3976.31
960.592	3979.92
960.896	3937.21
961.199	3934.28
961.502	3981.51
961.805	3931.11
962.108	3880.72
962.411	3883.2
962.714	3887.04
963.017	3853.15
963.32	3831.68
963.623	3806.82
963.926	3779.02
964.228	3786.93
964.531	3770.21
964.833	3757.56
965.136	3706.26
965.438	3727.27
965.741	3689.54
966.043	3689.54
966.345	3654.06
966.648	3689.99
966.95	3652.7
967.252	3614.74
967.554	3638.01
967.856	3618.8
968.158	3586.94
968.46	3546.71
968.761	3538.58
969.063	3556.66
969.365	3495.64
969.666	3484.12
969.968	3478.24
970.269	3468.52
970.571	3452.48
970.872	3443.89
971.174	3400.5
971.475	3383.56
971.776	3424.68
972.077	3388.3
972.378	3334.74
972.679	3373.84
972.98	3336.78
973.281	3313.73
973.582	3287.29
973.883	3303.78
974.183	3230.11
974.484	3247.74
974.785	3248.42
975.085	3222.43
975.386	3235.76
975.686	3269.43
975.986	3166.39
976.287	3186.95
976.587	3163.45
976.887	3125.26
977.187	3185.37
977.487	3114.86
977.787	3092.94
978.087	3125.03
978.387	3082.55
978.687	3038.03
978.987	3048.42
979.286	3033.73
979.586	3020.85
979.885	3031.47
980.185	3008.88
980.484	2975.66
980.784	2992.38
981.083	2964.58
981.382	2969.55
981.682	2917.8
981.981	2887.3
982.28	2895.88
982.579	2880.74
982.878	2857.69
983.177	2857.92
983.475	2864.47
983.774	2858.82
984.073	2833.51
984.372	2778.37
984.67	2812.72
984.969	2797.36
985.267	2789.67
985.566	2770.24
985.864	2741.54
986.162	2729.79
986.461	2706.06
986.759	2716.68
987.057	2698.6
987.355	2682.56
987.653	2669.68
987.951	2649.11
988.249	2636.23
988.547	2635.33
988.844	2621.77
989.142	2623.12
989.44	2601.65
989.737	2575.67
990.035	2585.61
990.332	2556.91
990.63	2552.62
990.927	2550.13
991.224	2493.41
991.521	2527.76
991.819	2478.95
992.116	2466.74
992.413	2502.22
992.71	2433.07
993.006	2450.92
993.303	2461.32
993.6	2453.64
993.897	2433.75
994.193	2431.94
994.49	2398.27
994.787	2397.82
995.083	2403.47
995.379	2334.54
995.676	2357.82
995.972	2313.3
996.268	2328.89
996.565	2308.56
996.861	2310.36
997.157	2286.41
997.453	2246.41
997.749	2299.29
998.044	2277.82
998.34	2263.58
998.636	2260.19
998.932	2226.07
999.227	2249.12
999.523	2213.64
999.818	2199.86
1000.114	2179.97
1000.409	2179.74
1000.704	2159.86
1001	2146.53
1001.295	2131.16
1001.59	2129.58
1001.885	2104.72
1002.18	2085.06
1002.475	2088.22
1002.77	2081.89
1003.065	2042.35
1003.359	2073.76
1003.654	2046.87
1003.949	2030.37
1004.243	2017.26
1004.538	2008.9
1004.832	2011.16
1005.127	1979.3
1005.421	1947.66
1005.715	1971.39
1006.009	1947.43
1006.304	1945.63
1006.598	1906.31
1006.892	1928.9
1007.186	1892.52
1007.48	1904.5
1007.773	1900.2
1008.067	1882.35
1008.361	1842.8
1008.655	1912.63
1008.948	1846.87
1009.242	1836.48
1009.535	1845.06
1009.829	1817.27
1010.122	1785.41
1010.415	1809.81
1010.708	1776.14
1011.001	1796.93
1011.295	1775.01
1011.588	1768.46
1011.881	1734.78
1012.173	1732.3
1012.466	1735.69
1012.759	1754.67
1013.052	1713.77
1013.344	1709.25
1013.637	1683.71
1013.93	1688.01
1014.222	1631.74
1014.514	1649.82
1014.807	1632.64
1015.099	1629.02
1015.391	1635.8
1015.683	1613.43
1015.976	1624.96
1016.268	1613.21
1016.56	1592.64
1016.851	1580.89
1017.143	1586.31
1017.435	1542.25
1017.727	1537.05
1018.018	1579.99
1018.31	1535.47
1018.602	1516.94
1018.893	1511.51
1019.185	1531.63
1019.476	1458.41
1019.767	1495.24
1020.058	1474.68
1020.35	1485.98
1020.641	1468.58
1020.932	1426.77
1021.223	1435.58
1021.514	1422.7
1021.804	1406.43
1022.095	1417.96
1022.386	1411.86
1022.677	1397.84
1022.967	1368.47
1023.258	1359.2
1023.548	1356.49
1023.839	1337.96
1024.129	1366.21
1024.419	1313.78
1024.709	1334.12
1025	1333.89
1025.29	1299.54
1025.58	1297.73
1025.87	1295.93
1026.16	1287.57
1026.449	1252.76
1026.739	1263.16
1027.029	1273.1
1027.319	1256.83
1027.608	1249.37
1027.898	1211.41
1028.187	1230.62
1028.477	1249.6
1028.766	1200.34
1029.055	1201.69
1029.344	1212.76
1029.634	1173.44
1029.923	1193.33
1030.212	1196.04
1030.501	1141.81
1030.79	1168.02
1031.078	1134.12
1031.367	1162.6
1031.656	1141.35
1031.945	1121.47
1032.233	1122.15
1032.522	1097.06
1032.81	1129.15
1033.099	1077.63
1033.387	1106.78
1033.675	1083.28
1033.963	1083.5
1034.251	1082.6
1034.54	1066.55
1034.828	1068.14
1035.116	1052.77
1035.403	1067.46
1035.691	1058.64
1035.979	1041.92
1036.267	1022.94
1036.554	1030.85
1036.842	1001.02
1037.129	1012.32
1037.417	985.2
1037.704	987.46
1037.992	978.87
1038.279	995.6
1038.566	961.02
1038.853	961.02
1039.14	961.02
