Data from hue_110_FLMS001491_00043.txt Node
Date: Tue Feb 07 17:01:22 GMT 2017
User: dcchb
Spectrometer: FLMS00149
Trigger mode: 0
Integration Time (sec): 2.000000E-2
Scans to average: 10
Electric dark correction enabled: true
Nonlinearity correction enabled: false
Boxcar width: 0
XAxis mode: Wavelengths
Number of Pixels in Spectrum: 2048
>>>>>Begin Spectral Data<<<<<
341.393	-11.6
341.776	-11.6
342.16	-11.6
342.543	-77.58
342.927	-85.49
343.31	-59.96
343.693	-68.77
344.077	-51.59
344.46	-68.32
344.843	-56.57
345.226	-30.13
345.61	-28.54
345.993	-12.95
346.376	-9.79
346.759	-8.21
347.142	16.2
347.525	48.06
347.908	58.01
348.291	67.72
348.674	99.81
349.057	105.01
349.44	114.28
349.823	128.97
350.206	166.03
350.588	203.31
350.971	210.55
351.354	236.99
351.737	215.06
352.119	259.13
352.502	269.75
352.884	295.29
353.267	276.53
353.65	290.32
354.032	303.65
354.414	316.53
354.797	331.67
355.179	325.34
355.562	312.92
355.944	327.6
356.326	352.24
356.709	327.6
357.091	338.68
357.473	347.94
357.855	339.36
358.238	357.66
358.62	344.33
359.002	343.42
359.384	340.49
359.766	345.68
360.148	342.97
360.53	345.91
360.912	358.56
361.294	345.01
361.676	329.64
362.057	330.09
362.439	343.2
362.821	349.98
363.203	335.51
363.584	347.49
363.966	326.25
364.348	325.8
364.729	312.92
365.111	323.76
365.493	328.73
365.874	326.47
366.256	339.81
366.637	306.36
367.019	323.54
367.4	340.26
367.781	304.1
368.163	314.05
368.544	321.28
368.925	316.31
369.306	312.46
369.688	308.85
370.069	310.43
370.45	331.67
370.831	330.32
371.212	321.28
371.593	307.27
371.974	340.94
372.355	306.14
372.736	312.46
373.117	310.2
373.498	330.09
373.879	308.85
374.26	329.41
374.641	287.61
375.021	331.9
375.402	345.01
375.783	320.82
376.163	323.54
376.544	320.37
376.925	336.19
377.305	320.37
377.686	338.68
378.066	331.45
378.447	335.29
378.827	335.97
379.208	328.73
379.588	326.25
379.968	336.19
380.349	346.81
380.729	343.2
381.109	335.51
381.489	338
381.87	356.98
382.25	358.34
382.63	340.49
383.01	343.88
383.39	346.59
383.77	351.33
384.15	351.78
384.53	354.95
384.91	354.5
385.29	365.12
385.67	355.17
386.049	357.66
386.429	359.92
386.809	373.7
387.189	376.87
387.568	376.87
387.948	363.76
388.328	363.99
388.707	373.25
389.087	378
389.466	370.77
389.846	378.45
390.225	381.61
390.605	390.2
390.984	388.85
391.363	393.14
391.743	381.84
392.122	405.79
392.501	394.27
392.881	384.78
393.26	401.73
393.639	397.43
394.018	377.09
394.397	392.24
394.776	373.93
395.155	383.2
395.534	392.46
395.913	425
396.292	394.04
396.671	394.72
397.05	415.29
397.429	424.1
397.808	399.01
398.186	406.02
398.565	399.47
398.944	422.07
399.323	406.25
399.701	415.96
400.08	425.45
400.458	413.7
400.837	401.05
401.215	414.61
401.594	414.83
401.972	422.52
402.351	417.55
402.729	410.77
403.107	440.6
403.486	447.6
403.864	439.01
404.242	455.51
404.62	449.64
404.999	446.02
405.377	437.21
405.755	433.59
406.133	444.44
406.511	435.4
406.889	452.57
407.267	448.28
407.645	445.79
408.023	479.69
408.401	461.16
408.779	478.79
409.156	478.56
409.534	469.07
409.912	485.11
410.29	498.22
410.667	484.21
411.045	506.58
411.422	488.5
411.8	505
412.178	500.48
412.555	494.83
412.933	509.97
413.31	520.82
413.687	538.45
414.065	519.46
414.442	521.27
414.819	512.01
415.197	510.65
415.574	535.73
415.951	549.07
416.328	566.69
416.705	568.28
417.082	547.71
417.46	538.9
417.837	551.55
418.214	549.97
418.591	556.07
418.967	567.82
419.344	589.52
419.721	578.22
420.098	551.78
420.475	567.37
420.852	587.03
421.228	616.41
421.605	607.82
421.982	609.4
422.358	607.82
422.735	613.25
423.111	598.56
423.488	599.91
423.864	620.93
424.241	632.68
424.617	616.41
424.994	626.35
425.37	639.01
425.746	635.62
426.123	633.59
426.499	663.41
426.875	648.95
427.251	662.96
427.627	678.56
428.003	689.18
428.379	679.01
428.756	671.1
429.132	662.74
429.507	677.43
429.883	697.99
430.259	707.48
430.635	692.79
431.011	700.02
431.387	726.69
431.763	740.47
432.138	752.45
432.514	751.77
432.89	761.27
433.265	757.88
433.641	780.02
434.016	809.63
434.392	772.79
434.767	796.74
435.143	791.1
435.518	815.28
435.894	802.39
436.269	810.76
436.644	818.21
437.02	840.36
437.395	848.49
437.77	829.51
438.145	858.44
438.52	850.08
438.895	869.51
439.271	861.6
439.646	879.68
440.021	876.52
440.395	892.11
440.77	914.03
441.145	912.45
441.52	921.04
441.895	892.79
442.27	897.08
442.645	917.42
443.019	931.88
443.394	956.29
443.769	935.05
444.143	929.4
444.518	979.11
444.892	980.02
445.267	972.11
445.641	984.08
446.016	958.1
446.39	973.01
446.764	999.45
447.139	1004.42
447.513	1015.04
447.887	1024.31
448.262	1021.6
448.636	1042.84
449.01	1025.44
449.384	1069.05
449.758	1067.92
450.132	1045.78
450.506	1053.01
450.88	1072.44
451.254	1098.43
451.628	1079.22
452.002	1100.92
452.376	1133.68
452.75	1111.09
453.123	1115.15
453.497	1155.83
453.871	1177.75
454.244	1184.31
454.618	1201.71
454.992	1192.67
455.365	1215.94
455.739	1228.82
456.112	1225.21
456.486	1233.8
456.859	1258.43
457.232	1272.44
457.606	1274.92
457.979	1306.79
458.352	1325.54
458.725	1333
459.099	1348.59
459.472	1374.13
459.845	1392.89
460.218	1396.05
460.591	1424.07
460.964	1435.6
461.337	1453.22
461.71	1476.5
462.083	1491.64
462.456	1509.04
462.829	1524.18
463.201	1561.02
463.574	1533.45
463.947	1567.8
464.32	1642.82
464.692	1646.67
465.065	1635.82
465.438	1703.16
465.81	1695.25
466.183	1746.32
466.555	1760.56
466.928	1784.52
467.3	1799.88
467.672	1788.58
468.045	1882.59
468.417	1845.76
468.789	1905.19
469.161	1941.35
469.534	1987
469.906	2044.17
470.278	2049.14
470.65	2090.95
471.022	2131.17
471.394	2198.06
471.766	2211.4
472.138	2267.21
472.51	2353.77
472.882	2381.11
473.253	2399.19
473.625	2433.99
473.997	2540.2
474.369	2587.66
474.74	2607.32
475.112	2651.39
475.484	2744.04
475.855	2850.48
476.227	2861.78
476.598	2958.72
476.97	3048.89
477.341	3123.46
477.713	3163.46
478.084	3254.31
478.455	3377.24
478.827	3411.82
479.198	3532.27
479.569	3602.32
479.94	3774.97
480.311	3828.98
480.682	3946.72
481.053	4066.04
481.424	4156.2
481.795	4256.77
482.166	4383.54
482.537	4450.89
482.908	4583.99
483.279	4756.41
483.65	4851.33
484.021	5071.89
484.391	5134.03
484.762	5230.07
485.133	5366.57
485.503	5494.93
485.874	5698.31
486.244	5727.01
486.615	5985.53
486.985	6113.44
487.356	6280.44
487.726	6395.69
488.097	6590.26
488.467	6700.54
488.837	6924.95
489.207	7022.57
489.578	7226.86
489.948	7351.15
490.318	7533.97
490.688	7656.23
491.058	7864.13
491.428	8090.56
491.798	8228.87
492.168	8414.85
492.538	8525.58
492.908	8818.23
493.278	8916.76
493.648	9023.65
494.017	9209.63
494.387	9358.55
494.757	9509.96
495.126	9693.46
495.496	9777.07
495.866	9947.92
496.235	10199.44
496.605	10302.71
496.974	10446.21
497.344	10546.77
497.713	10765.07
498.082	10847.55
498.452	11064.72
498.821	11202.35
499.19	11213.19
499.559	11402.79
499.928	11521.43
500.298	11609.34
500.667	11853.85
501.036	11855.89
501.405	12028.77
501.774	12093.17
502.143	12267.63
502.512	12343.79
502.88	12514.4
503.249	12578.81
503.618	12660.39
503.987	12788.29
504.356	12936.76
504.724	12965.92
505.093	13102.18
505.462	13200.26
505.83	13347.38
506.199	13382.63
506.567	13528.61
506.936	13499.01
507.304	13694.03
507.672	13837.76
508.041	13913.69
508.409	14012.44
508.777	14032.1
509.145	14232.32
509.514	14215.15
509.882	14261.93
510.25	14412.21
510.618	14487.68
510.986	14508.93
511.354	14703.05
511.722	14735.14
512.09	14922.93
512.458	14828.01
512.826	15027.33
513.193	15037.5
513.561	15023.72
513.929	15151.62
514.297	15277.04
514.664	15288.34
515.032	15372.86
515.4	15549.35
515.767	15523.59
516.135	15564.49
516.502	15458.28
516.869	15722
517.237	15653.76
517.604	15677.03
517.972	15724.49
518.339	15874.31
518.706	15885.16
519.073	15883.58
519.44	16186.85
519.808	16119.51
520.175	16009.9
520.542	16258.71
520.909	16346.39
521.276	16237.47
521.643	16326.28
522.009	16456.45
522.376	16394.53
522.743	16506.39
523.11	16626.16
523.477	16710.68
523.843	16732.37
524.21	16844.23
524.577	16872.93
524.943	16840.16
525.31	16976.88
525.676	17060.72
526.043	17083.1
526.409	17088.29
526.776	17304.56
527.142	17247.39
527.508	17306.37
527.874	17266.59
528.241	17286.93
528.607	17348.63
528.973	17397.44
529.339	17355.18
529.705	17428.85
530.071	17478.11
530.437	17512.01
530.803	17526.02
531.169	17433.37
531.535	17431.56
531.901	17439.02
532.267	17423.43
532.632	17489.64
532.998	17503.88
533.364	17553.59
533.73	17464.1
534.095	17571.67
534.461	17515.18
534.826	17593.37
535.192	17522.41
535.557	17598.34
535.923	17412.8
536.288	17479.02
536.653	17492.12
537.019	17395.86
537.384	17477.44
537.749	17453.71
538.114	17357.89
538.479	17379.81
538.845	17307.95
539.21	17222.98
539.575	17297.1
539.94	17286.03
540.305	17206.71
540.67	17235.86
541.034	17168.97
541.399	17202.19
541.764	17118.8
542.129	17061.63
542.494	17056.66
542.858	17139.37
543.223	17025.02
543.587	17068.41
543.952	17040.61
544.316	16991.12
544.681	16958.58
545.045	16933.5
545.41	16920.39
545.774	16945.92
546.138	16837.45
546.503	16745.25
546.867	16748.19
547.231	16831.8
547.595	16779.15
547.959	16735.53
548.324	16507.97
548.688	16656.89
549.052	16538.7
549.416	16502.55
549.779	16453.73
550.143	16500.51
550.507	16516.11
550.871	16384.81
551.235	16301.87
551.599	16409.89
551.962	16353.17
552.326	16316.34
552.689	16369.22
553.053	16237.69
553.417	16294.42
553.78	16410.35
554.143	16223.91
554.507	16303
554.87	16210.8
555.234	16353.62
555.597	16149.56
555.96	16154.98
556.323	16162.44
556.686	16087.87
557.05	16221.2
557.413	16144.59
557.776	16119.96
558.139	16102.78
558.502	16153.18
558.865	16131.26
559.228	16105.49
559.59	16035.21
559.953	16077.7
560.316	16267.07
560.679	16167.19
561.041	16252.38
561.404	16245.15
561.767	16310.91
562.129	16185.94
562.492	16230.01
562.854	16199.05
563.217	16126.51
563.579	16069.34
563.941	16302.55
564.304	16266.62
564.666	16208.54
565.028	16192.27
565.39	16226.62
565.753	16414.87
566.115	16370.12
566.477	16371.93
566.839	16350.23
567.201	16479.95
567.563	16399.5
567.925	16488.31
568.287	16382.1
568.648	16342.55
569.01	16442.66
569.372	16649.66
569.734	16416.67
570.095	16446.95
570.457	16597.23
570.819	16444.92
571.18	16568.76
571.542	16620.28
571.903	16634.97
572.265	16615.09
572.626	16636.33
572.987	16644.01
573.349	16766.27
573.71	16716.55
574.071	16748.64
574.432	16702.54
574.794	16771.47
575.155	16735.76
575.516	16657.57
575.877	16789.32
576.238	16704.8
576.599	16911.58
576.96	16781.41
577.32	16766.49
577.681	16817.57
578.042	16883.33
578.403	16833.39
578.763	16809.2
579.124	16807.85
579.485	16794.97
579.845	16934.85
580.206	16778.02
580.566	16848.07
580.927	16832.48
581.287	16952.03
581.648	16840.84
582.008	16871.12
582.368	16827.51
582.728	16795.19
583.089	16841.29
583.449	16683.56
583.809	16775.76
584.169	16835.42
584.529	16651.24
584.889	16875.19
585.249	16764.01
585.609	16667.06
585.969	16750
586.329	16727.63
586.688	16747.29
587.048	16702.77
587.408	16644.46
587.768	16655.76
588.127	16672.94
588.487	16573.73
588.846	16688.08
589.206	16606.5
589.565	16611.02
589.925	16709.32
590.284	16510.46
590.643	16586.16
591.003	16485.82
591.362	16598.14
591.721	16559.04
592.08	16526.05
592.44	16535.77
592.799	16503.45
593.158	16536.9
593.517	16527.4
593.876	16553.17
594.235	16459.84
594.593	16483.34
594.952	16493.28
595.311	16373.28
595.67	16501.87
596.029	16561.3
596.387	16557.91
596.746	16611.7
597.104	16460.06
597.463	16478.82
597.822	16520.17
598.18	16463.9
598.538	16397.24
598.897	16532.15
599.255	16369.22
599.613	16569.89
599.972	16460.51
600.33	16477.69
600.688	16426.16
601.046	16507.07
601.404	16443.56
601.762	16475.43
602.12	16539.38
602.478	16372.61
602.836	16486.5
603.194	16354.53
603.552	16380.97
603.91	16383
604.268	16366.28
604.625	16311.36
604.983	16394.53
605.341	16485.37
605.698	16457.12
606.056	16520.4
606.413	16455.32
606.771	16609.44
607.128	16449.89
607.485	16400.4
607.843	16400.18
608.2	16542.77
608.557	16531.47
608.914	16491.7
609.272	16548.42
609.629	16514.75
609.986	16637.01
610.343	16527.4
610.7	16626.61
611.057	16560.85
611.414	16539.38
611.771	16600.62
612.127	16705.93
612.484	16635.88
612.841	16685.37
613.198	16654.18
613.554	16606.72
613.911	16763.1
614.267	16740.05
614.624	16775.53
614.98	16648.98
615.337	16804.69
615.693	16767.85
616.05	16773.95
616.406	16876.77
616.762	16789.77
617.118	16825.02
617.475	16745.7
617.831	16792.93
618.187	16839.94
618.543	16756.32
618.899	16960.61
619.255	16805.59
619.611	16876.55
619.967	16841.07
620.323	16950.67
620.678	16855.31
621.034	16798.81
621.39	16748.64
621.746	16824.8
622.101	16957.22
622.457	16904.12
622.812	16945.25
623.168	16906.15
623.523	16973.95
623.879	16966.04
624.234	16911.8
624.589	16984.12
624.945	16967.17
625.3	16869.54
625.655	16931.01
626.01	16856.89
626.365	16941.63
626.72	16864.12
627.075	16916.55
627.43	16802.2
627.785	16845.36
628.14	16842.42
628.495	16942.76
628.85	16841.29
629.205	16813.5
629.559	16913.61
629.914	16777.57
630.269	16820.73
630.623	16780.73
630.978	16781.86
631.332	16844.46
631.687	16865.02
632.041	16775.31
632.396	16746.38
632.75	16721.52
633.104	16726.5
633.459	16573.73
633.813	16581.64
634.167	16655.99
634.521	16661.19
634.875	16560.85
635.229	16648.31
635.583	16605.82
635.937	16507.07
636.291	16482.21
636.645	16551.81
636.999	16456.9
637.352	16481.08
637.706	16393.62
638.06	16452.83
638.413	16379.61
638.767	16336.9
639.121	16398.82
639.474	16273.17
639.828	16301.2
640.181	16312.72
640.534	16290.8
640.888	16325.83
641.241	16149.56
641.594	16278.6
641.947	16287.41
642.301	16228.88
642.654	16254.42
643.007	16323.57
643.36	16254.64
643.713	16190.69
644.066	16208.99
644.419	16091.48
644.771	16032.95
645.124	15866.4
645.477	15893.75
645.83	15795.67
646.182	15662.12
646.535	15740.31
646.888	15682.91
647.24	15606.52
647.593	15705.28
647.945	15595.23
648.298	15549.8
648.65	15578.5
649.002	15608.56
649.355	15577.37
649.707	15653.76
650.059	15691.04
650.411	15875.9
650.763	15913.64
651.115	16033.86
651.467	15977.36
651.819	16012.39
652.171	15969.23
652.523	15906.4
652.875	16018.49
653.227	15845.61
653.578	16038.83
653.93	15973.75
654.282	15901.21
654.633	15851.49
654.985	15957.93
655.337	15934.65
655.688	15969.23
656.039	16032.73
656.391	15962.22
656.742	15923.35
657.094	16058.72
657.445	16055.78
657.796	15981.66
658.147	15958.15
658.498	15980.53
658.849	16036.8
659.2	15929.23
659.551	15823.92
659.902	16046.97
660.253	15959.74
660.604	16027.3
660.955	15930.58
661.306	16006.29
661.656	15994.99
662.007	16078.15
662.358	16001.09
662.708	15990.02
663.059	16047.87
663.409	15898.04
663.76	16091.03
664.11	16042.45
664.461	16089.68
664.811	16047.19
665.161	15977.36
665.511	16079.51
665.862	16113.18
666.212	16160.63
666.562	16073.18
666.912	16067.76
667.262	16036.8
667.612	16044.93
667.962	16106.4
668.312	16041.09
668.662	16021.43
669.011	16059.62
669.361	16081.09
669.711	16060.75
670.06	16019.17
670.41	15988.66
670.76	15905.95
671.109	16043.8
671.459	15961.32
671.808	15957.93
672.157	15960.19
672.507	15878.38
672.856	15935.33
673.205	15930.13
673.554	15877.93
673.904	15871.83
674.253	15956.12
674.602	15871.38
674.951	15712.51
675.3	15587.99
675.649	15794.99
675.998	15829.8
676.346	15780.31
676.695	15879.51
677.044	15725.39
677.393	15789.34
677.741	15816.69
678.09	15711.83
678.438	15645.85
678.787	15709.57
679.135	15707.76
679.484	15653.3
679.832	15585.96
680.181	15474.1
680.529	15501.44
680.877	15397.72
681.225	15531.72
681.573	15564.04
681.922	15477.26
682.27	15413.54
682.618	15446.53
682.966	15408.56
683.314	15425.96
683.661	15285.18
684.009	15253.09
684.357	15312.52
684.705	15213.09
685.053	15195.91
685.4	15274.56
685.748	15179.19
686.095	15108.91
686.443	15075.24
686.79	15021.46
687.138	14976.48
687.485	15014.45
687.832	15021
688.18	15013.32
688.527	14847.67
688.874	14822.36
689.221	14837.73
689.568	14783.72
689.915	14792.99
690.262	14717.28
690.609	14662.59
690.956	14667.34
691.303	14501.69
691.65	14460.11
691.997	14468.25
692.344	14421.02
692.69	14362.72
693.037	14349.38
693.383	14175.38
693.73	14298.54
694.077	14177.64
694.423	14113
694.769	14083.63
695.116	14072.55
695.462	14066
695.808	13969.96
696.155	14017.19
696.501	13986.23
696.847	13831.66
697.193	13652.68
697.539	13759.57
697.885	13701.49
698.231	13576.97
698.577	13635.73
698.923	13577.43
699.269	13407.49
699.614	13376.07
699.96	13332.69
700.306	13419.92
700.651	13209.98
700.997	13227.38
701.342	13214.5
701.688	13231.67
702.033	13081.17
702.379	13059.25
702.724	13015.41
703.069	13049.98
703.415	12905.58
703.76	12806.15
704.105	12848.63
704.45	12801.4
704.795	12708.07
705.14	12659.26
705.485	12692.93
705.83	12590.56
706.175	12699.26
706.52	12574.29
706.865	12490.9
707.209	12594.17
707.554	12554.85
707.899	12548.53
708.243	12387.17
708.588	12316.44
708.932	12307.18
709.277	12258.14
709.621	12275.09
709.966	12130.91
710.31	12197.35
710.654	12125.71
710.998	12106.73
711.342	12180.4
711.687	12083.91
712.031	12031.93
712.375	11963.91
712.719	12043
713.063	12004.13
713.407	11975.21
713.75	11909.9
714.094	11848.43
714.438	11858.83
714.782	11893.18
715.125	11832.39
715.469	11829.45
715.812	11696.35
716.156	11679.85
716.499	11701.77
716.843	11727.76
717.186	11662.67
717.53	11673.75
717.873	11699.28
718.216	11577.7
718.559	11547.42
718.902	11449.35
719.246	11531.6
719.589	11444.37
719.932	11464.03
720.275	11504.49
720.617	11517.59
720.96	11433.3
721.303	11403.25
721.646	11472.4
721.989	11359.86
722.331	11400.31
722.674	11389.69
723.016	11414.32
723.359	11302.46
723.701	11348.56
724.044	11295.23
724.386	11267.2
724.729	11292.74
725.071	11305.85
725.413	11268.79
725.755	11310.82
726.097	11249.13
726.439	11185.17
726.782	11216.36
727.124	11292.29
727.465	11151.95
727.807	11176.58
728.149	11173.42
728.491	11153.53
728.833	11253.42
729.175	11203.7
729.516	11086.42
729.858	11161.9
730.199	11192.86
730.541	11102.69
730.882	11128.9
731.224	11195.57
731.565	11068.34
731.906	11053.65
732.248	11112.18
732.589	11089.13
732.93	11051.16
733.271	11086.64
733.612	11085.51
733.953	11090.71
734.294	11076.7
734.635	11116.25
734.976	11167.77
735.317	11102.01
735.658	11052.29
735.999	11087.77
736.339	11141.33
736.68	11135.46
737.021	11118.51
737.361	11062.01
737.702	11119.19
738.042	11192.86
738.383	11098.85
738.723	11107.89
739.063	11100.2
739.404	11211.61
739.744	11149.69
740.084	11177.04
740.424	11242.35
740.764	11120.31
741.104	11287.32
741.444	11244.61
741.784	11228.11
742.124	11297.26
742.464	11281.67
742.804	11319.41
743.143	11339.07
743.483	11304.94
743.823	11379.52
744.162	11398.95
744.502	11439.18
744.841	11453.87
745.181	11521.89
745.52	11485.96
745.86	11611.6
746.199	11648.44
746.538	11688.66
746.877	11763.01
747.216	11866.51
747.556	11856.34
747.895	11933.63
748.234	11909.22
748.573	11977.02
748.911	12112.61
749.25	12199.61
749.589	12198.03
749.928	12284.8
750.267	12462.43
750.605	12458.58
750.944	12603.21
751.283	12526.15
751.621	12742.87
751.96	12868.29
752.298	12916.43
752.636	13168.85
752.975	13113.93
753.313	13205.46
753.651	13471.21
753.989	13444.32
754.327	13650.19
754.666	13662.17
755.004	13901.94
755.342	14124.98
755.679	14166.56
756.017	14345.31
756.355	14522.03
756.693	14765.42
757.031	14822.59
757.368	14895.36
757.706	15138.74
758.044	15305.06
758.381	15544.61
758.719	15632.96
759.056	15932.62
759.394	16074.31
759.731	16053.97
760.068	16288.54
760.405	16454.86
760.743	16614.86
761.08	16877.68
761.417	16953.16
761.754	17216.65
762.091	17324.45
762.428	17568.96
762.765	17696.87
763.102	17938.89
763.438	17995.39
763.775	18174.14
764.112	18428.82
764.449	18656.16
764.785	18685.09
765.122	18794.01
765.458	18947.91
765.795	19168.46
766.131	19356.48
766.467	19445.52
766.804	19577.72
767.14	19657.04
767.476	19831.5
767.812	20002.57
768.148	20123.24
768.485	20273.07
768.821	20370.69
769.157	20446.17
769.492	20646.84
769.828	20741.3
770.164	20650.91
770.5	20863.79
770.836	20965.48
771.171	21020.85
771.507	21030.34
771.842	21075.53
772.178	21262.87
772.513	21346.71
772.849	21474.84
773.184	21473.04
773.519	21551.23
773.855	21616.54
774.19	21542.64
774.525	21651.79
774.86	21863.76
775.195	21810.43
775.53	21883.42
775.865	21946.02
776.2	21934.04
776.535	21789.41
776.87	21895.4
777.205	21953.25
777.539	21976.75
777.874	22064.89
778.209	21953.25
778.543	22087.26
778.878	22002.29
779.212	22025.79
779.547	22021.27
779.881	22171.1
780.215	21990.99
780.55	22190.53
780.884	22042.06
781.218	22101.72
781.552	22174.71
781.886	22051.1
782.22	22046.81
782.554	21983.31
782.888	21919.58
783.222	21883.2
783.556	21835.51
783.889	21863.31
784.223	21753.48
784.557	21783.54
784.89	21814.72
785.224	21758.45
785.557	21623.77
785.891	21689.08
786.224	21681.39
786.558	21754.61
786.891	21616.08
787.224	21536.76
787.557	21549.19
787.891	21499.25
788.224	21508.74
788.557	21520.72
788.89	21435.75
789.223	21435.75
789.556	21399.37
789.888	21323.89
790.221	21217
790.554	21065.14
790.887	21228.75
791.219	21076.66
791.552	20986.04
791.884	21015.87
792.217	20984.46
792.549	20954.41
792.882	20777.91
793.214	20864.01
793.546	20829.89
793.879	20740.4
794.211	20607.52
794.543	20775.43
794.875	20631.48
795.207	20687.97
795.539	20697.24
795.871	20638.93
796.203	20435.78
796.535	20344.03
796.867	20300.64
797.198	20325.5
797.53	20271.03
797.862	20140.19
798.193	20101.77
798.525	20108.55
798.856	20094.77
799.188	19919.86
799.519	19898.62
799.85	19783.82
800.182	19802.57
800.513	19839.63
800.844	19630.83
801.175	19783.82
801.506	19802.12
801.837	19459.08
802.168	19469.25
802.499	19477.38
802.83	19478.74
803.161	19396.71
803.491	19413.2
803.822	19378.63
804.153	19329.82
804.483	19184.96
804.814	19041.46
805.145	19092.76
805.475	19034.01
805.805	18972.31
806.136	19105.64
806.466	18985.87
806.796	18973.22
807.126	18799.44
807.457	18780.23
807.787	18794.69
808.117	18793.79
808.447	18725.09
808.777	18693.22
809.107	18560.35
809.436	18507.47
809.766	18505.43
810.096	18423.63
810.426	18364.42
810.755	18475.38
811.085	18471.99
811.414	18424.76
811.744	18184.76
812.073	18201.48
812.403	18150.64
812.732	18100.7
813.061	18103.41
813.39	18025.9
813.719	17949.97
814.049	18049.62
814.378	17985.67
814.707	17917.65
815.036	17970.53
815.365	17900.7
815.693	17665.45
816.022	17712.23
816.351	17555.4
816.68	17566.7
817.008	17690.54
817.337	17459.13
817.665	17419.36
817.994	17457.32
818.322	17473.37
818.651	17390.88
818.979	17199.48
819.307	17405.8
819.636	17347.5
819.964	17243.32
820.292	17346.82
820.62	17189.99
820.948	17266.59
821.276	17245.13
821.604	17195.86
821.932	17225.92
822.259	17346.82
822.587	17170.1
822.915	17130.78
823.243	17257.55
823.57	17193.6
823.898	17216.43
824.225	17198.57
824.553	17141.17
824.88	17250.1
825.207	17222.98
825.535	17135.98
825.862	17212.58
826.189	17227.72
826.516	17243.09
826.843	17258.68
827.17	17272.24
827.497	17298.23
827.824	17233.6
828.151	17319.47
828.478	17223.88
828.805	17255.07
829.131	17142.98
829.458	17141.63
829.785	17127.16
830.111	17163.55
830.438	17253.04
830.764	17135.3
831.09	17262.98
831.417	17149.08
831.743	17221.17
832.069	17234.05
832.395	17102.76
832.722	17198.35
833.048	17075.64
833.374	17130.55
833.7	16969.43
834.026	17051.68
834.351	17164
834.677	17109.08
835.003	17046.94
835.329	17032.02
835.654	16984.57
835.98	16971.01
836.306	17021.63
836.631	16908.86
836.956	17014.17
837.282	16991.8
837.607	16852.14
837.932	16819.37
838.258	16878.13
838.583	16908.41
838.908	16764.69
839.233	16737.12
839.558	16677.23
839.883	16569.21
840.208	16587.74
840.533	16627.97
840.858	16510
841.182	16628.64
841.507	16563.11
841.832	16528.76
842.156	16449.89
842.481	16486.73
842.805	16354.53
843.13	16400.85
843.454	16301.42
843.778	16294.42
844.103	16227.53
844.427	16180.75
844.751	16155.66
845.075	16156.34
845.399	16067.53
845.723	15965.39
846.047	16013.07
846.371	15924.93
846.695	15879.06
847.019	15732.62
847.343	15714.09
847.666	15632.06
847.99	15597.26
848.313	15522.46
848.637	15437.49
848.96	15490.37
849.284	15352.52
849.607	15313.43
849.931	15251.73
850.254	15162.69
850.577	15023.26
850.9	15018.74
851.223	14990.95
851.546	14935.13
851.869	14791.86
852.192	14843.61
852.515	14745.53
852.838	14705.98
853.161	14714.12
853.483	14576.04
853.806	14561.35
854.129	14453.11
854.451	14388.03
854.774	14376.73
855.096	14335.6
855.419	14333.11
855.741	14216.28
856.063	14185.09
856.385	14150.07
856.708	14082.95
857.03	14061.03
857.352	13990.97
857.674	13962.05
857.996	13923.86
858.318	13836.4
858.64	13917.3
858.961	13759.57
859.283	13781.26
859.605	13726.8
859.926	13678.21
860.248	13689.29
860.57	13632.57
860.891	13628.05
861.212	13500.37
861.534	13554.38
861.855	13475.06
862.176	13481.61
862.498	13503.08
862.819	13539.46
863.14	13384.44
863.461	13324.32
863.782	13330.2
864.103	13312.35
864.424	13353.25
864.745	13298.34
865.065	13167.72
865.386	13228.06
865.707	13182.86
866.027	13195.74
866.348	13170.66
866.668	13091.79
866.989	13070.77
867.309	13150.09
867.63	13094.05
867.95	13109.19
868.27	12982.64
868.59	13025.58
868.91	12897.9
869.23	12926.82
869.55	12882.98
869.87	12936.31
870.19	12960.49
870.51	12941.74
870.83	12934.73
871.15	12787.62
871.469	12834.85
871.789	12846.82
872.109	12816.77
872.428	12655.87
872.748	12796.66
873.067	12635.53
873.386	12773.38
873.706	12638.47
874.025	12619.48
874.344	12579.71
874.663	12580.84
874.982	12592.59
875.301	12508.75
875.62	12591.46
875.939	12478.92
876.258	12574.29
876.577	12492.48
876.896	12550.56
877.214	12365.03
877.533	12377.01
877.852	12431.92
878.17	12383.11
878.489	12357.8
878.807	12351.47
879.125	12398.02
879.444	12414.97
879.762	12292.49
880.08	12323.22
880.398	12135.66
880.716	12257.23
881.034	12175.2
881.352	12147.63
881.67	12130.46
881.988	12140.85
882.306	12024.47
882.624	12058.14
882.941	11977.24
883.259	11971.14
883.577	11955.77
883.894	11935.66
884.212	11888.88
884.529	11955.55
884.846	11824.93
885.164	11876.23
885.481	11808.21
885.798	11822.9
886.115	11701.77
886.432	11747.19
886.75	11673.52
887.067	11697.93
887.383	11620.87
887.7	11628.1
888.017	11559.17
888.334	11603.01
888.651	11484.6
888.967	11472.17
889.284	11474.2
889.6	11453.64
889.917	11350.59
890.233	11307.2
890.55	11347.65
890.866	11257.94
891.182	11283.25
891.498	11178.62
891.815	11121.9
892.131	11090.26
892.447	11186.53
892.763	11016.36
893.079	11036.93
893.395	11042.8
893.71	10911.96
894.026	10933.65
894.342	10893.43
894.657	10818.4
894.973	10784.28
895.289	10856.37
895.604	10751.96
895.92	10619.09
896.235	10654.11
896.55	10671.97
896.865	10584.96
897.181	10591.97
897.496	10593.32
897.811	10435.36
898.126	10462.48
898.441	10497.73
898.756	10351.3
899.071	10327.34
899.386	10338.41
899.7	10205.99
900.015	10230.17
900.33	10189.04
900.644	10120.79
900.959	10191.53
901.273	10169.83
901.588	10040.34
901.902	10054.58
902.216	9995.15
902.531	9977.52
902.845	9937.07
903.159	9860.69
903.473	9810.29
903.787	9795.6
904.101	9740.01
904.415	9708.15
904.729	9687.81
905.042	9636.06
905.356	9582.73
905.67	9562.16
905.984	9555.84
906.297	9525.33
906.611	9486.01
906.924	9474.48
907.237	9399.23
907.551	9404.2
907.864	9370.76
908.177	9335.5
908.491	9239.01
908.804	9207.37
909.117	9177.32
909.43	9107.03
909.743	9078.11
910.056	9076.53
910.368	8972.35
910.681	9006.7
910.994	8911.33
911.307	8878.34
911.619	8857.32
911.932	8804.22
912.244	8823.88
912.557	8797.44
912.869	8650.78
913.181	8683.99
913.494	8683.32
913.806	8636.09
914.118	8568.29
914.43	8583.66
914.742	8521.06
915.054	8468.41
915.366	8468.18
915.678	8376.88
915.99	8342.31
916.302	8236.1
916.613	8215.31
916.925	8237
917.236	8239.71
917.548	8214.85
917.859	8207.85
918.171	8130.34
918.482	8081.75
918.794	8043.56
919.105	8101.19
919.416	7978.7
919.727	7985.93
920.038	7980.06
920.349	7875.2
920.66	7889.67
920.971	7839.27
921.282	7825.94
921.593	7811.02
921.903	7729.44
922.214	7693.06
922.525	7705.49
922.835	7717.24
923.146	7613.97
923.456	7510.92
923.767	7561.76
924.077	7519.73
924.387	7528.77
924.697	7387.98
925.008	7364.71
925.318	7380.75
925.628	7369
925.938	7350.92
926.248	7275.22
926.558	7310.25
926.867	7258.5
927.177	7239.51
927.487	7178.95
927.796	7134.88
928.106	7129.69
928.416	7078.16
928.725	7067.31
929.034	7002.23
929.344	7002.46
929.653	7004.49
929.962	6933.53
930.271	6940.09
930.581	6893.76
930.89	6846.98
931.199	6822.12
931.508	6803.59
931.817	6778.96
932.125	6743.93
932.434	6680.43
932.743	6667.55
933.051	6569.47
933.36	6649.7
933.669	6597.5
933.977	6529.48
934.286	6531.06
934.594	6539.19
934.902	6472.53
935.21	6434.56
935.519	6409.03
935.827	6435.92
936.135	6382.36
936.443	6302.59
936.751	6287.67
937.059	6252.87
937.367	6259.2
937.674	6219.2
937.982	6256.04
938.29	6265.3
938.597	6168.58
938.905	6172.42
939.213	6102.59
939.52	6072.31
939.827	6040.45
940.135	6040.45
940.442	6011.07
940.749	5973.78
941.056	5942.15
941.363	5903.05
941.67	5903.05
941.977	5851.3
942.284	5784.18
942.591	5807.23
942.898	5757.74
943.205	5769.95
943.511	5753
943.818	5729.72
944.125	5676.62
944.431	5593.68
944.738	5631.87
945.044	5635.26
945.35	5568.6
945.657	5538.77
945.963	5549.61
946.269	5530.63
946.575	5516.17
946.881	5425.55
947.187	5449.96
947.493	5413.8
947.799	5402.05
948.105	5410.41
948.41	5322.5
948.716	5337.19
949.022	5291.09
949.327	5317.76
949.633	5251.77
949.938	5204.09
950.244	5196.18
950.549	5195.27
950.854	5147.59
951.16	5190.98
951.465	5090.19
951.77	5151.66
952.075	5083.41
952.38	5088.61
952.685	5013.36
952.99	5044.32
953.294	5003.64
953.599	4971.32
953.904	4940.14
954.209	4964.09
954.513	4946.69
954.818	4890.42
955.122	4880.71
955.426	4836.19
955.731	4849.52
956.035	4833.47
956.339	4787.6
956.643	4758.45
956.948	4743.76
957.252	4727.94
957.556	4719.35
957.86	4716.42
958.163	4609.3
958.467	4684.55
958.771	4663.31
959.075	4560.94
959.378	4569.3
959.682	4599.36
959.985	4562.07
960.289	4513.26
960.592	4448.85
960.896	4456.08
961.199	4457.89
961.502	4444.56
961.805	4441.17
962.108	4438.46
962.411	4371.11
962.714	4343.54
963.017	4349.42
963.32	4358.91
963.623	4289.31
963.926	4353.26
964.228	4301.51
964.531	4209.31
964.833	4241.4
965.136	4181.97
965.438	4169.09
965.741	4157.11
966.043	4145.36
966.345	4156.43
966.648	4103.55
966.95	4116.43
967.252	4029.65
967.554	4062.87
967.856	4067.85
968.158	4049.77
968.46	4012.48
968.761	3997.11
969.063	4029.43
969.365	3965.02
969.666	3994.4
969.968	3934.29
970.269	3890.9
970.571	3890.22
970.872	3877.34
971.174	3880.96
971.475	3829.21
971.776	3782.65
972.077	3822.65
972.378	3811.58
972.679	3781.52
972.98	3773.39
973.281	3735.2
973.582	3765.25
973.883	3689.55
974.183	3661.75
974.484	3713.05
974.785	3644.81
975.085	3649.32
975.386	3635.31
975.686	3617.46
975.986	3552.83
976.287	3575.88
976.587	3548.54
976.887	3547.86
977.187	3530.91
977.487	3505.37
977.787	3493.62
978.087	3521.19
978.387	3477.58
978.687	3469.22
978.987	3432.61
979.286	3426.96
979.586	3425.83
979.885	3429.9
980.185	3373.4
980.484	3362.33
980.784	3353.29
981.083	3334.76
981.382	3259.05
981.682	3317.58
981.981	3242.78
982.28	3266.06
982.579	3244.36
982.878	3223.57
983.177	3225.83
983.475	3242.78
983.774	3188.77
984.073	3185.16
984.372	3199.39
984.67	3178.83
984.969	3140.86
985.267	3135.21
985.566	3113.07
985.864	3094.54
986.162	3069.23
986.461	3079.17
986.759	3046.4
987.057	3032.39
987.355	3013.41
987.653	2988.55
987.951	2986.29
988.249	2969.34
988.547	2947.87
988.844	2925.28
989.142	2948.55
989.44	2954.2
989.737	2914.66
990.035	2913.07
990.332	2890.25
990.63	2878.95
990.927	2852.74
991.224	2864.94
991.521	2810.25
991.819	2822.91
992.116	2850.25
992.413	2833.53
992.71	2812.96
993.006	2798.05
993.303	2805.05
993.6	2743.59
993.897	2725.51
994.193	2749.24
994.49	2697.26
994.787	2664.94
995.083	2624.95
995.379	2667.88
995.676	2662.91
995.972	2639.41
996.268	2594.89
996.565	2612.97
996.861	2592.63
997.157	2589.69
997.453	2602.57
997.749	2557.15
998.044	2515.12
998.34	2529.13
998.636	2516.25
998.932	2502.24
999.227	2497.49
999.523	2486.87
999.818	2471.28
1000.114	2450.71
1000.409	2452.52
1000.704	2411.84
1001	2412.3
1001.295	2430.15
1001.59	2434.22
1001.885	2381.34
1002.18	2327.33
1002.475	2359.19
1002.77	2315.57
1003.065	2312.41
1003.359	2294.33
1003.654	2320.55
1003.949	2269.25
1004.243	2246.42
1004.538	2236.71
1004.832	2237.38
1005.127	2240.55
1005.421	2226.54
1005.715	2192.87
1006.009	2217.72
1006.304	2165.07
1006.598	2150.16
1006.892	2132.75
1007.186	2143.83
1007.48	2169.36
1007.773	2096.82
1008.067	2086.88
1008.361	2077.39
1008.655	2074.68
1008.948	2064.51
1009.242	2068.35
1009.535	2076.71
1009.829	2045.3
1010.122	2004.85
1010.415	2031.74
1010.708	1987.67
1011.001	1963.95
1011.295	1958.07
1011.588	1959.65
1011.881	1948.13
1012.173	1923.27
1012.466	1918.75
1012.759	1896.38
1013.052	1890.73
1013.344	1902.25
1013.637	1884.63
1013.93	1845.08
1014.222	1879.88
1014.514	1851.63
1014.807	1830.62
1015.099	1819.54
1015.391	1816.6
1015.683	1795.59
1015.976	1767.34
1016.268	1784.06
1016.56	1789.49
1016.851	1749.26
1017.143	1745.19
1017.435	1775.02
1017.727	1756.72
1018.018	1718.75
1018.31	1720.11
1018.602	1697.51
1018.893	1669.72
1019.185	1661.58
1019.476	1659.55
1019.767	1636.27
1020.058	1643.28
1020.35	1626.1
1020.641	1617.74
1020.932	1606.67
1021.223	1588.59
1021.514	1584.29
1021.804	1572.54
1022.095	1567.57
1022.386	1550.4
1022.677	1549.72
1022.967	1530.51
1023.258	1511.75
1023.548	1508.14
1023.839	1518.53
1024.129	1498.87
1024.419	1483.51
1024.709	1484.86
1025	1441.7
1025.29	1432.89
1025.58	1429.72
1025.87	1438.99
1026.16	1396.5
1026.449	1420.23
1026.739	1424.52
1027.029	1374.81
1027.319	1364.41
1027.608	1367.58
1027.898	1373.45
1028.187	1357.41
1028.477	1369.16
1028.766	1343.62
1029.055	1333.91
1029.344	1340.46
1029.634	1303.17
1029.923	1299.78
1030.212	1260.69
1030.501	1300.91
1030.79	1261.14
1031.078	1259.78
1031.367	1285.09
1031.656	1241.03
1031.945	1240.12
1032.233	1226.11
1032.522	1224.08
1032.81	1208.49
1033.099	1200.35
1033.387	1202.16
1033.675	1210.52
1033.963	1166.9
1034.251	1164.64
1034.54	1173.01
1034.828	1152.22
1035.116	1139.33
1035.403	1141.59
1035.691	1145.44
1035.979	1097.98
1036.267	1135.94
1036.554	1111.99
1036.842	1093.69
1037.129	1103.86
1037.417	1069.28
1037.704	1076.96
1037.992	1060.92
1038.279	1079.9
1038.566	1064.53
1038.853	1064.53
1039.14	1064.53
