Data from hue_20_FLMS001491_6.txt Node
Date: Mon Feb 06 15:33:33 GMT 2017
User: dcchb
Spectrometer: FLMS00149
Trigger mode: 0
Integration Time (sec): 2.000000E-2
Scans to average: 10
Electric dark correction enabled: true
Nonlinearity correction enabled: false
Boxcar width: 0
XAxis mode: Wavelengths
Number of Pixels in Spectrum: 2048
>>>>>Begin Spectral Data<<<<<
341.393	-16.51
341.776	-16.51
342.16	-16.51
342.543	-47.7
342.927	-54.93
343.31	-59.22
343.693	-65.78
344.077	-44.76
344.46	-59.45
344.843	-49.5
345.226	-31.88
345.61	-22.61
345.993	-15.15
346.376	-17.19
346.759	-4.99
347.142	6.99
347.525	41.34
347.908	61.45
348.291	63.26
348.674	93.09
349.057	104.39
349.44	113.43
349.823	151.17
350.206	173.31
350.588	195.46
350.971	198.17
351.354	226.19
351.737	212.64
352.119	262.35
352.502	249.92
352.884	273.43
353.267	279.07
353.65	301.45
354.032	300.54
354.414	290.83
354.797	310.03
355.179	331.95
355.562	327.89
355.944	311.39
356.326	344.16
356.709	330.82
357.091	348.45
357.473	352.29
357.855	329.24
358.238	354.78
358.62	324.95
359.002	363.37
359.384	340.99
359.766	340.09
360.148	337.83
360.53	329.24
360.912	338.06
361.294	342.58
361.676	346.87
362.057	352.74
362.439	330.15
362.821	343.71
363.203	323.82
363.584	330.37
363.966	311.62
364.348	327.43
364.729	316.14
365.111	313.2
365.493	294.89
365.874	328.79
366.256	303.25
366.637	314.33
367.019	311.39
367.4	311.84
367.781	304.16
368.163	327.21
368.544	298.28
368.925	315.23
369.306	314.1
369.688	312.75
370.069	306.64
370.45	328.56
370.831	308.68
371.212	326.53
371.593	320.66
371.974	333.08
372.355	317.94
372.736	303.03
373.117	310.03
373.498	304.16
373.879	317.49
374.26	308.9
374.641	306.19
375.021	312.07
375.402	328.56
375.783	321.11
376.163	317.72
376.544	335.12
376.925	322.01
377.305	329.02
377.686	326.98
378.066	301.67
378.447	307.55
378.827	323.37
379.208	326.53
379.588	337.38
379.968	316.81
380.349	318.85
380.729	337.83
381.109	326.08
381.489	344.16
381.87	323.14
382.25	343.25
382.63	334.89
383.01	320.88
383.39	344.61
383.77	337.6
384.15	348.23
384.53	342.58
384.91	330.37
385.29	323.82
385.67	343.25
386.049	343.71
386.429	366.76
386.809	354.33
387.189	350.94
387.568	329.24
387.948	366.76
388.328	354.78
388.707	355.46
389.087	343.25
389.466	351.16
389.846	333.76
390.225	372.86
390.605	349.13
390.984	371.5
391.363	351.84
391.743	340.99
392.122	349.13
392.501	350.26
392.881	348.45
393.26	345.06
393.639	375.34
394.018	377.83
394.397	376.02
394.776	371.28
395.155	381.44
395.534	371.28
395.913	367.66
396.292	378.73
396.671	372.41
397.05	377.6
397.429	375.34
397.808	372.18
398.186	381.67
398.565	366.98
398.944	376.93
399.323	393.65
399.701	390.48
400.08	374.44
400.458	362.91
400.837	383.7
401.215	403.59
401.594	386.19
401.972	385.06
402.351	384.83
402.729	413.08
403.107	378.51
403.486	397.94
403.864	409.92
404.242	382.57
404.62	416.47
404.999	419.41
405.377	419.18
405.755	397.26
406.133	408.11
406.511	419.18
406.889	405.4
407.267	418.05
407.645	420.31
408.023	425.06
408.401	416.25
408.779	435.45
409.156	420.54
409.534	415.34
409.912	432.52
410.29	417.38
410.667	427.09
411.045	418.05
411.422	431.61
411.8	438.17
412.178	453.08
412.555	449.47
412.933	430.03
413.31	452.18
413.687	442.23
414.065	452.4
414.442	434.55
414.819	458.96
415.197	454.44
415.574	460.76
415.951	460.99
416.328	457.83
416.705	448.56
417.082	479.07
417.46	454.89
417.837	487.88
418.214	475.91
418.591	484.72
418.967	475.68
419.344	487.88
419.721	506.19
420.098	501.22
420.475	497.6
420.852	481.33
421.228	494.66
421.605	491.95
421.982	519.07
422.358	486.3
422.735	502.35
423.111	501.89
423.488	527.43
423.864	505.96
424.241	515.68
424.617	544.15
424.994	502.35
425.37	513.64
425.746	542.34
426.123	535.79
426.499	524.04
426.875	544.38
427.251	541.67
427.627	535.57
428.003	527.88
428.379	575.79
428.756	560.42
429.132	557.49
429.507	560.42
429.883	558.62
430.259	585.73
430.635	569.46
431.011	559.75
431.387	576.47
431.763	599.07
432.138	596.81
432.514	603.81
432.89	618.5
433.265	590.03
433.641	606.52
434.016	598.61
434.392	622.12
434.767	613.08
435.143	609.69
435.518	629.8
435.894	659.86
436.269	634.55
436.644	650.82
437.02	646.52
437.395	640.42
437.77	657.82
438.145	649.23
438.52	643.58
438.895	667.76
439.271	671.15
439.646	678.84
440.021	658.5
440.395	668.67
440.77	672.96
441.145	693.98
441.52	676.8
441.895	711.61
442.27	685.84
442.645	696.69
443.019	714.09
443.394	688.33
443.769	707.99
444.143	708.67
444.518	735.56
444.892	735.33
445.267	723.13
445.641	742.34
446.016	751.15
446.39	725.62
446.764	753.19
447.139	728.78
447.513	754.77
447.887	742.79
448.262	754.77
448.636	736.24
449.01	776.24
449.384	760.64
449.758	772.62
450.132	765.62
450.506	791.6
450.88	771.72
451.254	766.97
451.628	801.77
452.002	784.37
452.376	815.56
452.75	796.35
453.123	827.99
453.497	839.06
453.871	828.21
454.244	820.98
454.618	829.79
454.992	845.39
455.365	868.66
455.739	860.98
456.112	846.29
456.486	856.46
456.859	868.44
457.232	900.98
457.606	877.02
457.979	902.56
458.352	911.6
458.725	937.81
459.099	920.87
459.472	941.66
459.845	921.54
460.218	941.2
460.591	953.63
460.964	989.11
461.337	984.37
461.71	998.15
462.083	992.95
462.456	996.57
462.829	975.33
463.201	1027.53
463.574	1035.89
463.947	1062.78
464.32	1065.95
464.692	1076.34
465.065	1091.93
465.438	1060.52
465.81	1080.64
466.183	1116.79
466.555	1106.4
466.928	1136.23
467.3	1143.91
467.672	1138.94
468.045	1173.06
468.417	1173.97
468.789	1186.85
469.161	1206.73
469.534	1223.46
469.906	1237.92
470.278	1226.62
470.65	1251.25
471.022	1287.64
471.394	1292.61
471.766	1335.77
472.138	1324.7
472.51	1347.97
472.882	1377.58
473.253	1420.51
473.625	1418.03
473.997	1452.15
474.369	1426.62
474.74	1444.92
475.112	1497.57
475.484	1498.93
475.855	1546.84
476.227	1566.5
476.598	1596.78
476.97	1634.52
477.341	1657.34
477.713	1685.37
478.084	1691.01
478.455	1713.61
478.827	1721.97
479.198	1766.04
479.569	1790
479.94	1831.12
480.311	1870.9
480.682	1908.18
481.053	1971.46
481.424	1987.5
481.795	2013.72
482.166	2030.44
482.537	2060.04
482.908	2136.88
483.279	2150.89
483.65	2162.87
484.021	2215.52
484.391	2258.46
484.762	2299.13
485.133	2298
485.503	2334.61
485.874	2382.97
486.244	2421.84
486.615	2487.6
486.985	2476.08
487.356	2539.35
487.726	2597.66
488.097	2636.3
488.467	2658.22
488.837	2725.79
489.207	2763.76
489.578	2787.03
489.948	2814.38
490.318	2861.38
490.688	2926.46
491.058	2949.51
491.428	2957.65
491.798	3012.79
492.168	3078.1
492.538	3078.55
492.908	3076.06
493.278	3149.28
493.648	3177.3
494.017	3212.56
494.387	3273.8
494.757	3334.14
495.126	3313.12
495.496	3362.38
495.866	3360.8
496.235	3380.69
496.605	3446.9
496.974	3451.19
497.344	3517.41
497.713	3534.58
498.082	3596.95
498.452	3626.78
498.821	3631.08
499.19	3625.43
499.559	3682.83
499.928	3695.48
500.298	3693.45
500.667	3775.71
501.036	3795.37
501.405	3820
501.774	3790.62
502.143	3862.71
502.512	3836.72
502.88	3877.17
503.249	3918.07
503.618	3947.68
503.987	3994.23
504.356	3998.52
504.724	3982.03
505.093	4012.76
505.462	4063.16
505.83	4101.8
506.199	4098.41
506.567	4133.44
506.936	4169.37
507.304	4167.79
507.672	4180.89
508.041	4215.02
508.409	4190.61
508.777	4300.89
509.145	4333.21
509.514	4290.27
509.882	4369.36
510.25	4308.35
510.618	4361.68
510.986	4374.11
511.354	4413.88
511.722	4450.04
512.09	4533.43
512.458	4441.68
512.826	4491.39
513.193	4485.07
513.561	4538.4
513.929	4559.19
514.297	4548.11
514.664	4629.92
515.032	4632.63
515.4	4652.97
515.767	4687.09
516.135	4682.57
516.502	4637.15
516.869	4723.03
517.237	4779.52
517.604	4767.32
517.972	4761.44
518.339	4783.36
518.706	4815
519.073	4800.31
519.44	4805.74
519.808	4886.19
520.175	4883.93
520.542	4926.41
520.909	4930.48
521.276	4946.97
521.643	5043.24
522.009	5053.19
522.376	5020.42
522.743	5092.28
523.11	5110.36
523.477	5170.7
523.843	5157.36
524.21	5147.42
524.577	5170.7
524.943	5222.9
525.31	5224.71
525.676	5311.71
526.043	5319.39
526.409	5343.57
526.776	5414.08
527.142	5402.1
527.508	5424.02
527.874	5435.32
528.241	5478.49
528.607	5547.64
528.973	5554.87
529.339	5548.77
529.705	5600.29
530.071	5602.1
530.437	5650.91
530.803	5699.72
531.169	5695.66
531.535	5609.33
531.901	5705.37
532.267	5752.38
532.632	5767.74
532.998	5821.98
533.364	5861.75
533.73	5858.59
534.095	5971.35
534.461	5868.53
534.826	5984.46
535.192	5985.59
535.557	6004.57
535.923	6006.83
536.288	6061.97
536.653	6115.53
537.019	6086.61
537.384	6134.97
537.749	6139.49
538.114	6155.3
538.479	6181.74
538.845	6158.24
539.21	6169.99
539.575	6235.53
539.94	6231.69
540.305	6324.34
540.67	6299.03
541.034	6338.12
541.399	6351.23
541.764	6400.95
542.129	6403.43
542.494	6395.98
542.858	6461.74
543.223	6433.26
543.587	6516.2
543.952	6464.9
544.316	6555.97
544.681	6571.56
545.045	6581.96
545.41	6605.91
545.774	6657.21
546.138	6681.62
546.503	6688.17
546.867	6665.12
547.231	6783.54
547.595	6816.76
547.959	6800.26
548.324	6797.1
548.688	6822.41
549.052	6842.74
549.416	6887.94
549.779	6822.86
550.143	6920.03
550.507	6932.46
550.871	6992.34
551.235	6985.34
551.599	7040.03
551.962	7030.54
552.326	7049.74
552.689	7119.8
553.053	7113.7
553.417	7156.41
553.78	7210.64
554.143	7105.34
554.507	7212.68
554.87	7230.08
555.234	7274.82
555.597	7230.98
555.96	7313.47
556.323	7306.69
556.686	7329.96
557.05	7396.63
557.413	7428.72
557.776	7439.11
558.139	7428.27
558.502	7477.76
558.865	7452.22
559.228	7535.15
559.59	7546.68
559.953	7576.28
560.316	7653.57
560.679	7609.73
561.041	7678.65
561.404	7641.59
561.767	7737.86
562.129	7720.91
562.492	7797.75
562.854	7760.46
563.217	7800.23
563.579	7765.21
563.941	7903.51
564.304	7905.77
564.666	7963.84
565.028	7951.64
565.39	7968.82
565.753	8001.58
566.115	8103.5
566.477	8085.65
566.839	8098.98
567.201	8208.58
567.563	8148.47
567.925	8263.72
568.287	8272.54
568.648	8279.09
569.01	8337.39
569.372	8337.85
569.734	8387.11
570.095	8383.49
570.457	8464.4
570.819	8424.4
571.18	8480.21
571.542	8555.92
571.903	8544.85
572.265	8646.09
572.626	8683.15
572.987	8670.49
573.349	8722.02
573.71	8766.31
574.071	8842.47
574.432	8821
574.794	8987.32
575.155	8980.54
575.516	8936.93
575.877	9083.59
576.238	9060.09
576.599	9227.54
576.96	9275.45
577.32	9244.04
577.681	9437.25
578.042	9455.78
578.403	9542.56
578.763	9575.78
579.124	9616.23
579.485	9832.95
579.845	9819.84
580.206	9867.97
580.566	9976.67
580.927	10074.52
581.287	10214.18
581.648	10341.63
582.008	10425.02
582.368	10572.14
582.728	10745.24
583.089	10798.8
583.449	11010.32
583.809	11105
584.169	11200.37
584.529	11352.68
584.889	11657.08
585.249	11732.33
585.609	11873.8
585.969	12110.63
586.329	12301.58
586.688	12533.89
587.048	12676.49
587.408	12833.55
587.768	13031.28
588.127	13266.3
588.487	13457.94
588.846	13755.56
589.206	13877.81
589.565	14107.64
589.925	14398.25
590.284	14601.41
590.643	14817.9
591.003	15070.55
591.362	15420.6
591.721	15647.26
592.08	15902.84
592.44	16111.2
592.799	16470.51
593.158	16719.77
593.517	17034.34
593.876	17218.06
594.235	17500.09
594.593	17778.95
594.952	18098.72
595.311	18270.47
595.67	18650.79
596.029	18995.87
596.387	19365.8
596.746	19644.22
597.104	19765.12
597.463	20063.64
597.822	20414.59
598.18	20597.64
598.538	20956.27
598.897	21272.19
599.255	21391.51
599.613	21982.91
599.972	22259.74
600.33	22462.9
600.688	22727.07
601.046	23085.93
601.404	23362.54
601.762	23685.01
602.12	24008.85
602.478	24229.41
602.836	24579.68
603.194	24710.75
603.552	25071.19
603.91	25190.96
604.268	25585.75
604.625	25711.63
604.983	26061
605.341	26165.4
605.698	26672.73
606.056	26897.13
606.413	27036.79
606.771	27359.72
607.128	27620.95
607.485	27797.67
607.843	28015.75
608.2	28437.2
608.557	28631.55
608.914	28773.24
609.272	29037.41
609.629	29347.46
609.986	29574.12
610.343	29664.06
610.7	30124.39
611.057	30202.81
611.414	30426.76
611.771	30563.25
612.127	31081.43
612.484	31071.49
612.841	31580.85
613.198	31478.03
613.554	31697.68
613.911	31988.52
614.267	32072.59
614.624	32336.99
614.98	32470.09
615.337	32740.82
615.693	32755.28
616.05	32894.26
616.406	33351.65
616.762	33267.59
617.118	33409.5
617.475	33589.39
617.831	33794.13
618.187	33873.9
618.543	34085.64
618.899	34354.11
619.255	34493.99
619.611	34445.41
619.967	34787.09
620.323	34840.65
620.678	34959.97
621.034	34876.36
621.39	35091.94
621.746	35209.23
622.101	35633.85
622.457	35391.6
622.812	35473.86
623.168	35626.17
623.523	35801.98
623.879	36041.07
624.234	35910.91
624.589	36171.24
624.945	36075.65
625.3	36279.03
625.655	36290.78
626.01	36391.35
626.365	36556.09
626.72	36483.32
627.075	36580.04
627.43	36635.18
627.785	36679.93
628.14	36923.99
628.495	36934.16
628.85	36946.36
629.205	36912.69
629.559	37175.51
629.914	36994.95
630.269	37162.17
630.623	37014.15
630.978	37088.95
631.332	37250.31
631.687	37314.03
632.041	37166.24
632.396	37256.63
632.75	37170.99
633.104	37382.51
633.459	37198.56
633.813	37244.66
634.167	37190.65
634.521	37344.77
634.875	37444.43
635.229	37308.61
635.583	37293.69
635.937	37323.52
636.291	37260.48
636.645	37321.04
636.999	37441.04
637.352	37468.15
637.706	37222.06
638.06	37299.57
638.413	37267.03
638.767	37282.4
639.121	37290.98
639.474	37215.73
639.828	37159.46
640.181	37312.23
640.534	37236.52
640.888	37213.02
641.241	37114.04
641.594	37211.44
641.947	37377.08
642.301	37128.95
642.654	37307.71
643.007	37307.71
643.36	37194.71
643.713	37200.36
644.066	37242.4
644.419	37102.29
644.771	36892.8
645.124	36587.5
645.477	36439.93
645.83	36370.78
646.182	36260.05
646.535	36260.28
646.888	36289.43
647.24	36003.56
647.593	36260.05
647.945	36187.28
648.298	36074.29
648.65	35868.87
649.002	35997.23
649.355	36084.01
649.707	35971.24
650.059	36142.99
650.411	36613.94
650.763	36634.95
651.115	36963.99
651.467	36875.4
651.819	36842.41
652.171	36745.23
652.523	36707.72
652.875	36781.17
653.227	36529.19
653.578	36894.61
653.93	36912.01
654.282	36573.49
654.633	36606.71
654.985	36702.75
655.337	36705.01
655.688	36672.24
656.039	36753.82
656.391	36427.5
656.742	36528.74
657.094	36558.12
657.445	36784.1
657.796	36592.02
658.147	36526.94
658.498	36568.06
658.849	36613.26
659.2	36560.83
659.551	36382.53
659.902	36525.35
660.253	36371.68
660.604	36501.17
660.955	36317.45
661.306	36611.9
661.656	36478.57
662.007	36414.17
662.358	36458.01
662.708	36453.94
663.059	36427.73
663.409	36180.05
663.76	36500.95
664.11	36462.53
664.461	36427.95
664.811	36369.43
665.161	36390.22
665.511	36435.86
665.862	36397.9
666.212	36466.15
666.562	36404.23
666.912	36308.86
667.262	36316.77
667.612	36309.54
667.962	36445.58
668.312	36265.7
668.662	36456.2
669.011	36448.29
669.361	36391.12
669.711	36309.31
670.06	36303.21
670.41	36156.32
670.76	36251.46
671.109	36216.21
671.459	36250.56
671.808	36311.57
672.157	36234.06
672.507	36130.34
672.856	36042.65
673.205	36093.05
673.554	36204.91
673.904	36076.55
674.253	36243.33
674.602	36099.15
674.951	35676.79
675.3	35544.36
675.649	36092.6
675.998	36077
676.346	35974.63
676.695	36119.94
677.044	35835.43
677.393	35969.89
677.741	35990.68
678.09	35932.6
678.438	35748.42
678.787	35900.51
679.135	35889.66
679.484	35636.34
679.832	35811.02
680.181	35525.15
680.529	35812.6
680.877	35636.34
681.225	35607.41
681.573	35858.25
681.922	35492.39
682.27	35336.23
682.618	35356.8
682.966	35313.41
683.314	35509.11
683.661	35321.99
684.009	35189.8
684.357	35051.27
684.705	34972.63
685.053	35052.62
685.4	35019.4
685.748	34893.31
686.095	34901.89
686.443	34593.43
686.79	34649.7
687.138	34806.98
687.485	34750.94
687.832	34536.93
688.18	34595.46
688.527	34458.29
688.874	34482.47
689.221	34364.96
689.568	34217.84
689.915	34111.41
690.262	34178.07
690.609	34113.21
690.956	33899.21
691.303	33992.09
691.65	33775.82
691.997	33822.15
692.344	33544.19
692.69	33591.42
693.037	33596.84
693.383	33332.44
693.73	33529.5
694.077	33317.08
694.423	33207.02
694.769	33226.46
695.116	33120.47
695.462	32965.9
695.808	32943.98
696.155	33009.74
696.501	32690.2
696.847	32764.1
697.193	32523.65
697.539	32576.98
697.885	32372.92
698.231	32359.81
698.577	32381.51
698.923	32192.59
699.269	32236.43
699.614	31936.32
699.96	31967.73
700.306	31882.31
700.651	31818.36
700.997	31693.62
701.342	31623.34
701.688	31642.32
702.033	31545.82
702.379	31468.99
702.724	31399.61
703.069	31470.34
703.415	31000.53
703.76	31152.84
704.105	31132.95
704.45	31084.59
704.795	30918.95
705.14	30861.55
705.485	30668.56
705.83	30528.9
706.175	30647.32
706.52	30574.32
706.865	30466.76
707.209	30411.16
707.554	30277.61
707.899	30409.13
708.243	30254.78
708.588	30181.34
708.932	29921.68
709.277	29977.95
709.621	30007.56
709.966	29802.59
710.31	29866.55
710.654	29559.66
710.998	29714.01
711.342	29642.82
711.687	29616.38
712.031	29536.16
712.375	29445.09
712.719	29512.43
713.063	29344.3
713.407	29453.45
713.75	29296.16
714.094	29231.76
714.438	28994.48
714.782	29120.12
715.125	28874.71
715.469	29095.72
715.812	28922.84
716.156	28593.36
716.499	28790.19
716.843	28759.91
717.186	28550.65
717.53	28738.21
717.873	28702.51
718.216	28557.65
718.559	28489.86
718.902	28295.51
719.246	28274.04
719.589	28265.46
719.932	28191.79
720.275	28163.09
720.617	28201.28
720.96	28109.08
721.303	27951.79
721.646	27964.22
721.989	27896.65
722.331	27978.91
722.674	27840.38
723.016	27897.33
723.359	27806.26
723.701	27813.94
724.044	27614.85
724.386	27379.15
724.729	27711.35
725.071	27560.17
725.413	27490.11
725.755	27573.5
726.097	27439.72
726.439	27239.95
726.782	27330.34
727.124	27346.61
727.465	27252.6
727.807	27205.6
728.149	27048.09
728.491	27014.19
728.833	27101.19
729.175	27019.84
729.516	26901.65
729.858	26911.14
730.199	26845.16
730.541	26817.81
730.882	26881.76
731.224	26906.85
731.565	26781.88
731.906	26748.44
732.248	26646.29
732.589	26643.13
732.93	26574.2
733.271	26478.61
733.612	26553.41
733.953	26549.34
734.294	26502.57
734.635	26449.23
734.976	26490.81
735.317	26364.26
735.658	26261.89
735.999	26348.67
736.339	26338.05
736.68	26297.6
737.021	26206.53
737.361	25950.04
737.702	26233.42
738.042	26037.72
738.383	26046.53
738.723	26068.9
739.063	25934.67
739.404	25983.71
739.744	25952.75
740.084	25873.88
740.424	25926.54
740.764	25724.73
741.104	25875.46
741.444	25652.87
741.784	25625.3
742.124	25737.16
742.464	25645.87
742.804	25585.08
743.143	25529.71
743.483	25595.7
743.823	25404.29
744.162	25400.22
744.502	25475.93
744.841	25388.7
745.181	25403.84
745.52	25153.67
745.86	25358.42
746.199	25203.16
746.538	25256.5
746.877	25208.59
747.216	25216.72
747.556	25061.93
747.895	25129.72
748.234	25015.83
748.573	24957.07
748.911	24913.23
749.25	24903.96
749.589	24786.45
749.928	24800.24
750.267	24963.62
750.605	24833.01
750.944	24734.02
751.283	24618.32
751.621	24715.72
751.96	24557.76
752.298	24513.24
752.636	24630.52
752.975	24389.18
753.313	24400.93
753.651	24449.74
753.989	24357.31
754.327	24400.25
754.666	24107.15
755.004	24245.68
755.342	24216.3
755.679	24142.18
756.017	24014.5
756.355	24143.76
756.693	23920.71
757.031	24011.11
757.368	23890.21
757.706	23948.96
758.044	23724.33
758.381	23806.37
758.719	23653.38
759.056	23769.3
759.394	23634.39
759.731	23415.87
760.068	23486.37
760.405	23302.2
760.743	23325.02
761.08	23371.35
761.417	23187.17
761.754	23225.59
762.091	23127.29
762.428	23068.53
762.765	22866.05
763.102	22957.12
763.438	22861.76
763.775	22837.35
764.112	22806.39
764.449	22734.76
764.785	22657.24
765.122	22463.12
765.458	22350.13
765.795	22457.7
766.131	22396.91
766.467	22199.18
766.804	22191.04
767.14	22160.76
767.476	22104.04
767.812	21849.13
768.148	21979.29
768.485	21758.96
768.821	21806.87
769.157	21782.24
769.492	21734.78
769.828	21559.64
770.164	21423.6
770.5	21429.93
770.836	21255.47
771.171	21252.76
771.507	21105.42
771.842	21089.37
772.178	20996.95
772.513	20925.99
772.849	21018.87
773.184	20889.38
773.519	20831.98
773.855	20819.55
774.19	20652.32
774.525	20521.48
774.86	20622.27
775.195	20563.51
775.53	20429.28
775.865	20330.3
776.2	20200.13
776.535	20022.74
776.87	20033.36
777.205	19956.3
777.539	19932.57
777.874	19881.95
778.209	19732.12
778.543	19723.08
778.878	19569.41
779.212	19531.68
779.547	19451.9
779.881	19506.59
780.215	19302.3
780.55	19424.79
780.884	19273.83
781.218	19154.96
781.552	19175.98
781.886	19059.6
782.22	19018.24
782.554	18984.35
782.888	18693.96
783.222	18699.83
783.556	18607.18
783.889	18509.33
784.223	18418.71
784.557	18404.93
784.89	18492.61
785.224	18309.33
785.557	18250.58
785.891	18175.33
786.224	18114.31
786.558	18078.15
786.891	18006.97
787.224	17942.79
787.557	17923.13
787.891	17854.21
788.224	17762
788.557	17811.72
788.89	17651.05
789.223	17650.37
789.556	17561.56
789.888	17498.96
790.221	17408.57
790.554	17316.14
790.887	17281.79
791.219	17296.71
791.552	17204.73
791.884	17135.81
792.217	17081.8
792.549	16986.88
792.882	16853.78
793.214	16938.07
793.546	16835.25
793.879	16711.41
794.211	16665.76
794.543	16696.95
794.875	16648.81
795.207	16671.41
795.539	16522.72
795.871	16539.66
796.203	16410.4
796.535	16233.91
796.867	16240.01
797.198	16231.88
797.53	16109.17
797.862	16155.27
798.193	16169.05
798.525	15973.8
798.856	15991.88
799.188	15856.97
799.519	15842.73
799.85	15710.53
800.182	15803.19
800.513	15616.07
800.844	15622.63
801.175	15682.96
801.506	15666.01
801.837	15474.61
802.168	15498.34
802.499	15405.23
802.83	15384.89
803.161	15359.58
803.491	15421.95
803.822	15275.74
804.153	15158.23
804.483	15049.31
804.814	15015.41
805.145	15078.46
805.475	14975.19
805.805	15027.84
806.136	14999.37
806.466	14957.33
806.796	14849.99
807.126	14844.79
807.457	14746.04
807.787	14698.81
808.117	14602.54
808.447	14613.16
808.777	14632.82
809.107	14607.96
809.436	14534.74
809.766	14523.67
810.096	14494.07
810.426	14394.86
810.755	14411.13
811.085	14373.39
811.414	14320.06
811.744	14240.52
812.073	14194.19
812.403	14090.01
812.732	14206.84
813.061	14039.39
813.39	14064.47
813.719	14006.4
814.049	14023.12
814.378	13939.73
814.707	13960.3
815.036	13863.12
815.365	13758.49
815.693	13720.53
816.022	13701.09
816.351	13659.51
816.68	13535.9
817.008	13656.12
817.337	13567.31
817.665	13481.67
817.994	13496.35
818.322	13528.9
818.651	13521.44
818.979	13422.91
819.307	13381.78
819.636	13408.22
819.964	13260.65
820.292	13342.01
820.62	13288.68
820.948	13358.73
821.276	13295.23
821.604	13257.72
821.932	13306.53
822.259	13298.39
822.587	13270.37
822.915	13245.29
823.243	13336.13
823.57	13229.24
823.898	13182.01
824.225	13194.22
824.553	13226.08
824.88	13228.34
825.207	13294.55
825.535	13219.3
825.862	13202.58
826.189	13131.84
826.516	13205.51
826.843	13264.27
827.17	13262.24
827.497	13187.66
827.824	13229.92
828.151	13227.43
828.478	13182.46
828.805	13256.13
829.131	13186.08
829.458	13057.95
829.785	13090.94
830.111	13093.43
830.438	13221.33
830.764	13141.56
831.09	13195.8
831.417	13099.53
831.743	13095.01
832.069	13136.82
832.395	13111.73
832.722	13028.57
833.048	13001.45
833.374	13143.82
833.7	13069.47
834.026	13050.94
834.351	13041.9
834.677	12992.19
835.003	13043.03
835.329	12996.93
835.654	12979.08
835.98	12883.94
836.306	13009.81
836.631	12911.28
836.956	12935.24
837.282	12944.5
837.607	12840.33
837.932	12833.32
838.258	12840.78
838.583	12794.68
838.908	12772.76
839.233	12725.08
839.558	12665.19
839.883	12676.49
840.208	12619.32
840.533	12609.6
840.858	12627.9
841.182	12680.78
841.507	12580.9
841.832	12591.97
842.156	12543.38
842.481	12532.09
842.805	12478.08
843.13	12415.25
843.454	12481.01
843.778	12440.56
844.103	12331.87
844.427	12316.95
844.751	12258.87
845.075	12243.28
845.399	12269.04
845.723	12198.76
846.047	12167.12
846.371	12151.76
846.695	12070.18
847.019	12009.84
847.343	11927.13
847.666	11843.52
847.99	11779.56
848.313	11845.78
848.637	11805.78
848.96	11762.39
849.284	11715.61
849.607	11620.25
849.931	11608.95
850.254	11516.97
850.577	11489.18
850.9	11300.71
851.223	11316.3
851.546	11326.47
851.869	11273.14
852.192	11327.37
852.515	11149.75
852.838	11201.27
853.161	11164.44
853.483	11077.21
853.806	11112.91
854.129	11049.41
854.451	11070.2
854.774	10848.51
855.096	10949.75
855.419	10868.17
855.741	10812.36
856.063	10792.24
856.385	10721.74
856.708	10681.29
857.03	10688.07
857.352	10609.88
857.674	10695.98
857.996	10620.05
858.318	10619.14
858.64	10544.57
858.961	10556.77
859.283	10421.41
859.605	10425.7
859.926	10422.99
860.248	10413.72
860.57	10380.73
860.891	10350.9
861.212	10265.93
861.534	10329.21
861.855	10261.18
862.176	10259.15
862.498	10282.43
862.819	10287.85
863.14	10164.24
863.461	10198.81
863.782	10134.18
864.103	10175.09
864.424	10120.4
864.745	10094.64
865.065	10147.97
865.386	10044.47
865.707	10166.27
866.027	10068.65
866.348	10023.23
866.668	10084.01
866.989	10015.77
867.309	9836.79
867.63	10000.63
867.95	9857.81
868.27	9879.73
868.59	9862.1
868.91	9850.12
869.23	9842.66
869.55	9801.31
869.87	9816
870.19	9802.89
870.51	9760.41
870.83	9769.45
871.15	9748.2
871.469	9772.38
871.789	9757.02
872.109	9678.6
872.428	9623.46
872.748	9653.97
873.067	9638.6
873.386	9647.42
873.706	9593.63
874.025	9569.68
874.344	9591.15
874.663	9553.18
874.982	9525.61
875.301	9535.33
875.62	9511.6
875.939	9479.74
876.258	9483.8
876.577	9458.72
876.896	9506.18
877.214	9409.68
877.533	9444.71
877.852	9374.43
878.17	9375.33
878.489	9344.37
878.807	9412.62
879.125	9405.16
879.444	9383.69
879.762	9300.76
880.08	9346.18
880.398	9246.07
880.716	9295.11
881.034	9232.29
881.352	9269.8
881.67	9194.32
881.988	9249.91
882.306	9166.75
882.624	9204.94
882.941	9063.7
883.259	9122.23
883.577	9124.04
883.894	9085.85
884.212	9063.48
884.529	9102.8
884.846	9005.85
885.164	8977.6
885.481	8967.21
885.798	9002.24
886.115	8900.32
886.432	8877.72
886.75	8862.58
887.067	8909.58
887.383	8872.07
887.7	8853.99
888.017	8744.84
888.334	8773.54
888.651	8727.67
888.967	8708.23
889.284	8666.65
889.6	8625.75
889.917	8626.88
890.233	8574.22
890.55	8526.99
890.866	8586.2
891.182	8575.35
891.498	8530.61
891.815	8503.94
892.131	8422.59
892.447	8425.75
892.763	8395.92
893.079	8362.93
893.395	8355.25
893.71	8352.53
894.026	8351.4
894.342	8284.51
894.657	8262.14
894.973	8204.97
895.289	8282.48
895.604	8193.22
895.92	8124.74
896.235	8072.09
896.55	8172.88
896.865	8129.26
897.181	8075.25
897.496	8042.26
897.811	8008.59
898.126	7902.6
898.441	7916.39
898.756	7993.22
899.071	7971.98
899.386	7951.64
899.7	7856.28
900.015	7803.85
900.33	7800.68
900.644	7758.2
900.959	7743.96
901.273	7693.34
901.588	7665.1
901.902	7634.81
902.216	7647.69
902.531	7603.4
902.845	7601.59
903.159	7526.12
903.473	7534.93
903.787	7522.27
904.101	7476.17
904.415	7429.17
904.729	7429.17
905.042	7336.06
905.356	7353.46
905.67	7346.01
905.984	7282.05
906.297	7308.95
906.611	7245.22
906.924	7234.82
907.237	7196.41
907.551	7197.31
907.864	7142.4
908.177	7127.93
908.491	7075.73
908.804	7070.08
909.117	6993.93
909.43	6962.06
909.743	6979.24
910.056	6936.53
910.368	6913.25
910.681	6890.65
910.994	6887.04
911.307	6850.65
911.619	6768.85
911.932	6816.3
912.244	6753.25
912.557	6740.37
912.869	6730.2
913.181	6655.63
913.494	6710.54
913.806	6632.13
914.118	6596.65
914.43	6587.16
914.742	6608.17
915.054	6529.08
915.366	6478.23
915.678	6453.38
915.99	6414.28
916.302	6406.15
916.613	6425.81
916.925	6358.01
917.236	6290.67
917.548	6297.45
917.859	6294.96
918.171	6206.38
918.482	6249.31
918.794	6182.42
919.105	6197.79
919.416	6107.62
919.727	6084.35
920.038	6062.43
920.349	6037.57
920.66	5977.91
920.971	6022.43
921.282	5972.94
921.593	5953.05
921.903	5986.27
922.214	5928.64
922.525	5875.54
922.835	5880.28
923.146	5822.21
923.456	5806.61
923.767	5792.38
924.077	5754.86
924.387	5723.9
924.697	5729.1
925.008	5622.89
925.318	5668.99
925.628	5658.82
925.938	5666.05
926.248	5580.4
926.558	5542.21
926.867	5531.59
927.177	5512.38
927.487	5547.41
927.796	5457.92
928.106	5452.27
928.416	5427.87
928.725	5412.5
929.034	5379.05
929.344	5346.74
929.653	5357.13
929.962	5339.51
930.271	5288.43
930.581	5282.56
930.89	5251.6
931.199	5205.95
931.508	5203.69
931.817	5192.84
932.125	5164.14
932.434	5143.81
932.743	5110.36
933.051	5045.5
933.36	5049.57
933.669	5094.54
933.977	5012.28
934.286	5026.75
934.594	5032.85
934.902	4948.78
935.21	4962.57
935.519	4930.48
935.827	4871.5
936.135	4894.32
936.443	4883.02
936.751	4855.9
937.059	4844.83
937.367	4787.88
937.674	4801.22
937.982	4785.4
938.29	4727.55
938.597	4764.38
938.905	4722.12
939.213	4746.08
939.52	4657.49
939.827	4652.52
940.135	4634.89
940.442	4593.99
940.749	4578.4
941.056	4610.49
941.363	4567.1
941.67	4572.97
941.977	4523.03
942.284	4511.51
942.591	4460.66
942.898	4474.22
943.205	4442.58
943.511	4433.32
943.818	4386.76
944.125	4347.89
944.431	4368.46
944.738	4356.93
945.044	4295.92
945.35	4345.18
945.657	4283.49
945.963	4247.78
946.269	4247.11
946.575	4155.13
946.881	4236.03
947.187	4207.78
947.493	4198.07
947.799	4179.99
948.105	4182.02
948.41	4143.38
948.716	4092.99
949.022	4023.61
949.327	4038.75
949.633	4026.77
949.938	4083.95
950.244	4016.15
950.549	4026.55
950.854	3973.67
951.16	3965.53
951.465	3953.1
951.77	3956.27
952.075	3936.15
952.38	3897.74
952.685	3878.3
952.99	3885.76
953.294	3861.35
953.599	3839.66
953.904	3813.44
954.209	3817.06
954.513	3802.15
954.818	3773.22
955.122	3741.13
955.426	3749.94
955.731	3725.99
956.035	3737.74
956.339	3662.26
956.643	3669.49
956.948	3653.9
957.252	3647.35
957.556	3631.75
957.86	3609.16
958.163	3583.17
958.467	3598.99
958.771	3564.86
959.075	3599.44
959.378	3507.24
959.682	3500.46
959.985	3504.98
960.289	3483.28
960.592	3502.04
960.896	3475.83
961.199	3434.25
961.502	3433.79
961.805	3422.04
962.108	3381.59
962.411	3369.84
962.714	3378.43
963.017	3356.51
963.32	3372.78
963.623	3330.07
963.926	3328.49
964.228	3248.71
964.531	3280.58
964.833	3329.84
965.136	3243.74
965.438	3231.77
965.741	3230.86
966.043	3229.51
966.345	3217.98
966.648	3210.52
966.95	3182.05
967.252	3116.74
967.554	3189.51
967.856	3119.45
968.158	3102.5
968.46	3113.8
968.761	3084.65
969.063	3070.64
969.365	3045.78
969.666	3059.34
969.968	3009.62
970.269	3045.56
970.571	2996.29
970.872	3006.01
971.174	2951.77
971.475	3002.62
971.776	2980.47
972.077	2924.88
972.378	2974.14
972.679	2950.42
972.98	2939.12
973.281	2936.63
973.582	2890.98
973.883	2895.5
974.183	2833.81
974.484	2845.11
974.785	2846.01
975.085	2795.39
975.386	2825.45
975.686	2817.54
975.986	2810.76
976.287	2784.32
976.587	2788.84
976.887	2753.36
977.187	2768.27
977.487	2697.09
977.787	2703.64
978.087	2708.84
978.387	2699.12
978.687	2709.97
978.987	2670.42
979.286	2659.35
979.586	2651.67
979.885	2645.57
980.185	2607.83
980.484	2571.22
980.784	2569.86
981.083	2595.62
981.382	2551.33
981.682	2550.2
981.981	2560.82
982.28	2537.09
982.579	2565.57
982.878	2508.62
983.177	2485.34
983.475	2503.65
983.774	2489.86
984.073	2467.49
984.372	2457.1
984.67	2466.36
984.969	2436.98
985.267	2470.2
985.566	2420.94
985.864	2397.44
986.162	2428.62
986.461	2415.06
986.759	2378.45
987.057	2366.7
987.355	2351.56
987.653	2346.36
987.951	2335.52
988.249	2351.11
988.547	2319.7
988.844	2328.51
989.142	2301.17
989.44	2276.99
989.737	2272.47
990.035	2254.62
990.332	2277.44
990.63	2247.16
990.927	2232.02
991.224	2227.05
991.521	2227.27
991.819	2223.88
992.116	2186.14
992.413	2198.8
992.71	2186.82
993.006	2168.74
993.303	2170.55
993.6	2122.64
993.897	2121.96
994.193	2136.2
994.49	2124
994.787	2114.51
995.083	2065.69
995.379	2104.34
995.676	2084.9
995.972	2083.09
996.268	2038.58
996.565	2046.26
996.861	2053.49
997.157	2044
997.453	2017.33
997.749	2014.4
998.044	1995.19
998.34	2003.32
998.636	1988.18
998.932	1969.88
999.227	1992.02
999.523	1961.52
999.818	1923.55
1000.114	1925.58
1000.409	1881.52
1000.704	1880.39
1001	1891.24
1001.295	1872.93
1001.59	1880.39
1001.885	1920.84
1002.18	1831.8
1002.475	1858.47
1002.77	1812.37
1003.065	1847.62
1003.359	1847.62
1003.654	1822.08
1003.949	1811.24
1004.243	1778.47
1004.538	1772.82
1004.832	1804.01
1005.127	1774.63
1005.421	1757
1005.715	1758.81
1006.009	1721.75
1006.304	1737.34
1006.598	1716.32
1006.892	1699.15
1007.186	1694.4
1007.48	1695.99
1007.773	1678.81
1008.067	1677
1008.361	1683.11
1008.655	1675.65
1008.948	1670.45
1009.242	1645.37
1009.535	1629.55
1009.829	1626.38
1010.122	1609.89
1010.415	1600.4
1010.708	1581.64
1011.001	1589.77
1011.295	1576.22
1011.588	1565.59
1011.881	1526.5
1012.173	1531.47
1012.466	1530.57
1012.759	1552.04
1013.052	1555.43
1013.344	1527.4
1013.637	1527.86
1013.93	1479.49
1014.222	1503.9
1014.514	1474.3
1014.807	1490.57
1015.099	1465.48
1015.391	1452.15
1015.683	1438.59
1015.976	1436.11
1016.268	1420.06
1016.56	1442.21
1016.851	1433.17
1017.143	1412.6
1017.435	1401.08
1017.727	1385.71
1018.018	1394.3
1018.31	1368.31
1018.602	1402.21
1018.893	1387.52
1019.185	1361.31
1019.476	1375.54
1019.767	1336.22
1020.058	1348.65
1020.35	1330.35
1020.641	1344.36
1020.932	1313.85
1021.223	1282.66
1021.514	1284.25
1021.804	1266.62
1022.095	1252.61
1022.386	1275.66
1022.677	1239.05
1022.967	1240.41
1023.258	1242.89
1023.548	1233.85
1023.839	1237.24
1024.129	1238.15
1024.419	1211.71
1024.709	1215.77
1025	1208.54
1025.29	1194.3
1025.58	1165.15
1025.87	1152.27
1026.16	1161.99
1026.449	1158.15
1026.739	1144.59
1027.029	1138.26
1027.319	1117.47
1027.608	1130.8
1027.898	1115.21
1028.187	1099.17
1028.477	1132.16
1028.766	1078.6
1029.055	1079.51
1029.344	1104.36
1029.634	1092.39
1029.923	1067.08
1030.212	1077.25
1030.501	1057.13
1030.79	1032.5
1031.078	1063.91
1031.367	1025.95
1031.656	1034.53
1031.945	1013.97
1032.233	1010.58
1032.522	998.83
1032.81	1021.43
1033.099	993.18
1033.387	983.91
1033.675	1000.41
1033.963	981.65
1034.251	947.53
1034.54	954.99
1034.828	971.94
1035.116	961.54
1035.403	968.55
1035.691	935.55
1035.979	950.02
1036.267	924.26
1036.554	925.39
1036.842	929.9
1037.129	930.13
1037.417	897.59
1037.704	911.83
1037.992	903.01
1038.279	904.37
1038.566	874.31
1038.853	874.31
1039.14	874.31
