Data from hue_120_FLMS001491_00042.txt Node
Date: Tue Feb 07 16:59:26 GMT 2017
User: dcchb
Spectrometer: FLMS00149
Trigger mode: 0
Integration Time (sec): 2.000000E-2
Scans to average: 10
Electric dark correction enabled: true
Nonlinearity correction enabled: false
Boxcar width: 0
XAxis mode: Wavelengths
Number of Pixels in Spectrum: 2048
>>>>>Begin Spectral Data<<<<<
341.393	-3.26
341.776	-3.26
342.16	-3.26
342.543	-55.01
342.927	-47.1
343.31	-80.77
343.693	-73.54
344.077	-82.81
344.46	-63.6
344.843	-56.14
345.226	-45.52
345.61	-28.57
345.993	-1
346.376	6.45
346.759	-1.23
347.142	29.05
347.525	52.78
347.908	46.68
348.291	89.62
348.674	100.24
349.057	108.37
349.44	138.88
349.823	142.04
350.206	165.09
350.588	198.54
350.971	206
351.354	216.39
351.737	238.99
352.119	232.89
352.502	293
352.884	273.57
353.267	277.41
353.65	310.4
354.032	295.94
354.414	310.18
354.797	311.53
355.179	333
355.562	321.25
355.944	324.41
356.326	337.29
356.709	338.65
357.091	325.99
357.473	347.91
357.855	343.17
358.238	345.65
358.62	359.21
359.002	331.87
359.384	336.16
359.766	334.81
360.148	334.36
360.53	332.55
360.912	346.56
361.294	336.62
361.676	329.84
362.057	346.11
362.439	343.85
362.821	339.33
363.203	342.49
363.584	349.5
363.966	343.85
364.348	329.84
364.729	345.65
365.111	324.86
365.493	340.68
365.874	337.97
366.256	321.02
366.637	330.74
367.019	325.09
367.4	310.18
367.781	319.21
368.163	348.14
368.544	335.71
368.925	331.42
369.306	346.78
369.688	329.61
370.069	335.94
370.45	325.99
370.831	315.15
371.212	332.32
371.593	335.49
371.974	320.34
372.355	335.94
372.736	324.19
373.117	337.97
373.498	330.06
373.879	313.34
374.26	306.11
374.641	330.74
375.021	334.13
375.402	334.36
375.783	339.1
376.163	312.66
376.544	335.03
376.925	341.59
377.305	358.54
377.686	338.2
378.066	341.14
378.447	363.06
378.827	352.66
379.208	339.1
379.588	342.27
379.968	365.77
380.349	344.3
380.729	374.81
381.109	331.42
381.489	350.85
381.87	348.59
382.25	355.82
382.63	336.62
383.01	357.41
383.39	367.58
383.77	350.63
384.15	352.43
384.53	361.02
384.91	347.91
385.29	349.72
385.67	351.98
386.049	354.47
386.429	353.56
386.809	358.54
387.189	380.23
387.568	381.81
387.948	367.58
388.328	374.35
388.707	374.58
389.087	372.09
389.466	380.23
389.846	385.88
390.225	391.98
390.605	390.17
390.984	398.53
391.363	386.33
391.743	411.42
392.122	401.92
392.501	379.78
392.881	407.57
393.26	402.83
393.639	394.69
394.018	396.95
394.397	375.94
394.776	398.53
395.155	422.04
395.534	419.1
395.913	402.15
396.292	417.74
396.671	437.63
397.05	415.03
397.429	415.48
397.808	419.55
398.186	427.23
398.565	409.16
398.944	414.58
399.323	433.11
399.701	429.27
400.08	410.51
400.458	449.15
400.837	432.88
401.215	442.38
401.594	441.7
401.972	451.64
402.351	436.95
402.729	457.29
403.107	431.98
403.486	445.09
403.864	462.71
404.242	459.32
404.62	460
404.999	448.93
405.377	467.23
405.755	451.64
406.133	460.68
406.511	443.51
406.889	469.72
407.267	483.28
407.645	486.89
408.023	470.4
408.401	460.68
408.779	500.68
409.156	494.58
409.534	488.93
409.912	493.9
410.29	504.75
410.667	506.33
411.045	517.85
411.422	523.73
411.8	509.04
412.178	501.36
412.555	529.15
412.933	539.32
413.31	522.83
413.687	518.31
414.065	554.91
414.442	536.16
414.819	525.09
415.197	553.78
415.574	562.37
415.951	565.08
416.328	556.72
416.705	565.54
417.082	577.97
417.46	594.69
417.837	572.54
418.214	586.33
418.591	553.56
418.967	579.32
419.344	603.05
419.721	606.21
420.098	584.52
420.475	608.25
420.852	606.66
421.228	611.18
421.605	596.95
421.982	628.36
422.358	605.53
422.735	638.08
423.111	643.73
423.488	623.61
423.864	636.95
424.241	672.43
424.617	654.8
424.994	641.01
425.37	659.32
425.746	664.97
426.123	672.88
426.499	665.65
426.875	666.32
427.251	697.96
427.627	690.73
428.003	694.12
428.379	709.94
428.756	718.53
429.132	703.84
429.507	720.56
429.883	735.02
430.259	750.84
430.635	732.54
431.011	739.09
431.387	758.98
431.763	782.93
432.138	768.24
432.514	783.61
432.89	763.5
433.265	799.65
433.641	791.52
434.016	789.48
434.392	819.31
434.767	826.77
435.143	831.29
435.518	822.03
435.894	852.31
436.269	848.69
436.644	864.96
437.02	870.39
437.395	864.96
437.77	883.49
438.145	884.85
438.52	882.36
438.895	901.12
439.271	899.99
439.646	934.79
440.021	917.84
440.395	935.47
440.77	942.7
441.145	944.74
441.52	964.4
441.895	967.56
442.27	976.15
442.645	991.97
443.019	977.28
443.394	977.5
443.769	988.12
444.143	976.6
444.518	1002.36
444.892	984.06
445.267	1020.67
445.641	1011.63
446.016	1036.48
446.39	1040.1
446.764	1048.01
447.139	1042.36
447.513	1068.8
447.887	1057.27
448.262	1075.81
448.636	1076.03
449.01	1076.03
449.384	1135.69
449.758	1088.01
450.132	1103.83
450.506	1126.65
450.88	1119.19
451.254	1129.81
451.628	1127.33
452.002	1149.7
452.376	1187.21
452.75	1189.25
453.123	1194.22
453.497	1178.63
453.871	1225.18
454.244	1225.86
454.618	1238.96
454.992	1259.98
455.365	1239.42
455.739	1290.71
456.112	1302.47
456.486	1312.63
456.859	1318.06
457.232	1320.09
457.606	1349.92
457.979	1349.92
458.352	1368.45
458.725	1417.94
459.099	1422.91
459.472	1421.78
459.845	1448.45
460.218	1472.86
460.591	1487.55
460.964	1474.89
461.337	1535.68
461.71	1549.92
462.083	1587.2
462.456	1556.7
462.829	1596.7
463.201	1623.14
463.574	1628.56
463.947	1685.73
464.32	1686.41
464.692	1711.27
465.065	1695.68
465.438	1775.45
465.81	1772.96
466.183	1838.04
466.555	1846.86
466.928	1862.45
467.3	1838.5
467.672	1921.43
468.045	1965.05
468.417	1978.61
468.789	1976.8
469.161	2023.8
469.534	2060.64
469.906	2118.04
470.278	2125.04
470.65	2180.18
471.022	2239.84
471.394	2241.2
471.766	2263.57
472.138	2347.64
472.51	2383.34
472.882	2428.54
473.253	2476.45
473.625	2509.44
473.997	2567.52
474.369	2676.67
474.74	2678.02
475.112	2719.6
475.484	2780.62
475.855	2866.49
476.227	2933.84
476.598	3004.79
476.97	3077.33
477.341	3130.44
477.713	3235.97
478.084	3293.83
478.455	3388.96
478.827	3432.58
479.198	3575.4
479.569	3617.66
479.94	3754.38
480.311	3848.84
480.682	3930.65
481.053	4036.63
481.424	4189.85
481.795	4268.04
482.166	4315.27
482.537	4437.52
482.908	4592.1
483.279	4661.93
483.65	4827.12
484.021	4977.62
484.391	5108.69
484.762	5163.83
485.133	5301
485.503	5392.53
485.874	5590.71
486.244	5665.06
486.615	5848.56
486.985	5952.51
487.356	6154.99
487.726	6253.97
488.097	6446.96
488.467	6581.65
488.837	6744.58
489.207	6895.09
489.578	7026.16
489.948	7220.5
490.318	7302.31
490.688	7430.44
491.058	7633.82
491.428	7814.16
491.798	7989.97
492.168	8172.12
492.538	8298.89
492.908	8496.63
493.278	8690.29
493.648	8721.71
494.017	8892.32
494.387	9055.93
494.757	9185.42
495.126	9329.83
495.496	9429.48
495.866	9529.82
496.235	9696.6
496.605	9893.2
496.974	10008.23
497.344	10202.12
497.713	10316.47
498.082	10400.76
498.452	10559.4
498.821	10606.63
499.19	10700.18
499.559	10865.15
499.928	11013.17
500.298	11123.45
500.667	11253.39
501.036	11287.51
501.405	11492.03
501.774	11554.4
502.143	11669.65
502.512	11697.45
502.88	11831.68
503.249	11960.94
503.618	12061.96
503.987	12212.24
504.356	12325.9
504.724	12305.34
505.093	12371.55
505.462	12490.87
505.83	12685.22
506.199	12697.87
506.567	12969.05
506.936	12847.7
507.304	13070.74
507.672	13186
508.041	13247.91
508.409	13268.7
508.777	13443.39
509.145	13494.01
509.514	13444.07
509.882	13637.28
510.25	13605.42
510.618	13746.43
510.986	13761.35
511.354	13924.05
511.722	13997.73
512.09	14168.79
512.458	14046.09
512.826	14235.91
513.193	14240.43
513.561	14246.08
513.929	14380.99
514.297	14531.72
514.664	14482.46
515.032	14530.14
515.4	14675
515.767	14692.17
516.135	14819.85
516.502	14655.56
516.869	14934.2
517.237	14857.36
517.604	14822.34
517.972	14933.52
518.339	15081.99
518.706	14936.68
519.073	15070.24
519.44	15148.66
519.808	15237.24
520.175	15092.84
520.542	15386.84
520.909	15394.52
521.276	15378.93
521.643	15481.08
522.009	15552.26
522.376	15552.49
522.743	15647.17
523.11	15751.58
523.477	15829.77
523.843	15822.54
524.21	15998.8
524.577	15938.69
524.943	15918.58
525.31	15968.97
525.676	15961.74
526.043	16177.1
526.409	16147.5
526.776	16197.67
527.142	16294.16
527.508	16315.4
527.874	16324.67
528.241	16517.21
528.607	16355.86
528.973	16501.84
529.339	16355.86
529.705	16559.01
530.071	16538
530.437	16516.3
530.803	16561.27
531.169	16634.27
531.535	16514.72
531.901	16480.6
532.267	16634.27
532.632	16567.83
532.998	16551.33
533.364	16556.53
533.73	16609.41
534.095	16716.07
534.461	16697.54
534.826	16708.39
535.192	16566.92
535.557	16662.06
535.923	16559.69
536.288	16688.28
536.653	16681.95
537.019	16540.26
537.384	16608.05
537.749	16646.24
538.114	16562.4
538.479	16583.19
538.845	16515.85
539.21	16439.47
539.575	16414.84
539.94	16430.66
540.305	16424.1
540.67	16456.87
541.034	16427.94
541.399	16394.27
541.764	16311.56
542.129	16331.68
542.494	16303.43
542.858	16312.01
543.223	16264.56
543.587	16220.04
543.952	16206.71
544.316	16203.77
544.681	16091.46
545.045	16165.58
545.41	16253.49
545.774	16142.98
546.138	16055.75
546.503	16084.68
546.867	15950.67
547.231	16008.75
547.595	15987.28
547.959	15956.54
548.324	15997.9
548.688	15875.42
549.052	15889.88
549.416	15868.64
549.779	15909.09
550.143	15851.91
550.507	15938.24
550.871	15798.13
551.235	15750
551.599	15791.58
551.962	15762.42
552.326	15724.69
552.689	15882.42
553.053	15739.37
553.417	15669.32
553.78	15837.45
554.143	15744.8
554.507	15717.91
554.87	15702.54
555.234	15800.39
555.597	15670.45
555.96	15724.91
556.323	15696.89
556.686	15623.9
557.05	15631.58
557.413	15608.76
557.776	15536.67
558.139	15673.84
558.502	15630.45
558.865	15685.36
559.228	15705.25
559.59	15691.24
559.953	15648.08
560.316	15763.78
560.679	15728.53
561.041	15878.13
561.404	15831.8
561.767	15887.39
562.129	15764.23
562.492	15880.16
562.854	15887.84
563.217	15837.9
563.579	15857.79
563.941	15909.54
564.304	15934.17
564.666	16013.27
565.028	15971.01
565.39	16020.04
565.753	16038.12
566.115	16039.25
566.477	16037.67
566.839	16086.48
567.201	16169.42
567.563	16088.52
567.925	16278.8
568.287	16144.56
568.648	16160.83
569.01	16226.14
569.372	16313.14
569.734	16254.84
570.095	16240.6
570.457	16372.58
570.819	16240.6
571.18	16299.36
571.542	16361.96
571.903	16352.69
572.265	16414.61
572.626	16368.06
572.987	16407.83
573.349	16471.56
573.71	16495.51
574.071	16466.59
574.432	16421.39
574.794	16612.57
575.155	16533.03
575.516	16540.48
575.877	16584.78
576.238	16502.29
576.599	16634.72
576.96	16614.61
577.32	16610.76
577.681	16671.33
578.042	16727.82
578.403	16674.72
578.763	16642.18
579.124	16658.22
579.485	16749.74
579.845	16785.22
580.206	16700.7
580.566	16700.48
580.927	16732.34
581.287	16841.27
581.648	16563.76
582.008	16773.47
582.368	16689.86
582.728	16688.95
583.089	16759.46
583.449	16633.14
583.809	16654.38
584.169	16752.23
584.529	16616.41
584.889	16764.88
585.249	16682.63
585.609	16598.56
585.969	16717.65
586.329	16673.81
586.688	16601.05
587.048	16645.11
587.408	16538
587.768	16597.43
588.127	16586.81
588.487	16564.66
588.846	16670.88
589.206	16506.36
589.565	16545.45
589.925	16615.28
590.284	16598.56
590.643	16522.18
591.003	16531.22
591.362	16547.71
591.721	16512.01
592.08	16485.57
592.44	16575.06
592.799	16610.09
593.158	16531.22
593.517	16414.84
593.876	16605.11
594.235	16460.49
594.593	16472.24
594.952	16528.28
595.311	16433.82
595.67	16484.21
596.029	16574.15
596.387	16511.78
596.746	16555.85
597.104	16417.32
597.463	16530.09
597.822	16392.01
598.18	16508.17
598.538	16478.56
598.897	16511.78
599.255	16368.74
599.613	16486.7
599.972	16462.52
600.33	16472.69
600.688	16469.3
601.046	16406.02
601.404	16564.89
601.762	16431.33
602.12	16527.83
602.478	16509.07
602.836	16580.48
603.194	16398.34
603.552	16450.54
603.91	16401.73
604.268	16427.04
604.625	16403.54
604.983	16540.71
605.341	16506.59
605.698	16462.75
606.056	16488.28
606.413	16414.16
606.771	16470.65
607.128	16666.13
607.485	16352.69
607.843	16429.53
608.2	16586.36
608.557	16658.45
608.914	16611.22
609.272	16686.69
609.629	16706.13
609.986	16672.46
610.343	16536.42
610.7	16806.01
611.057	16732.12
611.414	16648.95
611.771	16677.88
612.127	16700.48
612.484	16831.32
612.841	16858.67
613.198	16714.26
613.554	16680.37
613.911	16840.81
614.267	16747.94
614.624	16746.58
614.98	16801.72
615.337	16843.53
615.693	16844.43
616.05	16765.56
616.406	16935.95
616.762	16841.27
617.118	16771.66
617.475	16800.82
617.831	16876.29
618.187	16923.3
618.543	17021.15
618.899	17023.86
619.255	16975.05
619.611	17017.31
619.967	16931.66
620.323	17092.33
620.678	16988.61
621.034	16976.18
621.39	17004.43
621.746	16933.69
622.101	17122.16
622.457	16921.94
622.812	17043.52
623.168	17006.46
623.523	17022.73
623.879	17110.64
624.234	16967.59
624.589	17123.29
624.945	17074.25
625.3	17075.84
625.655	16944.54
626.01	16997.87
626.365	16970.75
626.72	16988.83
627.075	17018.66
627.43	16963.07
627.785	16938.89
628.14	16919.68
628.495	17034.03
628.85	17022.28
629.205	16926.46
629.559	17036.74
629.914	16914.03
630.269	16881.27
630.623	16931.66
630.978	16777.09
631.332	16888.27
631.687	16970.3
632.041	16900.47
632.396	16881.27
632.75	16832
633.104	16846.46
633.459	16843.3
633.813	16691.21
634.167	16825.67
634.521	16734.15
634.875	16774.83
635.229	16829.52
635.583	16643.53
635.937	16654.15
636.291	16728.27
636.645	16615.06
636.999	16624.32
637.352	16667.26
637.706	16466.81
638.06	16591.78
638.413	16584.78
638.767	16502.74
639.121	16578.45
639.474	16430.66
639.828	16405.12
640.181	16355.18
640.534	16465.23
640.888	16350.66
641.241	16351.79
641.594	16485.34
641.947	16463.42
642.301	16309.08
642.654	16350.88
643.007	16432.46
643.36	16337.1
643.713	16330.55
644.066	16339.13
644.419	16193.6
644.771	16155.63
645.124	16031.34
645.477	15966.26
645.83	15897.11
646.182	15819.6
646.535	15819.6
646.888	15904.12
647.24	15666.16
647.593	15815.3
647.945	15718.13
648.298	15704.35
648.65	15583.22
649.002	15577.34
649.355	15796.55
649.707	15685.36
650.059	15928.07
650.411	15988.18
650.763	16013.49
651.115	16183.66
651.467	16057.11
651.819	16056.43
652.171	16022.53
652.523	16029.54
652.875	15987.5
653.227	15986.6
653.578	16083.32
653.93	16140.49
654.282	16069.08
654.633	15914.96
654.985	15966.49
655.337	16047.39
655.688	16053.26
656.039	16094.85
656.391	15979.14
656.742	15987.28
657.094	16016.43
657.445	16032.25
657.796	16018.24
658.147	16066.15
658.498	16072.92
658.849	16074.51
659.2	16080.83
659.551	15983.44
659.902	16061.85
660.253	16034.06
660.604	16065.92
660.955	15980.05
661.306	16037.22
661.656	16079.03
662.007	16056.88
662.358	16027.05
662.708	16006.49
663.059	16069.76
663.409	15995.64
663.76	16152.92
664.11	16076.99
664.461	16047.16
664.811	16140.49
665.161	16075.86
665.511	15999.03
665.862	16048.07
666.212	16106.37
666.562	16174.39
666.912	16102.53
667.262	16016.43
667.612	16085.58
667.962	16013.94
668.312	16050.55
668.662	16146.14
669.011	16012.81
669.361	15902.53
669.711	16001.97
670.06	15985.92
670.41	15917.22
670.76	15901.4
671.109	16015.75
671.459	15977.56
671.808	15823.89
672.157	15928.3
672.507	15904.57
672.856	15908.64
673.205	15857.56
673.554	15964.68
673.904	15891.91
674.253	16022.3
674.602	15888.75
674.951	15727.17
675.3	15647.4
675.649	15855.98
675.998	15784.8
676.346	15827.06
676.695	15790.67
677.044	15717.91
677.393	15813.5
677.741	15839.48
678.09	15745.02
678.438	15681.3
678.787	15720.39
679.135	15688.98
679.484	15627.06
679.832	15613.95
680.181	15556.55
680.529	15600.39
680.877	15557.46
681.225	15544.58
681.573	15656.66
681.922	15513.17
682.27	15462.32
682.618	15407.41
682.966	15342.77
683.314	15357.24
683.661	15321.08
684.009	15285.37
684.357	15310.23
684.705	15304.58
685.053	15259.84
685.4	15147.3
685.748	15111.14
686.095	15114.08
686.443	15020.07
686.79	15002.67
687.138	15063.69
687.485	15106.4
687.832	14985.5
688.18	14994.08
688.527	14901.43
688.874	14853.3
689.221	14791.38
689.568	14747.76
689.915	14735.11
690.262	14652.17
690.609	14572.4
690.956	14602.91
691.303	14676.35
691.65	14523.59
691.997	14433.19
692.344	14435.23
692.69	14376.92
693.037	14348.45
693.383	14314.78
693.73	14216.93
694.077	14230.49
694.423	14257.38
694.769	14140.55
695.116	14074.33
695.462	13997.05
695.808	13938.29
696.155	14098.06
696.501	13869.37
696.847	13884.28
697.193	13784.62
697.539	13807.9
697.885	13657.62
698.231	13634.12
698.577	13736.94
698.923	13659.2
699.269	13638.19
699.614	13470.73
699.96	13411.98
700.306	13416.05
700.651	13288.14
700.997	13294.01
701.342	13202.49
701.688	13215.15
702.033	13210.63
702.379	13164.98
702.724	13147.13
703.069	13164.07
703.415	12988.49
703.76	13011.08
704.105	12966.34
704.45	13075.26
704.795	12910.75
705.14	12835.5
705.485	12841.15
705.83	12755.5
706.175	12779.45
706.52	12647.7
706.865	12762.73
707.209	12659.23
707.554	12619
707.899	12636.41
708.243	12541.72
708.588	12430.08
708.932	12428.95
709.277	12414.94
709.621	12452
709.966	12293.59
710.31	12361.61
710.654	12197.77
710.998	12174.04
711.342	12289.52
711.687	12162.75
712.031	12172.46
712.375	12187.83
712.719	12130.66
713.063	12073.48
713.407	12083.65
713.75	12029.19
714.094	12040.49
714.438	11943.77
714.782	11951.9
715.125	11938.12
715.469	12004.56
715.812	11860.61
716.156	11775.18
716.499	11802.75
716.843	11772.7
717.186	11788.97
717.53	11794.85
717.873	11768.41
718.216	11822.87
718.559	11791.68
718.902	11625.81
719.246	11657
719.589	11680.95
719.932	11599.82
720.275	11630.1
720.617	11599.37
720.96	11538.13
721.303	11541.74
721.646	11521.63
721.989	11462.65
722.331	11540.61
722.674	11492.48
723.016	11472.14
723.359	11397.34
723.701	11457.68
724.044	11349.66
724.386	11301.75
724.729	11349.66
725.071	11407.06
725.413	11348.3
725.755	11353.95
726.097	11340.85
726.439	11345.59
726.782	11311.47
727.124	11321.41
727.465	11261.07
727.807	11310.79
728.149	11219.95
728.491	11271.92
728.833	11305.37
729.175	11226.05
729.516	11199.38
729.858	11171.13
730.199	11228.53
730.541	11207.06
730.882	11191.25
731.224	11211.13
731.565	11126.16
731.906	11286.84
732.248	11207.52
732.589	11112.15
732.93	11171.36
733.271	11120.51
733.612	11176.1
733.953	11233.73
734.294	11089.1
734.635	11093.62
734.976	11126.16
735.317	11133.17
735.658	11065.37
735.999	11106.28
736.339	11070.12
736.68	11179.72
737.021	11130.46
737.361	11099.95
737.702	11184.24
738.042	11165.48
738.383	11127.29
738.723	11099.72
739.063	11166.84
739.404	11207.29
739.744	11087.75
740.084	11124.35
740.424	11174.3
740.764	11098.37
741.104	11188.76
741.444	11199.83
741.784	11152.15
742.124	11206.39
742.464	11165.94
742.804	11238.93
743.143	11251.13
743.483	11245.93
743.823	11192.38
744.162	11301.07
744.502	11282.77
744.841	11385.59
745.181	11465.14
745.52	11376.78
745.86	11489.32
746.199	11564.57
746.538	11489.09
746.877	11621.06
747.216	11632.14
747.556	11658.13
747.895	11715.98
748.234	11741.51
748.573	11812.02
748.911	11875.3
749.25	11880.49
749.589	11947.84
749.928	11995.74
750.267	12185.12
750.605	12199.13
750.944	12227.6
751.283	12317.54
751.621	12410.42
751.96	12439.35
752.298	12622.85
752.636	12658.78
752.975	12589.63
753.313	12747.14
753.651	12988.71
753.989	13015.15
754.327	13079.33
754.666	13160.23
755.004	13447.46
755.342	13569.04
755.679	13621.92
756.017	13679.99
756.355	13932.19
756.693	14032.98
757.031	14167.66
757.368	14302.8
757.706	14411.95
758.044	14562.91
758.381	14732.85
758.719	14900.53
759.056	14987.53
759.394	15157.47
759.731	15278.6
760.068	15415.09
760.405	15523.11
760.743	15785.47
761.08	15960.84
761.417	15997.67
761.754	16263.65
762.091	16374.61
762.428	16617.77
762.765	16623.19
763.102	17009.17
763.438	17010.08
763.775	17184.53
764.112	17399.22
764.449	17671.53
764.785	17728.47
765.122	17752.2
765.458	17960.56
765.795	18072.19
766.131	18304.73
766.467	18358.74
766.804	18514.67
767.14	18683.7
767.476	18791.05
767.812	18899.07
768.148	19048.44
768.485	19250.47
768.821	19205.05
769.157	19439.62
769.492	19442.1
769.828	19585.6
770.164	19613.85
770.5	19720.29
770.836	19868.53
771.171	19827.4
771.507	19957.57
771.842	20035.98
772.178	20236.66
772.513	20196.21
772.849	20308.97
773.184	20377.67
773.519	20519.14
773.855	20535.63
774.19	20480.49
774.525	20523.66
774.86	20673.26
775.195	20783.54
775.53	20687.94
775.865	20753.71
776.2	20778.34
776.535	20704.89
776.87	20862.4
777.205	20797.77
777.539	20835.51
777.874	21025.34
778.209	20799.58
778.543	20913.7
778.878	20874.61
779.212	20942.18
779.547	20868.05
779.881	20999.35
780.215	20903.98
780.55	21151.66
780.884	21061.49
781.218	20865.34
781.552	21088.61
781.886	20972.23
782.22	20974.72
782.554	20991.44
782.888	20827.38
783.222	20870.99
783.556	20865.34
783.889	20859.01
784.223	20761.39
784.557	20636.42
784.89	20828.05
785.224	20647.95
785.557	20603.43
785.891	20575.41
786.224	20693.59
786.558	20698.11
786.891	20500.83
787.224	20488.63
787.557	20492.47
787.891	20466.71
788.224	20478.46
788.557	20511
788.89	20498.8
789.223	20501.96
789.556	20390.55
789.888	20331.34
790.221	20342.42
790.554	20249.31
790.887	20173.16
791.219	20179.94
791.552	20139.03
791.884	20090.67
792.217	20016.55
792.549	19951.69
792.882	19945.82
793.214	20013.61
793.546	19934.52
793.879	19875.54
794.211	19695.88
794.543	19795.09
794.875	19718.93
795.207	19784.24
795.539	19730
795.871	19661.08
796.203	19434.19
796.535	19380.41
796.867	19425.83
797.198	19343.12
797.53	19397.58
797.862	19217.02
798.193	19271.94
798.525	19226.97
798.856	19256.57
799.188	19016.8
799.519	18973.87
799.85	18919.63
800.182	18963.47
800.513	18960.76
800.844	18844.83
801.175	18930.48
801.506	18871.95
801.837	18747.43
802.168	18745.62
802.499	18691.84
802.83	18663.14
803.161	18595.8
803.491	18551.28
803.822	18627.21
804.153	18463.14
804.483	18396.25
804.814	18333.2
805.145	18256.82
805.475	18188.8
805.805	18185.64
806.136	18189.25
806.466	18222.25
806.796	18153.32
807.126	17939.77
807.457	18019.54
807.787	18090.05
808.117	17977.73
808.447	17990.16
808.777	17884.18
809.107	17861.13
809.436	17743.84
809.766	17745.88
810.096	17680.34
810.426	17590.85
810.755	17642.15
811.085	17601.7
811.414	17596.73
811.744	17447.8
812.073	17401.03
812.403	17483.74
812.732	17393.12
813.061	17401.03
813.39	17264.08
813.719	17219.56
814.049	17297.98
814.378	17280.12
814.707	17121.71
815.036	17148.6
815.365	17185.21
815.693	16979.12
816.022	17019.57
816.351	17005.78
816.68	16900.02
817.008	16918.55
817.337	16712.91
817.665	16708.61
817.994	16741.61
818.322	16732.34
818.651	16658.67
818.979	16558.79
819.307	16763.53
819.636	16736.86
819.964	16529.86
820.292	16671.78
820.62	16565.12
820.948	16564.66
821.276	16656.41
821.604	16517.43
821.932	16515.63
822.259	16683.76
822.587	16561.05
822.915	16488.96
823.243	16610.09
823.57	16481.95
823.898	16504.1
824.225	16432.01
824.553	16491.44
824.88	16531.44
825.207	16597.43
825.535	16555.62
825.862	16582.97
826.189	16456.87
826.516	16581.39
826.843	16524.44
827.17	16524.89
827.497	16596.75
827.824	16566.92
828.151	16627.03
828.478	16678.56
828.805	16569.86
829.131	16549.52
829.458	16416.64
829.785	16523.31
830.111	16500.94
830.438	16575.51
830.764	16584.1
831.09	16553.59
831.417	16443.08
831.743	16623.42
832.069	16541.84
832.395	16476.53
832.722	16497.77
833.048	16372.58
833.374	16448.96
833.7	16304.33
834.026	16409.87
834.351	16454.61
834.677	16411
835.003	16473.82
835.329	16388.4
835.654	16362.18
835.98	16294.61
836.306	16368.74
836.631	16224.56
836.956	16257.33
837.282	16274.73
837.607	16187.5
837.932	16201.06
838.258	16210.1
838.583	16206.25
838.908	16029.08
839.233	16133.04
839.558	16003.77
839.883	16056.2
840.208	15883.33
840.533	15917
840.858	15907.51
841.182	15913.61
841.507	15937.56
841.832	15810.78
842.156	15813.27
842.481	15834.06
842.805	15791.8
843.13	15749.54
843.454	15702.99
843.778	15654.63
844.103	15640.17
844.427	15540.06
844.751	15595.65
845.075	15531.24
845.399	15528.76
845.723	15331.02
846.047	15443.56
846.371	15243.34
846.695	15281.99
847.019	15170.8
847.343	15152.95
847.666	15004.48
847.99	15011.26
848.313	14972.84
848.637	14925.16
848.96	14853.07
849.284	14875.67
849.607	14688.55
849.931	14714.77
850.254	14622.12
850.577	14508.67
850.9	14458.28
851.223	14388
851.546	14320.43
851.869	14250.37
852.192	14338.28
852.515	14153.88
852.838	14181.22
853.161	14056.25
853.483	14025.3
853.806	13973.32
854.129	13943.94
854.451	13922.47
854.774	13914.34
855.096	13804.96
855.419	13816.49
855.741	13749.6
856.063	13640.45
856.385	13618.3
856.708	13597.74
857.03	13485.87
857.352	13489.49
857.674	13502.6
857.996	13383.5
858.318	13386.89
858.64	13340.57
858.961	13313.22
859.283	13263.96
859.605	13165.66
859.926	13208.82
860.248	13169.05
860.57	13091.53
860.891	13165.88
861.212	13062.61
861.534	13049.5
861.855	12966.79
862.176	13047.24
862.498	13035.04
862.819	12911.2
863.14	12968.83
863.461	12890.86
863.782	12911.88
864.103	12875.27
864.424	12881.6
864.745	12849.28
865.065	12756.63
865.386	12702.62
865.707	12742.16
866.027	12715.95
866.348	12671.88
866.668	12678.66
866.989	12609.97
867.309	12567.93
867.63	12556.63
867.95	12518.67
868.27	12458.78
868.59	12479.35
868.91	12424.89
869.23	12478.44
869.55	12429.63
869.87	12421.95
870.19	12344.44
870.51	12412.91
870.83	12386.02
871.15	12329.75
871.469	12295.62
871.789	12372.01
872.109	12284.32
872.428	12250.2
872.748	12319.35
873.067	12249.75
873.386	12233.93
873.706	12235.96
874.025	12142.41
874.344	12176.53
874.663	12190.54
874.982	12097.89
875.301	12159.13
875.62	12029.64
875.939	12026.25
876.258	12032.13
876.577	11904.9
876.896	11999.13
877.214	11883.88
877.533	11963.65
877.852	11921.4
878.17	11974.73
878.489	11885.69
878.807	11907.16
879.125	11940.83
879.444	11870.78
879.762	11813.38
880.08	11856.31
880.398	11765.69
880.716	11769.08
881.034	11758.24
881.352	11695.19
881.67	11708.52
881.988	11656.09
882.306	11646.6
882.624	11626.49
882.941	11521.86
883.259	11444.8
883.577	11545.13
883.894	11449.77
884.212	11480.05
884.529	11434.85
884.846	11384.23
885.164	11302.43
885.481	11263.33
885.798	11291.36
886.115	11266.27
886.432	11294.29
886.75	11246.16
887.067	11221.08
887.383	11204.13
887.7	11207.06
888.017	11077.35
888.334	11187.18
888.651	11072.83
888.967	11043.45
889.284	10984.02
889.6	10988.54
889.917	10878.49
890.233	10973.17
890.55	10896.11
890.866	10863.34
891.182	10877.13
891.498	10761.43
891.815	10818.37
892.131	10707.19
892.447	10758.04
892.763	10638.27
893.079	10652.95
893.395	10607.53
893.71	10525.5
894.026	10467.2
894.342	10518.49
894.657	10474.65
894.973	10463.13
895.289	10426.75
895.604	10431.94
895.92	10243.93
896.235	10296.58
896.55	10254.09
896.865	10280.08
897.181	10216.36
897.496	10160.99
897.811	10156.92
898.126	10109.01
898.441	10031.05
898.756	10047.55
899.071	9978.62
899.386	9938.17
899.7	9862.69
900.015	9829.93
900.33	9748.57
900.644	9782.24
900.959	9733.66
901.273	9764.84
901.588	9743.37
901.902	9630.61
902.216	9595.81
902.531	9582.47
902.845	9540.67
903.159	9591.74
903.473	9499.76
903.787	9398.3
904.101	9406.21
904.415	9406.43
904.729	9340.22
905.042	9253.44
905.356	9319.43
905.67	9235.14
905.984	9225.42
906.297	9165.31
906.611	9135.71
906.924	9123.05
907.237	9080.34
907.551	9006.9
907.864	9025.88
908.177	8973
908.491	8938.65
908.804	8839.67
909.117	8809.84
909.43	8873.57
909.743	8761.48
910.056	8746.56
910.368	8717.19
910.681	8659.33
910.994	8632.89
911.307	8580.92
911.619	8558.77
911.932	8563.07
912.244	8484.2
912.557	8471.54
912.869	8339.79
913.181	8379.57
913.494	8342.51
913.806	8336.41
914.118	8295.05
914.43	8189.29
914.742	8235.84
915.054	8187.26
915.366	8170.31
915.678	8160.36
915.99	8104.32
916.302	7997.2
916.613	7963.31
916.925	7985
917.236	7951.1
917.548	7928.96
917.859	7985.68
918.171	7857.32
918.482	7803.09
918.794	7799.02
919.105	7794.72
919.416	7665.46
919.727	7701.17
920.038	7707.72
920.349	7629.08
920.66	7544.11
920.971	7640.15
921.282	7597.22
921.593	7533.26
921.903	7478.12
922.214	7371.68
922.525	7401.97
922.835	7380.95
923.146	7339.14
923.456	7285.36
923.767	7285.81
924.077	7291.69
924.387	7236.55
924.697	7167.62
925.008	7204.23
925.318	7136.89
925.628	7143.89
925.938	7069.55
926.248	7040.17
926.558	7040.17
926.867	7017.57
927.177	6974.18
927.487	6876.1
927.796	6889.66
928.106	6910
928.416	6842.43
928.725	6851.25
929.034	6780.06
929.344	6792.04
929.653	6710.91
929.962	6737.13
930.271	6657.58
930.581	6577.36
930.89	6652.16
931.199	6664.36
931.508	6585.49
931.817	6538.03
932.125	6549.33
932.434	6534.87
932.743	6502.56
933.051	6453.29
933.36	6346.4
933.669	6382.33
933.977	6325.38
934.286	6356.12
934.594	6317.7
934.902	6279.74
935.21	6251.04
935.519	6206.97
935.827	6188.21
936.135	6166.52
936.443	6175.11
936.751	6161.77
937.059	6147.08
937.367	6065.28
937.674	6069.57
937.982	6002.23
938.29	5971.04
938.597	6003.36
938.905	5936.02
939.213	5927.2
939.52	5845.62
939.827	5904.38
940.135	5804.72
940.442	5839.97
940.749	5756.36
941.056	5761.56
941.363	5731.95
941.67	5698.96
941.977	5659.41
942.284	5616.7
942.591	5639.98
942.898	5604.95
943.205	5600.66
943.511	5559.08
943.818	5550.26
944.125	5508.68
944.431	5489.25
944.738	5491.73
945.044	5478.63
945.35	5422.58
945.657	5378.74
945.963	5335.13
946.269	5354.56
946.575	5298.07
946.881	5285.41
947.187	5271.17
947.493	5220.1
947.799	5204.74
948.105	5225.3
948.41	5197.28
948.716	5161.57
949.022	5109.15
949.327	5151.4
949.633	5087.22
949.938	5043.84
950.244	5092.87
950.549	5010.62
950.854	4997.74
951.16	4987.79
951.465	4961.13
951.77	4972.43
952.075	4937.62
952.38	4889.04
952.685	4881.13
952.99	4882.94
953.294	4818.76
953.599	4758.87
953.904	4854.91
954.209	4747.35
954.513	4769.04
954.818	4760.91
955.122	4746.89
955.426	4684.98
955.731	4694.24
956.035	4646.11
956.339	4648.82
956.643	4626.22
956.948	4601.36
957.252	4552.55
957.556	4529.27
957.86	4549.39
958.163	4529.05
958.467	4503.51
958.771	4463.29
959.075	4491.99
959.378	4422.61
959.682	4435.26
959.985	4400.24
960.289	4361.82
960.592	4362.05
960.896	4365.66
961.199	4341.48
961.502	4300.58
961.805	4330.86
962.108	4239.11
962.411	4248.38
962.714	4203.41
963.017	4216.97
963.32	4240.24
963.623	4195.27
963.926	4154.14
964.228	4158.89
964.531	4120.7
964.833	4130.19
965.136	4075.95
965.438	4019.23
965.741	4048.83
966.043	4039.79
966.345	4042.51
966.648	3972.9
966.95	3974.03
967.252	3979.23
967.554	3948.27
967.856	3896.52
968.158	3905.11
968.46	3906.92
968.761	3846.13
969.063	3860.14
969.365	3834.15
969.666	3849.97
969.968	3796.19
970.269	3787.15
970.571	3776.75
970.872	3786.69
971.174	3724.77
971.475	3727.03
971.776	3724.1
972.077	3637.77
972.378	3700.82
972.679	3666.47
972.98	3656.3
973.281	3606.81
973.582	3622.86
973.883	3587.83
974.183	3589.86
974.484	3556.87
974.785	3547.15
975.085	3519.81
975.386	3547.83
975.686	3550.99
975.986	3497.89
976.287	3477.78
976.587	3437.1
976.887	3478.45
977.187	3418.34
977.487	3443.65
977.787	3391.68
978.087	3378.12
978.387	3377.89
978.687	3351.68
978.987	3342.41
979.286	3317.33
979.586	3287.72
979.885	3273.71
980.185	3267.61
980.484	3247.73
980.784	3245.92
981.083	3246.6
981.382	3228.52
981.682	3215.41
981.981	3214.05
982.28	3185.35
982.579	3155.52
982.878	3173.38
983.177	3133.15
983.475	3156.2
983.774	3103.1
984.073	3086.37
984.372	3037.79
984.67	3102.42
984.969	3036.21
985.267	3054.28
985.566	3026.94
985.864	3047.73
986.162	2979.71
986.461	2980.84
986.759	2951.01
987.057	2912.37
987.355	2921.86
987.653	2921.86
987.951	2938.58
988.249	2922.31
988.547	2908.53
988.844	2891.12
989.142	2886.15
989.44	2825.36
989.737	2826.95
990.035	2853.61
990.332	2794.4
990.63	2793.5
990.927	2764.8
991.224	2724.8
991.521	2775.2
991.819	2773.16
992.116	2710.56
992.413	2704.91
992.71	2692.49
993.006	2677.57
993.303	2678.93
993.6	2663.11
993.897	2645.71
994.193	2653.84
994.49	2620.62
994.787	2635.09
995.083	2577.46
995.379	2567.74
995.676	2590.34
995.972	2575.88
996.268	2548.31
996.565	2530.68
996.861	2501.98
997.157	2490.46
997.453	2486.16
997.749	2526.16
998.044	2465.37
998.34	2478.48
998.636	2454.98
998.932	2412.49
999.227	2413.85
999.523	2394.19
999.818	2371.82
1000.114	2402.32
1000.409	2363.68
1000.704	2335.21
1001	2357.58
1001.295	2303.12
1001.59	2324.59
1001.885	2295.21
1002.18	2294.3
1002.475	2285.94
1002.77	2288.88
1003.065	2274.42
1003.359	2278.26
1003.654	2217.47
1003.949	2200.07
1004.243	2219.5
1004.538	2219.05
1004.832	2186.74
1005.127	2190.13
1005.421	2151.93
1005.715	2127.08
1006.009	2164.36
1006.304	2115.78
1006.598	2137.25
1006.892	2100.18
1007.186	2117.59
1007.48	2087.3
1007.773	2058.38
1008.067	2031.94
1008.361	2052.5
1008.655	2020.19
1008.948	2026.06
1009.242	2016.35
1009.535	1954.43
1009.829	1980.19
1010.122	1964.37
1010.415	1965.05
1010.708	1939.96
1011.001	1914.43
1011.295	1919.85
1011.588	1925.95
1011.881	1915.78
1012.173	1909.23
1012.466	1876.69
1012.759	1865.84
1013.052	1856.58
1013.344	1801.21
1013.637	1817.03
1013.93	1809.57
1014.222	1834.88
1014.514	1828.1
1014.807	1804.83
1015.099	1795.56
1015.391	1779.52
1015.683	1770.48
1015.976	1731.83
1016.268	1742.23
1016.56	1716.69
1016.851	1715.11
1017.143	1688.22
1017.435	1713.75
1017.727	1726.64
1018.018	1655.68
1018.31	1694.55
1018.602	1635.11
1018.893	1622.23
1019.185	1631.04
1019.476	1606.19
1019.767	1591.05
1020.058	1579.29
1020.35	1597.83
1020.641	1582.23
1020.932	1564.61
1021.223	1529.35
1021.514	1544.49
1021.804	1528.9
1022.095	1551.27
1022.386	1508.79
1022.677	1482.35
1022.967	1490.26
1023.258	1465.4
1023.548	1484.61
1023.839	1466.08
1024.129	1467.89
1024.419	1462.69
1024.709	1448.9
1025	1414.1
1025.29	1417.49
1025.58	1400.99
1025.87	1402.58
1026.16	1381.79
1026.449	1375.68
1026.739	1385.63
1027.029	1357.15
1027.319	1369.36
1027.608	1360.77
1027.898	1340.43
1028.187	1323.03
1028.477	1325.97
1028.766	1313.09
1029.055	1307.66
1029.344	1268.34
1029.634	1296.36
1029.923	1281.45
1030.212	1267.21
1030.501	1259.53
1030.79	1237.83
1031.078	1261.56
1031.367	1229.02
1031.656	1215.01
1031.945	1193.32
1032.233	1191.73
1032.522	1201
1032.81	1219.98
1033.099	1200.77
1033.387	1181.34
1033.675	1168.91
1033.963	1151.28
1034.251	1141.79
1034.54	1132.53
1034.828	1134.56
1035.116	1134.79
1035.403	1133.66
1035.691	1108.57
1035.979	1092.53
1036.267	1078.06
1036.554	1121.68
1036.842	1083.26
1037.129	1105.41
1037.417	1060.66
1037.704	1054.34
1037.992	1076.93
1038.279	1047.78
1038.566	1034.45
1038.853	1034.45
1039.14	1034.45
