Data from hue_70_FLMS001491_86.txt Node
Date: Mon Feb 06 15:21:33 GMT 2017
User: dcchb
Spectrometer: FLMS00149
Trigger mode: 0
Integration Time (sec): 2.000000E-2
Scans to average: 10
Electric dark correction enabled: true
Nonlinearity correction enabled: false
Boxcar width: 0
XAxis mode: Wavelengths
Number of Pixels in Spectrum: 2048
>>>>>Begin Spectral Data<<<<<
341.393	-4.9
341.776	-4.9
342.16	-4.9
342.543	-69.31
342.927	-48.52
343.31	-82.41
343.693	-77.22
344.077	-70.21
344.46	-56.65
344.843	-52.81
345.226	-17.78
345.61	-31.34
345.993	-8.52
346.376	0.97
346.759	-2.64
347.142	5.27
347.525	38.49
347.908	63.35
348.291	71.48
348.674	106.28
349.057	113.74
349.44	136.34
349.823	153.96
350.206	162.1
350.588	192.16
350.971	208.65
351.354	243.91
351.737	232.61
352.119	240.29
352.502	269.44
352.884	268.54
353.267	289.78
353.65	309.67
354.032	276.22
354.414	306.05
354.797	341.98
355.179	322.55
355.562	349.21
355.944	317.8
356.326	330.01
356.709	331.14
357.091	349.44
357.473	331.59
357.855	342.43
358.238	343.79
358.62	332.72
359.002	338.82
359.384	327.75
359.766	324.13
360.148	350.12
360.53	324.13
360.912	346.05
361.294	355.54
361.676	367.29
362.057	341.3
362.439	349.44
362.821	331.81
363.203	323
363.584	342.43
363.966	306.28
364.348	340.17
364.729	332.04
365.111	327.75
365.493	337.69
365.874	343.79
366.256	331.81
366.637	325.71
367.019	327.07
367.4	309.67
367.781	312.15
368.163	334.98
368.544	306.05
368.925	309.22
369.306	318.48
369.688	320.51
370.069	334.75
370.45	326.62
370.831	336.11
371.212	329.78
371.593	328.88
371.974	315.77
372.355	312.15
372.736	312.38
373.117	334.98
373.498	326.62
373.879	341.53
374.26	289.78
374.641	353.96
375.021	313.06
375.402	312.38
375.783	330.91
376.163	317.35
376.544	322.1
376.925	331.36
377.305	348.76
377.686	325.71
378.066	330.01
378.447	304.02
378.827	342.66
379.208	327.07
379.588	344.47
379.968	352.15
380.349	341.3
380.729	335.43
381.109	339.27
381.489	320.74
381.87	347.18
382.25	341.08
382.63	328.65
383.01	341.53
383.39	349.44
383.77	358.48
384.15	344.92
384.53	341.98
384.91	329.78
385.29	330.01
385.67	340.63
386.049	346.73
386.429	347.18
386.809	355.32
387.189	346.05
387.568	361.87
387.948	366.39
388.328	328.2
388.707	364.13
389.087	366.16
389.466	339.72
389.846	354.19
390.225	370.68
390.605	356.67
390.984	370
391.363	347.41
391.743	364.58
392.122	365.26
392.501	359.61
392.881	377.69
393.26	362.77
393.639	395.99
394.018	371.59
394.397	356.45
394.776	379.72
395.155	370.46
395.534	363.22
395.913	381.76
396.292	384.02
396.671	407.07
397.05	399.61
397.429	375.88
397.808	387.63
398.186	374.75
398.565	408.2
398.944	384.47
399.323	386.05
399.701	375.88
400.08	382.66
400.458	378.59
400.837	405.48
401.215	381.53
401.594	405.26
401.972	387.63
402.351	405.71
402.729	398.7
403.107	396.44
403.486	413.39
403.864	419.49
404.242	393.51
404.62	423.11
404.999	424.92
405.377	429.66
405.755	446.16
406.133	400.96
406.511	424.92
406.889	408.87
407.267	428.99
407.645	426.27
408.023	432.83
408.401	434.41
408.779	424.69
409.156	446.39
409.534	446.39
409.912	417.69
410.29	440.51
410.667	464.47
411.045	442.32
411.422	447.74
411.8	441.19
412.178	479.61
412.555	450.91
412.933	448.65
413.31	451.13
413.687	493.16
414.065	474.63
414.442	461.98
414.819	460.4
415.197	481.19
415.574	480.51
415.951	469.21
416.328	468.31
416.705	490.45
417.082	478.93
417.46	478.25
417.837	504.69
418.214	502.88
418.591	481.41
418.967	499.49
419.344	523.67
419.721	495.88
420.098	483.9
420.475	527.74
420.852	483.67
421.228	531.36
421.605	506.27
421.982	501.53
422.358	527.29
422.735	518.02
423.111	525.03
423.488	512.37
423.864	534.75
424.241	542.2
424.617	546.27
424.994	534.29
425.37	557.57
425.746	548.3
426.123	553.05
426.499	556.89
426.875	546.04
427.251	537.68
427.627	571.81
428.003	573.16
428.379	577.46
428.756	569.55
429.132	580.39
429.507	574.97
429.883	591.47
430.259	600.96
430.635	590.34
431.011	611.58
431.387	627.85
431.763	610.68
432.138	632.82
432.514	626.49
432.89	631.47
433.265	632.82
433.641	645.48
434.016	657.91
434.392	655.65
434.767	634.4
435.143	657.23
435.518	679.37
435.894	665.36
436.269	650
436.644	669.88
437.02	699.71
437.395	675.76
437.77	690
438.145	710.79
438.52	702.65
438.895	686.61
439.271	721.18
439.646	708.98
440.021	698.81
440.395	700.62
440.77	733.16
441.145	756.66
441.52	741.75
441.895	730.9
442.27	755.98
442.645	750.11
443.019	753.27
443.394	755.98
443.769	772.71
444.143	768.64
444.518	771.12
444.892	762.08
445.267	765.25
445.641	789.65
446.016	792.14
446.39	786.72
446.764	785.81
447.139	781.74
447.513	777.45
447.887	810.9
448.262	830.78
448.636	827.39
449.01	794.85
449.384	833.04
449.758	832.14
450.132	834.4
450.506	845.02
450.88	850.9
451.254	828.3
451.628	847.96
452.002	882.76
452.376	849.31
452.75	853.16
453.123	853.61
453.497	908.3
453.871	900.84
454.244	880.73
454.618	915.07
454.992	923.21
455.365	920.27
455.739	932.25
456.112	958.92
456.486	945.81
456.859	970.21
457.232	979.25
457.606	970.89
457.979	975.64
458.352	984.23
458.725	1008.18
459.099	1018.12
459.472	1043.43
459.845	1068.74
460.218	1066.94
460.591	1068.74
460.964	1074.17
461.337	1082.3
461.71	1100.83
462.083	1094.51
462.456	1121.85
462.829	1159.81
463.201	1129.31
463.574	1160.04
463.947	1182.41
464.32	1230.32
464.692	1234.16
465.065	1232.13
465.438	1264.22
465.81	1256.31
466.183	1300.83
466.555	1322.52
466.928	1316.87
467.3	1312.58
467.672	1368.17
468.045	1387.6
468.417	1407.49
468.789	1422.86
469.161	1459.92
469.534	1453.59
469.906	1477.09
470.278	1515.06
470.65	1530.65
471.022	1551.44
471.394	1600.48
471.766	1624.66
472.138	1627.6
472.51	1714.6
472.882	1700.82
473.253	1763.64
473.625	1798.89
473.997	1865.33
474.369	1854.94
474.74	1928.61
475.112	1960.7
475.484	2013.13
475.855	2063.29
476.227	2060.81
476.598	2165.44
476.97	2205.21
477.341	2217.41
477.713	2285.21
478.084	2371.99
478.455	2422.61
478.827	2466.22
479.198	2566.1
479.569	2593.9
479.94	2682.49
480.311	2776.27
480.682	2842.26
481.053	2952.08
481.424	3020.1
481.795	3136.94
482.166	3206.77
482.537	3299.42
482.908	3397.5
483.279	3509.13
483.65	3566.08
484.021	3655.12
484.391	3788.22
484.762	3899.18
485.133	3952.06
485.503	4104.6
485.874	4234.99
486.244	4328.09
486.615	4453.29
486.985	4587.75
487.356	4722.43
487.726	4854.63
488.097	4977.34
488.467	5035.42
488.837	5226.37
489.207	5332.13
489.578	5508.85
489.948	5664.1
490.318	5758.34
490.688	5899.12
491.058	6065.22
491.428	6126.46
491.798	6350.19
492.168	6535.94
492.538	6591.76
492.908	6859.55
493.278	6986.55
493.648	7084.63
494.017	7244.17
494.387	7416.82
494.757	7507.44
495.126	7729.36
495.496	7812.97
495.866	7957.83
496.235	8135.45
496.605	8266.75
496.974	8378.38
497.344	8565.27
497.713	8691.59
498.082	8881.42
498.452	8996.44
498.821	9133.62
499.19	9255.19
499.559	9451.8
499.928	9613.83
500.298	9731.57
500.667	9858.12
501.036	9941.96
501.405	10068.96
501.774	10196.64
502.143	10321.61
502.512	10471.21
502.88	10655.38
503.249	10745.78
503.618	10826.68
503.987	10980.35
504.356	11107.8
504.724	11207.91
505.093	11375.36
505.462	11452.88
505.83	11586.66
506.199	11686.54
506.567	11918.4
506.936	11955.91
507.304	12209.47
507.672	12327.2
508.041	12407.65
508.409	12430.93
508.777	12658.72
509.145	12763.12
509.514	12785.95
509.882	12985.94
510.25	13022.1
510.618	13162.66
510.986	13220.51
511.354	13392.03
511.722	13528.53
512.09	13727.17
512.458	13774.62
512.826	13872.02
513.193	13938.24
513.561	13998.57
513.929	14234.72
514.297	14319.02
514.664	14317.43
515.032	14412.35
515.4	14625.67
515.767	14659.8
516.135	14780.47
516.502	14748.61
516.869	15013.69
517.237	15173.23
517.604	15075.15
517.972	15278.76
518.339	15368.71
518.706	15417.74
519.073	15458.65
519.44	15572.32
519.808	15796.49
520.175	15770.5
520.542	15952.87
520.909	15927.34
521.276	15993.32
521.643	16230.83
522.009	16310.38
522.376	16491.61
522.743	16533.2
523.11	16661.33
523.477	16804.37
523.843	16825.16
524.21	16987.42
524.577	17115.1
524.943	17205.49
525.31	17263.35
525.676	17420.86
526.043	17537.46
526.409	17632.38
526.776	17793.95
527.142	17766.38
527.508	17887.28
527.874	18005.47
528.241	18022.2
528.607	18136.54
528.973	18302.19
529.339	18211.12
529.705	18426.25
530.071	18482.52
530.437	18680.48
530.803	18635.06
531.169	18747.37
531.535	18628.28
531.901	18715.96
532.267	18859.01
532.632	18998.22
532.998	18973.81
533.364	19072.34
533.73	19044.32
534.095	19232.33
534.461	19148.27
534.826	19292.9
535.192	19316.4
535.557	19466.23
535.923	19409.28
536.288	19440.01
536.653	19578.09
537.019	19403.18
537.384	19528.6
537.749	19652.89
538.114	19555.26
538.479	19603.85
538.845	19702.6
539.21	19595.49
539.575	19622.83
539.94	19718.87
540.305	19807.91
540.67	19725.43
541.034	19770.17
541.399	19898.3
541.764	19839.55
542.129	19910.51
542.494	19872.99
542.858	19915.03
543.223	19917.29
543.587	19981.69
543.952	20036.83
544.316	19937.85
544.681	19976.27
545.045	20098.75
545.41	20294.68
545.774	20231.63
546.138	20112.76
546.503	20200.44
546.867	20139.2
547.231	20359.76
547.595	20333.1
547.959	20290.61
548.324	20341.68
548.688	20416.26
549.052	20386.65
549.416	20370.61
549.779	20298.07
550.143	20394.79
550.507	20470.49
550.871	20443.37
551.235	20488.12
551.599	20491.06
551.962	20533.99
552.326	20597.27
552.689	20601.56
553.053	20568.57
553.417	20678.62
553.78	20875.91
554.143	20658.06
554.507	20776.7
554.87	20773.99
555.234	20926.3
555.597	20893.31
555.96	20915.23
556.323	20935.11
556.686	20941.44
557.05	21076.35
557.413	21089.23
557.776	21202
558.139	21265.95
558.502	21229.79
558.865	21297.82
559.228	21347.08
559.59	21345.72
559.953	21541.88
560.316	21614.19
560.679	21506.17
561.041	21687.41
561.404	21745.49
561.767	21840.85
562.129	21778.03
562.492	21919.95
562.854	21917.01
563.217	21915.65
563.579	21938.02
563.941	22077.91
564.304	22195.42
564.666	22335.08
565.028	22256.43
565.39	22306.38
565.753	22446.26
566.115	22454.4
566.477	22431.12
566.839	22567.16
567.201	22635.63
567.563	22732.81
567.925	22816.19
568.287	22840.15
568.648	22880.82
569.01	22992.01
569.372	23146.81
569.734	22972.8
570.095	23097.09
570.457	23173.25
570.819	23213.25
571.18	23243.08
571.542	23277.2
571.903	23298.89
572.265	23358.1
572.626	23523.29
572.987	23393.35
573.349	23559.45
573.71	23561.94
574.071	23677.19
574.432	23666.79
574.794	23859.56
575.155	23803.29
575.516	23798.54
575.877	23823.62
576.238	23901.59
576.599	24066.56
576.96	24034.24
577.32	23967.58
577.681	24023.17
578.042	24065.2
578.403	24110.4
578.763	24086.22
579.124	24214.58
579.485	24219.09
579.845	24293.44
580.206	24259.55
580.566	24279.43
580.927	24202.82
581.287	24410.05
581.648	24204.41
582.008	24305.87
582.368	24204.86
582.728	24354.01
583.089	24289.15
583.449	24273.1
583.809	24334.57
584.169	24375.25
584.529	24308.58
584.889	24375.02
585.249	24301.8
585.609	24214.58
585.969	24347.68
586.329	24363.72
586.688	24383.38
587.048	24311.07
587.408	24282.14
587.768	24284.4
588.127	24384.29
588.487	24237.4
588.846	24393.33
589.206	24272.43
589.565	24285.08
589.925	24436.49
590.284	24252.99
590.643	24304.52
591.003	24254.35
591.362	24436.04
591.721	24474
592.08	24420.9
592.44	24543.38
592.799	24446.21
593.158	24391.52
593.517	24390.84
593.876	24410.5
594.235	24380.9
594.593	24382.93
594.952	24425.64
595.311	24320.11
595.67	24400.33
596.029	24506.09
596.387	24511.06
596.746	24522.36
597.104	24487.34
597.463	24413.21
597.822	24518.52
598.18	24264.74
598.538	24372.31
598.897	24574.34
599.255	24294.12
599.613	24685.07
599.972	24448.47
600.33	24538.86
600.688	24488.69
601.046	24639.87
601.404	24663.6
601.762	24647.56
602.12	24701.57
602.478	24659.99
602.836	24810.94
603.194	24489.14
603.552	24653.21
603.91	24732.08
604.268	24718.29
604.625	24718.52
604.983	24862.02
605.341	24495.92
605.698	24785.18
606.056	24801
606.413	24759.42
606.771	24869.25
607.128	24884.84
607.485	24749.7
607.843	24954.67
608.2	24942.47
608.557	25097.94
608.914	24888.23
609.272	25113.53
609.629	25044.16
609.986	25130.03
610.343	25042.58
610.7	25316.24
611.057	25266.3
611.414	25162.35
611.771	25207.32
612.127	25273.98
612.484	25322.57
612.841	25418.39
613.198	25179.07
613.554	25359.18
613.911	25436.24
614.267	25498.16
614.624	25334.55
614.98	25527.76
615.337	25736.57
615.693	25568.66
616.05	25501.55
616.406	25817.92
616.762	25607.53
617.118	25651.6
617.475	25730.02
617.831	25852.5
618.187	25684.37
618.543	25785.61
618.899	25844.59
619.255	26004.81
619.611	25887.75
619.967	25904.47
620.323	25974.75
620.678	25982.66
621.034	25889.11
621.39	25957.81
621.746	25958.94
622.101	26152.6
622.457	25902.44
622.812	25997.81
623.168	26105.37
623.523	26064.92
623.879	26093.4
624.234	25869.67
624.589	26047.75
624.945	26084.36
625.3	26101.31
625.655	26165.26
626.01	26082.32
626.365	26243
626.72	26120.29
627.075	26061.76
627.43	26246.61
627.785	26148.31
628.14	26158.25
628.495	26087.52
628.85	26120.06
629.205	26091.36
629.559	26232.38
629.914	26155.77
630.269	26111.25
630.623	25954.19
630.978	26080.06
631.332	26070.57
631.687	26153.28
632.041	26054.75
632.396	26095.2
632.75	26089.78
633.104	26036.67
633.459	25904.93
633.813	25863.57
634.167	25966.17
634.521	25979.27
634.875	25958.03
635.229	25813.63
635.583	25895.89
635.937	25837.81
636.291	25720.07
636.645	25796.68
636.999	25806.4
637.352	25769.11
637.706	25532.96
638.06	25649.57
638.413	25696.34
638.767	25631.26
639.121	25729.11
639.474	25441.44
639.828	25474.66
640.181	25467.2
640.534	25608.21
640.888	25409.57
641.241	25437.59
641.594	25536.35
641.947	25537.93
642.301	25418.39
642.654	25411.38
643.007	25393.53
643.36	25501.55
643.713	25321.89
644.066	25426.75
644.419	25304.49
644.771	25026.08
645.124	24933.88
645.477	24884.16
645.83	24704.05
646.182	24537.73
646.535	24536.15
646.888	24525.08
647.24	24416.15
647.593	24604.85
647.945	24526.66
648.298	24459.09
648.65	24394.01
649.002	24285.76
649.355	24503.38
649.707	24374.12
650.059	24568.69
650.411	24866.54
650.763	24803.26
651.115	25147.88
651.467	25013.65
651.819	24982.69
652.171	24924.61
652.523	25061.78
652.875	24947.44
653.227	24844.16
653.578	25053.65
653.93	24926.65
654.282	24812.07
654.633	24759.19
654.985	24893.88
655.337	24982.92
655.688	24857.5
656.039	24957.61
656.391	24782.02
656.742	24765.07
657.094	24795.35
657.445	24886.65
657.796	24892.98
658.147	24843.94
658.498	24888.23
658.849	24863.82
659.2	24824.5
659.551	24709.48
659.902	24838.29
660.253	24885.07
660.604	24979.3
660.955	24804.39
661.306	24784.05
661.656	24822.02
662.007	24925.52
662.358	24821.79
662.708	24913.99
663.059	24934.56
663.409	24717.39
663.76	24888.46
664.11	24896.37
664.461	24985.4
664.811	24923.71
665.161	24924.39
665.511	24763.71
665.862	24905.86
666.212	25046.87
666.562	24914.9
666.912	24897.95
667.262	24872.86
667.612	24901.34
667.962	24908.79
668.312	24840.1
668.662	25009.13
669.011	24903.6
669.361	24774.11
669.711	24789.02
670.06	24793.32
670.41	24730.04
670.76	24670.61
671.109	24797.16
671.459	24745.86
671.808	24659.99
672.157	24802.58
672.507	24676.94
672.856	24603.27
673.205	24623.38
673.554	24722.81
673.904	24710.38
674.253	24687.11
674.602	24588.12
674.951	24211.41
675.3	24234.91
675.649	24537.28
675.998	24532.53
676.346	24493.21
676.695	24568.24
677.044	24369.15
677.393	24429.26
677.741	24485.75
678.09	24339.54
678.438	24418.41
678.787	24443.5
679.135	24342.48
679.484	24215.71
679.832	24337.96
680.181	24227
680.529	24241.47
680.877	24178.19
681.225	24140.68
681.573	24213.67
681.922	24041.92
682.27	24083.51
682.618	24018.42
682.966	23994.24
683.314	23952.66
683.661	23940.01
684.009	23765.55
684.357	23794.93
684.705	23719.45
685.053	23803.51
685.4	23643.52
685.748	23596.96
686.095	23622.95
686.443	23589.73
686.79	23436.52
687.138	23528.27
687.485	23425.67
687.832	23416.63
688.18	23335.5
688.527	23419.34
688.874	23307.48
689.221	23251.21
689.568	23180.25
689.915	23144.09
690.262	23108.16
690.609	22928.51
690.956	22917.66
691.303	22858.9
691.65	22803.99
691.997	22721.28
692.344	22625.92
692.69	22593.83
693.037	22552.7
693.383	22221.41
693.73	22433.61
694.077	22310.9
694.423	22391.35
694.769	22193.61
695.116	22195.65
695.462	22192.93
695.808	22070.68
696.155	22116.1
696.501	21971.24
696.847	21879.95
697.193	21664.13
697.539	21768.31
697.885	21573.06
698.231	21563.8
698.577	21593.63
698.923	21468.21
699.269	21311.37
699.614	21432.5
699.96	21175.33
700.306	21272.28
700.651	21102.34
700.997	21058.5
701.342	21031.61
701.688	20959.07
702.033	20827.09
702.379	20902.57
702.724	20753.42
703.069	20760.2
703.415	20622.81
703.76	20607.44
704.105	20635.23
704.45	20531.06
704.795	20416.26
705.14	20374.22
705.485	20291.51
705.83	20098.98
706.175	20207.67
706.52	20181.69
706.865	20060.79
707.209	20005.65
707.554	20007.23
707.899	20082.03
708.243	19955.93
708.588	19856.95
708.932	19731.76
709.277	19732.89
709.621	19760.91
709.966	19591.19
710.31	19698.99
710.654	19502.83
710.998	19478.43
711.342	19573.79
711.687	19417.64
712.031	19322.95
712.375	19221.71
712.719	19281.15
713.063	19264.2
713.407	19265.1
713.75	19159.11
714.094	19228.49
714.438	18995.05
714.782	19072.11
715.125	18983.98
715.469	18984.88
715.812	18898.56
716.156	18800.25
716.499	18772.91
716.843	18762.29
717.186	18754.61
717.53	18827.6
717.873	18731.33
718.216	18772.01
718.559	18650.2
718.902	18536.08
719.246	18623.99
719.589	18442.98
719.932	18453.37
720.275	18489.98
720.617	18354.39
720.96	18435.29
721.303	18415.86
721.646	18349.42
721.989	18253.83
722.331	18402.52
722.674	18237.33
723.016	18325.24
723.359	18204.79
723.701	18260.61
724.044	18221.51
724.386	17981.29
724.729	18204.34
725.071	18182.19
725.413	18116.88
725.755	18087.05
726.097	17985.81
726.439	17901.52
726.782	17981.74
727.124	17982.2
727.465	17870.34
727.807	17883.67
728.149	17914.63
728.491	17908.3
728.833	17838.25
729.175	17822.43
729.516	17770.22
729.858	17815.87
730.199	17854.52
730.541	17687.29
730.882	17638.7
731.224	17840.28
731.565	17731.81
731.906	17716.44
732.248	17583.56
732.589	17647.52
732.93	17605.48
733.271	17591.7
733.612	17658.59
733.953	17612.04
734.294	17560.29
734.635	17572.04
734.976	17611.81
735.317	17586.95
735.658	17554.64
735.999	17569.33
736.339	17514.41
736.68	17511.93
737.021	17429.89
737.361	17478.71
737.702	17540.85
738.042	17494.53
738.383	17404.81
738.723	17536.56
739.063	17398.71
739.404	17482.1
739.744	17443.23
740.084	17410.46
740.424	17444.81
740.764	17464.02
741.104	17434.41
741.444	17365.26
741.784	17320.52
742.124	17461.98
742.464	17419.95
742.804	17364.13
743.143	17458.82
743.483	17488.88
743.823	17457.46
744.162	17485.03
744.502	17546.05
744.841	17469.44
745.181	17555.32
745.52	17502.44
745.86	17577.69
746.199	17523
746.538	17557.12
746.877	17737.01
747.216	17771.13
747.556	17661.53
747.895	17751.69
748.234	17737.46
748.573	17864.46
748.911	17717.57
749.25	17834.4
749.589	17819.26
749.928	17948.07
750.267	17936.1
750.605	17925.02
750.944	17902.65
751.283	18008.86
751.621	18040.73
751.96	18068.07
752.298	18167.5
752.636	18197.33
752.975	18176.99
753.313	18279.14
753.651	18405.69
753.989	18353.03
754.327	18454.95
754.666	18465.57
755.004	18586.7
755.342	18681.39
755.679	18679.58
756.017	18694.27
756.355	18798.9
756.693	18851.33
757.031	19058.1
757.368	18985.79
757.706	19022.4
758.044	19078.44
758.381	19157.31
758.719	19267.81
759.056	19363.63
759.394	19372.22
759.731	19425.1
760.068	19500.35
760.405	19484.3
760.743	19507.35
761.08	19569.73
761.417	19588.48
761.754	19771.3
762.091	19732.21
762.428	19858.53
762.765	19763.17
763.102	19931.07
763.438	19902.37
763.775	19843.62
764.112	20114.34
764.449	20057.4
764.785	20051.29
765.122	20034.57
765.458	20089.49
765.795	20113.21
766.131	20110.73
766.467	20121.58
766.804	20158.86
767.14	20124.29
767.476	20220.78
767.812	20155.02
768.148	20343.04
768.485	20124.97
768.821	20149.37
769.157	20146.89
769.492	20192.76
769.828	20218.97
770.164	20136.49
770.5	20082.25
770.836	20181.23
771.171	20095.81
771.507	20147.11
771.842	19957.51
772.178	19925.2
772.513	19951.86
772.849	19893.78
773.184	19943.95
773.519	19953.67
773.855	19890.17
774.19	19811.53
774.525	19897.4
774.86	19861.47
775.195	19710.06
775.53	19729.27
775.865	19748.7
776.2	19594.81
776.535	19452.67
776.87	19487.02
777.205	19495.15
777.539	19398.43
777.874	19503.06
778.209	19329.51
778.543	19308.94
778.878	19293.8
779.212	19223.97
779.547	19064.65
779.881	19235.72
780.215	19048.16
780.55	19183.97
780.884	18902.62
781.218	18968.16
781.552	18882.29
781.886	18856.75
782.22	18823.76
782.554	18747.83
782.888	18588.06
783.222	18559.36
783.556	18447.5
783.889	18424.44
784.223	18315.52
784.557	18406.14
784.89	18362.53
785.224	18274.62
785.557	18062.65
785.891	18114.85
786.224	18143.77
786.558	18155.75
786.891	17903.55
787.224	17961.41
787.557	17868.53
787.891	17784.01
788.224	17851.35
788.557	17818.81
788.89	17742.65
789.223	17745.82
789.556	17516.67
789.888	17519.38
790.221	17499.95
790.554	17282.78
790.887	17455.2
791.219	17263.8
791.552	17298.82
791.884	17344.93
792.217	17205.49
792.549	17118.04
792.882	16977.7
793.214	16969.57
793.546	17003.69
793.879	16945.16
794.211	16842.34
794.543	16936.35
794.875	16715.34
795.207	16874.43
795.539	16686.41
795.871	16713.76
796.203	16527.32
796.535	16502.91
796.867	16459.98
797.198	16378.4
797.53	16368.45
797.862	16276.48
798.193	16279.42
798.525	16230.38
798.856	16237.61
799.188	16001.46
799.519	16130.72
799.85	15923.72
800.182	15942.48
800.513	15882.59
800.844	15753.33
801.175	15930.95
801.506	15786.55
801.837	15751.07
802.168	15751.75
802.499	15700.9
802.83	15587.46
803.161	15580.45
803.491	15500.23
803.822	15526.44
804.153	15439.89
804.483	15294.81
804.814	15296.17
805.145	15251.65
805.475	15308.14
805.805	15222.04
806.136	15140.46
806.466	15154.47
806.796	15065.66
807.126	14999.22
807.457	14974.37
807.787	15066.34
808.117	14849.4
808.447	14858.66
808.777	14905.67
809.107	14853.92
809.436	14732.56
809.766	14752.9
810.096	14728.27
810.426	14580.93
810.755	14683.53
811.085	14704.32
811.414	14570.99
811.744	14427.94
812.073	14439.69
812.403	14469.97
812.732	14319.02
813.061	14301.16
813.39	14243.76
813.719	14245.12
814.049	14213.93
814.378	14186.59
814.707	14191.11
815.036	14148.63
815.365	14042.41
815.693	13956.31
816.022	14004.9
816.351	13943.66
816.68	13838.35
817.008	13915.18
817.337	13826.6
817.665	13820.5
817.994	13825.92
818.322	13776.88
818.651	13682.42
818.979	13734.17
819.307	13764.91
819.636	13632.48
819.964	13588.41
820.292	13615.76
820.62	13627.06
820.948	13651.92
821.276	13634.06
821.604	13535.76
821.932	13689.88
822.259	13595.42
822.587	13479.49
822.915	13432.26
823.243	13600.62
823.57	13485.59
823.898	13493.95
824.225	13486.5
824.553	13462.77
824.88	13542.99
825.207	13548.41
825.535	13469.09
825.862	13483.78
826.189	13448.3
826.516	13495.99
826.843	13566.49
827.17	13582.31
827.497	13549.09
827.824	13510.22
828.151	13545.7
828.478	13554.74
828.805	13536.89
829.131	13515.65
829.458	13481.98
829.785	13392.03
830.111	13534.18
830.438	13439.94
830.764	13445.37
831.09	13444.91
831.417	13393.84
831.743	13464.8
832.069	13514.52
832.395	13374.18
832.722	13405.82
833.048	13373.73
833.374	13383.9
833.7	13336.44
834.026	13318.14
834.351	13377.57
834.677	13343.22
835.003	13345.03
835.329	13254.86
835.654	13294.41
835.98	13255.32
836.306	13318.36
836.631	13214.19
836.956	13219.38
837.282	13223.68
837.607	13157.69
837.932	13084.92
838.258	13133.06
838.583	13073.17
838.908	13030.24
839.233	13057.35
839.558	12988.88
839.883	13022.33
840.208	12948.66
840.533	12975.32
840.858	13005.6
841.182	12923.12
841.507	12913.63
841.832	12940.75
842.156	12821.2
842.481	12843.8
842.805	12781.66
843.13	12737.59
843.454	12718.15
843.778	12717.7
844.103	12703.24
844.427	12660.75
844.751	12627.08
845.075	12611.49
845.399	12544.15
845.723	12477.48
846.047	12512.74
846.371	12415.79
846.695	12399.97
847.019	12274.32
847.343	12211.95
847.666	12092.86
847.99	12126.31
848.313	12159.07
848.637	12022.13
848.96	12074.56
849.284	11959.3
849.607	11912.75
849.931	11913.88
850.254	11808.57
850.577	11752.53
850.9	11665.07
851.223	11726.32
851.546	11587.11
851.869	11537.62
852.192	11647.22
852.515	11452.88
852.838	11467.34
853.161	11393.9
853.483	11323.61
853.806	11298.08
854.129	11253.33
854.451	11253.11
854.774	11146.67
855.096	11117.74
855.419	11151.42
855.741	11046.79
856.063	11111.87
856.385	11095.82
856.708	10942.61
857.03	11005.66
857.352	11038.2
857.674	10960.46
857.996	10919.33
858.318	10920.91
858.64	10907.81
858.961	10804.76
859.283	10804.31
859.605	10679.56
859.926	10683.41
860.248	10697.87
860.57	10587.81
860.891	10629.17
861.212	10620.36
861.534	10577.87
861.855	10440.93
862.176	10527.7
862.498	10572.9
862.819	10530.87
863.14	10441.38
863.461	10496.97
863.782	10440.7
864.103	10373.58
864.424	10331.32
864.745	10367.03
865.065	10318.44
865.386	10258.11
865.707	10279.8
866.027	10294.72
866.348	10237.54
866.668	10252
866.989	10217.88
867.309	10160.03
867.63	10158
867.95	10188.28
868.27	10126.58
868.59	10141.27
868.91	10120.26
869.23	10089.3
869.55	10051.33
869.87	10092.46
870.19	10040.03
870.51	10009.75
870.83	10004.1
871.15	9977.66
871.469	9971.56
871.789	9965.46
872.109	9945.12
872.428	9949.64
872.748	9949.19
873.067	9898.79
873.386	9883.43
873.706	9896.99
874.025	9838.91
874.344	9821.96
874.663	9862.86
874.982	9813.37
875.301	9774.73
875.62	9737.67
875.939	9748.74
876.258	9760.94
876.577	9681.17
876.896	9694.5
877.214	9669.87
877.533	9640.04
877.852	9671.91
878.17	9707.84
878.489	9627.61
878.807	9608.18
879.125	9636.88
879.444	9576.99
879.762	9546.94
880.08	9519.59
880.398	9518.24
880.716	9563.43
881.034	9480.73
881.352	9521.18
881.67	9440.5
881.988	9444.57
882.306	9385.36
882.624	9440.27
882.941	9380.61
883.259	9304.46
883.577	9312.82
883.894	9267.17
884.212	9305.81
884.529	9299.71
884.846	9272.14
885.164	9259.94
885.481	9169.32
885.798	9228.3
886.115	9164.12
886.432	9155.99
886.75	9094.29
887.067	9072.15
887.383	9040.28
887.7	9097.46
888.017	8977.01
888.334	9019.27
888.651	8962.55
888.967	8927.75
889.284	8927.97
889.6	8870.57
889.917	8770.69
890.233	8812.95
890.55	8852.72
890.866	8823.79
891.182	8822.44
891.498	8756.45
891.815	8749.22
892.131	8621.99
892.447	8732.27
892.763	8635.78
893.079	8575.21
893.395	8592.16
893.71	8563.69
894.026	8560.07
894.342	8513.29
894.657	8478.94
894.973	8438.49
895.289	8455.67
895.604	8394.65
895.92	8335.22
896.235	8323.02
896.55	8298.84
896.865	8287.08
897.181	8267.2
897.496	8278.5
897.811	8275.33
898.126	8194.66
898.441	8137.26
898.756	8129.12
899.071	8126.18
899.386	8099.97
899.7	8031.5
900.015	7938.62
900.33	7970.48
900.644	7937.26
900.959	7962.57
901.273	7938.17
901.588	7852.29
901.902	7782.92
902.216	7760.09
902.531	7814.33
902.845	7762.35
903.159	7746.08
903.473	7676.7
903.787	7674.22
904.101	7602.36
904.415	7617.05
904.729	7504.51
905.042	7533.66
905.356	7527.33
905.67	7478.97
905.984	7480.33
906.297	7458.18
906.611	7382.02
906.924	7407.33
907.237	7387.67
907.551	7277.39
907.864	7323.27
908.177	7291.4
908.491	7266.77
908.804	7219.09
909.117	7187.23
909.43	7127.57
909.743	7157.62
910.056	7141.58
910.368	7053.22
910.681	7046.21
910.994	6987.46
911.307	6990.17
911.619	6895.48
911.932	6879.44
912.244	6890.96
912.557	6870.17
912.869	6771.87
913.181	6848.25
913.494	6769.84
913.806	6734.13
914.118	6750.63
914.43	6664.53
914.742	6746.11
915.054	6666.11
915.366	6655.04
915.678	6606.68
915.99	6544.31
916.302	6541.37
916.613	6483.06
916.925	6488.94
917.236	6471.54
917.548	6383.86
917.859	6431.99
918.171	6370.75
918.482	6378.43
918.794	6298.21
919.105	6330.07
919.416	6265.22
919.727	6272.45
920.038	6224.77
920.349	6160.36
920.66	6180.02
920.971	6154.94
921.282	6156.74
921.593	6087.37
921.903	6066.8
922.214	6013.47
922.525	5981.61
922.835	6014.6
923.146	5926.02
923.456	5985.68
923.767	5914.72
924.077	5924.21
924.387	5898.9
924.697	5831.33
925.008	5828.62
925.318	5806.92
925.628	5785.68
925.938	5768.96
926.248	5697.32
926.558	5739.58
926.867	5702.07
927.177	5688.51
927.487	5658.45
927.796	5611
928.106	5567.38
928.416	5516.31
928.725	5546.14
929.034	5494.16
929.344	5521.73
929.653	5510.66
929.962	5475.41
930.271	5430.89
930.581	5386.14
930.89	5348.63
931.199	5316.99
931.508	5337.56
931.817	5331.68
932.125	5280.16
932.434	5267.28
932.743	5255.98
933.051	5248.52
933.36	5170.1
933.669	5186.83
933.977	5143.21
934.286	5154.96
934.594	5107.51
934.902	5089.2
935.21	5041.97
935.519	5094.4
935.827	5008.75
936.135	5006.49
936.443	4964.23
936.751	4943.9
937.059	4930.56
937.367	4930.34
937.674	4889.66
937.982	4939.15
938.29	4890.56
938.597	4832.26
938.905	4791.58
939.213	4762.66
939.52	4743.67
939.827	4785.93
940.135	4748.87
940.442	4701.42
940.749	4732.15
941.056	4703
941.363	4655.09
941.67	4674.07
941.977	4635.43
942.284	4599.72
942.591	4605.15
942.898	4557.92
943.205	4527.86
943.511	4467.52
943.818	4543.68
944.125	4484.47
944.431	4459.16
944.738	4417.58
945.044	4401.76
945.35	4384.59
945.657	4355.89
945.963	4349.79
946.269	4317.25
946.575	4352.72
946.881	4302.56
947.187	4282.22
947.493	4234.08
947.799	4229.34
948.105	4221.2
948.41	4251.48
948.716	4186.4
949.022	4194.54
949.327	4186.4
949.633	4118.15
949.938	4116.12
950.244	4142.11
950.549	4087.87
950.854	4051.49
951.16	4072.05
951.465	4046.07
951.77	4016.69
952.075	4006.29
952.38	3983.02
952.685	4015.33
952.99	3902.34
953.294	3952.96
953.599	3904.83
953.904	3894.88
954.209	3902.11
954.513	3867.09
954.818	3829.12
955.122	3824.83
955.426	3860.76
955.731	3785.73
956.035	3777.6
956.339	3764.04
956.643	3786.86
956.948	3724.27
957.252	3701.67
957.556	3713.42
957.86	3709.8
958.163	3720.88
958.467	3650.14
958.771	3625.96
959.075	3637.72
959.378	3613.08
959.682	3635.23
959.985	3562.24
960.289	3525.63
960.592	3545.51
960.896	3552.75
961.199	3494.89
961.502	3487.21
961.805	3471.62
962.108	3487.44
962.411	3485.63
962.714	3465.06
963.017	3439.08
963.32	3434.78
963.623	3424.16
963.926	3370.38
964.228	3393.65
964.531	3366.31
964.833	3343.03
965.136	3317.95
965.438	3301.45
965.741	3304.39
966.043	3331.96
966.345	3279.76
966.648	3251.06
966.95	3251.28
967.252	3255.35
967.554	3244.28
967.856	3204.96
968.158	3198.18
968.46	3205.64
968.761	3184.85
969.063	3167.22
969.365	3123.38
969.666	3105.98
969.968	3104.85
970.269	3103.94
970.571	3028.69
970.872	3063.94
971.174	3084.74
971.475	3053.32
971.776	3019.88
972.077	3027.11
972.378	2997.28
972.679	3030.95
972.98	2990.27
973.281	2945.98
973.582	2937.17
973.883	2947.79
974.183	2909.82
974.484	2909.15
974.785	2915.47
975.085	2956.15
975.386	2877.06
975.686	2882.93
975.986	2852.42
976.287	2816.95
976.587	2814.01
976.887	2815.82
977.187	2843.39
977.487	2830.5
977.787	2775.82
978.087	2764.07
978.387	2728.81
978.687	2754.57
978.987	2702.82
979.286	2729.26
979.586	2710.73
979.885	2678.64
980.185	2697.63
980.484	2675.25
980.784	2654.46
981.083	2653.11
981.382	2595.93
981.682	2621.24
981.981	2662.6
982.28	2579.44
982.579	2560.68
982.878	2619.21
983.177	2565.65
983.475	2558.65
983.774	2551.19
984.073	2500.57
984.372	2525.88
984.67	2535.82
984.969	2495.82
985.267	2529.72
985.566	2479.33
985.864	2456.5
986.162	2468.71
986.461	2426.45
986.759	2436.62
987.057	2412.89
987.355	2429.61
987.653	2426.45
987.951	2344.64
988.249	2388.93
988.547	2363.4
988.844	2341.03
989.142	2337.64
989.44	2346.22
989.737	2336.96
990.035	2319.33
990.332	2315.26
990.63	2256.73
990.927	2309.84
991.224	2278.88
991.521	2280.46
991.819	2265.1
992.116	2242.27
992.413	2253.57
992.71	2220.58
993.006	2222.39
993.303	2193.91
993.6	2193.69
993.897	2181.26
994.193	2154.82
994.49	2169.96
994.787	2149.17
995.083	2141.71
995.379	2115.72
995.676	2134.03
995.972	2092.22
996.268	2105.78
996.565	2116.4
996.861	2108.72
997.157	2066.68
997.453	2053.8
997.749	2034.14
998.044	2057.19
998.34	2039.34
998.636	2015.38
998.932	2003.86
999.227	1989.4
999.523	2000.47
999.818	1990.53
1000.114	1958.21
1000.409	1949.85
1000.704	1950.98
1001	1940.13
1001.295	1948.04
1001.59	1934.48
1001.885	1922.73
1002.18	1901.26
1002.475	1884.54
1002.77	1894.26
1003.065	1879.34
1003.359	1890.42
1003.654	1861.94
1003.949	1820.36
1004.243	1844.54
1004.538	1842.28
1004.832	1807.03
1005.127	1810.42
1005.421	1804.77
1005.715	1772.91
1006.009	1801.15
1006.304	1757.99
1006.598	1771.78
1006.892	1761.83
1007.186	1744.43
1007.48	1712.57
1007.773	1712.57
1008.067	1717.77
1008.361	1684.32
1008.655	1717.77
1008.948	1663.98
1009.242	1669.63
1009.535	1636.86
1009.829	1640.25
1010.122	1626.92
1010.415	1636.41
1010.708	1636.41
1011.001	1642.74
1011.295	1579.46
1011.588	1603.42
1011.881	1581.5
1012.173	1586.24
1012.466	1570.88
1012.759	1570.88
1013.052	1547.37
1013.344	1567.04
1013.637	1497.43
1013.93	1498.34
1014.222	1528.17
1014.514	1503.31
1014.807	1513.93
1015.099	1526.13
1015.391	1489.3
1015.683	1473.7
1015.976	1473.93
1016.268	1434.38
1016.56	1474.61
1016.851	1415.17
1017.143	1419.92
1017.435	1428.28
1017.727	1440.03
1018.018	1431.9
1018.31	1394.16
1018.602	1409.75
1018.893	1395.29
1019.185	1368.85
1019.476	1364.1
1019.767	1346.25
1020.058	1343.99
1020.35	1314.61
1020.641	1314.84
1020.932	1332.46
1021.223	1318.23
1021.514	1309.19
1021.804	1278.23
1022.095	1305.8
1022.386	1289.3
1022.677	1270.32
1022.967	1272.81
1023.258	1246.59
1023.548	1260.15
1023.839	1228.74
1024.129	1233.94
1024.419	1216.99
1024.709	1213.82
1025	1213.15
1025.29	1204.56
1025.58	1193.71
1025.87	1177.44
1026.16	1159.59
1026.449	1192.81
1026.739	1186.71
1027.029	1160.04
1027.319	1122.98
1027.608	1134.96
1027.898	1136.54
1028.187	1112.81
1028.477	1145.13
1028.766	1113.26
1029.055	1107.61
1029.344	1102.87
1029.634	1058.8
1029.923	1066.94
1030.212	1070.1
1030.501	1065.35
1030.79	1051.57
1031.078	1048.18
1031.367	1062.64
1031.656	1044.34
1031.945	1045.69
1032.233	1019.25
1032.522	1011.34
1032.81	1017.44
1033.099	1019.93
1033.387	990.33
1033.675	1009.99
1033.963	1010.44
1034.251	989.88
1034.54	960.27
1034.828	966.6
1035.116	957.11
1035.403	961.18
1035.691	968.86
1035.979	976.54
1036.267	974.06
1036.554	967.05
1036.842	945.81
1037.129	928.41
1037.417	930.89
1037.704	921.18
1037.992	935.19
1038.279	890.67
1038.566	892.7
1038.853	892.7
1039.14	892.7
