Data from hue_320_FLMS001491_86.txt Node
Date: Mon Feb 06 15:47:50 GMT 2017
User: dcchb
Spectrometer: FLMS00149
Trigger mode: 0
Integration Time (sec): 2.000000E-2
Scans to average: 10
Electric dark correction enabled: true
Nonlinearity correction enabled: false
Boxcar width: 0
XAxis mode: Wavelengths
Number of Pixels in Spectrum: 2048
>>>>>Begin Spectral Data<<<<<
341.393	-0.68
341.776	-0.68
342.16	-0.68
342.543	-68.47
342.927	-78.64
343.31	-70.96
343.693	-76.61
344.077	-82.71
344.46	-50.17
344.843	-43.16
345.226	-64.41
345.61	-28.47
345.993	-17.63
346.376	11.75
346.759	19.66
347.142	24.18
347.525	51.75
347.908	58.76
348.291	63.5
348.674	101.69
349.057	102.82
349.44	122.93
349.823	129.04
350.206	153.89
350.588	193.67
350.971	202.48
351.354	229.82
351.737	230.5
352.119	252.65
352.502	245.42
352.884	263.04
353.267	290.16
353.65	294.46
354.032	291.07
354.414	292.2
354.797	295.81
355.179	318.86
355.562	318.86
355.944	299.88
356.326	311.63
356.709	327.68
357.091	338.3
357.473	323.83
357.855	344.17
358.238	340.56
358.62	331.29
359.002	325.19
359.384	343.27
359.766	344.85
360.148	330.61
360.53	342.59
360.912	327.45
361.294	317.73
361.676	338.52
362.057	343.27
362.439	330.84
362.821	330.61
363.203	335.36
363.584	336.94
363.966	320.9
364.348	318.18
364.729	313.21
365.111	323.83
365.493	326.77
365.874	324.96
366.256	315.7
366.637	318.64
367.019	296.26
367.4	307.34
367.781	289.26
368.163	295.13
368.544	295.59
368.925	313.89
369.306	307.56
369.688	282.25
370.069	322.7
370.45	299.2
370.831	334.91
371.212	297.62
371.593	299.43
371.974	320.22
372.355	308.47
372.736	325.87
373.117	303.49
373.498	311.18
373.879	321.35
374.26	300.11
374.641	311.86
375.021	315.47
375.402	317.51
375.783	320.22
376.163	319.54
376.544	323.38
376.925	335.36
377.305	316.6
377.686	309.37
378.066	333.32
378.447	328.8
378.827	335.13
379.208	335.13
379.588	313.89
379.968	339.65
380.349	339.2
380.729	342.59
381.109	317.05
381.489	338.97
381.87	331.74
382.25	331.29
382.63	324.74
383.01	351.86
383.39	326.77
383.77	359.54
384.15	362.25
384.53	356.6
384.91	330.84
385.29	326.55
385.67	338.75
386.049	333.1
386.429	336.94
386.809	343.49
387.189	341.69
387.568	350.27
387.948	349.82
388.328	354.79
388.707	350.27
389.087	347.79
389.466	343.49
389.846	358.63
390.225	348.92
390.605	362.25
390.984	372.65
391.363	386.2
391.743	384.62
392.122	378.75
392.501	374.68
392.881	372.87
393.26	389.82
393.639	352.99
394.018	373.55
394.397	381.46
394.776	378.75
395.155	372.65
395.534	366.54
395.913	368.13
396.292	378.3
396.671	385.53
397.05	377.84
397.429	407.45
397.808	382.36
398.186	386.2
398.565	406.99
398.944	365.41
399.323	402.25
399.701	391.18
400.08	377.62
400.458	397.05
400.837	401.12
401.215	399.99
401.594	406.54
401.972	406.77
402.351	405.19
402.729	429.59
403.107	394.11
403.486	423.04
403.864	410.84
404.242	415.58
404.62	418.29
404.999	447.9
405.377	429.14
405.755	436.82
406.133	413.55
406.511	454.45
406.889	447.45
407.267	435.47
407.645	453.55
408.023	451.97
408.401	458.29
408.779	447.67
409.156	458.74
409.534	464.39
409.912	464.17
410.29	495.13
410.667	498.29
411.045	513.88
411.422	483.15
411.8	486.99
412.178	522.7
412.555	517.73
412.933	499.65
413.31	512.08
413.687	515.69
414.065	554.11
414.442	550.95
414.819	533.77
415.197	540.78
415.574	579.65
415.951	575.8
416.328	575.8
416.705	576.48
417.082	588.01
417.46	618.29
417.837	603.15
418.214	603.15
418.591	611.28
418.967	600.21
419.344	627.33
419.721	601.79
420.098	629.59
420.475	636.14
420.852	656.48
421.228	675.69
421.605	646.54
421.982	651.06
422.358	647.44
422.735	657.16
423.111	682.02
423.488	684.5
423.864	670.49
424.241	733.54
424.617	716.59
424.994	734.44
425.37	718.17
425.746	728.12
426.123	730.83
426.499	737.38
426.875	759.53
427.251	740.09
427.627	763.14
428.003	755.69
428.379	768.34
428.756	763.14
429.132	781.9
429.507	786.42
429.883	809.47
430.259	826.19
430.635	836.36
431.011	841.33
431.387	846.31
431.763	857.83
432.138	881.56
432.514	879.07
432.89	879.07
433.265	895.57
433.641	896.7
434.016	907.77
434.392	917.94
434.767	942.12
435.143	949.35
435.518	948
435.894	957.26
436.269	954.78
436.644	992.74
437.02	975.34
437.395	991.61
437.77	1005.62
438.145	990.93
438.52	1006.98
438.895	1028
439.271	1033.42
439.646	1040.2
440.021	1058.73
440.395	1041.78
440.77	1060.09
441.145	1057.15
441.52	1086.53
441.895	1101.89
442.27	1074.55
442.645	1056.92
443.019	1086.75
443.394	1076.58
443.769	1089.91
444.143	1075.9
444.518	1120.42
444.892	1119.52
445.267	1121.33
445.641	1136.92
446.016	1104.38
446.39	1132.4
446.764	1145.73
447.139	1108.9
447.513	1156.58
447.887	1146.41
448.262	1159.74
448.636	1158.16
449.01	1160.2
449.384	1179.86
449.758	1163.81
450.132	1184.83
450.506	1192.06
450.88	1183.47
451.254	1227.76
451.628	1195.22
452.002	1213.98
452.376	1198.16
452.75	1236.13
453.123	1244.94
453.497	1239.52
453.871	1258.95
454.244	1260.76
454.618	1277.93
454.992	1285.62
455.365	1293.98
455.739	1316.8
456.112	1303.24
456.486	1314.09
456.859	1346.63
457.232	1361.09
457.606	1361.55
457.979	1362.45
458.352	1378.27
458.725	1401.55
459.099	1397.25
459.472	1423.24
459.845	1403.8
460.218	1436.57
460.591	1444.71
460.964	1435.22
461.337	1504.37
461.71	1488.1
462.083	1494.42
462.456	1492.84
462.829	1497.81
463.201	1535.33
463.574	1526.97
463.947	1550.24
464.32	1580.98
464.692	1601.54
465.065	1566.96
465.438	1582.33
465.81	1587.3
466.183	1625.27
466.555	1657.36
466.928	1645.83
467.3	1639.28
467.672	1685.61
468.045	1712.95
468.417	1677.24
468.789	1765.15
469.161	1722.67
469.534	1738.71
469.906	1792.04
470.278	1816.45
470.65	1826.62
471.022	1827.97
471.394	1851.02
471.766	1858.26
472.138	1860.29
472.51	1920.4
472.882	1923.11
473.253	1950.68
473.625	1959.27
473.997	1964.92
474.369	1994.07
474.74	2006.73
475.112	2077.01
475.484	2065.03
475.855	2083.34
476.227	2118.14
476.598	2143.22
476.97	2168.98
477.341	2185.93
477.713	2259.83
478.084	2221.18
478.455	2268.19
478.827	2302.99
479.198	2328.75
479.569	2321.52
479.94	2404
480.311	2426.83
480.682	2433.16
481.053	2465.25
481.424	2503.44
481.795	2545.92
482.166	2557.45
482.537	2573.94
482.908	2628.18
483.279	2637.22
483.65	2676.09
484.021	2702.53
484.391	2749.31
484.762	2751.57
485.133	2794.28
485.503	2807.16
485.874	2837.89
486.244	2841.73
486.615	2911.11
486.985	2908.17
487.356	3002.41
487.726	3006.93
488.097	3017.1
488.467	3048.06
488.837	3113.14
489.207	3107.04
489.578	3188.84
489.948	3213.25
490.318	3199.92
490.688	3235.17
491.058	3282.17
491.428	3332.57
491.798	3321.49
492.168	3413.92
492.538	3377.54
492.908	3420.93
493.278	3472
493.648	3453.47
494.017	3504.99
494.387	3509.96
494.757	3526.69
495.126	3558.1
495.496	3575.27
495.866	3602.17
496.235	3648.27
496.605	3663.63
496.974	3666.34
497.344	3689.85
497.713	3766.45
498.082	3745.21
498.452	3773.69
498.821	3778.21
499.19	3784.53
499.559	3836.96
499.928	3860.69
500.298	3893
500.667	3870.86
501.036	3884.19
501.405	3902.95
501.774	3946.56
502.143	3880.58
502.512	3919.44
502.88	3969.61
503.249	3966.22
503.618	4015.04
503.987	4011.65
504.356	4047.58
504.724	4082.83
505.093	4062.72
505.462	4074.02
505.83	4112.66
506.199	4123.51
506.567	4161.92
506.936	4220.45
507.304	4198.31
507.672	4173.9
508.041	4210.28
508.409	4221.81
508.777	4238.98
509.145	4286.89
509.514	4298.19
509.882	4255.48
510.25	4255.71
510.618	4352.65
510.986	4328.02
511.354	4350.85
511.722	4304.75
512.09	4425.65
512.458	4404.4
512.826	4402.6
513.193	4454.57
513.561	4426.78
513.929	4460
514.297	4523.04
514.664	4527.56
515.032	4526.66
515.4	4569.6
515.767	4599.88
516.135	4576.83
516.502	4582.48
516.869	4626.77
517.237	4629.26
517.604	4617.28
517.972	4628.35
518.339	4680.1
518.706	4680.78
519.073	4639.65
519.44	4669.03
519.808	4710.38
520.175	4760.1
520.542	4750.38
520.909	4820.44
521.276	4804.39
521.643	4858.86
522.009	4846.43
522.376	4807.33
522.743	4915.12
523.11	4961.9
523.477	4955.35
523.843	4956.71
524.21	5033.09
524.577	5033.31
524.943	5009.81
525.31	5052.07
525.676	5082.8
526.043	5118.74
526.409	5126.87
526.776	5181.11
527.142	5170.49
527.508	5186.98
527.874	5254.33
528.241	5284.15
528.607	5263.59
528.973	5312.18
529.339	5348.56
529.705	5318.73
530.071	5389.01
530.437	5390.37
530.803	5445.51
531.169	5487.54
531.535	5474.88
531.901	5499.97
532.267	5521.89
532.632	5501.1
532.998	5562.57
533.364	5631.04
533.73	5591.49
534.095	5654.99
534.461	5706.29
534.826	5716.69
535.192	5713.52
535.557	5745.39
535.923	5803.69
536.288	5797.59
536.653	5843.69
537.019	5811.37
537.384	5851.82
537.749	5883.69
538.114	5877.36
538.479	5942.22
538.845	5926.4
539.21	5912.61
539.575	5989.9
539.94	5968.43
540.305	6030.12
540.67	6008.88
541.034	6060.18
541.399	6147.86
541.764	6138.6
542.129	6142.44
542.494	6163.68
542.858	6201.87
543.223	6225.15
543.587	6235.54
543.952	6253.62
544.316	6340.17
544.681	6324.58
545.045	6323.45
545.41	6355.99
545.774	6401.87
546.138	6417.01
546.503	6430.11
546.867	6436.67
547.231	6537.23
547.595	6507.17
547.959	6512.37
548.324	6555.76
548.688	6546.27
549.052	6597.34
549.416	6565.03
549.779	6625.81
550.143	6617.68
550.507	6734.74
550.871	6730.67
551.235	6688.19
551.599	6761.4
551.962	6780.61
552.326	6747.17
552.689	6817
553.053	6799.6
553.417	6825.58
553.78	6862.19
554.143	6840.05
554.507	6894.73
554.87	6887.95
555.234	7005.01
555.597	6908.07
555.96	6964.56
556.323	6952.13
556.686	7000.72
557.05	7105.8
557.413	7040.49
557.776	7096.76
558.139	7183.99
558.502	7159.81
558.865	7178.12
559.228	7219.7
559.59	7194.39
559.953	7228.96
560.316	7241.17
560.679	7280.26
561.041	7360.71
561.404	7368.62
561.767	7421.27
562.129	7411.1
562.492	7446.58
562.854	7428.96
563.217	7439.35
563.579	7486.13
563.941	7484.32
564.304	7545.56
564.666	7566.35
565.028	7576.52
565.39	7643.41
565.753	7658.33
566.115	7654.04
566.477	7696.52
566.839	7715.05
567.201	7790.98
567.563	7802.51
567.925	7825.1
568.287	7853.58
568.648	7892.67
569.01	7969.28
569.372	7994.37
569.734	7943.75
570.095	7990.98
570.457	8090.41
570.819	8121.37
571.18	8058.77
571.542	8146
571.903	8105.32
572.265	8254.25
572.626	8284.3
572.987	8295.38
573.349	8392.77
573.71	8367.01
574.071	8456.5
574.432	8517.52
574.794	8585.31
575.155	8618.08
575.516	8563.62
575.877	8702.37
576.238	8768.36
576.599	8856.94
576.96	8855.81
577.32	8973.1
577.681	9018.07
578.042	9112.08
578.403	9180.1
578.763	9237.27
579.124	9412.63
579.485	9382.8
579.845	9563.82
580.206	9630.71
580.566	9763.81
580.927	9892.85
581.287	10018.04
581.648	10074.31
582.008	10216
582.368	10310.69
582.728	10489.22
583.089	10627.74
583.449	10713.39
583.809	10907.28
584.169	11046.26
584.529	11157.67
584.889	11419.59
585.249	11550.88
585.609	11667.72
585.969	11945.45
586.329	12093.24
586.688	12335.04
587.048	12475.6
587.408	12737.07
587.768	12913.78
588.127	13114.46
588.487	13320.78
588.846	13552.64
589.206	13744.27
589.565	13979.29
589.925	14282.11
590.284	14506.96
590.643	14750.8
591.003	15041.86
591.362	15338.35
591.721	15522.76
592.08	15917.77
592.44	16145.11
592.799	16369.51
593.158	16663.29
593.517	16993.68
593.876	17250.85
594.235	17493.78
594.593	17790.49
594.952	18062.35
595.311	18344.6
595.67	18689.9
596.029	19023.45
596.387	19302.77
596.746	19584.8
597.104	19798.58
597.463	20027.04
597.822	20526.47
598.18	20655.05
598.538	21029.96
598.897	21260.01
599.255	21353.34
599.613	22111.96
599.972	22149.93
600.33	22497.94
600.688	22646.41
601.046	22964.59
601.404	23368.2
601.762	23654.52
602.12	24000.05
602.478	24228.52
602.836	24344.9
603.194	24598.45
603.552	24821.95
603.91	25036.86
604.268	25406.79
604.625	25564.53
604.983	26011.07
605.341	26089.48
605.698	26381.45
606.056	26614.44
606.413	26956.58
606.771	27083.58
607.128	27445.61
607.485	27588.43
607.843	27741.64
608.2	28224.12
608.557	28418.01
608.914	28601.51
609.272	28867.72
609.629	29121.72
609.986	29451.43
610.343	29436.29
610.7	29866.56
611.057	29992.88
611.414	30293.44
611.771	30473.32
612.127	30634.45
612.484	30849.36
612.841	31127.54
613.198	31067.43
613.554	31305.62
613.911	31666.51
614.267	31788.77
614.624	31883.68
614.98	32016.33
615.337	32357.12
615.693	32536.55
616.05	32576.54
616.406	32882.53
616.762	33011.34
617.118	33065.35
617.475	33186.47
617.831	33320.03
618.187	33644.31
618.543	33628.49
618.899	34051.08
619.255	34041.82
619.611	34087.01
619.967	34366.78
620.323	34453.33
620.678	34644.29
621.034	34456.95
621.39	34556.15
621.746	34643.38
622.101	35123.14
622.457	35027.78
622.812	35181
623.168	35370.6
623.523	35474.1
623.879	35578.5
624.234	35390.48
624.589	35714.09
624.945	35697.37
625.3	35855.55
625.655	35820.08
626.01	36051.48
626.365	36273.4
626.72	36072.5
627.075	36174.19
627.43	36252.83
627.785	36192.72
628.14	36444.92
628.495	36485.37
628.85	36500.06
629.205	36516.78
629.559	36629.09
629.914	36561.3
630.269	36698.92
630.623	36635.19
630.978	36628.87
631.332	36727.85
631.687	36804.23
632.041	36759.26
632.396	36825.7
632.75	36867.73
633.104	36832.48
633.459	36787.96
633.813	36809.65
634.167	36768.98
634.521	36854.4
634.875	37021.17
635.229	36826.38
635.583	36779.6
635.937	36772.37
636.291	36774.85
636.645	36919.71
636.999	36871.8
637.352	36979.37
637.706	36857.11
638.06	36945.47
638.413	36952.93
638.767	36952.47
639.121	36922.87
639.474	36681.97
639.828	36790.22
640.181	36794.29
640.534	36858.01
640.888	36863.21
641.241	36680.39
641.594	36776.66
641.947	36901.85
642.301	36782.31
642.654	36899.82
643.007	36703.67
643.36	36681.75
643.713	36706.61
644.066	36921.52
644.419	36695.53
644.771	36444.69
645.124	36161.08
645.477	36088.77
645.83	35925.38
646.182	35797.7
646.535	35680.87
646.888	35763.58
647.24	35695.11
647.593	35905.5
647.945	35699.63
648.298	35551.38
648.65	35725.39
649.002	35441.33
649.355	35555.68
649.707	35478.62
650.059	35811.71
650.411	36112.27
650.763	36101.42
651.115	36599.04
651.467	36418.7
651.819	36542.32
652.171	36337.8
652.523	36322.89
652.875	36359.5
653.227	36128.09
653.578	36430.23
653.93	36328.54
654.282	36261.42
654.633	36093.97
654.985	36165.83
655.337	36192.95
655.688	36284.02
656.039	36330.34
656.391	36042.22
656.742	36133.06
657.094	36295.32
657.445	36310.46
657.796	36207.64
658.147	36049
658.498	36067.3
658.849	36173.96
659.2	36310.91
659.551	36149.78
659.902	36164.47
660.253	36117.02
660.604	36292.15
660.955	35891.03
661.306	36144.81
661.656	35979.39
662.007	36058.26
662.358	35957.02
662.708	36074.08
663.059	35971.26
663.409	35768.78
663.76	36133.29
664.11	35985.27
664.461	35999.96
664.811	35950.02
665.161	35962.67
665.511	35922.22
665.862	35916.8
666.212	36055.55
666.562	36025.49
666.912	35980.75
667.262	35850.13
667.612	35892.39
667.962	35997.25
668.312	35935.33
668.662	36045.15
669.011	36011.03
669.361	35906.85
669.711	35856.23
670.06	35783.24
670.41	35812.62
670.76	35845.16
671.109	35942.78
671.459	35856.68
671.808	35758.61
672.157	35934.65
672.507	35531.04
672.856	35637.48
673.205	35731.04
673.554	35692.39
673.904	35789.12
674.253	35758.83
674.602	35831.15
674.951	35295.12
675.3	35038.4
675.649	35621.89
675.998	35644.94
676.346	35584.15
676.695	35786.4
677.044	35380.31
677.393	35580.99
677.741	35533.98
678.09	35474.1
678.438	35428.45
678.787	35552.51
679.135	35447.88
679.484	35239.53
679.832	35312.07
680.181	35279.3
680.529	35417.37
680.877	35187.1
681.225	35154.78
681.573	35489.01
681.922	35164.95
682.27	35094.67
682.618	35077.04
682.966	34960.44
683.314	35066.2
683.661	34919.31
684.009	34734.68
684.357	34675.7
684.705	34634.34
685.053	34705.98
685.4	34545.31
685.748	34440.9
686.095	34519.54
686.443	34400.9
686.79	34296.05
687.138	34365.65
687.485	34352.54
687.832	34169.95
688.18	34287.23
688.527	34169.27
688.874	33931.54
689.221	33942.84
689.568	33769.96
689.915	33797.98
690.262	33754.82
690.609	33640.92
690.956	33605.44
691.303	33617.65
691.65	33421.27
691.997	33328.39
692.344	33199.35
692.69	33239.58
693.037	33252.68
693.383	32927.5
693.73	33062.86
694.077	32816.09
694.423	32817.44
694.769	32672.36
695.116	32743.09
695.462	32561.86
695.808	32534.06
696.155	32564.34
696.501	32353.27
696.847	32396.89
697.193	32102.43
697.539	32184.69
697.885	31981.08
698.231	31913.06
698.577	31878.48
698.923	31899.5
699.269	31700.86
699.614	31594.2
699.96	31482.34
700.306	31562.11
700.651	31540.19
700.997	31376.58
701.342	31335.67
701.688	31244.83
702.033	31154.66
702.379	31202.8
702.724	31025.4
703.069	31071.5
703.415	30695.24
703.76	30676.03
704.105	30730.27
704.45	30682.36
704.795	30457.96
705.14	30481.46
705.485	30501.8
705.83	30213.89
706.175	30403.95
706.52	30195.59
706.865	30094.35
707.209	30051.19
707.554	30001.92
707.899	30001.02
708.243	29913.11
708.588	29750.63
708.932	29637.19
709.277	29729.16
709.621	29735.72
709.966	29459.11
710.31	29528.04
710.654	29210.98
710.998	29352.9
711.342	29229.51
711.687	29206.92
712.031	29078.33
712.375	29003.31
712.719	29077.88
713.063	28968.96
713.407	29055.06
713.75	28880.82
714.094	28806.25
714.438	28676.08
714.782	28698.23
715.125	28692.35
715.469	28597.44
715.812	28553.6
716.156	28411.91
716.499	28398.35
716.843	28457.56
717.186	28319.26
717.53	28412.81
717.873	28391.57
718.216	28285.81
718.559	28182.76
718.902	27963.33
719.246	28077.91
719.589	27964.24
719.932	27859.83
720.275	27827.74
720.617	27832.04
720.96	27806.05
721.303	27807.63
721.646	27725.82
721.989	27646.96
722.331	27581.65
722.674	27616.45
723.016	27595.66
723.359	27526.51
723.701	27441.76
724.044	27352.28
724.386	27267.31
724.729	27247.65
725.071	27281.99
725.413	27259.85
725.755	27192.96
726.097	27049.68
726.439	27006.07
726.782	26986.41
727.124	27110.93
727.465	26928.56
727.807	26981.66
728.149	26841.55
728.491	26689.47
728.833	26859.18
729.175	26728.79
729.516	26719.75
729.858	26571.05
730.199	26710.71
730.541	26573.54
730.882	26605.85
731.224	26651.73
731.565	26484.5
731.906	26497.16
732.248	26604.27
732.589	26457.38
732.93	26193.89
733.271	26321.57
733.612	26315.69
733.953	26320.44
734.294	26090.61
734.635	26119.77
734.976	26143.27
735.317	26056.94
735.658	26017.85
735.999	25989.37
736.339	26002.48
736.68	26029.82
737.021	25959.54
737.361	25792.99
737.702	25913.89
738.042	25808.81
738.383	25837.06
738.723	25846.78
739.063	25676.61
739.404	25744.63
739.744	25574.92
740.084	25524.3
740.424	25601.59
740.764	25637.07
741.104	25501.02
741.444	25339.45
741.784	25473.23
742.124	25361.82
742.464	25276.17
742.804	25321.14
743.143	25269.62
743.483	25289.5
743.823	25197.3
744.162	25218.09
744.502	25167.7
744.841	25055.39
745.181	25059.91
745.52	24980.36
745.86	24975.39
746.199	24884.09
746.538	24819.91
746.877	24904.43
747.216	24991.21
747.556	24788.95
747.895	24870.08
748.234	24645.91
748.573	24729.97
748.911	24648.39
749.25	24746.69
749.589	24567.49
749.928	24624.89
750.267	24630.54
750.605	24529.98
750.944	24491.79
751.283	24336.54
751.621	24528.62
751.96	24277.1
752.298	24255.18
752.636	24276.88
752.975	24125.69
753.313	24108.74
753.651	24185.13
753.989	24067.16
754.327	24066.26
754.666	23791.46
755.004	23997.79
755.342	23846.15
755.679	23754.86
756.017	23685.48
756.355	23771.8
756.693	23684.8
757.031	23668.3
757.368	23532.04
757.706	23537.91
758.044	23428.54
758.381	23422.89
758.719	23351.93
759.056	23294.3
759.394	23301.99
759.731	23175.89
760.068	23126.17
760.405	23074.2
760.743	22947.65
761.08	23088.21
761.417	22817.25
761.754	22869
762.091	22711.72
762.428	22793.3
762.765	22539.52
763.102	22652.51
763.438	22505.17
763.775	22366.64
764.112	22337.94
764.449	22425.17
764.785	22332.75
765.122	22188.8
765.458	22087.33
765.795	22045.3
766.131	22038.52
766.467	21884.62
766.804	21745.19
767.14	21718.98
767.476	21648.7
767.812	21540.68
768.148	21675.36
768.485	21473.33
768.821	21518.3
769.157	21359.89
769.492	21312.43
769.828	21281.7
770.164	21124.42
770.5	21086
770.836	21079.9
771.171	20970.52
771.507	20878.55
771.842	20718.55
772.178	20811.66
772.513	20696.4
772.849	20646.01
773.184	20404.44
773.519	20537.09
773.855	20294.83
774.19	20350.2
774.525	20240.82
774.86	20168.96
775.195	20121.28
775.53	20145.23
775.865	19898.23
776.2	19797.22
776.535	19735.53
776.87	19731.91
777.205	19664.34
777.539	19593.61
777.874	19539.37
778.209	19351.13
778.543	19403.11
778.878	19276.78
779.212	19283.33
779.547	19056.9
779.881	19186.84
780.215	18993.62
780.55	19004.7
780.884	18882.44
781.218	18862.33
781.552	18919.73
781.886	18779.39
782.22	18650.58
782.554	18673.63
782.888	18386.18
783.222	18329.91
783.556	18280.2
783.889	18271.38
784.223	18109.81
784.557	18121.11
784.89	18090.82
785.224	18050.6
785.557	17929.92
785.891	17927.89
786.224	17908.68
786.558	17779.42
786.891	17570.61
787.224	17597.73
787.557	17604.06
787.891	17549.14
788.224	17433.89
788.557	17481.8
788.89	17362.26
789.223	17432.76
789.556	17173.56
789.888	17210.62
790.221	17134.46
790.554	16898.76
790.887	17019.89
791.219	16889.05
791.552	16882.27
791.884	16815.38
792.217	16804.76
792.549	16592.11
792.882	16527.48
793.214	16489.28
793.546	16624.65
793.879	16400.02
794.211	16264.21
794.543	16362.51
794.875	16332.23
795.207	16324.32
795.539	16334.26
795.871	16173.36
796.203	16093.81
796.535	16018.34
796.867	15965.23
797.198	15933.82
797.53	15917.32
797.862	15829.19
798.193	15966.59
798.525	15737.89
798.856	15747.61
799.188	15592.13
799.519	15553.26
799.85	15505.58
800.182	15452.25
800.513	15493.83
800.844	15243.89
801.175	15394.4
801.506	15352.82
801.837	15242.99
802.168	15210.9
802.499	15177.91
802.83	15133.84
803.161	15064.69
803.491	15010.68
803.822	15045.93
804.153	14926.84
804.483	14791.93
804.814	14727.07
805.145	14784.24
805.475	14673.29
805.805	14696.11
806.136	14654.3
806.466	14684.13
806.796	14644.36
807.126	14475.33
807.457	14534.08
807.787	14445.5
808.117	14318.27
808.447	14341.32
808.777	14337.7
809.107	14297.48
809.436	14240.08
809.766	14307.42
810.096	14193.3
810.426	14224.94
810.755	14183.13
811.085	14088.44
811.414	14035.34
811.744	14031.72
812.073	13918.05
812.403	13853.42
812.732	13846.19
813.061	13868.79
813.39	13780.65
813.719	13709.02
814.049	13773.88
814.378	13699.98
814.707	13686.42
815.036	13605.07
815.365	13558.74
815.693	13469.7
816.022	13513.99
816.351	13413.88
816.68	13304.96
817.008	13413.88
817.337	13229.26
817.665	13306.09
817.994	13240.33
818.322	13239.43
818.651	13180.44
818.979	13172.53
819.307	13153.1
819.636	13175.02
819.964	13069.71
820.292	13094.8
820.62	13078.07
820.948	13115.36
821.276	13088.92
821.604	13034.91
821.932	13013.9
822.259	13026.32
822.587	13024.06
822.915	12918.76
823.243	12948.13
823.57	13034.91
823.898	12978.42
824.225	12977.06
824.553	12990.62
824.88	12978.42
825.207	13062.71
825.535	12939.55
825.862	12977.29
826.189	12917.63
826.516	13030.17
826.843	12997.62
827.17	13010.96
827.497	12955.14
827.824	13001.01
828.151	12984.97
828.478	13035.14
828.805	12972.54
829.131	12975.25
829.458	12908.81
829.785	12864.29
830.111	12939.09
830.438	13015.25
830.764	12885.54
831.09	12947.91
831.417	12892.77
831.743	12958.3
832.069	12942.03
832.395	12855.93
832.722	12906.78
833.048	12847.35
833.374	12869.27
833.7	12783.17
834.026	12741.81
834.351	12812.54
834.677	12756.73
835.003	12775.94
835.329	12800.34
835.654	12738.65
835.98	12756.27
836.306	12726.22
836.631	12763.28
836.956	12772.32
837.282	12661.36
837.607	12698.65
837.932	12608.93
838.258	12635.37
838.583	12590.4
838.908	12429.96
839.233	12547.01
839.558	12556.73
839.883	12503.17
840.208	12406.23
840.533	12380.01
840.858	12451.42
841.182	12446.9
841.507	12345.66
841.832	12346.57
842.156	12323.97
842.481	12230.19
842.805	12304.31
843.13	12241.71
843.454	12237.42
843.778	12155.84
844.103	12165.78
844.427	12194.26
844.751	12069.29
845.075	12019.8
845.399	12066.35
845.723	12001.72
846.047	11950.87
846.371	11884.66
846.695	11850.31
847.019	11770.54
847.343	11733.25
847.666	11675.63
847.99	11622.97
848.313	11654.38
848.637	11587.94
848.96	11550.88
849.284	11481.28
849.607	11419.59
849.931	11368.51
850.254	11302.75
850.577	11243.09
850.9	11198.58
851.223	11211.46
851.546	11109.09
851.869	11106.83
852.192	11133.27
852.515	11000.84
852.838	10972.14
853.161	10951.35
853.483	10882.88
853.806	10850.79
854.129	10815.53
854.451	10799.72
854.774	10726.27
855.096	10620.96
855.419	10625.03
855.741	10657.35
856.063	10637.23
856.385	10539.84
856.708	10511.14
857.03	10480.4
857.352	10511.36
857.674	10417.58
857.996	10467.52
858.318	10386.17
858.64	10379.61
858.961	10373.51
859.283	10296.23
859.605	10256.23
859.926	10350.46
860.248	10145.95
860.57	10240.18
860.891	10203.8
861.212	10060.07
861.534	10048.1
861.855	10099.85
862.176	10082.67
862.498	10045.61
862.819	10022.11
863.14	10044.48
863.461	9972.85
863.782	9971.04
864.103	9977.59
864.424	9963.13
864.745	9905.73
865.065	9858.95
865.386	9912.06
865.707	9875.45
866.027	9864.6
866.348	9858.72
866.668	9825.73
866.989	9764.26
867.309	9749.57
867.63	9844.94
867.95	9748.22
868.27	9717.26
868.59	9762
868.91	9712.29
869.23	9691.5
869.55	9615.79
869.87	9740.76
870.19	9666.41
870.51	9642.68
870.83	9652.18
871.15	9626.41
871.469	9552.07
871.789	9583.7
872.109	9576.02
872.428	9515.23
872.748	9604.27
873.067	9546.19
873.386	9555.91
873.706	9510.71
874.025	9473.65
874.344	9385.29
874.663	9444.05
874.982	9508.22
875.301	9385.29
875.62	9393.88
875.939	9355.91
876.258	9355.69
876.577	9364.05
876.896	9297.83
877.214	9245.63
877.533	9293.99
877.852	9258.06
878.17	9256.93
878.489	9265.97
878.807	9203.15
879.125	9197.72
879.444	9233.43
879.762	9116.37
880.08	9163.6
880.398	9190.72
880.716	9130.16
881.034	9098.29
881.352	9074.34
881.67	9072.08
881.988	9093.77
882.306	9028.01
882.624	9036.15
882.941	9009.03
883.259	8980.78
883.577	8968.35
883.894	8940.1
884.212	8908.92
884.529	8895.13
884.846	8790.73
885.164	8908.24
885.481	8831.86
885.798	8828.02
886.115	8742.82
886.432	8720.67
886.75	8708.47
887.067	8765.65
887.383	8705.99
887.7	8703.27
888.017	8632.32
888.334	8616.04
888.651	8566.33
888.967	8597.74
889.284	8553.67
889.6	8531.98
889.917	8540.57
890.233	8492.66
890.55	8438.2
890.866	8501.7
891.182	8413.34
891.498	8407.01
891.815	8396.84
892.131	8345.77
892.447	8256.05
892.763	8313.23
893.079	8298.09
893.395	8243.4
893.71	8180.35
894.026	8153.23
894.342	8233.68
894.657	8101.26
894.973	8096.06
895.289	8088.83
895.604	8061.71
895.92	8018.55
896.235	8011.09
896.55	8047.25
896.865	7971.09
897.181	7927.48
897.496	7906.91
897.811	7880.02
898.126	7829.17
898.441	7796.41
898.756	7772.9
899.071	7774.94
899.386	7745.79
899.7	7770.64
900.015	7685
900.33	7635.51
900.644	7623.75
900.959	7668.27
901.273	7571.55
901.588	7571.33
901.902	7529.07
902.216	7451.78
902.531	7475.74
902.845	7437.77
903.159	7427.6
903.473	7399.58
903.787	7397.32
904.101	7300.6
904.415	7311.22
904.729	7256.08
905.042	7226.7
905.356	7250.66
905.67	7257.21
905.984	7169.53
906.297	7193.03
906.611	7130.21
906.924	7137.89
907.237	7127.95
907.551	7103.54
907.864	7014.5
908.177	7008.86
908.491	6967.5
908.804	6917.33
909.117	6890.67
909.43	6863.77
909.743	6870.78
910.056	6845.24
910.368	6797.34
910.681	6789.65
910.994	6728.41
911.307	6740.84
911.619	6669.43
911.932	6734.06
912.244	6612.71
912.557	6648.64
912.869	6568.64
913.181	6567.74
913.494	6526.38
913.806	6468.08
914.118	6468.53
914.43	6469.89
914.742	6447.29
915.054	6403.67
915.366	6435.54
915.678	6376.78
915.99	6348.53
916.302	6249.1
916.613	6312.15
916.925	6263.11
917.236	6257.46
917.548	6241.42
917.859	6166.39
918.171	6144.92
918.482	6092.95
918.794	6078.71
919.105	6111.7
919.416	6067.64
919.727	6032.38
920.038	6047.52
920.349	5961.2
920.66	5945.38
920.971	5972.95
921.282	5903.12
921.593	5880.07
921.903	5848.66
922.214	5843.46
922.525	5802.33
922.835	5819.06
923.146	5753.75
923.456	5717.36
923.767	5725.5
924.077	5685.95
924.387	5669.68
924.697	5579.06
925.008	5635.56
925.318	5538.61
925.628	5566.41
925.938	5549.46
926.248	5491.38
926.558	5518.27
926.867	5436.24
927.177	5487.09
927.487	5423.81
927.796	5354.89
928.106	5365.96
928.416	5345.17
928.725	5345.85
929.034	5326.41
929.344	5307.43
929.653	5281.9
929.962	5180.65
930.271	5215.23
930.581	5193.54
930.89	5189.02
931.199	5171.62
931.508	5093.2
931.817	5123.71
932.125	5101.33
932.434	5095.91
932.743	5012.52
933.051	5004.39
933.36	5019.76
933.669	4939.76
933.977	4947.44
934.286	4960.77
934.594	4939.08
934.902	4873.09
935.21	4858.63
935.519	4862.25
935.827	4824.96
936.135	4813.66
936.443	4763.94
936.751	4737.73
937.059	4732.53
937.367	4697.5
937.674	4726.88
937.982	4725.07
938.29	4638.97
938.597	4653.21
938.905	4608.47
939.213	4617.28
939.52	4627.22
939.827	4557.39
940.135	4511.29
940.442	4461.8
940.749	4538.19
941.056	4544.29
941.363	4463.84
941.67	4482.37
941.977	4429.71
942.284	4432.88
942.591	4387
942.898	4355.37
943.205	4401.47
943.511	4341.13
943.818	4327.34
944.125	4342.48
944.431	4300.9
944.738	4321.02
945.044	4225.2
945.35	4285.54
945.657	4191.98
945.963	4198.76
946.269	4197.63
946.575	4154.02
946.881	4189.04
947.187	4150.4
947.493	4088.71
947.799	4125.09
948.105	4089.61
948.41	4033.57
948.716	4068.82
949.022	4067.92
949.327	4038.31
949.633	3978.88
949.938	3962.16
950.244	3979.78
950.549	3937.98
950.854	3921.48
951.16	3915.38
951.465	3877.86
951.77	3895.72
952.075	3857.07
952.38	3855.49
952.685	3850.07
952.99	3801.26
953.294	3796.06
953.599	3756.06
953.904	3713.57
954.209	3728.94
954.513	3761.03
954.818	3731.2
955.122	3717.42
955.426	3697.3
955.731	3713.8
956.035	3663.86
956.339	3583.18
956.643	3637.42
956.948	3565.33
957.252	3553.13
957.556	3567.36
957.86	3569.4
958.163	3572.34
958.467	3565.1
958.771	3514.03
959.075	3490.3
959.378	3472.45
959.682	3479.91
959.985	3428.84
960.289	3439.91
960.592	3446.69
960.896	3395.39
961.199	3361.27
961.502	3345.9
961.805	3380.48
962.108	3324.21
962.411	3342.06
962.714	3302.29
963.017	3295.05
963.32	3326.01
963.623	3232.91
963.926	3278.78
964.228	3227.94
964.531	3206.24
964.833	3202.85
965.136	3236.07
965.438	3184.32
965.741	3164.44
966.043	3152.01
966.345	3141.84
966.648	3175.06
966.95	3127.15
967.252	3094.83
967.554	3113.14
967.856	3064.33
968.158	3064.33
968.46	3076.98
968.761	3039.92
969.063	3036.98
969.365	3006.47
969.666	3019.36
969.968	2970.09
970.269	2967.38
970.571	2957.66
970.872	2937.78
971.174	2960.83
971.475	2937.78
971.776	2905.69
972.077	2903.2
972.378	2868.63
972.679	2873.6
972.98	2887.16
973.281	2838.12
973.582	2834.28
973.883	2813.94
974.183	2813.03
974.484	2780.49
974.785	2800.15
975.085	2793.6
975.386	2806.25
975.686	2778.01
975.986	2746.59
976.287	2722.87
976.587	2694.62
976.887	2722.87
977.187	2712.92
977.487	2690.32
977.787	2665.01
978.087	2656.65
978.387	2644.9
978.687	2638.8
978.987	2634.51
979.286	2629.54
979.586	2606.71
979.885	2604
980.185	2572.14
980.484	2563.1
980.784	2550.22
981.083	2526.94
981.382	2544.34
981.682	2539.14
981.981	2545.02
982.28	2510.22
982.579	2525.13
982.878	2480.61
983.177	2451.69
983.475	2452.59
983.774	2456.43
984.073	2438.13
984.372	2450.56
984.67	2423.67
984.969	2429.54
985.267	2382.31
985.566	2390.9
985.864	2366.94
986.162	2385.47
986.461	2366.72
986.759	2358.36
987.057	2338.7
987.355	2288.3
987.653	2355.19
987.951	2296.66
988.249	2298.92
988.547	2302.76
988.844	2289.43
989.142	2273.39
989.44	2260.05
989.737	2244.23
990.035	2207.63
990.332	2239.26
990.63	2214.18
990.927	2207.63
991.224	2159.72
991.521	2174.86
991.819	2190.22
992.116	2113.16
992.413	2108.65
992.71	2145.48
993.006	2161.07
993.303	2131.47
993.6	2104.58
993.897	2125.82
994.193	2116.55
994.49	2106.16
994.787	2073.84
995.083	2065.03
995.379	2042.88
995.676	2066.16
995.972	2037.23
996.268	2026.61
996.565	2016.44
996.861	1993.62
997.157	2020.51
997.453	1978.71
997.749	1983.68
998.044	1949.78
998.34	1952.27
998.636	1924.47
998.932	1924.7
999.227	1947.52
999.523	1942.55
999.818	1895.32
1000.114	1899.39
1000.409	1900.06
1000.704	1893.28
1001	1887.63
1001.295	1845.83
1001.59	1879.27
1001.885	1877.01
1002.18	1825.49
1002.475	1823.91
1002.77	1809.22
1003.065	1821.87
1003.359	1794.98
1003.654	1779.61
1003.949	1784.13
1004.243	1758.6
1004.538	1746.62
1004.832	1738.03
1005.127	1755.43
1005.421	1733.06
1005.715	1718.15
1006.009	1712.5
1006.304	1717.47
1006.598	1695.55
1006.892	1684.48
1007.186	1678.37
1007.48	1646.06
1007.773	1645.15
1008.067	1641.54
1008.361	1658.04
1008.655	1635.21
1008.948	1615.1
1009.242	1624.36
1009.535	1617.58
1009.829	1587.3
1010.122	1580.3
1010.415	1599.28
1010.708	1559.06
1011.001	1577.81
1011.295	1543.91
1011.588	1566.96
1011.881	1548.89
1012.173	1508.66
1012.466	1487.42
1012.759	1515.21
1013.052	1499.62
1013.344	1486.06
1013.637	1482.22
1013.93	1479.06
1014.222	1460.75
1014.514	1446.52
1014.807	1446.06
1015.099	1423.69
1015.391	1445.16
1015.683	1446.97
1015.976	1420.98
1016.268	1430.7
1016.56	1399.06
1016.851	1385.05
1017.143	1403.13
1017.435	1381.88
1017.727	1367.42
1018.018	1357.03
1018.31	1365.39
1018.602	1360.42
1018.893	1328.33
1019.185	1323.13
1019.476	1310.25
1019.767	1309.34
1020.058	1299.85
1020.35	1291.04
1020.641	1273.19
1020.932	1297.14
1021.223	1286.75
1021.514	1278.16
1021.804	1230.7
1022.095	1227.99
1022.386	1246.52
1022.677	1220.31
1022.967	1227.54
1023.258	1227.31
1023.548	1226.18
1023.839	1191.83
1024.129	1206.3
1024.419	1188.22
1024.709	1179.86
1025	1145.05
1025.29	1156.35
1025.58	1173.98
1025.87	1139.86
1026.16	1138.95
1026.449	1145.05
1026.739	1116.13
1027.029	1124.94
1027.319	1138.95
1027.608	1096.24
1027.898	1105.06
1028.187	1111.38
1028.477	1087.43
1028.766	1079.75
1029.055	1091.95
1029.344	1083.81
1029.634	1072.29
1029.923	1058.96
1030.212	1051.72
1030.501	1033.42
1030.79	1072.51
1031.078	1042.01
1031.367	1017.15
1031.656	1004.49
1031.945	1002.01
1032.233	990.03
1032.522	978.28
1032.81	992.97
1033.099	1002.23
1033.387	990.26
1033.675	985.96
1033.963	962.23
1034.251	962.69
1034.54	953.2
1034.828	943.03
1035.116	945.51
1035.403	950.03
1035.691	931.5
1035.979	935.34
1036.267	931.5
1036.554	926.53
1036.842	910.26
1037.129	897.15
1037.417	872.52
1037.704	893.99
1037.992	896.47
1038.279	864.38
1038.566	892.18
1038.853	892.18
1039.14	892.18
