Data from hue_310_FLMS001491_73.txt Node
Date: Mon Feb 06 15:50:08 GMT 2017
User: dcchb
Spectrometer: FLMS00149
Trigger mode: 0
Integration Time (sec): 2.000000E-2
Scans to average: 10
Electric dark correction enabled: true
Nonlinearity correction enabled: false
Boxcar width: 0
XAxis mode: Wavelengths
Number of Pixels in Spectrum: 2048
>>>>>Begin Spectral Data<<<<<
341.393	-20.85
341.776	-20.85
342.16	-20.85
342.543	-60.85
342.927	-76.21
343.31	-77.12
343.693	-67.4
344.077	-61.75
344.46	-75.99
344.843	-61.07
345.226	-51.81
345.61	-31.69
345.993	-8.87
346.376	5.59
346.759	1.98
347.142	27.51
347.525	49.89
347.908	72.71
348.291	67.29
348.674	91.47
349.057	119.26
349.44	111.13
349.823	146.61
350.206	171.92
350.588	185.02
350.971	178.02
351.354	203.78
351.737	248.07
352.119	252.59
352.502	266.38
352.884	267.06
353.267	284.91
353.65	304.34
354.032	268.64
354.414	302.76
354.797	297.11
355.179	314.06
355.562	319.03
355.944	342.31
356.326	333.04
356.709	325.58
357.091	361.29
357.473	357.67
357.855	356.77
358.238	336.43
358.62	320.84
359.002	337.56
359.384	333.49
359.766	337.56
360.148	352.48
360.53	345.47
360.912	344.79
361.294	323.32
361.676	340.27
362.057	329.2
362.439	363.78
362.821	340.27
363.203	335.53
363.584	317.68
363.966	326.49
364.348	325.58
364.729	317.9
365.111	338.01
365.493	300.73
365.874	305.92
366.256	326.04
366.637	320.16
367.019	317.68
367.4	334.4
367.781	317.68
368.163	314.74
368.544	313.38
368.925	316.77
369.306	318.35
369.688	313.61
370.069	311.8
370.45	304.57
370.831	290.11
371.212	307.96
371.593	336.43
371.974	317.9
372.355	302.76
372.736	326.04
373.117	296.88
373.498	312.7
373.879	314.74
374.26	307.28
374.641	335.3
375.021	334.17
375.402	329.2
375.783	313.61
376.163	322.65
376.544	314.51
376.925	314.96
377.305	332.82
377.686	320.61
378.066	323.1
378.447	351.35
378.827	330.78
379.208	307.96
379.588	335.75
379.968	349.31
380.349	345.7
380.729	324.45
381.109	327.84
381.489	343.44
381.87	330.56
382.25	331.46
382.63	340.95
383.01	345.92
383.39	351.8
383.77	359.71
384.15	337.34
384.53	339.37
384.91	343.44
385.29	348.18
385.67	341.18
386.049	362.87
386.429	348.63
386.809	347.28
387.189	338.01
387.568	349.76
387.948	337.11
388.328	361.29
388.707	347.5
389.087	348.18
389.466	372.82
389.846	368.07
390.225	357.45
390.605	380.27
390.984	367.84
391.363	375.3
391.743	376.2
392.122	379.14
392.501	375.3
392.881	363.32
393.26	377.56
393.639	380.27
394.018	374.4
394.397	364.45
394.776	398.8
395.155	387.73
395.534	383.44
395.913	393.61
396.292	376.43
396.671	390.89
397.05	401.51
397.429	388.18
397.808	405.81
398.186	397.22
398.565	405.36
398.944	383.21
399.323	410.33
399.701	406.71
400.08	389.31
400.458	416.88
400.837	447.16
401.215	445.58
401.594	417.56
401.972	412.36
402.351	403.55
402.729	449.42
403.107	429.08
403.486	414.85
403.864	447.16
404.242	436.09
404.62	447.16
404.999	425.7
405.377	447.84
405.755	440.84
406.133	439.93
406.511	418.46
406.889	474.73
407.267	474.28
407.645	469.76
408.023	480.16
408.401	474.06
408.779	467.73
409.156	509.31
409.534	495.3
409.912	483.09
410.29	500.5
410.667	518.57
411.045	533.26
411.422	513.15
411.8	533.49
412.178	542.98
412.555	550.89
412.933	544.11
413.31	575.75
413.687	578.23
414.065	592.24
414.442	568.52
414.819	597.22
415.197	585.46
415.574	595.41
415.951	616.42
416.328	619.81
416.705	628.18
417.082	620.49
417.46	635.41
417.837	645.12
418.214	648.29
418.591	664.33
418.967	658.91
419.344	670.89
419.721	675.86
420.098	686.25
420.475	710.89
420.852	710.89
421.228	725.8
421.605	708.17
421.982	743.43
422.358	745.23
422.735	761.73
423.111	764.44
423.488	756.76
423.864	755.18
424.241	801.28
424.617	791.11
424.994	789.53
425.37	789.75
425.746	805.35
426.123	829.75
426.499	825.23
426.875	828.17
427.251	831.56
427.627	871.11
428.003	870.88
428.379	876.3
428.756	883.08
429.132	877.66
429.507	890.32
429.883	901.39
430.259	938.45
430.635	937.09
431.011	976.19
431.387	968.96
431.763	993.82
432.138	968.51
432.514	1003.31
432.89	1013.93
433.265	1004.89
433.641	1007.83
434.016	1053.93
434.392	1057.77
434.767	1090.99
435.143	1079.69
435.518	1086.24
435.894	1084.66
436.269	1103.64
436.644	1134.6
437.02	1119.01
437.395	1140.03
437.77	1145.9
438.145	1143.42
438.52	1196.75
438.895	1170.99
439.271	1181.83
439.646	1216.18
440.021	1208.95
440.395	1208.27
440.77	1202.85
441.145	1220.25
441.52	1235.62
441.895	1243.53
442.27	1248.27
442.645	1240.81
443.019	1257.99
443.394	1248.05
443.769	1281.04
444.143	1250.31
444.518	1260.25
444.892	1257.54
445.267	1304.54
445.641	1304.77
446.016	1306.35
446.39	1319.46
446.764	1330.08
447.139	1321.04
447.513	1347.03
447.887	1328.95
448.262	1333.92
448.636	1333.69
449.01	1322.85
449.384	1339.34
449.758	1363.98
450.132	1368.27
450.506	1390.87
450.88	1394.26
451.254	1404.43
451.628	1386.12
452.002	1441.49
452.376	1413.01
452.75	1415.27
453.123	1426.12
453.497	1453.24
453.871	1438.1
454.244	1459.11
454.618	1446.46
454.992	1477.19
455.365	1456.18
455.739	1518.32
456.112	1533.91
456.486	1530.3
456.859	1535.27
457.232	1562.84
457.606	1580.69
457.979	1577.08
458.352	1592.22
458.725	1577.08
459.099	1630.41
459.472	1617.75
459.845	1641.93
460.218	1631.99
460.591	1655.72
460.964	1666.79
461.337	1706.79
461.71	1695.49
462.083	1711.54
462.456	1708.15
462.829	1709.96
463.201	1758.54
463.574	1762.61
463.947	1764.19
464.32	1787.92
464.692	1820.23
465.065	1815.94
465.438	1804.87
465.81	1844.87
466.183	1858.43
466.555	1889.84
466.928	1884.87
467.3	1896.16
467.672	1909.95
468.045	1926.67
468.417	1929.84
468.789	1942.72
469.161	1968.48
469.534	2014.35
469.906	2059.78
470.278	2037.18
470.65	2028.59
471.022	2089.61
471.394	2105.42
471.766	2099.78
472.138	2140.68
472.51	2165.08
472.882	2197.4
473.253	2179.32
473.625	2266.55
473.997	2221.81
474.369	2239.21
474.74	2262.71
475.112	2284.18
475.484	2347
475.855	2350.62
476.227	2354.68
476.598	2421.57
476.97	2449.14
477.341	2477.62
477.713	2499.54
478.084	2487.34
478.455	2589.93
478.827	2547.22
479.198	2598.97
479.569	2646.88
479.94	2664.28
480.311	2688.46
480.682	2730.95
481.053	2803.71
481.424	2835.12
481.795	2801.68
482.166	2850.26
482.537	2908.79
482.908	2935.91
483.279	2921.67
483.65	2967.1
484.021	3026.76
484.391	3036.02
484.762	3075.79
485.133	3076.25
485.503	3100.2
485.874	3193.98
486.244	3199.86
486.615	3244.6
486.985	3267.65
487.356	3302.23
487.726	3306.75
488.097	3337.03
488.467	3333.42
488.837	3419.74
489.207	3459.29
489.578	3478.72
489.948	3513.98
490.318	3556.69
490.688	3563.92
491.058	3610.02
491.428	3714.42
491.798	3643.92
492.168	3726.17
492.538	3765.49
492.908	3787.87
493.278	3781.09
493.648	3799.84
494.017	3824.02
494.387	3882.78
494.757	3862.44
495.126	3920.52
495.496	3951.48
495.866	3969.1
496.235	3963.68
496.605	3974.3
496.974	4026.73
497.344	4083.9
497.713	4064.02
498.082	4059.5
498.452	4144.92
498.821	4122.32
499.19	4148.08
499.559	4179.49
499.928	4193.96
500.298	4205.71
500.667	4268.08
501.036	4218.59
501.405	4216.78
501.774	4294.29
502.143	4288.42
502.512	4280.28
502.88	4374.07
503.249	4364.57
503.618	4369.77
503.987	4365.25
504.356	4329.32
504.724	4444.57
505.093	4410.67
505.462	4449.32
505.83	4434.63
506.199	4456.78
506.567	4496.77
506.936	4506.27
507.304	4531.58
507.672	4535.42
508.041	4515.08
508.409	4598.24
508.777	4645.47
509.145	4611.8
509.514	4615.42
509.882	4618.35
510.25	4653.38
510.618	4648.41
510.986	4747.84
511.354	4735.64
511.722	4772.93
512.09	4760.04
512.458	4766.6
512.826	4815.18
513.193	4792.13
513.561	4789.42
513.929	4832.13
514.297	4849.76
514.664	4880.04
515.032	4904.22
515.4	4939.47
515.767	4897.89
516.135	4930.89
516.502	4881.17
516.869	4994.61
517.237	4979.02
517.604	4953.26
517.972	5059.02
518.339	5020.6
518.706	5051.34
519.073	5032.58
519.44	5039.13
519.808	5117.1
520.175	5110.09
520.542	5122.97
520.909	5145.57
521.276	5140.83
521.643	5162.29
522.009	5216.53
522.376	5249.07
522.743	5277.09
523.11	5300.6
523.477	5331.78
523.843	5350.31
524.21	5369.97
524.577	5389.86
524.943	5423.76
525.31	5400.48
525.676	5441.61
526.043	5478.67
526.409	5506.47
526.776	5519.57
527.142	5605.67
527.508	5602.73
527.874	5640.47
528.241	5648.16
528.607	5662.62
528.973	5699.45
529.339	5708.49
529.705	5736.06
530.071	5820.58
530.437	5848.83
530.803	5854.03
531.169	5875.72
531.535	5868.49
531.901	5925.89
532.267	5903.52
532.632	5999.33
532.998	5979.45
533.364	6014.25
533.73	6044.98
534.095	6057.64
534.461	6078.88
534.826	6133.57
535.192	6117.97
535.557	6212.89
535.923	6196.39
536.288	6244.07
536.653	6218.99
537.019	6234.81
537.384	6288.59
537.749	6349.61
538.114	6309.61
538.479	6306.67
538.845	6404.07
539.21	6338.08
539.575	6406.55
539.94	6388.25
540.305	6422.37
540.67	6486.55
541.034	6509.6
541.399	6516.61
541.764	6640.9
542.129	6633.67
542.494	6623.27
542.858	6649.94
543.223	6708.92
543.587	6751.4
543.952	6672.54
544.316	6781.46
544.681	6723.38
545.045	6804.51
545.41	6878.41
545.774	6832.98
546.138	6863.94
546.503	6881.8
546.867	6863.94
547.231	6989.36
547.595	6996.14
547.959	6938.74
548.324	7037.5
548.688	7044.5
549.052	7094.45
549.416	7097.16
549.779	7116.14
550.143	7143.71
550.507	7161.11
550.871	7204.05
551.235	7173.09
551.599	7179.42
551.962	7285.85
552.326	7360.2
552.689	7282.24
553.053	7297.15
553.417	7268
553.78	7421.22
554.143	7399.07
554.507	7413.99
554.87	7438.84
555.234	7493.98
555.597	7455.34
555.96	7453.76
556.323	7492.63
556.686	7596.35
557.05	7635.45
557.413	7651.49
557.776	7604.72
558.139	7690.36
558.502	7643.58
558.865	7651.72
559.228	7740.98
559.59	7798.61
559.953	7751.83
560.316	7838.61
560.679	7868.66
561.041	7883.8
561.404	7876.57
561.767	7970.36
562.129	7954.99
562.492	8018.49
562.854	8074.08
563.217	8023.46
563.579	8030.01
563.941	8031.6
564.304	8130.13
564.666	8153.18
565.028	8162.67
565.39	8161.08
565.753	8269.1
566.115	8221.2
566.477	8269.56
566.839	8307.3
567.201	8347.52
567.563	8303.23
567.925	8452.6
568.287	8377.35
568.648	8426.61
569.01	8472.26
569.372	8456.44
569.734	8510.68
570.095	8605.82
570.457	8602.88
570.819	8665.48
571.18	8645.59
571.542	8792.03
571.903	8812.14
572.265	8777.79
572.626	8834.97
572.987	8888.52
573.349	8900.5
573.71	9051.91
574.071	9038.8
574.432	9080.16
574.794	9245.35
575.155	9182.53
575.516	9280.6
575.877	9349.75
576.238	9382.52
576.599	9426.36
576.96	9546.81
577.32	9598.56
577.681	9679.01
578.042	9780.03
578.403	9829.52
578.763	9862.28
579.124	10035.61
579.485	10130.3
579.845	10282.61
580.206	10434.92
580.566	10480.8
580.927	10593.34
581.287	10748.14
581.648	10888.02
582.008	10966.89
582.368	11100.22
582.728	11322.36
583.089	11476.48
583.449	11561.22
583.809	11692.07
584.169	11906.52
584.529	12166.86
584.889	12338.38
585.249	12544.47
585.609	12608.2
585.969	12931.35
586.329	13019.49
586.688	13320.72
587.048	13588.29
587.408	13718
587.768	13946.92
588.127	14181.27
588.487	14370.19
588.846	14770.63
589.206	14958.42
589.565	15164.52
589.925	15445.41
590.284	15723.15
590.643	16065.28
591.003	16326.75
591.362	16599.96
591.721	16916.79
592.08	17195.42
592.44	17440.16
592.799	17824.79
593.158	18088.96
593.517	18432
593.876	18666.8
594.235	18842.61
594.593	19230.62
594.952	19527.11
595.311	19846.2
595.67	20108.79
596.029	20528.9
596.387	20791.04
596.746	21060.18
597.104	21387.86
597.463	21643.67
597.822	21976.54
598.18	22263.54
598.538	22568.62
598.897	22932.45
599.255	23054.48
599.613	23633.9
599.972	23791.63
600.33	24100.78
600.688	24306.88
601.046	24693.31
601.404	25004.03
601.762	25403.8
602.12	25660.29
602.478	26079.94
602.836	26231.57
603.194	26411.9
603.552	26755.62
603.91	26880.14
604.268	27252.11
604.625	27451.2
604.983	27682.83
605.341	27857.74
605.698	28298.41
606.056	28648.68
606.413	28808.68
606.771	29169.12
607.128	29400.53
607.485	29435.33
607.843	29700.18
608.2	30099.27
608.557	30387.62
608.914	30361.41
609.272	30696.09
609.629	31008.17
609.986	31322.51
610.343	31410.19
610.7	31675.04
611.057	31981.7
611.414	32041.81
611.771	32341.92
612.127	32650.16
612.484	32772.19
612.841	33020.77
613.198	32984.61
613.554	33243.36
613.911	33617.82
614.267	33783.24
614.624	33852.16
614.98	34084.47
615.337	34321.75
615.693	34460.73
616.05	34542.54
616.406	34802.87
616.762	34760.84
617.118	35036.31
617.475	35151.34
617.831	35310.2
618.187	35452.34
618.543	35694.37
618.899	35839
619.255	35931.65
619.611	36057.3
619.967	36326.45
620.323	36482.83
620.678	36442.6
621.034	36401.47
621.39	36559.43
621.746	36728.7
622.101	37160.32
622.457	36972.3
622.812	37038.52
623.168	37380.66
623.523	37386.53
623.879	37512.63
624.234	37394.67
624.589	37735.67
624.945	37789.23
625.3	37978.83
625.655	37843.92
626.01	37934.31
626.365	38109.68
626.72	38113.97
627.075	38159.39
627.43	38313.29
627.785	38215.89
628.14	38536.78
628.495	38465.82
628.85	38442.55
629.205	38511.47
629.559	38653.16
629.914	38530.68
630.269	38793.05
630.623	38591.92
630.978	38551.25
631.332	38864.91
631.687	38772.94
632.041	38615.65
632.396	38866.72
632.75	38790.56
633.104	38792.14
633.459	38644.8
633.813	38744.01
634.167	38792.14
634.521	38786.72
634.875	39007.96
635.229	38940.84
635.583	38839.6
635.937	38763.9
636.291	38843.22
636.645	38928.64
636.999	38710.11
637.352	38954.4
637.706	38734.52
638.06	38958.24
638.413	38789.43
638.767	38717.57
639.121	38935.19
639.474	38675.54
639.828	38878.47
640.181	38877.34
640.534	38894.97
640.888	38744.24
641.241	38770.68
641.594	38659.94
641.947	38824.01
642.301	38723.67
642.654	38919.37
643.007	38736.33
643.36	38787.85
643.713	38695.2
644.066	38856.1
644.419	38630.57
644.771	38424.92
645.124	38066.97
645.477	38110.13
645.83	37834.2
646.182	37714.43
646.535	37624.26
646.888	37709.01
647.24	37449.58
647.593	37764.6
647.945	37487.09
648.298	37545.17
648.65	37358.74
649.002	37326.19
649.355	37551.27
649.707	37463.37
650.059	37502.01
650.411	38124.82
650.763	38031.26
651.115	38438.03
651.467	38371.59
651.819	38350.35
652.171	38258.15
652.523	38273.97
652.875	38157.81
653.227	38143.12
653.578	38389.67
653.93	38235.1
654.282	38027.19
654.633	38026.74
654.985	38089.56
655.337	38043.69
655.688	38147.42
656.039	38262.89
656.391	37884.82
656.742	38000.98
657.094	38051.82
657.445	38196
657.796	38128.88
658.147	38044.82
658.498	38069.9
658.849	38044.82
659.2	37905.61
659.551	37931.83
659.902	38146.51
660.253	38125.27
660.604	37895.22
660.955	37766.63
661.306	37929.12
661.656	37889.79
662.007	37737.71
662.358	37986.97
662.708	37895.67
663.059	37973.18
663.409	37699.52
663.76	37959.17
664.11	37918.49
664.461	37921.43
664.811	37936.8
665.161	37906.74
665.511	37779.97
665.862	37850.7
666.212	37894.77
666.562	38011.37
666.912	37862.22
667.262	37663.13
667.612	37719.86
667.962	37803.92
668.312	37714.43
668.662	37916.23
669.011	37874.43
669.361	37771.83
669.711	37719.86
670.06	37774.54
670.41	37654.77
670.76	37812.06
671.109	37798.95
671.459	37663.13
671.808	37495.23
672.157	37647.99
672.507	37449.35
672.856	37500.65
673.205	37517.83
673.554	37712.85
673.904	37507.21
674.253	37715.79
674.602	37443.48
674.951	36928.24
675.3	36897.28
675.649	37422.46
675.998	37534.32
676.346	37374.78
676.695	37524.15
677.044	37285.06
677.393	37287.55
677.741	37405.29
678.09	37371.39
678.438	37276.93
678.787	37342.92
679.135	37294.33
679.484	37140.44
679.832	37224.95
680.181	37036.94
680.529	36997.61
680.877	37031.51
681.225	37048.69
681.573	37225.18
681.922	36888.24
682.27	36858.86
682.618	36849.82
682.966	36762.59
683.314	36817.05
683.661	36732.31
684.009	36605.99
684.357	36536.61
684.705	36569.38
685.053	36453
685.4	36382.04
685.748	36266.33
686.095	36352.43
686.443	36231.08
686.79	36112.89
687.138	36189.05
687.485	36091.88
687.832	36029.73
688.18	35946.79
688.527	35822.5
688.874	35900.24
689.221	35675.84
689.568	35790.41
689.915	35629.06
690.262	35523.98
690.609	35504.32
690.956	35328.28
691.303	35388.62
691.65	35270.88
691.997	35198.11
692.344	35009.64
692.69	34891.68
693.037	34909.08
693.383	34716.77
693.73	34805.81
694.077	34578.7
694.423	34496.21
694.769	34459.15
695.116	34481.07
695.462	34492.37
695.808	34235.65
696.155	34338.7
696.501	34136
696.847	34087.63
697.193	33819.85
697.539	34031.37
697.885	33815.33
698.231	33695.1
698.577	33594.09
698.923	33625.27
699.269	33432.28
699.614	33305.51
699.96	33264.15
700.306	33265.28
700.651	33211.27
700.997	32939.42
701.342	32951.17
701.688	32826.43
702.033	32765.86
702.379	32909.13
702.724	32672.3
703.069	32776.03
703.415	32497.62
703.76	32405.65
704.105	32471.41
704.45	32370.62
704.795	32204.52
705.14	32236.84
705.485	32060.12
705.83	31975.83
706.175	32087.24
706.52	31840.46
706.865	31748.71
707.209	31678.21
707.554	31648.15
707.899	31764.08
708.243	31637.08
708.588	31522.28
708.932	31370.19
709.277	31234.38
709.621	31315.96
709.966	31048.84
710.31	31222.4
710.654	30905.8
710.998	30983.99
711.342	31033.03
711.687	30783.99
712.031	30724.79
712.375	30718.46
712.719	30666.93
713.063	30654.28
713.407	30760.04
713.75	30480.72
714.094	30433.72
714.438	30356.66
714.782	30420.16
715.125	30153.73
715.469	30251.13
715.812	30054.07
716.156	29932.72
716.499	29917.8
716.843	30061.75
717.186	29821.08
717.53	29948.31
717.873	29951.25
718.216	29803.45
718.559	29759.16
718.902	29560.52
719.246	29633.97
719.589	29598.26
719.932	29359.4
720.275	29310.59
720.617	29405.5
720.96	29280.3
721.303	29205.73
721.646	29245.5
721.989	29178.84
722.331	29134.77
722.674	29136.35
723.016	29108.78
723.359	29064.72
723.701	28992.85
724.044	28905.4
724.386	28641.22
724.729	28877.6
725.071	28720.09
725.413	28778.85
725.755	28740.66
726.097	28591.73
726.439	28473.77
726.782	28505.63
727.124	28578.4
727.465	28406.65
727.807	28425.86
728.149	28363.49
728.491	28339.76
728.833	28321.68
729.175	28149.94
729.516	28189.03
729.858	28175.7
730.199	28118.53
730.541	28092.54
730.882	28084.4
731.224	28208.02
731.565	27957.4
731.906	27937.51
732.248	27903.62
732.589	27848.02
732.93	27666.11
733.271	27787.01
733.612	27738.2
733.953	27729.16
734.294	27667.69
734.635	27591.99
734.976	27524.19
735.317	27537.3
735.658	27342.05
735.999	27392.9
736.339	27375.04
736.68	27290.53
737.021	27270.64
737.361	27177.31
737.702	27398.09
738.042	27207.36
738.383	27186.35
738.723	27162.39
739.063	27065.22
739.404	27107.71
739.744	27011.21
740.084	26906.58
740.424	27035.62
740.764	26877.65
741.104	26934.15
741.444	26772.12
741.784	26726.25
742.124	26783.42
742.464	26806.92
742.804	26688.06
743.143	26629.53
743.483	26711.56
743.823	26474.5
744.162	26449.64
744.502	26540.26
744.841	26467.5
745.181	26446.03
745.52	26311.79
745.86	26348.4
746.199	26265.02
746.538	26229.76
746.877	26344.79
747.216	26226.6
747.556	26169.42
747.895	26209.88
748.234	26093.72
748.573	26013.95
748.911	25931.24
749.25	25928.98
749.589	25892.6
749.928	25763.56
750.267	25984.35
750.605	25758.81
750.944	25697.57
751.283	25600.63
751.621	25738.7
751.96	25572.38
752.298	25458.26
752.636	25473.85
752.975	25411.7
753.313	25264.82
753.651	25353.4
753.989	25202.44
754.327	25246.96
754.666	24962.68
755.004	25042.9
755.342	25107.98
755.679	25058.49
756.017	24806.75
756.355	24947.54
756.693	24830.03
757.031	24852.17
757.368	24832.96
757.706	24717.94
758.044	24648.11
758.381	24605.17
758.719	24585.74
759.056	24531.28
759.394	24450.15
759.731	24272.53
760.068	24242.24
760.405	24149.37
760.743	24089.03
761.08	24163.38
761.417	24008.13
761.754	23960.44
762.091	23860.11
762.428	23814.68
762.765	23743.5
763.102	23756.38
763.438	23461.47
763.775	23404.3
764.112	23407.24
764.449	23472.32
764.785	23301.03
765.122	23213.12
765.458	23107.58
765.795	23082.05
766.131	23078.21
766.467	22918.21
766.804	22962.28
767.14	22848.83
767.476	22830.98
767.812	22714.37
768.148	22670.76
768.485	22519.58
768.821	22423.31
769.157	22368.62
769.492	22392.35
769.828	22336.76
770.164	22129.76
770.5	22096.09
770.836	22167.04
771.171	21996.2
771.507	21917.11
771.842	21724.34
772.178	21706.04
772.513	21673.95
772.849	21535.42
773.184	21397.35
773.519	21483.67
773.855	21402.09
774.19	21234.41
774.525	21204.81
774.86	21178.37
775.195	21043.01
775.53	20930.69
775.865	20887.76
776.2	20736.35
776.535	20596.92
776.87	20616.35
777.205	20545.39
777.539	20473.53
777.874	20435.11
778.209	20280.99
778.543	20291.84
778.878	20138.4
779.212	20192.86
779.547	20004.16
779.881	20123.48
780.215	19963.03
780.55	19952.19
780.884	19724.85
781.218	19764.17
781.552	19721.91
781.886	19708.13
782.22	19602.37
782.554	19391.98
782.888	19278.53
783.222	19242.6
783.556	19181.36
783.889	19112.66
784.223	18992.44
784.557	19077.86
784.89	18947.47
785.224	18811.43
785.557	18758.09
785.891	18683.07
786.224	18583.41
786.558	18692.11
786.891	18501.6
787.224	18376.18
787.557	18304.55
787.891	18304.77
788.224	18308.39
788.557	18285.79
788.89	18180.71
789.223	18174.15
789.556	18035.85
789.888	18001.5
790.221	17941.17
790.554	17789.08
790.887	17758.8
791.219	17741.17
791.552	17709.76
791.884	17525.58
792.217	17484.23
792.549	17340.96
792.882	17351.35
793.214	17304.57
793.546	17347.74
793.879	17303.67
794.211	17119.95
794.543	17255.99
794.875	17091.02
795.207	17125.37
795.539	17013.06
795.871	16998.82
796.203	16838.37
796.535	16735.1
796.867	16745.94
797.198	16730.8
797.53	16650.35
797.862	16548.89
798.193	16602.67
798.525	16407.2
798.856	16405.84
799.188	16309.8
799.519	16307.31
799.85	16147.09
800.182	16175.34
800.513	16150.93
800.844	16001.1
801.175	16093.08
801.506	16015.79
801.837	15968.56
802.168	15837.27
802.499	15810.83
802.83	15804.27
803.161	15796.82
803.491	15708.68
803.822	15735.35
804.153	15568.35
804.483	15494.45
804.814	15422.36
805.145	15432.98
805.475	15482.93
805.805	15406.32
806.136	15444.96
806.466	15410.39
806.796	15245.42
807.126	15169.26
807.457	15096.04
807.787	15103.05
808.117	15055.14
808.447	14994.58
808.777	15050.17
809.107	15022.6
809.436	14840.91
809.766	14939.21
810.096	14876.39
810.426	14789.61
810.755	14759.1
811.085	14706.9
811.414	14687.92
811.744	14647.47
812.073	14521.14
812.403	14595.72
812.732	14467.36
813.061	14400.47
813.39	14427.59
813.719	14347.14
814.049	14469.39
814.378	14304.43
814.707	14340.81
815.036	14247.48
815.365	14240.02
815.693	14016.75
816.022	14168.38
816.351	14052.68
816.68	13984.43
817.008	14109.85
817.337	13861.27
817.665	13906.02
817.994	13964.77
818.322	13848.39
818.651	13741.73
818.979	13726.36
819.307	13753.48
819.636	13762.97
819.964	13685.01
820.292	13675.74
820.62	13675.29
820.948	13630.09
821.276	13750.09
821.604	13541.73
821.932	13599.81
822.259	13571.34
822.587	13572.92
822.915	13537.89
823.243	13602.07
823.57	13551.68
823.898	13522.3
824.225	13581.96
824.553	13589.64
824.88	13539.47
825.207	13587.61
825.535	13530.44
825.862	13557.1
826.189	13508.29
826.516	13646.36
826.843	13580.83
827.17	13645.69
827.497	13604.33
827.824	13620.15
828.151	13589.64
828.478	13642.52
828.805	13590.55
829.131	13559.14
829.458	13568.4
829.785	13480.49
830.111	13441.62
830.438	13518.01
830.764	13561.39
831.09	13585.57
831.417	13466.71
831.743	13529.31
832.069	13532.02
832.395	13476.2
832.722	13485.46
833.048	13360.27
833.374	13496.09
833.7	13438.23
834.026	13458.12
834.351	13472.36
834.677	13402.75
835.003	13409.08
835.329	13368.41
835.654	13345.58
835.98	13326.15
836.306	13267.84
836.631	13290.67
836.956	13299.03
837.282	13322.76
837.607	13214.51
837.932	13154.63
838.258	13280.05
838.583	13167.51
838.908	13049.32
839.233	13035.08
839.558	13093.61
839.883	13032.6
840.208	12937.23
840.533	13025.82
840.858	12981.3
841.182	13046.38
841.507	12976.33
841.832	12945.59
842.156	12873.28
842.481	12842.32
842.805	12802.77
843.13	12708.31
843.454	12746.73
843.778	12736.33
844.103	12652.94
844.427	12655.43
844.751	12673.06
845.075	12627.86
845.399	12562.33
845.723	12551.7
846.047	12451.37
846.371	12425.61
846.695	12392.39
847.019	12320.75
847.343	12256.34
847.666	12193.75
847.99	12190.81
848.313	12203.46
848.637	12172.28
848.96	12042.34
849.284	11965.96
849.607	11943.58
849.931	11934.77
850.254	11844.83
850.577	11815.23
850.9	11709.69
851.223	11719.41
851.546	11663.14
851.869	11570.94
852.192	11540.88
852.515	11476.48
852.838	11520.09
853.161	11450.94
853.483	11408.01
853.806	11389.47
854.129	11300.66
854.451	11286.88
854.774	11208.24
855.096	11233.55
855.419	11163.27
855.741	11097.5
856.063	11157.16
856.385	11008.02
856.708	10997.39
857.03	10983.38
857.352	10998.75
857.674	10957.17
857.996	10899.32
858.318	10880.11
858.64	10827.68
858.961	10845.08
859.283	10847.79
859.605	10666.1
859.926	10789.26
860.248	10699.1
860.57	10618.42
860.891	10666.1
861.212	10624.75
861.534	10605.09
861.855	10555.82
862.176	10623.39
862.498	10585.88
862.819	10521.47
863.14	10464.98
863.461	10410.97
863.782	10386.56
864.103	10408.71
864.424	10417.75
864.745	10470.4
865.065	10334.36
865.386	10354.47
865.707	10259.56
866.027	10283.74
866.348	10282.61
866.668	10217.08
866.989	10256.85
867.309	10176.17
867.63	10208.94
867.95	10147.02
868.27	10130.75
868.59	10182.73
868.91	10134.59
869.23	10060.47
869.55	10039.91
869.87	10144.99
870.19	10092.79
870.51	10097.08
870.83	10070.19
871.15	9982.96
871.469	9987.25
871.789	10048.49
872.109	10041.71
872.428	9975.05
872.748	9987.48
873.067	9926.24
873.386	9992.68
873.706	9965.56
874.025	9865.45
874.344	9896.18
874.663	9871.1
874.982	9838.1
875.301	9837.88
875.62	9748.61
875.939	9824.32
876.258	9809.4
876.577	9711.1
876.896	9704.77
877.214	9681.04
877.533	9722.17
877.852	9641.72
878.17	9737.31
878.489	9603.08
878.807	9583.19
879.125	9624.78
879.444	9554.27
879.762	9590.88
880.08	9582.52
880.398	9544.33
880.716	9555.85
881.034	9469.98
881.352	9516.08
881.67	9443.54
881.988	9497.09
882.306	9467.49
882.624	9411
882.941	9389.08
883.259	9338.23
883.577	9333.26
883.894	9294.61
884.212	9202.64
884.529	9317.66
884.846	9273.37
885.164	9265.69
885.481	9208.74
885.798	9243.54
886.115	9116.31
886.432	9148.4
886.75	9071.57
887.067	9142.75
887.383	9095.07
887.7	9080.38
888.017	9015.07
888.334	9004.9
888.651	8973.27
888.967	8966.71
889.284	8903.21
889.6	8868.64
889.917	8843.33
890.233	8882.2
890.55	8852.37
890.866	8818.02
891.182	8832.48
891.498	8758.58
891.815	8765.14
892.131	8672.71
892.447	8682.88
892.763	8672.94
893.079	8598.59
893.395	8637
893.71	8566.05
894.026	8590.45
894.342	8595.65
894.657	8491.02
894.973	8496.44
895.289	8432.26
895.604	8417.12
895.92	8366.96
896.235	8354.75
896.55	8349.1
896.865	8390.01
897.181	8316.11
897.496	8264.81
897.811	8236.79
898.126	8191.14
898.441	8177.36
898.756	8175.32
899.071	8105.04
899.386	8098.26
899.7	8032.5
900.015	8018.94
900.33	7994.31
900.644	7954.08
900.959	7972.84
901.273	7934.2
901.588	7844.93
901.902	7799.29
902.216	7846.97
902.531	7796.8
902.845	7787.31
903.159	7724.94
903.473	7700.98
903.787	7716.12
904.101	7642.68
904.415	7606.98
904.729	7534.89
905.042	7563.13
905.356	7517.94
905.67	7571.5
905.984	7526.98
906.297	7463.48
906.611	7423.25
906.924	7395.91
907.237	7384.38
907.551	7335.8
907.864	7293.99
908.177	7312.97
908.491	7333.99
908.804	7290.83
909.117	7191.84
909.43	7207.44
909.743	7107.1
910.056	7110.04
910.368	7083.37
910.681	7016.71
910.994	7023.71
911.307	7050.38
911.619	6959.53
911.932	7019.19
912.244	6928.35
912.557	6887.22
912.869	6905.75
913.181	6820.1
913.494	6861.91
913.806	6773.78
914.118	6771.52
914.43	6740.56
914.742	6739.2
915.054	6751.18
915.366	6668.02
915.678	6644.06
915.99	6642.25
916.302	6575.82
916.613	6599.09
916.925	6517.51
917.236	6515.03
917.548	6452.43
917.859	6462.82
918.171	6417.63
918.482	6407.91
918.794	6408.14
919.105	6349.38
919.416	6305.09
919.727	6258.54
920.038	6216.73
920.349	6270.74
920.66	6201.59
920.971	6202.27
921.282	6163.4
921.593	6160.23
921.903	6065.55
922.214	6073
922.525	6059.45
922.835	5998.2
923.146	5999.11
923.456	6033.23
923.767	5978.77
924.077	5960.46
924.387	5954.59
924.697	5841.82
925.008	5874.14
925.318	5821.26
925.628	5840.47
925.938	5760.92
926.248	5742.62
926.558	5744.65
926.867	5748.94
927.177	5738.32
927.487	5687.7
927.796	5649.74
928.106	5597.54
928.416	5621.94
928.725	5558.67
929.034	5581.04
929.344	5504.66
929.653	5525
929.962	5480.93
930.271	5479.8
930.581	5434.15
930.89	5365.23
931.199	5378.56
931.508	5371.78
931.817	5358.67
932.125	5341.05
932.434	5302.18
932.743	5289.75
933.051	5254.27
933.36	5216.3
933.669	5158.23
933.977	5148.28
934.286	5167.49
934.594	5160.94
934.902	5132.46
935.21	5088.62
935.519	5049.75
935.827	5047.04
936.135	4987.38
936.443	4962.98
936.751	5007.72
937.059	4966.82
937.367	4927.95
937.674	4892.7
937.982	4888.63
938.29	4887.72
938.597	4896.09
938.905	4844.34
939.213	4857.89
939.52	4802.08
939.827	4768.86
940.135	4753.94
940.442	4763.89
940.749	4732.93
941.056	4716.88
941.363	4676.66
941.67	4660.84
941.977	4675.98
942.284	4575.42
942.591	4589.88
942.898	4587.62
943.205	4575.42
943.511	4529.32
943.818	4518.69
944.125	4497
944.431	4500.16
944.738	4502.65
945.044	4454.74
945.35	4386.27
945.657	4375.2
945.963	4400.96
946.269	4367.96
946.575	4311.02
946.881	4328.19
947.187	4299.94
947.493	4268.76
947.799	4290.68
948.105	4253.62
948.41	4238.93
948.716	4218.14
949.022	4196.67
949.327	4231.02
949.633	4156.67
949.938	4112.15
950.244	4147.86
950.549	4115.09
950.854	4088.42
951.16	4055.88
951.465	4043.68
951.77	4042.32
952.075	4040.74
952.38	4018.59
952.685	4010.01
952.99	4012.04
953.294	3954.87
953.599	3925.04
953.904	3934.3
954.209	3900.41
954.513	3895.21
954.818	3836.68
955.122	3871.71
955.426	3843.46
955.731	3820.18
956.035	3814.53
956.339	3777.7
956.643	3771.37
956.948	3744.7
957.252	3712.61
957.556	3730.92
957.86	3739.96
958.163	3701.77
958.467	3683.24
958.771	3661.32
959.075	3642.79
959.378	3658.6
959.682	3612.05
959.985	3600.53
960.289	3591.49
960.592	3550.36
960.896	3556.01
961.199	3524.6
961.502	3531.83
961.805	3536.57
962.108	3485.05
962.411	3486.41
962.714	3448.89
963.017	3450.25
963.32	3410.25
963.623	3390.14
963.926	3394.88
964.228	3400.98
964.531	3365.73
964.833	3381.78
965.136	3357.6
965.438	3330.7
965.741	3308.78
966.043	3265.39
966.345	3339.29
966.648	3288.44
966.95	3271.72
967.252	3245.96
967.554	3216.58
967.856	3228.11
968.158	3192.4
968.46	3214.55
968.761	3148.34
969.063	3139.75
969.365	3149.92
969.666	3179.29
969.968	3123.93
970.269	3106.53
970.571	3104.49
970.872	3090.94
971.174	3070.82
971.475	3052.29
971.776	3041.9
972.077	2993.76
972.378	3015.01
972.679	2984.05
972.98	2984.05
973.281	2975.01
973.582	2966.87
973.883	2966.19
974.183	2932.07
974.484	2899.75
974.785	2898.85
975.085	2885.29
975.386	2902.47
975.686	2862.24
975.986	2890.94
976.287	2857.27
976.587	2841.22
976.887	2843.48
977.187	2803.94
977.487	2836.71
977.787	2830.38
978.087	2779.08
978.387	2763.71
978.687	2756.48
978.987	2738.4
979.286	2734.56
979.586	2733.43
979.885	2724.39
980.185	2686.2
980.484	2718.52
980.784	2677.16
981.083	2646.2
981.382	2645.52
981.682	2658.4
981.981	2616.6
982.28	2573.66
982.579	2585.19
982.878	2612.53
983.177	2569.82
983.475	2584.96
983.774	2562.36
984.073	2570.95
984.372	2518.07
984.67	2517.17
984.969	2498.86
985.267	2544.96
985.566	2505.41
985.864	2492.53
986.162	2466.09
986.461	2432.2
986.759	2407.79
987.057	2422.25
987.355	2392.2
987.653	2430.61
987.951	2389.49
988.249	2429.26
988.547	2403.5
988.844	2392.87
989.142	2371.18
989.44	2322.37
989.737	2311.3
990.035	2315.81
990.332	2297.51
990.63	2285.53
990.927	2285.31
991.224	2273.1
991.521	2255.7
991.819	2241.69
992.116	2263.16
992.413	2267.68
992.71	2248.47
993.006	2242.82
993.303	2243.5
993.6	2198.53
993.897	2201.92
994.193	2196.95
994.49	2181.58
994.787	2181.81
995.083	2138.42
995.379	2113.33
995.676	2118.76
995.972	2146.78
996.268	2156.72
996.565	2100.23
996.861	2094.58
997.157	2055.26
997.453	2108.36
997.749	2087.35
998.044	2026.78
998.34	2027.91
998.636	2007.8
998.932	2044.18
999.227	2000.12
999.523	2003.28
999.818	1979.1
1000.114	1975.03
1000.409	1974.13
1000.704	1963.51
1001	1943.85
1001.295	1901.81
1001.59	1933.9
1001.885	1933.23
1002.18	1902.27
1002.475	1889.61
1002.77	1883.96
1003.065	1871.76
1003.359	1869.27
1003.654	1848.93
1003.949	1841.48
1004.243	1874.02
1004.538	1815.26
1004.832	1828.37
1005.127	1809.39
1005.421	1784.3
1005.715	1799.67
1006.009	1793.12
1006.304	1767.35
1006.598	1729.16
1006.892	1754.02
1007.186	1733.68
1007.48	1754.25
1007.773	1695.94
1008.067	1715.15
1008.361	1688.49
1008.655	1678.32
1008.948	1690.52
1009.242	1655.72
1009.535	1671.76
1009.829	1656.62
1010.122	1641.03
1010.415	1613.69
1010.708	1634.7
1011.001	1621.14
1011.295	1615.95
1011.588	1617.75
1011.881	1570.52
1012.173	1594.48
1012.466	1569.85
1012.759	1567.36
1013.052	1545.44
1013.344	1550.64
1013.637	1534.37
1013.93	1542.5
1014.222	1537.08
1014.514	1532.33
1014.807	1482.84
1015.099	1501.15
1015.391	1488.27
1015.683	1469.28
1015.976	1457.98
1016.268	1449.17
1016.56	1454.37
1016.851	1431.32
1017.143	1450.75
1017.435	1424.31
1017.727	1432
1018.018	1401.04
1018.31	1405.78
1018.602	1395.61
1018.893	1369.17
1019.185	1393.58
1019.476	1370.75
1019.767	1352.68
1020.058	1347.48
1020.35	1340.02
1020.641	1345.22
1020.932	1354.03
1021.223	1307.71
1021.514	1321.49
1021.804	1278.1
1022.095	1295.95
1022.386	1295.73
1022.677	1279.01
1022.967	1268.84
1023.258	1262.51
1023.548	1238.33
1023.839	1242.4
1024.129	1262.74
1024.419	1229.97
1024.709	1240.36
1025	1263.19
1025.29	1216.18
1025.58	1196.97
1025.87	1193.36
1026.16	1176.41
1026.449	1163.53
1026.739	1138.22
1027.029	1150.2
1027.319	1147.03
1027.608	1154.26
1027.898	1130.76
1028.187	1153.13
1028.477	1128.28
1028.766	1104.32
1029.055	1115.62
1029.344	1127.82
1029.634	1081.95
1029.923	1090.76
1030.212	1089.18
1030.501	1097.32
1030.79	1072.01
1031.078	1060.71
1031.367	1039.69
1031.656	1056.19
1031.945	1065.9
1032.233	1035.4
1032.522	1029.29
1032.81	1006.24
1033.099	1017.09
1033.387	1007.15
1033.675	999.24
1033.963	1005.57
1034.251	1008.96
1034.54	979.8
1034.828	978.45
1035.116	968.51
1035.403	962.4
1035.691	988.62
1035.979	950.88
1036.267	955.17
1036.554	945
1036.842	919.02
1037.129	951.33
1037.417	925.34
1037.704	923.31
1037.992	910.88
1038.279	902.52
1038.566	922.41
1038.853	922.41
1039.14	922.41
