Data from hue_190_FLMS001491_00007.txt Node
Date: Tue Feb 07 16:44:43 GMT 2017
User: dcchb
Spectrometer: FLMS00149
Trigger mode: 0
Integration Time (sec): 2.000000E-2
Scans to average: 10
Electric dark correction enabled: true
Nonlinearity correction enabled: false
Boxcar width: 0
XAxis mode: Wavelengths
Number of Pixels in Spectrum: 2048
>>>>>Begin Spectral Data<<<<<
341.393	7.43
341.776	7.43
342.16	7.43
342.543	-78.67
342.927	-52.23
343.31	-72.34
343.693	-48.16
344.077	-55.85
344.46	-56.52
344.843	-52.68
345.226	-65.11
345.61	-32.57
345.993	-8.16
346.376	-0.93
346.759	-7.49
347.142	34.77
347.525	23.47
347.908	35.9
348.291	82.23
348.674	89.46
349.057	133.98
349.44	128.56
349.823	137.6
350.206	170.59
350.588	177.14
350.971	189.12
351.354	217.14
351.737	240.19
352.119	255.11
352.502	264.37
352.884	267.08
353.267	265.28
353.65	297.14
354.032	290.13
354.414	324.26
354.797	321.77
355.179	301.66
355.562	322.22
355.944	330.81
356.326	318.16
356.709	331.71
357.091	331.71
357.473	343.01
357.855	326.97
358.238	350.02
358.62	332.62
359.002	356.8
359.384	328.55
359.766	333.97
360.148	325.61
360.53	341.21
360.912	332.84
361.294	331.04
361.676	345.95
362.057	344.6
362.439	337.14
362.821	335.56
363.203	322.45
363.584	326.52
363.966	306.63
364.348	335.33
364.729	326.52
365.111	294.65
365.493	296.01
365.874	314.54
366.256	307.53
366.637	332.39
367.019	322.68
367.4	295.11
367.781	306.18
368.163	303.69
368.544	303.69
368.925	306.86
369.306	317.48
369.688	305.95
370.069	288.55
370.45	316.8
370.831	317.93
371.212	303.69
371.593	332.62
371.974	315.67
372.355	307.76
372.736	321.55
373.117	308.66
373.498	320.19
373.879	322.68
374.26	312.96
374.641	329.68
375.021	305.73
375.402	312.73
375.783	308.89
376.163	323.13
376.544	314.99
376.925	320.42
377.305	315.22
377.686	312.05
378.066	346.18
378.447	330.58
378.827	319.74
379.208	325.61
379.588	324.71
379.968	331.71
380.349	325.84
380.729	333.52
381.109	339.62
381.489	338.27
381.87	317.93
382.25	326.06
382.63	336.46
383.01	336.69
383.39	336.91
383.77	335.56
384.15	347.53
384.53	343.69
384.91	362.45
385.29	332.39
385.67	345.5
386.049	357.7
386.429	332.17
386.809	348.44
387.189	339.85
387.568	356.8
387.948	369.68
388.328	362.67
388.707	347.31
389.087	357.25
389.466	364.03
389.846	353.63
390.225	367.65
390.605	375.1
390.984	376.91
391.363	351.37
391.743	360.64
392.122	385.95
392.501	384.14
392.881	367.42
393.26	382.56
393.639	364.93
394.018	375.1
394.397	377.59
394.776	352.73
395.155	371.26
395.534	363.13
395.913	370.81
396.292	391.83
396.671	387.08
397.05	375.56
397.429	394.31
397.808	380.98
398.186	419.4
398.565	387.31
398.944	392.05
399.323	394.76
399.701	417.14
400.08	390.92
400.458	414.88
400.837	386.63
401.215	423.92
401.594	419.62
401.972	409.68
402.351	424.82
402.729	404.03
403.107	414.42
403.486	415.55
403.864	423.92
404.242	433.41
404.62	433.18
404.999	432.95
405.377	433.18
405.755	444.03
406.133	452.16
406.511	442.45
406.889	468.43
407.267	441.77
407.645	441.77
408.023	457.36
408.401	463.01
408.779	474.31
409.156	486.96
409.534	491.71
409.912	469.79
410.29	504.82
410.667	518.38
411.045	523.57
411.422	510.92
411.8	523.12
412.178	533.74
412.555	535.55
412.933	540.07
413.31	553.63
413.687	552.05
414.065	570.8
414.442	597.7
414.819	603.57
415.197	593.85
415.574	620.97
415.951	629.33
416.328	642.89
416.705	638.6
417.082	654.87
417.46	648.77
417.837	683.12
418.214	654.42
418.591	673.17
418.967	671.14
419.344	698.71
419.721	708.43
420.098	714.76
420.475	726.96
420.852	738.71
421.228	736.45
421.605	753.85
421.982	762.66
422.358	760.63
422.735	785.71
423.111	805.37
423.488	835.66
423.864	843.11
424.241	842.89
424.617	851.25
424.994	868.65
425.37	889.67
425.746	902.55
426.123	911.81
426.499	925.6
426.875	919.72
427.251	939.83
427.627	964.47
428.003	992.94
428.379	1009.89
428.756	968.76
429.132	1011.02
429.507	994.75
429.883	1028.42
430.259	1019.61
430.635	1047.85
431.011	1048.76
431.387	1070.45
431.763	1104.12
432.138	1115.87
432.514	1100.06
432.89	1132.82
433.265	1158.13
433.641	1206.95
434.016	1185.25
434.392	1227.74
434.767	1239.04
435.143	1248.75
435.518	1270.9
435.894	1309.32
436.269	1336.89
436.644	1373.04
437.02	1392.7
437.395	1373.49
437.77	1399.03
438.145	1444.45
438.52	1463.89
438.895	1483.55
439.271	1494.62
439.646	1528.29
440.021	1555.86
440.395	1557.67
440.77	1568.07
441.145	1583.88
441.52	1628.18
441.895	1656.2
442.27	1667.27
442.645	1655.07
443.019	1712.92
443.394	1693.26
443.769	1746.14
444.143	1740.72
444.518	1780.26
444.892	1763.99
445.267	1794.95
445.641	1805.57
446.016	1838.34
446.39	1838.79
446.764	1873.82
447.139	1840.38
447.513	1897.32
447.887	1884.44
448.262	1884.67
448.636	1930.09
449.01	1955.63
449.384	1971.45
449.758	1982.29
450.132	2022.97
450.506	2058.9
450.88	2007.83
451.254	2021.84
451.628	2065.23
452.002	2119.46
452.376	2116.3
452.75	2113.59
453.123	2126.7
453.497	2192
453.871	2225.9
454.244	2214.38
454.618	2218.22
454.992	2295.5
455.365	2269.97
455.739	2340.93
456.112	2390.64
456.486	2399.46
456.859	2349.06
457.232	2435.84
457.606	2473.58
457.979	2462.05
458.352	2501.15
458.725	2573.24
459.099	2559.23
459.472	2618.89
459.845	2634.93
460.218	2675.16
460.591	2700.47
460.964	2751.99
461.337	2777.75
461.71	2811.88
462.083	2856.62
462.456	2884.87
462.829	2866.34
463.201	2897.97
463.574	2951.76
463.947	2972.77
464.32	3070.85
464.692	3107.91
465.065	3067.01
465.438	3147.01
465.81	3169.15
466.183	3213.9
466.555	3293.22
466.928	3331.18
467.3	3334.57
467.672	3406.21
468.045	3508.81
468.417	3464.51
468.789	3465.42
469.161	3558.75
469.534	3600.78
469.906	3657.5
470.278	3732.98
470.65	3791.51
471.022	3870.83
471.394	3913.77
471.766	3936.59
472.138	3978.4
472.51	4082.8
472.882	4115.34
473.253	4177.26
473.625	4212.06
473.997	4353.98
474.369	4323.93
474.74	4379.74
475.112	4505.84
475.484	4602.34
475.855	4617.7
476.227	4654.76
476.598	4827.19
476.97	4884.36
477.341	4932.5
477.713	5070.8
478.084	5092.27
478.455	5243
478.827	5287.52
479.198	5386.5
479.569	5398.7
479.94	5600.28
480.311	5635.98
480.682	5746.26
481.053	5885.69
481.424	5998.01
481.795	6064.9
482.166	6089.76
482.537	6192.58
482.908	6314.83
483.279	6376.3
483.65	6518.67
484.021	6677.08
484.391	6716.86
484.762	6842.05
485.133	6880.69
485.503	6967.7
485.874	7134.25
486.244	7166.34
486.615	7295.6
486.985	7347.8
487.356	7496.72
487.726	7593.67
488.097	7727.23
488.467	7789.15
488.837	7871.86
489.207	8016.71
489.578	8127.22
489.948	8230.72
490.318	8363.37
490.688	8371.5
491.058	8478.84
491.428	8587.32
491.798	8649.01
492.168	8830.7
492.538	8852.39
492.908	8940.98
493.278	9022.33
493.648	9060.07
494.017	9173.29
494.387	9178.49
494.757	9321.08
495.126	9366.73
495.496	9454.19
495.866	9390.69
496.235	9487.86
496.605	9573.51
496.974	9636.1
497.344	9746.38
497.713	9795.42
498.082	9860.5
498.452	9925.13
498.821	9926.72
499.19	9969.43
499.559	10024.34
499.928	10103.21
500.298	10071.35
500.667	10140.04
501.036	10212.58
501.405	10291.23
501.774	10203.32
502.143	10323.32
502.512	10367.38
502.88	10425.69
503.249	10497.77
503.618	10475.18
503.987	10550.65
504.356	10552.46
504.724	10578.68
505.093	10554.27
505.462	10628.84
505.83	10650.99
506.199	10656.19
506.567	10817.99
506.936	10725.34
507.304	10804.66
507.672	10877.2
508.041	10832.91
508.409	10857.77
508.777	10925.33
509.145	10989.97
509.514	10966.24
509.882	10909.97
510.25	10965.11
510.618	11024.54
510.986	11064.99
511.354	11057.76
511.722	11082.39
512.09	11191.77
512.458	11085.33
512.826	11221.37
513.193	11144.09
513.561	11150.41
513.929	11248.04
514.297	11229.73
514.664	11207.13
515.032	11229.28
515.4	11270.86
515.767	11290.52
516.135	11278.32
516.502	11301.14
516.869	11356.28
517.237	11358.54
517.604	11270.64
517.972	11350.18
518.339	11345.21
518.706	11396.73
519.073	11356.51
519.44	11350.18
519.808	11452.33
520.175	11292.1
520.542	11450.07
520.909	11434.02
521.276	11352.22
521.643	11431.99
522.009	11431.54
522.376	11496.39
522.743	11502.27
523.11	11484.19
523.477	11515.6
523.843	11530.74
524.21	11505.43
524.577	11531.42
524.943	11504.53
525.31	11455.72
525.676	11542.95
526.043	11537.07
526.409	11509.05
526.776	11591.08
527.142	11507.01
527.508	11509.73
527.874	11520.12
528.241	11452.1
528.607	11457.3
528.973	11584.98
529.339	11414.81
529.705	11464.98
530.071	11426.79
530.437	11393.57
530.803	11447.13
531.169	11386.57
531.535	11335.94
531.901	11270.64
532.267	11253.46
532.632	11232.67
532.998	11222.28
533.364	11223.63
533.73	11115.84
534.095	11158.1
534.461	11153.58
534.826	11094.6
535.192	11037.2
535.557	11059.79
535.923	10965.11
536.288	10945.9
536.653	10913.58
537.019	10809.41
537.384	10776.41
537.749	10782.06
538.114	10687.15
538.479	10652.35
538.845	10641.73
539.21	10560.6
539.575	10493.93
539.94	10447.38
540.305	10460.49
540.67	10422.52
541.034	10401.05
541.399	10288.97
541.764	10224.56
542.129	10189.08
542.494	10176.43
542.858	10137.11
543.223	10059.14
543.587	10064.57
543.952	9925.36
544.316	9965.36
544.681	9826.38
545.045	9783.44
545.41	9822.99
545.774	9755.2
546.138	9680.85
546.503	9616.67
546.867	9574.64
547.231	9558.59
547.595	9511.81
547.959	9524.24
548.324	9446.28
548.688	9369.22
549.052	9332.38
549.416	9271.37
549.779	9181.2
550.143	9188.43
550.507	9179.84
550.871	9136.23
551.235	9017.36
551.599	9044.93
551.962	8949.57
552.326	8931.94
552.689	8955.67
553.053	8813.3
553.417	8806.97
553.78	8847.42
554.143	8712.51
554.507	8707.77
554.87	8662.57
555.234	8717.71
555.597	8626.64
555.96	8559.07
556.323	8595.23
556.686	8487.21
557.05	8493.53
557.413	8470.71
557.776	8453.53
558.139	8429.81
558.502	8425.29
558.865	8386.42
559.228	8402.24
559.59	8334.89
559.953	8379.86
560.316	8361.79
560.679	8338.51
561.041	8277.95
561.404	8271.62
561.767	8247.21
562.129	8276.82
562.492	8280.21
562.854	8156.59
563.217	8166.31
563.579	8184.39
563.941	8237.04
564.304	8196.82
564.666	8265.74
565.028	8232.07
565.39	8101.23
565.753	8199.3
566.115	8129.93
566.477	8168.57
566.839	8159.53
567.201	8143.49
567.563	8092.87
567.925	8136.03
568.287	8136.48
568.648	8138.06
569.01	8164.95
569.372	8122.02
569.734	8098.29
570.095	8159.08
570.457	8145.75
570.819	8123.37
571.18	8080.89
571.542	8129.93
571.903	8143.03
572.265	8095.35
572.626	8076.6
572.987	8103.26
573.349	8082.7
573.71	8105.97
574.071	8132.64
574.432	8111.85
574.794	8158.4
575.155	8119.98
575.516	8064.62
575.877	8055.35
576.238	8087.67
576.599	8115.01
576.96	8138.97
577.32	8077.5
577.681	8089.7
578.042	8096.93
578.403	8023.04
578.763	8085.86
579.124	8039.53
579.485	8101.45
579.845	8069.14
580.206	8045.86
580.566	7989.82
580.927	8028.24
581.287	8072.98
581.648	8037.27
582.008	8038.63
582.368	7981
582.728	8002.02
583.089	7958.18
583.449	7975.58
583.809	7964.06
584.169	7999.99
584.529	7943.94
584.889	8043.15
585.249	7902.36
585.609	7930.16
585.969	7989.37
586.329	7891.52
586.688	7946.2
587.048	7865.98
587.408	7828.24
587.768	7864.17
588.127	7846.09
588.487	7841.57
588.846	7906.43
589.206	7851.97
589.565	7844.29
589.925	7837.51
590.284	7840.44
590.643	7817.17
591.003	7803.16
591.362	7852.42
591.721	7836.15
592.08	7777.17
592.44	7858.75
592.799	7767.9
593.158	7721.8
593.517	7720.22
593.876	7720.45
594.235	7699.2
594.593	7745.98
594.952	7686.1
595.311	7713.67
595.67	7720.67
596.029	7750.73
596.387	7631.18
596.746	7734.23
597.104	7651.75
597.463	7682.03
597.822	7701.24
598.18	7640.22
598.538	7665.31
598.897	7635.93
599.255	7628.47
599.613	7628.7
599.972	7623.5
600.33	7668.47
600.688	7561.81
601.046	7620.34
601.404	7661.92
601.762	7608.36
602.12	7645.42
602.478	7652.2
602.836	7658.98
603.194	7593.9
603.552	7613.33
603.91	7550.96
604.268	7599.55
604.625	7583.05
604.983	7591.18
605.341	7610.85
605.698	7613.78
606.056	7625.31
606.413	7544.18
606.771	7623.95
607.128	7571.3
607.485	7603.84
607.843	7515.93
608.2	7608.59
608.557	7650.39
608.914	7585.31
609.272	7591.86
609.629	7628.25
609.986	7603.61
610.343	7614.46
610.7	7687.45
611.057	7595.7
611.414	7630.05
611.771	7676.15
612.127	7632.99
612.484	7664.4
612.841	7685.19
613.198	7630.51
613.554	7644.97
613.911	7650.62
614.267	7724.74
614.624	7726.55
614.98	7643.39
615.337	7756.15
615.693	7688.81
616.05	7660.56
616.406	7717.28
616.762	7681.8
617.118	7662.6
617.475	7608.81
617.831	7736.04
618.187	7719.09
618.543	7687.45
618.899	7735.14
619.255	7647.45
619.611	7717.73
619.967	7728.81
620.323	7691.52
620.678	7691.07
621.034	7746.43
621.39	7734.46
621.746	7642.03
622.101	7800.67
622.457	7705.76
622.812	7711.86
623.168	7778.98
623.523	7729.26
623.879	7758.41
624.234	7725.42
624.589	7702.14
624.945	7722.93
625.3	7712.31
625.655	7711.86
626.01	7737.62
626.365	7719.99
626.72	7727.68
627.075	7710.28
627.43	7739.88
627.785	7658.98
628.14	7730.16
628.495	7654.01
628.85	7690.62
629.205	7621.92
629.559	7708.47
629.914	7698.75
630.269	7662.82
630.623	7595.03
630.978	7554.12
631.332	7673.44
631.687	7599.32
632.041	7625.76
632.396	7611.07
632.75	7623.95
633.104	7641.8
633.459	7571.98
633.813	7609.49
634.167	7580.34
634.521	7556.84
634.875	7592.31
635.229	7549.6
635.583	7482.26
635.937	7498.53
636.291	7538.76
636.645	7469.61
636.999	7490.17
637.352	7527.23
637.706	7475.93
638.06	7514.58
638.413	7459.21
638.767	7437.06
639.121	7442.26
639.474	7420.12
639.828	7383.05
640.181	7397.74
640.534	7415.14
640.888	7383.51
641.241	7315.26
641.594	7393.22
641.947	7352.09
642.301	7333.34
642.654	7401.36
643.007	7420.34
643.36	7323.17
643.713	7354.58
644.066	7380.57
644.419	7317.75
644.771	7284.98
645.124	7196.39
645.477	7183.51
645.83	7109.39
646.182	7099.22
646.535	7132.44
646.888	7197.52
647.24	7089.28
647.593	7166.56
647.945	7135.38
648.298	7085.44
648.65	7153.23
649.002	7119.11
649.355	7111.88
649.707	7128.15
650.059	7142.38
650.411	7240.46
650.763	7220.12
651.115	7294.47
651.467	7330.63
651.819	7323.62
652.171	7353
652.523	7266.67
652.875	7251.53
653.227	7230.97
653.578	7291.76
653.93	7286.11
654.282	7241.82
654.633	7253.11
654.985	7273.9
655.337	7303.96
655.688	7317.97
656.039	7352.77
656.391	7271.87
656.742	7282.94
657.094	7283.17
657.445	7270.52
657.796	7301.7
658.147	7291.31
658.498	7269.61
658.849	7315.71
659.2	7294.02
659.551	7306.9
659.902	7325.2
660.253	7302.15
660.604	7330.63
660.955	7331.3
661.306	7367.24
661.656	7365.88
662.007	7348.03
662.358	7382.6
662.708	7315.94
663.059	7364.07
663.409	7335.15
663.76	7350.06
664.11	7413.56
664.461	7452.21
664.811	7396.84
665.161	7378.76
665.511	7335.15
665.862	7334.92
666.212	7423.51
666.562	7425.77
666.912	7349.83
667.262	7354.13
667.612	7354.81
667.962	7373.34
668.312	7352.32
668.662	7368.14
669.011	7373.79
669.361	7410.4
669.711	7381.47
670.06	7320.01
670.41	7259.22
670.76	7342.83
671.109	7366.56
671.459	7367.69
671.808	7286.79
672.157	7371.08
672.507	7304.86
672.856	7354.81
673.205	7338.08
673.554	7308.71
673.904	7372.43
674.253	7361.36
674.602	7313.68
674.951	7256.5
675.3	7227.8
675.649	7275.26
675.998	7277.52
676.346	7269.61
676.695	7294.7
677.044	7258.31
677.393	7242.95
677.741	7252.21
678.09	7232.1
678.438	7257.41
678.787	7291.08
679.135	7211.99
679.484	7178.54
679.832	7202.49
680.181	7171.31
680.529	7140.8
680.877	7155.94
681.225	7151.65
681.573	7160.46
681.922	7069.39
682.27	7095.83
682.618	7054.93
682.966	7090.63
683.314	7058.77
683.661	7015.61
684.009	7008.83
684.357	6978.77
684.705	6958.21
685.053	6948.94
685.4	6952.11
685.748	6896.97
686.095	6887.93
686.443	6858.1
686.79	6866.01
687.138	6916.63
687.485	6869.85
687.832	6870.3
688.18	6796.86
688.527	6848.61
688.874	6815.39
689.221	6770.64
689.568	6717.31
689.915	6715.95
690.262	6736.74
690.609	6687.71
690.956	6689.06
691.303	6670.53
691.65	6684.09
691.997	6670.98
692.344	6603.64
692.69	6594.37
693.037	6557.54
693.383	6517.99
693.73	6485.22
694.077	6491.55
694.423	6487.26
694.769	6434.83
695.116	6391.22
695.462	6376.53
695.808	6405.23
696.155	6419.69
696.501	6332.69
696.847	6318
697.193	6269.41
697.539	6284.55
697.885	6268.73
698.231	6179.02
698.577	6193.93
698.923	6167.27
699.269	6212.69
699.614	6120.04
699.96	6085.69
700.306	6091.79
700.651	6011.11
700.997	6033.94
701.342	6024.45
701.688	6043.65
702.033	5946.03
702.379	6006.37
702.724	5958.23
703.069	5974.96
703.415	5906.94
703.76	5872.81
704.105	5907.16
704.45	5911.23
704.795	5765.92
705.14	5807.5
705.485	5751.68
705.83	5750.78
706.175	5705.36
706.52	5781.29
706.865	5726.6
707.209	5709.88
707.554	5700.84
707.899	5634.4
708.243	5631.01
708.588	5631.69
708.932	5582.2
709.277	5577.23
709.621	5561.18
709.966	5534.74
710.31	5546.94
710.654	5519.83
710.998	5498.13
711.342	5503.1
711.687	5520.28
712.031	5489.32
712.375	5426.04
712.719	5482.99
713.063	5450.22
713.407	5468.98
713.75	5427.63
714.094	5430.11
714.438	5422.88
714.782	5393.28
715.125	5387.4
715.469	5355.76
715.812	5357.8
716.156	5336.78
716.499	5343.33
716.843	5343.11
717.186	5321.87
717.53	5337.68
717.873	5334.97
718.216	5327.52
718.559	5288.87
718.902	5231.47
719.246	5267.63
719.589	5267.86
719.932	5256.1
720.275	5244.35
720.617	5269.66
720.96	5292.04
721.303	5226.73
721.646	5219.04
721.989	5151.02
722.331	5234.18
722.674	5140.85
723.016	5176.56
723.359	5201.42
723.701	5226.5
724.044	5158.48
724.386	5183.34
724.729	5206.61
725.071	5190.12
725.413	5192.6
725.755	5195.54
726.097	5165.49
726.439	5185.37
726.782	5191.02
727.124	5209.1
727.465	5184.24
727.807	5191.93
728.149	5190.34
728.491	5138.14
728.833	5153.28
729.175	5153.73
729.516	5185.37
729.858	5159.38
730.199	5156.45
730.541	5176.56
730.882	5166.16
731.224	5200.06
731.565	5131.14
731.906	5179.04
732.248	5150.12
732.589	5133.4
732.93	5119.61
733.271	5163
733.612	5167.52
733.953	5155.09
734.294	5169.1
734.635	5161.19
734.976	5221.76
735.317	5183.11
735.658	5159.84
735.999	5205.26
736.339	5201.87
736.68	5179.95
737.021	5230.79
737.361	5185.6
737.702	5212.04
738.042	5227.63
738.383	5207.07
738.723	5251.59
739.063	5232.6
739.404	5243.9
739.744	5265.6
740.084	5286.16
740.424	5304.47
740.764	5340.17
741.104	5248.87
741.444	5273.73
741.784	5325.26
742.124	5313.73
742.464	5345.59
742.804	5398.25
743.143	5438.47
743.483	5409.32
743.823	5393.95
744.162	5443.67
744.502	5458.59
744.841	5527.96
745.181	5526.61
745.52	5591.69
745.86	5591.92
746.199	5636.21
746.538	5682.99
746.877	5695.87
747.216	5763.89
747.556	5749.2
747.895	5850.21
748.234	5888.63
748.573	5892.02
748.911	5944.22
749.25	6007.5
749.589	6061.06
749.928	6099.25
750.267	6182.18
750.605	6228.51
750.944	6294.95
751.283	6407.26
751.621	6475.51
751.96	6548.5
752.298	6611.55
752.636	6708.72
752.975	6759.79
753.313	6862.84
753.651	7006.57
753.989	7121.14
754.327	7206.56
754.666	7259.22
755.004	7436.39
755.342	7578.3
755.679	7717.28
756.017	7833.89
756.355	7941.46
756.693	8047.22
757.031	8314.33
757.368	8329.24
757.706	8478.17
758.044	8594.77
758.381	8861.21
758.719	8980.07
759.056	9133.06
759.394	9255.77
759.731	9464.58
760.068	9567.18
760.405	9764.01
760.743	9902.54
761.08	10068.41
761.417	10213.71
761.754	10518.79
762.091	10644.66
762.428	10753.36
762.765	10941.83
763.102	11048.95
763.438	11272.22
763.775	11504.53
764.112	11651.19
764.449	11878.53
764.785	12099.54
765.122	12088.47
765.458	12254.79
765.795	12465.18
766.131	12690.03
766.467	12813.65
766.804	12919.86
767.14	13099.74
767.476	13349.45
767.812	13389.68
768.148	13619.5
768.485	13762.32
768.821	13838.7
769.157	13960.06
769.492	14141.52
769.828	14337.22
770.164	14355.3
770.5	14529.53
770.836	14635.97
771.171	14828.96
771.507	14859.02
771.842	14966.13
772.178	15000.03
772.513	15193.92
772.849	15321.38
773.184	15340.59
773.519	15387.59
773.855	15485.44
774.19	15560.24
774.525	15704.64
774.86	15816.73
775.195	15910.74
775.53	15969.72
775.865	15971.76
776.2	16038.65
776.535	16050.4
776.87	16162.26
777.205	16233.22
777.539	16204.07
777.874	16400.22
778.209	16256.72
778.543	16299.2
778.878	16301.01
779.212	16449.48
779.547	16414.68
779.881	16528.35
780.215	16464.62
780.55	16722.02
780.884	16595.47
781.218	16640.44
781.552	16725.41
781.886	16689.48
782.22	16555.47
782.554	16689.48
782.888	16628.91
783.222	16551.85
783.556	16623.72
783.889	16638.4
784.223	16622.59
784.557	16623.94
784.89	16620.55
785.224	16542.14
785.557	16574.9
785.891	16524.51
786.224	16595.02
786.558	16700.32
786.891	16566.09
787.224	16607.44
787.557	16528.12
787.891	16604.73
788.224	16559.31
788.557	16559.54
788.89	16522.25
789.223	16564.96
789.556	16549.59
789.888	16521.8
790.221	16540.55
790.554	16373.78
790.887	16416.49
791.219	16310.05
791.552	16399.77
791.884	16361.35
792.217	16356.38
792.549	16283.39
792.882	16256.95
793.214	16211.3
793.546	16181.24
793.879	16196.83
794.211	16089.04
794.543	16236.61
794.875	16182.15
795.207	16245.19
795.539	16087.01
795.871	16153.9
796.203	16052.21
796.535	15961.81
796.867	15918.2
797.198	15957.97
797.53	15936.73
797.862	15845.43
798.193	15846.33
798.525	15812.44
798.856	15837.07
799.188	15679.56
799.519	15627.36
799.85	15528.38
800.182	15612.22
800.513	15569.28
800.844	15581.03
801.175	15590.07
801.506	15539.68
801.837	15474.14
802.168	15367.93
802.499	15400.92
802.83	15342.85
803.161	15209.29
803.491	15289.97
803.822	15364.99
804.153	15170.87
804.483	15078.22
804.814	15088.61
805.145	15162.96
805.475	15078.45
805.805	15024.21
806.136	14990.09
806.466	15022.85
806.796	15019.46
807.126	14878.22
807.457	14967.71
807.787	14859.02
808.117	14770.43
808.447	14760.71
808.777	14814.72
809.107	14737.89
809.436	14709.42
809.766	14674.84
810.096	14680.49
810.426	14611.11
810.755	14653.82
811.085	14601.62
811.414	14569.08
811.744	14451.8
812.073	14552.58
812.403	14523.66
812.732	14409.31
813.061	14423.77
813.39	14304.45
813.719	14301.97
814.049	14490.66
814.378	14350.55
814.707	14315.53
815.036	14318.24
815.365	14284.57
815.693	14133.84
816.022	14208.86
816.351	14062.43
816.68	14046.38
817.008	14108.75
817.337	13995.54
817.665	13932.94
817.994	14022.88
818.322	14001.64
818.651	13930.45
818.979	13857.23
819.307	14002.09
819.636	13860.17
819.964	13776.33
820.292	13878.93
820.62	13795.77
820.948	13840.29
821.276	13890.23
821.604	13781.76
821.932	13818.82
822.259	13785.6
822.587	13759.16
822.915	13833.73
823.243	13858.59
823.57	13840.74
823.898	13838.93
824.225	13752.6
824.553	13745.15
824.88	13834.64
825.207	13816.11
825.535	13760.29
825.862	13725.49
826.189	13794.19
826.516	13868.99
826.843	13818.59
827.17	13928.19
827.497	13950.57
827.824	13842.55
828.151	13944.69
828.478	13841.42
828.805	13935.42
829.131	13785.6
829.458	13791.47
829.785	13777.24
830.111	13813.85
830.438	13897.23
830.764	13900.4
831.09	13883.22
831.417	13774.3
831.743	13783.34
832.069	13869.21
832.395	13753.96
832.722	13794.19
833.048	13827.18
833.374	13797.35
833.7	13770.23
834.026	13746.95
834.351	13754.41
834.677	13730.01
835.003	13785.82
835.329	13772.49
835.654	13781.53
835.98	13683.45
836.306	13652.95
836.631	13665.38
836.956	13649.78
837.282	13645.04
837.607	13643
837.932	13580.41
838.258	13565.04
838.583	13556.68
838.908	13483.91
839.233	13502.44
839.558	13480.3
839.883	13507.41
840.208	13406.62
840.533	13384.03
840.858	13414.31
841.182	13405.95
841.507	13394.42
841.832	13294.09
842.156	13312.16
842.481	13329.79
842.805	13308.55
843.13	13250.92
843.454	13206.18
843.778	13070.36
844.103	13184.94
844.427	13146.52
844.751	13152.39
845.075	13045.28
845.399	13012.96
845.723	13068.1
846.047	13042.11
846.371	12869.46
846.695	12846.19
847.019	12803.7
847.343	12778.84
847.666	12743.14
847.99	12640.09
848.313	12547.66
848.637	12534.78
848.96	12523.48
849.284	12519.64
849.607	12369.36
849.931	12353.09
850.254	12282.81
850.577	12207.33
850.9	12090.95
851.223	12109.48
851.546	12049.37
851.869	12033.33
852.192	12004.18
852.515	11862.48
852.838	11861.58
853.161	11827.46
853.483	11798.76
853.806	11732.09
854.129	11713.34
854.451	11690.74
854.774	11658.42
855.096	11601.47
855.419	11602.15
855.741	11606.9
856.063	11536.84
856.385	11468.6
856.708	11453.68
857.03	11388.15
857.352	11467.69
857.674	11371.65
857.996	11368.26
858.318	11255.5
858.64	11203.52
858.961	11229.73
859.283	11170.75
859.605	11114.03
859.926	11134.59
860.248	11121.49
860.57	11055.95
860.891	11054.37
861.212	11032.68
861.534	11067.25
861.855	11007.59
862.176	10973.02
862.498	10996.74
862.819	10916.75
863.14	10872
863.461	10869.97
863.782	10856.64
864.103	10831.78
864.424	10763.98
864.745	10818.44
865.065	10708.39
865.386	10706.36
865.707	10716.98
866.027	10725.34
866.348	10766.92
866.668	10698.9
866.989	10569.86
867.309	10631.1
867.63	10625
867.95	10600.15
868.27	10545.01
868.59	10556.53
868.91	10563.54
869.23	10490.09
869.55	10435.86
869.87	10551.56
870.19	10536.87
870.51	10491.22
870.83	10454.84
871.15	10445.8
871.469	10474.5
871.789	10450.09
872.109	10422.75
872.428	10362.41
872.748	10417.55
873.067	10339.36
873.386	10425.46
873.706	10379.36
874.025	10222.08
874.344	10214.62
874.663	10268.4
874.982	10208.52
875.301	10221.85
875.62	10225.92
875.939	10133.49
876.258	10195.18
876.577	10105.92
876.896	10136.43
877.214	10124.23
877.533	10112.02
877.852	10018.69
878.17	10081.74
878.489	10094.17
878.807	10076.77
879.125	10027.28
879.444	10077.45
879.762	9962.2
880.08	9985.47
880.398	10037
880.716	9996.32
881.034	9941.18
881.352	9945.25
881.67	9907.28
881.988	9899.82
882.306	9853.72
882.624	9754.74
882.941	9771.92
883.259	9724.91
883.577	9801.97
883.894	9781.18
884.212	9765.59
884.529	9708.42
884.846	9673.16
885.164	9640.4
885.481	9652.83
885.798	9683.56
886.115	9534.41
886.432	9553.62
886.75	9545.71
887.067	9489.21
887.383	9497.35
887.7	9522.66
888.017	9443.79
888.334	9451.47
888.651	9444.24
888.967	9399.72
889.284	9317.01
889.6	9307.98
889.917	9245.38
890.233	9242.67
890.55	9146.62
890.866	9191.82
891.182	9251.71
891.498	9190.69
891.815	9123.8
892.131	9105.72
892.447	9129.22
892.763	9007.64
893.079	9047.64
893.395	8935.56
893.71	9009.9
894.026	8951.6
894.342	8931.49
894.657	8859.85
894.973	8874.99
895.289	8809.91
895.604	8782.79
895.92	8708.22
896.235	8723.13
896.55	8741.66
896.865	8679.29
897.181	8677.03
897.496	8603.59
897.811	8547.32
898.126	8614.43
898.441	8550.03
898.756	8461.9
899.071	8430.48
899.386	8472.07
899.7	8348.23
900.015	8374.67
900.33	8290.6
900.644	8278.17
900.959	8252.64
901.273	8231.62
901.588	8203.15
901.902	8103.49
902.216	8169.25
902.531	8124.28
902.845	8110.49
903.159	8067.1
903.473	7969.93
903.787	8045.41
904.101	7945.53
904.415	7963.83
904.729	8005.18
905.042	7858.97
905.356	7840.9
905.67	7804.96
905.984	7814.91
906.297	7788.92
906.611	7728.36
906.924	7738.75
907.237	7715.25
907.551	7592.54
907.864	7611.52
908.177	7585.99
908.491	7546.44
908.804	7490.4
909.117	7438.87
909.43	7423.73
909.743	7359.55
910.056	7353.45
910.368	7287.24
910.681	7245.43
910.994	7296.96
911.307	7271.87
911.619	7225.09
911.932	7235.71
912.244	7205.66
912.557	7135.6
912.869	7165.21
913.181	7071.88
913.494	7055.38
913.806	6973.12
914.118	6987.81
914.43	6996.17
914.742	6969.51
915.054	6901.94
915.366	6890.64
915.678	6865.78
915.99	6854.71
916.302	6828.94
916.613	6749.85
916.925	6755.95
917.236	6709.85
917.548	6739.46
917.859	6723.41
918.171	6628.5
918.482	6589.18
918.794	6607.03
919.105	6560.48
919.416	6517.77
919.727	6554.83
920.038	6491.55
920.349	6453.36
920.66	6427.37
920.971	6465.79
921.282	6400.26
921.593	6370.88
921.903	6342.86
922.214	6301.05
922.525	6252.69
922.835	6257.21
923.146	6211.56
923.456	6195.29
923.767	6233.71
924.077	6136.08
924.387	6153.93
924.697	6137.21
925.008	6058.57
925.318	6068.29
925.628	6015.86
925.938	6030.32
926.248	5949.65
926.558	5953.94
926.867	5943.54
927.177	5967.05
927.487	5843.89
927.796	5875.52
928.106	5856.31
928.416	5797.33
928.725	5842.53
929.034	5728.86
929.344	5807.5
929.653	5731.12
929.962	5711.91
930.271	5709.65
930.581	5692.93
930.89	5612.93
931.199	5608.19
931.508	5589.2
931.817	5586.94
932.125	5557.11
932.434	5533.16
932.743	5485.7
933.051	5465.82
933.36	5472.82
933.669	5442.54
933.977	5378.14
934.286	5380.4
934.594	5346.05
934.902	5311.92
935.21	5287.06
935.519	5313.28
935.827	5290.68
936.135	5210
936.443	5198.71
936.751	5162.55
937.059	5165.71
937.367	5111.02
937.674	5161.42
937.982	5163
938.29	5106.05
938.597	5138.59
938.905	5025.83
939.213	5016.79
939.52	4994.19
939.827	5092.72
940.135	4991.7
940.442	4966.39
940.749	4944.47
941.056	4920.29
941.363	4887.75
941.67	4899.96
941.977	4878.26
942.284	4846.17
942.591	4770.92
942.898	4765.72
943.205	4832.16
943.511	4725.05
943.818	4723.92
944.125	4685.95
944.431	4713.29
944.738	4680.53
945.044	4674.2
945.35	4636.46
945.657	4598.04
945.963	4578.61
946.269	4564.6
946.575	4525.95
946.881	4530.7
947.187	4544.26
947.493	4549.91
947.799	4454.54
948.105	4426.97
948.41	4418.61
948.716	4438.27
949.022	4417.93
949.327	4402.79
949.633	4319.86
949.938	4323.47
950.244	4331.38
950.549	4318.73
950.854	4282.57
951.16	4277.83
951.465	4252.06
951.77	4250.26
952.075	4209.13
952.38	4197.6
952.685	4180.88
952.99	4137.26
953.294	4136.59
953.599	4092.52
953.904	4094.33
954.209	4087.55
954.513	4098.17
954.818	4048
955.122	4041.22
955.426	4024.27
955.731	4005.29
956.035	3988.57
956.339	3961.9
956.643	3930.72
956.948	3902.69
957.252	3883.03
957.556	3928.23
957.86	3847.33
958.163	3838.74
958.467	3815.69
958.771	3854.79
959.075	3817.05
959.378	3829.25
959.682	3792.87
959.985	3753.09
960.289	3754.22
960.592	3760.32
960.896	3736.14
961.199	3723.49
961.502	3700.44
961.805	3693.21
962.108	3663.38
962.411	3670.16
962.714	3606.88
963.017	3564.17
963.32	3602.14
963.623	3640.1
963.926	3597.39
964.228	3586.09
964.531	3565.75
964.833	3514
965.136	3524.4
965.438	3530.95
965.741	3489.6
966.043	3444.4
966.345	3436.27
966.648	3431.52
966.95	3399.2
967.252	3403.72
967.554	3432.42
967.856	3344.97
968.158	3345.19
968.46	3354.01
968.761	3358.98
969.063	3330.05
969.365	3310.62
969.666	3340.22
969.968	3251.64
970.269	3250.73
970.571	3278.3
970.872	3233.56
971.174	3201.47
971.475	3206.44
971.776	3185.65
972.077	3192.2
972.378	3151.98
972.679	3152.88
972.98	3127.8
973.281	3114.69
973.582	3078.31
973.883	3065.65
974.183	3082.38
974.484	3045.77
974.785	3067.24
975.085	3035.6
975.386	3031.3
975.686	3010.29
975.986	2996.5
976.287	3011.64
976.587	2951.98
976.887	2937.07
977.187	2935.94
977.487	2966.67
977.787	2916.05
978.087	2880.8
978.387	2887.13
978.687	2921.25
978.987	2897.75
979.286	2870.63
979.586	2826.79
979.885	2822.72
980.185	2823.4
980.484	2807.81
980.784	2791.99
981.083	2758.77
981.382	2730.97
981.682	2742.72
981.981	2774.14
982.28	2737.98
982.579	2725.1
982.878	2740.46
983.177	2718.09
983.475	2687.58
983.774	2668.6
984.073	2634.25
984.372	2652.33
984.67	2633.12
984.969	2642.16
985.267	2613.91
985.566	2597.64
985.864	2585.89
986.162	2593.35
986.461	2567.14
986.759	2563.29
987.057	2534.14
987.355	2510.19
987.653	2525.1
987.951	2503.41
988.249	2503.86
988.547	2504.76
988.844	2452.11
989.142	2472.68
989.44	2437.65
989.737	2441.94
990.035	2424.77
990.332	2423.41
990.63	2393.36
990.927	2408.5
991.224	2373.92
991.521	2401.94
991.819	2328.5
992.116	2326.01
992.413	2326.92
992.71	2329.63
993.006	2332.34
993.303	2261.61
993.6	2298.67
993.897	2283.3
994.193	2270.42
994.49	2293.24
994.787	2299.57
995.083	2276.97
995.379	2248.73
995.676	2271.55
995.972	2223.42
996.268	2215.28
996.565	2177.09
996.861	2127.6
997.157	2169.63
997.453	2193.36
997.749	2152.01
998.044	2168.05
998.34	2154.94
998.636	2091.22
998.932	2114.27
999.227	2073.82
999.523	2058.67
999.818	2081.05
1000.114	2081.05
1000.409	2065.23
1000.704	2013.7
1001	2022.52
1001.295	2013.03
1001.59	2043.99
1001.885	2037.21
1002.18	2003.08
1002.475	1976.64
1002.77	1959.24
1003.065	1956.98
1003.359	1966.93
1003.654	1929.41
1003.949	1935.74
1004.243	1902.75
1004.538	1908.85
1004.832	1882.86
1005.127	1887.15
1005.421	1862.52
1005.715	1860.94
1006.009	1825.91
1006.304	1855.52
1006.598	1829.08
1006.892	1856.87
1007.186	1825.01
1007.48	1803.99
1007.773	1773.26
1008.067	1776.2
1008.361	1764.22
1008.655	1730.1
1008.948	1742.75
1009.242	1731.68
1009.535	1725.12
1009.829	1720.38
1010.122	1704.79
1010.415	1679.48
1010.708	1659.59
1011.001	1671.57
1011.295	1631.12
1011.588	1668.85
1011.881	1639.48
1012.173	1649.87
1012.466	1681.96
1012.759	1639.93
1013.052	1623.21
1013.344	1599.25
1013.637	1597.9
1013.93	1580.72
1014.222	1572.81
1014.514	1554.73
1014.807	1560.61
1015.099	1561.29
1015.391	1556.09
1015.683	1546.15
1015.976	1514.51
1016.268	1511.57
1016.56	1495.75
1016.851	1528.07
1017.143	1478.58
1017.435	1475.41
1017.727	1468.41
1018.018	1456.88
1018.31	1459.82
1018.602	1430.22
1018.893	1454.4
1019.185	1429.99
1019.476	1421.4
1019.767	1411.46
1020.058	1382.53
1020.35	1354.96
1020.641	1380.95
1020.932	1359.71
1021.223	1362.42
1021.514	1348.41
1021.804	1312.03
1022.095	1313.84
1022.386	1315.87
1022.677	1331.69
1022.967	1309.09
1023.258	1295.76
1023.548	1311.58
1023.839	1307.96
1024.129	1291.69
1024.419	1248.75
1024.709	1262.54
1025	1258.02
1025.29	1248.98
1025.58	1238.81
1025.87	1232.26
1026.16	1213.5
1026.449	1200.84
1026.739	1240.62
1027.029	1235.87
1027.319	1192.93
1027.608	1178.92
1027.898	1191.35
1028.187	1175.76
1028.477	1185.25
1028.766	1156.55
1029.055	1156.78
1029.344	1152.26
1029.634	1135.54
1029.923	1123.78
1030.212	1118.81
1030.501	1124.01
1030.79	1115.42
1031.078	1069.55
1031.367	1087.63
1031.656	1089.43
1031.945	1078.59
1032.233	1066.16
1032.522	1059.6
1032.81	1035.88
1033.099	1023.9
1033.387	1036.1
1033.675	997.23
1033.963	1034.29
1034.251	1025.71
1034.54	1018.25
1034.828	985.71
1035.116	986.61
1035.403	997.91
1035.691	1008.76
1035.979	1026.61
1036.267	983
1036.554	966.73
1036.842	966.05
1037.129	949.78
1037.417	956.78
1037.704	933.51
1037.992	937.12
1038.279	924.24
1038.566	924.02
1038.853	924.02
1039.14	924.02
