Data from hue_280_FLMS001491_00100.txt Node
Date: Tue Feb 07 15:56:09 GMT 2017
User: dcchb
Spectrometer: FLMS00149
Trigger mode: 0
Integration Time (sec): 2.000000E-2
Scans to average: 10
Electric dark correction enabled: true
Nonlinearity correction enabled: false
Boxcar width: 0
XAxis mode: Wavelengths
Number of Pixels in Spectrum: 2048
>>>>>Begin Spectral Data<<<<<
341.393	-4.28
341.776	-4.28
342.16	-4.28
342.543	-56.48
342.927	-59.65
343.31	-76.82
343.693	-55.58
344.077	-64.39
344.46	-57.16
344.843	-43.6
345.226	-31.62
345.61	-30.72
345.993	-22.36
346.376	-14.45
346.759	-14.22
347.142	30.75
347.525	46.79
347.908	52.44
348.291	75.72
348.674	84.53
349.057	120.69
349.44	119.56
349.823	134.93
350.206	138.32
350.588	187.35
350.971	199.56
351.354	232.32
351.737	216.73
352.119	233.23
352.502	229.39
352.884	271.87
353.267	270.97
353.65	286.33
354.032	294.47
354.414	297.41
354.797	319.55
355.179	304.41
355.562	313.45
355.944	313.45
356.326	342.83
356.709	319.78
357.091	341.93
357.473	344.86
357.855	324.07
358.238	339.67
358.62	332.21
359.002	356.16
359.384	331.3
359.766	328.14
360.148	329.05
360.53	332.43
360.912	326.11
361.294	325.88
361.676	354.13
362.057	329.05
362.439	318.65
362.821	334.24
363.203	312.1
363.584	309.16
363.966	328.37
364.348	324.75
364.729	292.44
365.111	302.83
365.493	292.89
365.874	313.9
366.256	316.16
366.637	315.03
367.019	311.87
367.4	318.2
367.781	313.45
368.163	309.16
368.544	311.87
368.925	309.84
369.306	331.53
369.688	301.02
370.069	305.99
370.45	300.35
370.831	295.15
371.212	324.98
371.593	307.12
371.974	300.57
372.355	325.88
372.736	299.22
373.117	331.76
373.498	307.58
373.879	337.86
374.26	296.28
374.641	298.54
375.021	300.12
375.402	315.26
375.783	306.22
376.163	301.25
376.544	322.27
376.925	318.65
377.305	312.32
377.686	313.45
378.066	320.46
378.447	331.08
378.827	314.58
379.208	321.36
379.588	303.73
379.968	311.42
380.349	321.81
380.729	325.88
381.109	341.93
381.489	317.75
381.87	335.15
382.25	316.16
382.63	344.19
383.01	321.81
383.39	344.19
383.77	333.56
384.15	326.33
384.53	336.5
384.91	331.98
385.29	334.24
385.67	358.65
386.049	341.47
386.429	359.78
386.809	363.17
387.189	340.57
387.568	340.8
387.948	337.41
388.328	359.33
388.707	349.84
389.087	370.17
389.466	356.84
389.846	360.23
390.225	352.77
390.605	350.29
390.984	350.51
391.363	371.3
391.743	396.84
392.122	371.3
392.501	382.38
392.881	370.17
393.26	375.37
393.639	385.77
394.018	373.34
394.397	393.22
394.776	371.3
395.155	367.91
395.534	360.68
395.913	386.9
396.292	404.52
396.671	383.51
397.05	381.02
397.429	378.08
397.808	380.8
398.186	405.43
398.565	373.56
398.944	407.46
399.323	397.52
399.701	407.24
400.08	399.1
400.458	395.03
400.837	414.69
401.215	427.12
401.594	418.99
401.972	396.61
402.351	416.73
402.729	416.05
403.107	414.92
403.486	406.33
403.864	422.15
404.242	425.54
404.62	428.03
404.999	428.7
405.377	435.26
405.755	432.32
406.133	435.26
406.511	445.65
406.889	454.24
407.267	444.75
407.645	464.41
408.023	444.07
408.401	478.87
408.779	469.83
409.156	483.84
409.534	495.37
409.912	486.33
410.29	490.85
410.667	498.98
411.045	525.88
411.422	500.57
411.8	530.17
412.178	515.93
412.555	535.82
412.933	547.8
413.31	548.47
413.687	534.01
414.065	565.65
414.442	558.42
414.819	577.17
415.197	553.9
415.574	571.75
415.951	575.14
416.328	598.64
416.705	598.64
417.082	594.35
417.46	590.28
417.837	602.26
418.214	618.08
418.591	633.44
418.967	633.22
419.344	662.82
419.721	642.94
420.098	660.79
420.475	661.24
420.852	684.74
421.228	689.71
421.605	687
421.982	698.3
422.358	719.77
422.735	717.74
423.111	716.61
423.488	735.81
423.864	736.49
424.241	747.79
424.617	776.49
424.994	783.95
425.37	806.09
425.746	787.11
426.123	798.64
426.499	802.48
426.875	809.71
427.251	817.85
427.627	816.26
428.003	820.78
428.379	855.13
428.756	846.77
429.132	859.43
429.507	889.03
429.883	894.45
430.259	871.4
430.635	900.1
431.011	923.38
431.387	945.3
431.763	954.79
432.138	964.73
432.514	979.42
432.89	974.45
433.265	1004.28
433.641	1011.51
434.016	995.02
434.392	1017.16
434.767	1035.02
435.143	1049.93
435.518	1058.29
435.894	1082.25
436.269	1094.9
436.644	1131.96
437.02	1130.61
437.395	1117.5
437.77	1119.08
438.145	1185.75
438.52	1175.8
438.895	1205.63
439.271	1188.68
439.646	1237.27
440.021	1204.95
440.395	1248.57
440.77	1224.61
441.145	1241.79
441.52	1273.88
441.895	1291.28
442.27	1311.39
442.645	1273.43
443.019	1314.33
443.394	1295.12
443.769	1318.85
444.143	1316.36
444.518	1357.94
444.892	1353.2
445.267	1362.24
445.641	1338.28
446.016	1381.9
446.39	1369.02
446.764	1381.22
447.139	1390.49
447.513	1429.36
447.887	1396.14
448.262	1399.53
448.636	1396.36
449.01	1439.98
449.384	1446.08
449.758	1459.41
450.132	1451.05
450.506	1478.39
450.88	1491.05
451.254	1473.42
451.628	1498.28
452.002	1515.68
452.376	1495.79
452.75	1505.06
453.123	1517.26
453.497	1539.18
453.871	1558.62
454.244	1569.46
454.618	1568.33
454.992	1599.52
455.365	1586.87
455.739	1659.41
456.112	1632.51
456.486	1643.36
456.859	1670.48
457.232	1691.72
457.606	1663.7
457.979	1706.41
458.352	1732.62
458.725	1738.95
459.099	1757.71
459.472	1771.49
459.845	1799.74
460.218	1787.31
460.591	1818.05
460.964	1809.68
461.337	1868.67
461.71	1843.13
462.083	1889.91
462.456	1870.93
462.829	1878.16
463.201	1883.13
463.574	1926.52
463.947	1951.83
464.32	1985.95
464.692	1996.35
465.065	2017.81
465.438	2028.89
465.81	2001.32
466.183	2067.08
466.555	2091.48
466.928	2100.98
467.3	2104.59
467.672	2138.71
468.045	2157.47
468.417	2170.58
468.789	2186.17
469.161	2193.4
469.534	2220.52
469.906	2260.52
470.278	2271.82
470.65	2291.93
471.022	2345.04
471.394	2368.31
471.766	2352.04
472.138	2391.82
472.51	2453.06
472.882	2410.57
473.253	2458.25
473.625	2513.85
473.997	2544.13
474.369	2544.13
474.74	2563.34
475.112	2633.39
475.484	2651.24
475.855	2623.9
476.227	2649.44
476.598	2733.05
476.97	2743.44
477.341	2811.47
477.713	2836.32
478.084	2844.91
478.455	2898.69
478.827	2911.58
479.198	2988.86
479.569	2966.04
479.94	3033.61
480.311	3069.99
480.682	3148.63
481.053	3176.65
481.424	3233.38
481.795	3222.75
482.166	3234.51
482.537	3256.43
482.908	3397.21
483.279	3342.98
483.65	3385.69
484.021	3387.5
484.391	3483.54
484.762	3497.32
485.133	3547.27
485.503	3566.7
485.874	3647.15
486.244	3675.17
486.615	3677.66
486.985	3715.85
487.356	3829.29
487.726	3800.59
488.097	3862.06
488.467	3853.25
488.837	3947.93
489.207	3947.71
489.578	4033.58
489.948	3994.94
490.318	4112.9
490.688	4053.24
491.058	4111.54
491.428	4178.89
491.798	4164.88
492.168	4303.86
492.538	4287.81
492.908	4324.42
493.278	4325.55
493.648	4354.25
494.017	4412.33
494.387	4454.13
494.757	4439.9
495.126	4558.09
495.496	4505.21
495.866	4553.11
496.235	4566
496.605	4624.07
496.974	4592.44
497.344	4612.55
497.713	4606.45
498.082	4658.87
498.452	4719.21
498.821	4699.33
499.19	4713.56
499.559	4752.88
499.928	4732.55
500.298	4781.58
500.667	4850.06
501.036	4824.75
501.405	4853.67
501.774	4864.07
502.143	4878.76
502.512	4911.75
502.88	4948.81
503.249	4991.3
503.618	4973.89
503.987	4960.11
504.356	5043.27
504.724	5012.31
505.093	5024.06
505.462	5052.08
505.83	5032.2
506.199	5038.07
506.567	5113.1
506.936	5118.3
507.304	5119.43
507.672	5163.95
508.041	5160.33
508.409	5185.19
508.777	5210.27
509.145	5306.54
509.514	5249.37
509.882	5296.6
510.25	5302.25
510.618	5356.03
510.986	5266.54
511.354	5328.69
511.722	5351.51
512.09	5396.03
512.458	5392.87
512.826	5396.93
513.193	5418.4
513.561	5429.25
513.929	5436.26
514.297	5438.52
514.664	5518.06
515.032	5445.52
515.4	5512.64
515.767	5432.41
516.135	5522.13
516.502	5539.98
516.869	5584.73
517.237	5594.67
517.604	5553.31
517.972	5591.28
518.339	5566.65
518.706	5584.95
519.073	5616.36
519.44	5662.01
519.808	5663.14
520.175	5643.03
520.542	5746.76
520.909	5749.24
521.276	5704.95
521.643	5730.71
522.009	5759.86
522.376	5793.99
522.743	5799.86
523.11	5819.75
523.477	5898.16
523.843	5903.36
524.21	5918.73
524.577	5964.38
524.943	5943.81
525.31	5986.07
525.676	5984.72
526.043	6001.89
526.409	6069.46
526.776	6059.52
527.142	6009.12
527.508	6116.01
527.874	6147.65
528.241	6153.52
528.607	6181.77
528.973	6214.31
529.339	6212.28
529.705	6236.91
530.071	6229.23
530.437	6268.32
530.803	6310.81
531.169	6352.62
531.535	6310.58
531.901	6314.88
532.267	6338.83
532.632	6364.82
532.998	6349.45
533.364	6415.21
533.73	6416.12
534.095	6454.31
534.461	6425.83
534.826	6467.87
535.192	6473.97
535.557	6541.76
535.923	6513.29
536.288	6516.68
536.653	6560.97
537.019	6436.23
537.384	6555.77
537.749	6600.52
538.114	6580.63
538.479	6567.53
538.845	6667.18
539.21	6546.28
539.575	6619.73
539.94	6686.84
540.305	6682.1
540.67	6633.96
541.034	6659.5
541.399	6656.56
541.764	6705.6
542.129	6690.46
542.494	6739.95
542.858	6672.16
543.223	6784.24
543.587	6833.05
543.952	6746.28
544.316	6856.56
544.681	6798.25
545.045	6786.05
545.41	6815.88
545.774	6831.7
546.138	6843.9
546.503	6866.27
546.867	6826.73
547.231	6918.7
547.595	6838.03
547.959	6933.39
548.324	6880.51
548.688	6870.12
549.052	6912.15
549.416	6894.97
549.779	6921.64
550.143	6972.26
550.507	6955.54
550.871	6960.28
551.235	6920.74
551.599	7036.67
551.962	6969.77
552.326	7053.84
552.689	7040.73
553.053	7028.08
553.417	7032.6
553.78	7113.05
554.143	7032.15
554.507	7112.82
554.87	7119.83
555.234	7178.36
555.597	7131.8
555.96	7117.57
556.323	7152.14
556.686	7139.71
557.05	7187.62
557.413	7220.62
557.776	7217.9
558.139	7249.09
558.502	7269.43
558.865	7194.18
559.228	7318.69
559.59	7304.91
559.953	7370.67
560.316	7373.15
560.679	7386.49
561.041	7431.23
561.404	7432.14
561.767	7464.68
562.129	7403.21
562.492	7484.34
562.854	7463.77
563.217	7459.03
563.579	7450.21
563.941	7565.92
564.304	7580.38
564.666	7609.53
565.028	7659.02
565.39	7606.37
565.753	7706.03
566.115	7711.45
566.477	7739.47
566.839	7699.47
567.201	7791.45
567.563	7831.9
567.925	7874.84
568.287	7899.24
568.648	7870.77
569.01	7892.24
569.372	7972.01
569.734	7922.07
570.095	8002.06
570.457	8077.77
570.819	8044.55
571.18	8045.23
571.542	8057.43
571.903	8095.62
572.265	8202.96
572.626	8146.47
572.987	8171.1
573.349	8220.14
573.71	8211.55
574.071	8313.92
574.432	8265.33
574.794	8371.55
575.155	8378.55
575.516	8331.77
575.877	8399.79
576.238	8484.08
576.599	8497.87
576.96	8540.58
577.32	8526.34
577.681	8554.59
578.042	8682.72
578.403	8646.57
578.763	8671.88
579.124	8742.16
579.485	8778.99
579.845	8824.64
580.206	8783.96
580.566	8904.19
580.927	8877.97
581.287	9000.46
581.648	9023.51
582.008	9155.48
582.368	9111.64
582.728	9151.41
583.089	9270.73
583.449	9294.23
583.809	9346.89
584.169	9374.91
584.529	9381.69
584.889	9494.68
585.249	9487.45
585.609	9528.13
585.969	9705.3
586.329	9652.64
586.688	9832.75
587.048	9746.88
587.408	9830.72
587.768	9955.46
588.127	9985.06
588.487	10091.5
588.846	10120.43
589.206	10236.58
589.565	10171.5
589.925	10307.54
590.284	10373.98
590.643	10431.38
591.003	10498.27
591.362	10589.57
591.721	10607.87
592.08	10671.6
592.44	10769.67
592.799	10850.8
593.158	10942.1
593.517	10976.45
593.876	11066.84
594.235	11059.84
594.593	11137.8
594.952	11170.79
595.311	11302.32
595.67	11316.1
596.029	11383.67
596.387	11494.85
596.746	11514.74
597.104	11488.75
597.463	11588.41
597.822	11755.19
598.18	11736.2
598.538	11750.21
598.897	11795.86
599.255	11810.78
599.613	12088.51
599.972	12039.7
600.33	12067.72
600.688	12107.49
601.046	12206.92
601.404	12281.5
601.762	12303.87
602.12	12367.82
602.478	12396.07
602.836	12494.15
603.194	12408.5
603.552	12528.27
603.91	12518.1
604.268	12629.74
604.625	12644.43
604.983	12780.47
605.341	12647.82
605.698	12688.95
606.056	12773.69
606.413	12800.58
606.771	12849.85
607.128	12969.16
607.485	12921.93
607.843	12985.66
608.2	13086.9
608.557	13135.94
608.914	13006.68
609.272	13118.77
609.629	13217.52
609.986	13330.29
610.343	13213
610.7	13347.01
611.057	13300
611.414	13388.81
611.771	13455.48
612.127	13450.28
612.484	13495.25
612.841	13519.88
613.198	13628.13
613.554	13608.02
613.911	13592.88
614.267	13626.77
614.624	13626.32
614.98	13618.87
615.337	13781.57
615.693	13692.99
616.05	13712.87
616.406	13878.75
616.762	13774.79
617.118	13795.13
617.475	13783.83
617.831	13923.26
618.187	13942.92
618.543	13973.21
618.899	14008.23
619.255	13966.2
619.611	13989.7
619.967	13991.28
620.323	14022.47
620.678	14020.21
621.034	14033.32
621.39	14036.03
621.746	13984.05
622.101	14209.36
622.457	14063.15
622.812	14125.52
623.168	14163.94
623.523	14125.52
623.879	14196.25
624.234	14078.29
624.589	14212.52
624.945	14195.8
625.3	14231.05
625.655	14264.27
626.01	14235.12
626.365	14256.36
626.72	14273.54
627.075	14213.2
627.43	14241.22
627.785	14259.3
628.14	14310.82
628.495	14328.9
628.85	14217.04
629.205	14254.55
629.559	14236.02
629.914	14215.91
630.269	14214.33
630.623	14185.86
630.978	14195.57
631.332	14244.61
631.687	14191.96
632.041	14208.68
632.396	14268.79
632.75	14152.41
633.104	14157.38
633.459	14098.4
633.813	14179.53
634.167	14161.9
634.521	14125.52
634.875	14111.96
635.229	14144.05
635.583	14108.8
635.937	14100.43
636.291	14035.8
636.645	14015.24
636.999	14026.99
637.352	14036.03
637.706	13979.53
638.06	14006.88
638.413	14032.64
638.767	14007.33
639.121	14016.82
639.474	13869.25
639.828	13911.06
640.181	13915.35
640.534	13999.87
640.888	13886.43
641.241	13825.19
641.594	13914.68
641.947	13884.85
642.301	13848.24
642.654	13867.9
643.007	13942.92
643.36	13841.01
643.713	13876.94
644.066	13868.35
644.419	13821.12
644.771	13598.07
645.124	13517.62
645.477	13612.76
645.83	13603.95
646.182	13509.94
646.535	13476.5
646.888	13436.5
647.24	13371.19
647.593	13456.38
647.945	13379.78
648.298	13347.91
648.65	13407.35
649.002	13377.06
649.355	13412.77
649.707	13370.28
650.059	13566.66
650.411	13674
650.763	13611.63
651.115	13812.98
651.467	13822.02
651.819	13643.5
652.171	13779.99
652.523	13658.41
652.875	13785.41
653.227	13750.61
653.578	13814.79
653.93	13778.18
654.282	13674
654.633	13661.8
654.985	13717.62
655.337	13711.52
655.688	13749.94
656.039	13747.22
656.391	13651.86
656.742	13693.21
657.094	13697.96
657.445	13768.24
657.796	13766.21
658.147	13756.04
658.498	13757.84
658.849	13739.77
659.2	13717.39
659.551	13785.64
659.902	13730.27
660.253	13648.47
660.604	13779.99
660.955	13742.48
661.306	13747
661.656	13789.48
662.007	13797.84
662.358	13768.47
662.708	13760.56
663.059	13827.9
663.409	13756.49
663.76	13847.56
664.11	13838.29
664.461	13818.63
664.811	13841.91
665.161	13852.08
665.511	13895.92
665.862	13762.14
666.212	13830.61
666.562	13880.55
666.912	13851.63
667.262	13893.21
667.612	13897.05
667.962	13869.71
668.312	13889.59
668.662	13890.27
669.011	13894.34
669.361	13807.11
669.711	13900.89
670.06	13780.22
670.41	13834.23
670.76	13760.33
671.109	13822.7
671.459	13805.07
671.808	13796.71
672.157	13828.13
672.507	13724.17
672.856	13739.09
673.205	13784.51
673.554	13772.53
673.904	13727.34
674.253	13783.15
674.602	13715.81
674.951	13524.4
675.3	13452.09
675.649	13730.73
675.998	13601.92
676.346	13721.24
676.695	13660.9
677.044	13553.33
677.393	13608.92
677.741	13728.69
678.09	13655.7
678.438	13500.68
678.787	13550.39
679.135	13580
679.484	13480.56
679.832	13524.63
680.181	13462.26
680.529	13530.28
680.877	13414.12
681.225	13332.54
681.573	13426.55
681.922	13399.44
682.27	13343.62
682.618	13375.93
682.966	13330.96
683.314	13309.95
683.661	13307.46
684.009	13203.06
684.357	13287.57
684.705	13179.55
685.053	13165.09
685.4	13241.7
685.748	13056.17
686.095	13108.14
686.443	13046.22
686.79	13029.05
687.138	13053
687.485	12991.76
687.832	12977.07
688.18	12979.11
688.527	12864.08
688.874	12873.8
689.221	12879.45
689.568	12820.69
689.915	12820.69
690.262	12770.75
690.609	12695.05
690.956	12643.98
691.303	12577.54
691.65	12476.52
691.997	12505.22
692.344	12429.52
692.69	12480.59
693.037	12422.06
693.383	12302.97
693.73	12400.59
694.077	12338.45
694.423	12225.23
694.769	12260.03
695.116	12166.25
695.462	12213.93
695.808	12132.35
696.155	12112.46
696.501	12041.05
696.847	11970.55
697.193	12012.81
697.539	12049.19
697.885	11868.4
698.231	11884.45
698.577	11889.87
698.923	11840.38
699.269	11735.52
699.614	11711.8
699.96	11645.13
700.306	11586.6
700.651	11590.67
700.997	11540.95
701.342	11393.16
701.688	11425.25
702.033	11364.69
702.379	11373.73
702.724	11300.51
703.069	11388.19
703.415	11208.53
703.76	11237.68
704.105	11236.1
704.45	11127.41
704.795	11107.29
705.14	11105.26
705.485	11038.82
705.83	10960.18
706.175	11025.03
706.52	10980.06
706.865	10910.24
707.209	10889.22
707.554	10816
707.899	10876.79
708.243	10766.28
708.588	10744.36
708.932	10655.55
709.277	10679.51
709.621	10682.22
709.966	10644.25
710.31	10647.42
710.654	10500.08
710.998	10543.69
711.342	10524.48
711.687	10572.62
712.031	10435.67
712.375	10486.74
712.719	10479.51
713.063	10451.26
713.407	10452.39
713.75	10432.96
714.094	10381.21
714.438	10377.82
714.782	10376.01
715.125	10274.09
715.469	10345.96
715.812	10293.08
716.156	10235
716.499	10169.01
716.843	10259.63
717.186	10116.58
717.53	10227.54
717.873	10187.32
718.216	10117.26
718.559	10103.03
718.902	10079.75
719.246	10158.17
719.589	10019.64
719.932	9983.71
720.275	10046.76
720.617	10021.67
720.96	10020.99
721.303	9994.78
721.646	9992.52
721.989	9939.64
722.331	9969.47
722.674	9935.57
723.016	9941.22
723.359	9926.76
723.701	9971.05
724.044	9922.69
724.386	9825.29
724.729	9931.5
725.071	9858.06
725.413	9898.51
725.755	9848.57
726.097	9886.08
726.439	9861.9
726.782	9802.47
727.124	9838.63
727.465	9811.51
727.807	9767.67
728.149	9773.99
728.491	9847.66
728.833	9750.27
729.175	9825.07
729.516	9859.64
729.858	9803.15
730.199	9798.63
730.541	9773.99
730.882	9711.62
731.224	9741
731.565	9754.33
731.906	9812.41
732.248	9790.72
732.589	9733.09
732.93	9740.77
733.271	9691.74
733.612	9726.31
733.953	9811.28
734.294	9788.68
734.635	9756.14
734.976	9772.64
735.317	9689.25
735.658	9729.02
735.999	9688.35
736.339	9713.88
736.68	9753.43
737.021	9696.71
737.361	9731.74
737.702	9758.63
738.042	9720.21
738.383	9694.45
738.723	9731.96
739.063	9716.14
739.404	9738.52
739.744	9799.98
740.084	9773.32
740.424	9736.93
740.764	9781.45
741.104	9770.15
741.444	9837.04
741.784	9811.51
742.124	9863.26
742.464	9853.54
742.804	9820.32
743.143	9836.14
743.483	9934.44
743.823	9907.78
744.162	9937.83
744.502	9971.96
744.841	9935.35
745.181	10046.53
745.52	10079.75
745.86	10067.77
746.199	10121.78
746.538	10222.57
746.877	10177.6
747.216	10249.46
747.556	10358.84
747.895	10314.55
748.234	10360.42
748.573	10359.97
748.911	10473.19
749.25	10486.74
749.589	10600.41
749.928	10677.93
750.267	10798.6
750.605	10776.23
750.944	10881.08
751.283	10909.78
751.621	10960.63
751.96	10996.79
752.298	11104.35
752.636	11254.63
752.975	11282.2
753.313	11445.59
753.651	11527.17
753.989	11603.78
754.327	11664.34
754.666	11723.32
755.004	11894.62
755.342	12102.75
755.679	12181.16
756.017	12157.21
756.355	12377.54
756.693	12480.82
757.031	12690.3
757.368	12773.01
757.706	12885.55
758.044	12960.58
758.381	13153.34
758.719	13238.99
759.056	13427.01
759.394	13618.64
759.731	13531.18
760.068	13791.97
760.405	13859.31
760.743	14005.97
761.08	14202.58
761.417	14334.33
761.754	14451.16
762.091	14590.36
762.428	14769.12
762.765	14818.16
763.102	15068.09
763.438	15042.33
763.775	15115.1
764.112	15291.82
764.449	15464.69
764.785	15619.94
765.122	15704.69
765.458	15809.32
765.795	16012.93
766.131	16123.88
766.467	16128.4
766.804	16211.79
767.14	16369.53
767.476	16426.02
767.812	16529.52
768.148	16684.55
768.485	16667.82
768.821	16829.85
769.157	16852.45
769.492	16981.71
769.828	17071.66
770.164	17064.88
770.5	17113.69
770.836	17232.78
771.171	17316.62
771.507	17331.54
771.842	17249.5
772.178	17364.98
772.513	17487.69
772.849	17540.12
773.184	17644.52
773.519	17723.16
773.855	17675.03
774.19	17707.12
774.525	17799.09
774.86	17809.49
775.195	17746.89
775.53	17843.16
775.865	17846.32
776.2	17765.65
776.535	17726.78
776.87	17835.7
777.205	17972.87
777.539	17857.17
777.874	18025.75
778.209	17879.09
778.543	17835.48
778.878	17948.92
779.212	17952.08
779.547	17861.24
779.881	17999.31
780.215	17817.85
780.55	18002.93
780.884	17854.91
781.218	17826.21
781.552	17896.27
781.886	17826.44
782.22	17776.04
782.554	17748.7
782.888	17745.31
783.222	17627.8
783.556	17704.63
783.889	17629.61
784.223	17551.42
784.557	17629.61
784.89	17616.95
785.224	17606.56
785.557	17566.78
785.891	17590.51
786.224	17587.8
786.558	17562.72
786.891	17369.5
787.224	17372.89
787.557	17298.54
787.891	17344.42
788.224	17342.16
788.557	17396.39
788.89	17274.59
789.223	17345.09
789.556	17247.47
789.888	17241.82
790.221	17161.82
790.554	17032.33
790.887	17086.34
791.219	16973.58
791.552	17003.41
791.884	16963.64
792.217	16928.38
792.549	16932.45
792.882	16805
793.214	16690.87
793.546	16845.9
793.879	16639.58
794.211	16594.38
794.543	16757.77
794.875	16683.64
795.207	16609.97
795.539	16568.17
795.871	16504.66
796.203	16290.43
796.535	16284.56
796.867	16312.58
797.198	16278.68
797.53	16231.68
797.862	16177.67
798.193	16240.94
798.525	16149.87
798.856	16174.96
799.188	16010.67
799.519	15977.9
799.85	15831.91
800.182	15890.22
800.513	15961.4
800.844	15783.33
801.175	15817.45
801.506	15818.58
801.837	15757.34
802.168	15696.55
802.499	15614.74
802.83	15512.15
803.161	15538.59
803.491	15542.2
803.822	15559.61
804.153	15480.74
804.483	15299.5
804.814	15273.28
805.145	15289.33
805.475	15353.06
805.805	15244.36
806.136	15230.35
806.466	15190.35
806.796	15198.94
807.126	15073.06
807.457	15027.19
807.787	15036.68
808.117	15028.09
808.447	14973.18
808.777	14939.28
809.107	14963.91
809.436	14929.11
809.766	14812.28
810.096	14780.87
810.426	14716.24
810.755	14798.04
811.085	14610.25
811.414	14672.17
811.744	14635.11
812.073	14639.4
812.403	14601.44
812.732	14449.13
813.061	14522.57
813.39	14492.51
813.719	14516.24
814.049	14464.04
814.378	14400.99
814.707	14361.22
815.036	14344.95
815.365	14253.88
815.693	14174.33
816.022	14249.36
816.351	14120.77
816.68	14133.2
817.008	14116.25
817.337	13942.25
817.665	14059.76
817.994	14051.4
818.322	14020.21
818.651	14017.5
818.979	13863.38
819.307	13967.78
819.636	13903.6
819.964	13878.29
820.292	13870.61
820.62	13853.66
820.948	13821.8
821.276	13911.29
821.604	13834
821.932	13849.14
822.259	13811.85
822.587	13789.26
822.915	13791.52
823.243	13855.24
823.57	13738.64
823.898	13728.01
824.225	13720.11
824.553	13776.38
824.88	13766.66
825.207	13759.43
825.535	13775.7
825.862	13815.92
826.189	13681.46
826.516	13824.28
826.843	13850.95
827.17	13859.54
827.497	13837.84
827.824	13822.7
828.151	13836.03
828.478	13841.46
828.805	13874.68
829.131	13757.17
829.458	13784.96
829.785	13772.31
830.111	13734.12
830.438	13790.39
830.764	13749.26
831.09	13779.76
831.417	13787.22
831.743	13820.89
832.069	13823.15
832.395	13698.19
832.722	13693.89
833.048	13695.02
833.374	13670.84
833.7	13614.35
834.026	13670.84
834.351	13631.29
834.677	13623.16
835.003	13711.52
835.329	13584.29
835.654	13666.55
835.98	13583.84
836.306	13614.8
836.631	13566.66
836.956	13571.41
837.282	13601.46
837.607	13490.28
837.932	13506.1
838.258	13429.72
838.583	13417.97
838.908	13424.52
839.233	13450.96
839.558	13363.73
839.883	13265.2
840.208	13298.42
840.533	13325.09
840.858	13289.16
841.182	13325.09
841.507	13322.38
841.832	13193.11
842.156	13162.61
842.481	13197.41
842.805	13164.41
843.13	13091.42
843.454	13089.16
843.778	13091.65
844.103	12983.85
844.427	12989.73
844.751	12953.35
845.075	12923.74
845.399	12830.41
845.723	12800.58
846.047	12813.46
846.371	12809.62
846.695	12683.97
847.019	12660.25
847.343	12596.97
847.666	12497.54
847.99	12476.52
848.313	12499.12
848.637	12363.53
848.96	12401.27
849.284	12340.71
849.607	12270.65
849.931	12238.56
850.254	12083.09
850.577	12094.39
850.9	11960.38
851.223	12015.07
851.546	12011.9
851.869	11812.13
852.192	11879.02
852.515	11801.51
852.838	11749.76
853.161	11707.28
853.483	11696.88
853.806	11588.41
854.129	11563.55
854.451	11561.07
854.774	11559.71
855.096	11492.82
855.419	11515.42
855.741	11478.36
856.063	11355.87
856.385	11331.02
856.708	11292.6
857.03	11277.46
857.352	11262.54
857.674	11229.1
857.996	11244.69
858.318	11116.33
858.64	11148.42
858.961	11072.72
859.283	11027.52
859.605	11033.17
859.926	11048.31
860.248	10960.63
860.57	11010.12
860.891	10952.49
861.212	10938.03
861.534	10859.16
861.855	10786.85
862.176	10817.13
862.498	10869.78
862.819	10886.51
863.14	10745.49
863.461	10716.57
863.782	10751.82
864.103	10785.95
864.424	10710.92
864.745	10715.89
865.065	10672.95
865.386	10629.57
865.707	10554.09
866.027	10679.28
866.348	10628.66
866.668	10521.32
866.989	10519.51
867.309	10496.46
867.63	10497.82
867.95	10488.33
868.27	10385.73
868.59	10429.12
868.91	10372.4
869.23	10374.2
869.55	10346.63
869.87	10399.51
870.19	10381.89
870.51	10395.22
870.83	10357.71
871.15	10286.52
871.469	10253.08
871.789	10287.88
872.109	10258.28
872.428	10189.58
872.748	10202.68
873.067	10200.42
873.386	10185.51
873.706	10202.01
874.025	10180.76
874.344	10076.81
874.663	10207.66
874.982	10102.35
875.301	10059.41
875.62	10023.71
875.939	10042.91
876.258	10007.66
876.577	10028.45
876.896	9999.3
877.214	9938.74
877.533	10006.76
877.852	9936.25
878.17	9984.84
878.489	10025.74
878.807	9891.51
879.125	9863.03
879.444	9863.03
879.762	9860.32
880.08	9896.25
880.398	9855.12
880.716	9783.94
881.034	9820.09
881.352	9755.92
881.67	9761.79
881.988	9817.38
882.306	9697.61
882.624	9650.38
882.941	9672.75
883.259	9631.17
883.577	9596.37
883.894	9595.47
884.212	9575.58
884.529	9597.05
884.846	9558.86
885.164	9554.11
885.481	9507.11
885.798	9541.01
886.115	9407.45
886.432	9451.97
886.75	9361.12
887.067	9363.61
887.383	9373.1
887.7	9395.93
888.017	9310.28
888.334	9275.93
888.651	9276.15
888.967	9252.2
889.284	9180.34
889.6	9125.88
889.917	9086.78
890.233	9123.84
890.55	9079.78
890.866	9128.36
891.182	9063.73
891.498	9007.91
891.815	8989.61
892.131	8975.37
892.447	8923.62
892.763	8940.12
893.079	8826.22
893.395	8887.92
893.71	8849.5
894.026	8766.79
894.342	8811.31
894.657	8703.06
894.973	8731.99
895.289	8695.38
895.604	8680.46
895.92	8578.55
896.235	8590.3
896.55	8600.24
896.865	8570.64
897.181	8501.94
897.496	8523.63
897.811	8481.6
898.126	8403.41
898.441	8355.5
898.756	8365.9
899.071	8296.97
899.386	8342.62
899.7	8253.58
900.015	8185.56
900.33	8165.68
900.644	8240.02
900.959	8244.09
901.273	8203.41
901.588	8120.03
901.902	8088.84
902.216	8014.49
902.531	8048.16
902.845	8024.44
903.159	7984.66
903.473	7900.6
903.787	7826.48
904.101	7775.85
904.415	7831.9
904.729	7894.5
905.042	7807.27
905.356	7766.59
905.67	7721.39
905.984	7758.23
906.297	7662.86
906.611	7632.58
906.924	7641.62
907.237	7623.54
907.551	7529.31
907.864	7533.15
908.177	7498.35
908.491	7462.64
908.804	7407.95
909.117	7339.03
909.43	7327.73
909.743	7310.78
910.056	7303.78
910.368	7271.46
910.681	7270.78
910.994	7178.13
911.307	7160.96
911.619	7118.7
911.932	7136.78
912.244	7073.95
912.557	7044.8
912.869	7111.01
913.181	7008.42
913.494	7007.51
913.806	6975.2
914.118	6903.34
914.43	6881.87
914.742	6909.66
915.054	6876.67
915.366	6843.9
915.678	6787.63
915.99	6730.46
916.302	6742.21
916.613	6639.84
916.925	6630.35
917.236	6715.54
917.548	6635.55
917.859	6582.89
918.171	6551.03
918.482	6527.53
918.794	6504.93
919.105	6477.81
919.416	6447.53
919.727	6436.46
920.038	6440.52
920.349	6376.12
920.66	6301.09
920.971	6341.32
921.282	6351.49
921.593	6260.19
921.903	6242.56
922.214	6243.47
922.525	6201.43
922.835	6188.55
923.146	6127.76
923.456	6125.5
923.767	6112.17
924.077	6124.15
924.387	6071.04
924.697	5977.26
925.008	6023.81
925.318	5963.7
925.628	6000.53
925.938	5890.03
926.248	5871.95
926.558	5825.62
926.867	5815.23
927.177	5842.12
927.487	5809.35
927.796	5708.11
928.106	5734.78
928.416	5684.16
928.725	5702.24
929.034	5664.5
929.344	5673.09
929.653	5656.59
929.962	5599.87
930.271	5568.68
930.581	5539.3
930.89	5523.03
931.199	5501.11
931.508	5495.69
931.817	5480.1
932.125	5453.66
932.434	5455.01
932.743	5377.05
933.051	5431.74
933.36	5354.9
933.669	5331.63
933.977	5274.45
934.286	5313.77
934.594	5316.94
934.902	5250.27
935.21	5241.01
935.519	5265.86
935.827	5207.79
936.135	5150.39
936.443	5131.63
936.751	5147.45
937.059	5148.35
937.367	5075.81
937.674	5115.81
937.982	5024.74
938.29	4988.58
938.597	4999.2
938.905	4921.47
939.213	4959.88
939.52	4912.43
939.827	4892.31
940.135	4900
940.442	4868.81
940.749	4821.58
941.056	4908.81
941.363	4782.94
941.67	4802.37
941.977	4748.82
942.284	4690.96
942.591	4695.03
942.898	4693.9
943.205	4666.56
943.511	4696.16
943.818	4674.02
944.125	4568.71
944.431	4587.92
944.738	4552.89
945.044	4604.19
945.35	4562.61
945.657	4521.7
945.963	4545.21
946.269	4512.89
946.575	4436.73
946.881	4409.62
947.187	4412.33
947.493	4449.39
947.799	4362.16
948.105	4356.51
948.41	4347.24
948.716	4375.04
949.022	4377.53
949.327	4272.22
949.633	4279.45
949.938	4316.74
950.244	4248.26
950.549	4208.27
950.854	4191.32
951.16	4172.79
951.465	4150.41
951.77	4167.36
952.075	4144.99
952.38	4092.11
952.685	4102.73
952.99	4039.68
953.294	4082.62
953.599	4041.49
953.904	4024.99
954.209	3988.61
954.513	4037.42
954.818	3954.94
955.122	3954.26
955.426	3937.76
955.731	3937.31
956.035	3900.02
956.339	3890.31
956.643	3871.32
956.948	3893.25
957.252	3840.59
957.556	3832.91
957.86	3792
958.163	3806.02
958.467	3736.41
958.771	3772.34
959.075	3762.63
959.378	3762.18
959.682	3754.94
959.985	3698.45
960.289	3700.93
960.592	3691.89
960.896	3637.88
961.199	3634.27
961.502	3613.48
961.805	3649.18
962.108	3524.67
962.411	3576.87
962.714	3539.36
963.017	3515.4
963.32	3555.17
963.623	3521.73
963.926	3494.16
964.228	3488.74
964.531	3433.14
964.833	3442.86
965.136	3401.73
965.438	3385.91
965.741	3373.48
966.043	3381.62
966.345	3385.46
966.648	3352.69
966.95	3343.88
967.252	3328.06
967.554	3354.05
967.856	3326.25
968.158	3250.32
968.46	3286.71
968.761	3281.96
969.063	3219.36
969.365	3215.3
969.666	3224.56
969.968	3213.94
970.269	3211.23
970.571	3146.6
970.872	3125.81
971.174	3147.5
971.475	3118.35
971.776	3122.42
972.077	3134.17
972.378	3081.74
972.679	3082.64
972.98	3048.07
973.281	3061.18
973.582	3054.17
973.883	3042.19
974.183	3024.12
974.484	3024.12
974.785	3006.49
975.085	2957.68
975.386	3028.64
975.686	2904.57
975.986	2943.21
976.287	2927.39
976.587	2890.79
976.887	2888.53
977.187	2879.71
977.487	2867.28
977.787	2868.19
978.087	2877.9
978.387	2871.58
978.687	2832.71
978.987	2797.68
979.286	2823.89
979.586	2775.31
979.885	2726.5
980.185	2768.3
980.484	2757.46
980.784	2765.59
981.083	2726.5
981.382	2696.89
981.682	2700.96
981.981	2700.96
982.28	2676.78
982.579	2675.2
982.878	2644.01
983.177	2603.11
983.475	2610.57
983.774	2597.69
984.073	2614.18
984.372	2565.82
984.67	2556.78
984.969	2582.77
985.267	2589.1
985.566	2529.89
985.864	2509.55
986.162	2528.31
986.461	2519.5
986.759	2501.19
987.057	2460.74
987.355	2472.49
987.653	2472.49
987.951	2474.98
988.249	2415.77
988.547	2419.16
988.844	2454.86
989.142	2404.92
989.44	2361.99
989.737	2401.31
990.035	2361.99
990.332	2400.63
990.63	2349.56
990.927	2340.29
991.224	2340.52
991.521	2306.62
991.819	2319.28
992.116	2316.11
992.413	2323.57
992.71	2299.84
993.006	2251.71
993.303	2246.96
993.6	2264.59
993.897	2233.18
994.193	2253.29
994.49	2199.5
994.787	2194.53
995.083	2173.97
995.379	2183.23
995.676	2187.08
995.972	2155.21
996.268	2149.34
996.565	2112.95
996.861	2137.59
997.157	2105.95
997.453	2076.34
997.749	2099.39
998.044	2071.82
998.34	2053.07
998.636	2070.47
998.932	2049.9
999.227	2073.18
999.523	2048.55
999.818	2012.84
1000.114	2008.1
1000.409	2001.32
1000.704	1968.78
1001	1972.84
1001.295	1993.41
1001.59	1982.11
1001.885	1978.27
1002.18	1910.7
1002.475	1894.88
1002.77	1913.64
1003.065	1873.86
1003.359	1922.68
1003.654	1898.72
1003.949	1884.26
1004.243	1853.75
1004.538	1849.68
1004.832	1885.84
1005.127	1855.78
1005.421	1831.6
1005.715	1829.34
1006.009	1785.96
1006.304	1810.14
1006.598	1778.95
1006.892	1765.17
1007.186	1777.37
1007.48	1728.33
1007.773	1756.13
1008.067	1733.98
1008.361	1733.75
1008.655	1711.61
1008.948	1743.7
1009.242	1689.01
1009.535	1667.09
1009.829	1656.69
1010.122	1673.19
1010.415	1658.28
1010.708	1670.25
1011.001	1641.78
1011.295	1644.49
1011.588	1597.49
1011.881	1628.9
1012.173	1585.51
1012.466	1614.21
1012.759	1562.68
1013.052	1604.27
1013.344	1578.28
1013.637	1571.27
1013.93	1551.61
1014.222	1553.42
1014.514	1534.44
1014.807	1547.09
1015.099	1512.97
1015.391	1491.27
1015.683	1478.39
1015.976	1492.63
1016.268	1471.84
1016.56	1460.77
1016.851	1451.5
1017.143	1482.46
1017.435	1439.3
1017.727	1457.83
1018.018	1430.03
1018.31	1433.87
1018.602	1414.44
1018.893	1375.8
1019.185	1388.68
1019.476	1391.39
1019.767	1407.21
1020.058	1369.47
1020.35	1351.62
1020.641	1324.27
1020.932	1321.79
1021.223	1348.23
1021.514	1329.02
1021.804	1305.06
1022.095	1292.18
1022.386	1277.27
1022.677	1293.09
1022.967	1294.9
1023.258	1274.1
1023.548	1254.9
1023.839	1294.22
1024.129	1271.85
1024.419	1244.73
1024.709	1227.55
1025	1244.28
1025.29	1242.02
1025.58	1202.24
1025.87	1201.79
1026.16	1171.28
1026.449	1198.85
1026.739	1178.29
1027.029	1158.18
1027.319	1154.56
1027.608	1155.46
1027.898	1150.94
1028.187	1156.14
1028.477	1128.12
1028.766	1141
1029.055	1131.96
1029.344	1117.72
1029.634	1092.87
1029.923	1091.74
1030.212	1073.66
1030.501	1077.5
1030.79	1079.53
1031.078	1074.11
1031.367	1036.37
1031.656	1078.4
1031.945	1036.37
1032.233	1036.37
1032.522	1035.69
1032.81	1023.04
1033.099	1015.13
1033.387	1013.32
1033.675	991.63
1033.963	1020.33
1034.251	1022.81
1034.54	983.72
1034.828	1000.44
1035.116	986.2
1035.403	979.2
1035.691	941.46
1035.979	961.12
1036.267	969.03
1036.554	952.53
1036.842	953.66
1037.129	938.29
1037.417	936.94
1037.704	937.84
1037.992	916.37
1038.279	901.91
1038.566	933.77
1038.853	933.77
1039.14	933.77
