Data from hue_120_FLMS001491_00076.txt Node
Date: Tue Feb 07 16:59:58 GMT 2017
User: dcchb
Spectrometer: FLMS00149
Trigger mode: 0
Integration Time (sec): 2.000000E-2
Scans to average: 10
Electric dark correction enabled: true
Nonlinearity correction enabled: false
Boxcar width: 0
XAxis mode: Wavelengths
Number of Pixels in Spectrum: 2048
>>>>>Begin Spectral Data<<<<<
341.393	-31.36
341.776	-31.36
342.16	-31.36
342.543	-41.52
342.927	-73.61
343.31	-49.89
343.693	-83.11
344.077	-67.74
344.46	-65.7
344.843	-61.86
345.226	-57.34
345.61	-11.47
345.993	-30.9
346.376	17.23
346.759	21.07
347.142	21.3
347.525	43.22
347.908	59.94
348.291	81.64
348.674	86.38
349.057	97.23
349.44	136.78
349.823	125.48
350.206	161.41
350.588	193.95
350.971	199.83
351.354	219.71
351.737	244.12
352.119	257.45
352.502	274.17
352.884	270.11
353.267	292.25
353.65	296.77
354.032	299.94
354.414	308.3
354.797	287.28
355.179	315.3
355.562	327.73
355.944	334.51
356.326	346.49
356.709	327.28
357.091	333.16
357.473	334.06
357.855	352.36
358.238	337.22
358.62	352.36
359.002	359.82
359.384	325.47
359.766	335.64
360.148	349.2
360.53	344
360.912	332.25
361.294	341.74
361.676	335.64
362.057	319.37
362.439	333.83
362.821	337.67
363.203	314.85
363.584	331.57
363.966	310.33
364.348	318.24
364.729	313.49
365.111	319.82
365.493	312.59
365.874	330.9
366.256	322.76
366.637	316.21
367.019	339.93
367.4	323.21
367.781	328.86
368.163	326.6
368.544	318.24
368.925	311.23
369.306	325.47
369.688	318.69
370.069	325.02
370.45	328.18
370.831	323.66
371.212	325.92
371.593	319.37
371.974	323.89
372.355	339.93
372.736	312.82
373.117	317.56
373.498	316.66
373.879	316.88
374.26	327.28
374.641	309.65
375.021	300.39
375.402	326.15
375.783	322.08
376.163	323.89
376.544	347.62
376.925	350.1
377.305	313.95
377.686	335.41
378.066	327.51
378.447	335.87
378.827	329.77
379.208	340.16
379.588	344.23
379.968	332.25
380.349	323.66
380.729	343.78
381.109	331.8
381.489	355.98
381.87	344.45
382.25	330.67
382.63	346.71
383.01	346.71
383.39	366.15
383.77	342.19
384.15	375.19
384.53	348.75
384.91	365.24
385.29	363.21
385.67	348.75
386.049	360.05
386.429	360.05
386.809	358.47
387.189	366.15
387.568	350.1
387.948	370.67
388.328	364.34
388.707	361.18
389.087	356.88
389.466	380.39
389.846	373.38
390.225	359.37
390.605	377.9
390.984	377.45
391.363	377.67
391.743	386.94
392.122	399.37
392.501	391.68
392.881	379.71
393.26	400.27
393.639	397.33
394.018	384
394.397	382.87
394.776	383.55
395.155	372.93
395.534	391.91
395.913	401.63
396.292	384
396.671	394.85
397.05	397.79
397.429	407.73
397.808	403.21
398.186	399.37
398.565	412.7
398.944	414.96
399.323	441.85
399.701	400.5
400.08	412.48
400.458	413.6
400.837	402.98
401.215	414.73
401.594	412.48
401.972	421.74
402.351	397.33
402.729	425.81
403.107	419.03
403.486	435.3
403.864	431.01
404.242	434.62
404.62	458.35
404.999	437.11
405.377	424
405.755	443.89
406.133	455.19
406.511	443.89
406.889	444.11
407.267	457.22
407.645	458.58
408.023	480.72
408.401	467.39
408.779	463.77
409.156	453.38
409.534	476.2
409.912	491.34
410.29	477.78
410.667	462.42
411.045	493.15
411.422	499.7
411.8	485.24
412.178	486.82
412.555	500.83
412.933	507.84
413.31	510.78
413.687	508.07
414.065	518.23
414.442	506.94
414.819	529.53
415.197	537.44
415.574	536.54
415.951	531.12
416.328	533.15
416.705	547.39
417.082	518.01
417.46	525.69
417.837	532.92
418.214	560.72
418.591	564.34
418.967	556.88
419.344	559.82
419.721	560.95
420.098	561.4
420.475	551.23
420.852	569.08
421.228	576.99
421.605	572.92
421.982	576.54
422.358	594.17
422.735	595.3
423.111	583.09
423.488	599.81
423.864	607.05
424.241	611.11
424.617	606.59
424.994	623.09
425.37	626.25
425.746	635.97
426.123	637.55
426.499	635.97
426.875	628.74
427.251	659.25
427.627	663.32
428.003	662.64
428.379	667.84
428.756	686.82
429.132	666.48
429.507	674.84
429.883	672.36
430.259	684.78
430.635	709.42
431.011	685.69
431.387	707.38
431.763	708.29
432.138	732.47
432.514	717.55
432.89	727.04
433.265	759.36
433.641	754.84
434.016	761.84
434.392	764.56
434.767	796.42
435.143	783.09
435.518	785.35
435.894	780.15
436.269	821.5
436.644	814.27
437.02	800.26
437.395	790.09
437.77	818.11
438.145	834.16
438.52	838.9
438.895	863.76
439.271	838.9
439.646	897.89
440.021	870.54
440.395	871.45
440.77	892.69
441.145	888.62
441.52	883.2
441.895	899.92
442.27	912.8
442.645	891.78
443.019	906.93
443.394	916.42
443.769	913.7
444.143	906.47
444.518	920.94
444.892	929.52
445.267	933.37
445.641	957.32
446.016	955.06
446.39	969.3
446.764	965.68
447.139	977.88
447.513	1006.13
447.887	994.38
448.262	994.61
448.636	995.51
449.01	989.86
449.384	1028.05
449.758	1012.23
450.132	1026.7
450.506	1058.11
450.88	1061.95
451.254	1055.85
451.628	1061.95
452.002	1080.71
452.376	1064.66
452.75	1083.19
453.123	1091.33
453.497	1095.62
453.871	1115.51
454.244	1136.75
454.618	1160.25
454.992	1176.52
455.365	1143.08
455.739	1202.74
456.112	1214.94
456.486	1221.04
456.859	1233.47
457.232	1240.48
457.606	1219.23
457.979	1274.37
458.352	1287.71
458.725	1301.27
459.099	1307.37
459.472	1327.48
459.845	1359.12
460.218	1360.02
460.591	1349.17
460.964	1398.66
461.337	1425.56
461.71	1436.85
462.083	1462.16
462.456	1484.76
462.829	1461.94
463.201	1492.22
463.574	1531.99
463.947	1559.11
464.32	1540.13
464.692	1578.32
465.065	1588.49
465.438	1638.88
465.81	1640.47
466.183	1664.65
466.555	1681.37
466.928	1682.27
467.3	1717.3
467.672	1751.2
468.045	1793.23
468.417	1821.93
468.789	1844.75
469.161	1850.4
469.534	1875.94
469.906	1950.51
470.278	2001.81
470.65	2005.65
471.022	2033.9
471.394	2086.33
471.766	2104.41
472.138	2149.83
472.51	2205.42
472.882	2249.49
473.253	2297.62
473.625	2350.73
473.997	2400.9
474.369	2420.33
474.74	2452.2
475.112	2518.41
475.484	2603.83
475.855	2647.22
476.227	2694.67
476.598	2743.49
476.97	2822.36
477.341	2880.43
477.713	2988
478.084	3050.6
478.455	3113.87
478.827	3197.49
479.198	3286.75
479.569	3340.76
479.94	3467.54
480.311	3533.97
480.682	3654.65
481.053	3755.66
481.424	3793.63
481.795	3895.1
482.166	4011.93
482.537	4120.63
482.908	4263.45
483.279	4359.04
483.65	4479.26
484.021	4599.71
484.391	4731.01
484.762	4816.88
485.133	4856.43
485.503	5066.36
485.874	5188.85
486.244	5257.55
486.615	5447.14
486.985	5569.18
487.356	5695.27
487.726	5830.64
488.097	5992.67
488.467	6091.87
488.837	6259.33
489.207	6427.91
489.578	6522.82
489.948	6746.77
490.318	6837.16
490.688	6948.12
491.058	7131.85
491.428	7291.39
491.798	7388.34
492.168	7662
492.538	7637.6
492.908	7864.03
493.278	8077.81
493.648	8152.84
494.017	8288.88
494.387	8426.95
494.757	8618.13
495.126	8664.24
495.496	8863.1
495.866	8912.82
496.235	9157.1
496.605	9236.42
496.974	9420.37
497.344	9510.99
497.713	9626.47
498.082	9763.42
498.452	9950.98
498.821	10029.4
499.19	10160.02
499.559	10249.96
499.928	10341.25
500.298	10436.17
500.667	10524.3
501.036	10682.71
501.405	10809.49
501.774	10894.01
502.143	11035.02
502.512	11093.1
502.88	11200.21
503.249	11297.39
503.618	11364.5
503.987	11439.53
504.356	11583.03
504.724	11635.68
505.093	11697.6
505.462	11812.85
505.83	11934.43
506.199	12062.34
506.567	12216.68
506.936	12159.74
507.304	12323.8
507.672	12364.03
508.041	12495.77
508.409	12572.61
508.777	12668.42
509.145	12792.04
509.514	12746.61
509.882	12877.23
510.25	12938.47
510.618	12933.95
510.986	12930.79
511.354	13110.22
511.722	13199.26
512.09	13349.31
512.458	13316.54
512.826	13403.32
513.193	13425.92
513.561	13503.88
513.929	13569.64
514.297	13681.73
514.664	13824.78
515.032	13775.51
515.4	13841.05
515.767	13947.49
516.135	13988.39
516.502	13883.99
516.869	14082.85
517.237	14206.24
517.604	14114.71
517.972	14185.67
518.339	14251.66
518.706	14251.89
519.073	14232.9
519.44	14330.3
519.808	14466.79
520.175	14396.29
520.542	14505.44
520.909	14581.37
521.276	14584.08
521.643	14622.95
522.009	14718.99
522.376	14788.14
522.743	14806.67
523.11	14933.9
523.477	15026.1
523.843	15035.14
524.21	15075.59
524.577	15162.82
524.943	15199.66
525.31	15216.61
525.676	15301.8
526.043	15236.72
526.409	15293.67
526.776	15438.75
527.142	15404.4
527.508	15486.43
527.874	15469.03
528.241	15496.6
528.607	15480.33
528.973	15513.77
529.339	15532.76
529.705	15542.47
530.071	15599.65
530.437	15710.83
530.803	15710.83
531.169	15731.17
531.535	15611.4
531.901	15681
532.267	15722.13
532.632	15747.89
532.998	15804.16
533.364	15773.88
533.73	15746.54
534.095	15717.84
534.461	15700.89
534.826	15702.02
535.192	15655.01
535.557	15710.38
535.923	15679.42
536.288	15609.82
536.653	15714.45
537.019	15528.91
537.384	15648.23
537.749	15648.91
538.114	15564.62
538.479	15518.52
538.845	15610.04
539.21	15522.13
539.575	15448.01
539.94	15508.12
540.305	15528.01
540.67	15406.88
541.034	15384.96
541.399	15444.62
541.764	15432.65
542.129	15425.87
542.494	15344.29
542.858	15312.65
543.223	15396.04
543.587	15313.33
543.952	15250.05
544.316	15295.7
544.681	15176.38
545.045	15273.55
545.41	15196.27
545.774	15229.71
546.138	15163.27
546.503	15116.27
546.867	15069.26
547.231	15132.99
547.595	15096.38
547.959	15019.32
548.324	14982.49
548.688	14959.89
549.052	15004.86
549.416	14900
549.779	14880.34
550.143	14937.52
550.507	14893.45
550.871	14917.18
551.235	14834.69
551.599	14820.91
551.962	14801.93
552.326	14786.79
552.689	14790.4
553.053	14641.71
553.417	14723.51
553.78	14716.28
554.143	14703.62
554.507	14673.79
554.87	14690.52
555.234	14711.76
555.597	14672.44
555.96	14657.3
556.323	14654.81
556.686	14615.94
557.05	14636.28
557.413	14678.09
557.776	14619.56
558.139	14658.43
558.502	14668.15
558.865	14610.29
559.228	14620.69
559.59	14699.33
559.953	14637.64
560.316	14737.07
560.679	14716.05
561.041	14730.06
561.404	14724.87
561.767	14723.51
562.129	14713.12
562.492	14860.91
562.854	14703.62
563.217	14618.2
563.579	14750.18
563.941	14787.46
564.304	14855.03
564.666	14784.07
565.028	14887.35
565.39	14819.55
565.753	14864.52
566.115	14905.2
566.477	14888.03
566.839	14943.84
567.201	15018.42
567.563	14963.96
567.925	15061.81
568.287	15016.16
568.648	14983.39
569.01	15042.82
569.372	15028.14
569.734	14999.89
570.095	15142.26
570.457	15227
570.819	15158.3
571.18	15155.59
571.542	15190.84
571.903	15201.01
572.265	15144.29
572.626	15318.3
572.987	15212.54
573.349	15258.86
573.71	15264.97
574.071	15222.26
574.432	15258.86
574.794	15400.78
575.155	15380.44
575.516	15301.58
575.877	15383.83
576.238	15442.59
576.599	15434.9
576.96	15411.85
577.32	15389.03
577.681	15400.78
578.042	15434
578.403	15471.51
578.763	15465.41
579.124	15462.25
579.485	15485.07
579.845	15463.6
580.206	15452.08
580.566	15433.1
580.927	15475.36
581.287	15523.26
581.648	15462.47
582.008	15470.84
582.368	15483.27
582.728	15513.77
583.089	15450.72
583.449	15409.82
583.809	15464.96
584.169	15488.91
584.529	15462.02
584.889	15511.29
585.249	15504.28
585.609	15372.76
585.969	15509.48
586.329	15416.6
586.688	15338.18
587.048	15346.55
587.408	15255.93
587.768	15346.32
588.127	15276.49
588.487	15314.68
588.846	15443.04
589.206	15326.21
589.565	15279.88
589.925	15452.08
590.284	15293.21
590.643	15306.77
591.003	15300.45
591.362	15362.36
591.721	15292.54
592.08	15310.39
592.44	15320.33
592.799	15306.77
593.158	15262.71
593.517	15369.14
593.876	15363.49
594.235	15279.88
594.593	15281.91
594.952	15293.67
595.311	15194.69
595.67	15245.53
596.029	15356.26
596.387	15311.97
596.746	15345.87
597.104	15271.75
597.463	15285.76
597.822	15333.21
598.18	15233.33
598.538	15285.08
598.897	15329.37
599.255	15142.03
599.613	15380.44
599.972	15203.5
600.33	15259.99
600.688	15201.92
601.046	15233.55
601.404	15312.42
601.762	15290.5
602.12	15312.42
602.478	15330.95
602.836	15323.04
603.194	15207.34
603.552	15252.99
603.91	15248.47
604.268	15246.66
604.625	15213.44
604.983	15142.48
605.341	15183.16
605.698	15266.77
606.056	15403.27
606.413	15285.08
606.771	15343.83
607.128	15447.56
607.485	15306.55
607.843	15383.61
608.2	15365.3
608.557	15499.54
608.914	15396.26
609.272	15473.32
609.629	15553.32
609.986	15483.49
610.343	15432.65
610.7	15565.07
611.057	15459.54
611.414	15494.34
611.771	15515.81
612.127	15573.21
612.484	15500.21
612.841	15513.32
613.198	15473.55
613.554	15566.43
613.911	15591.74
614.267	15524.17
614.624	15568.91
614.98	15515.35
615.337	15651.17
615.693	15603.04
616.05	15631.96
616.406	15784.27
616.762	15610.27
617.118	15662.7
617.475	15617.95
617.831	15764.39
618.187	15727.78
618.543	15767.1
618.899	15900.88
619.255	15789.92
619.611	15720.55
619.967	15805.74
620.323	15843.93
620.678	15770.04
621.034	15793.54
621.39	15729.36
621.746	15635.35
622.101	15942.01
622.457	15760.55
622.812	15755.8
623.168	15797.83
623.523	15765.52
623.879	15827.21
624.234	15721.23
624.589	15727.33
624.945	15785.18
625.3	15830.83
625.655	15814.56
626.01	15721.9
626.365	15739.98
626.72	15845.29
627.075	15792.18
627.43	15755.8
627.785	15676.93
628.14	15758.74
628.495	15853.65
628.85	15775.69
629.205	15731.17
629.559	15815.01
629.914	15753.77
630.269	15671.28
630.623	15701.34
630.978	15589.03
631.332	15717.38
631.687	15708.34
632.041	15701.34
632.396	15728
632.75	15505.41
633.104	15630.83
633.459	15593.09
633.813	15548.35
634.167	15602.13
634.521	15490.04
634.875	15535.02
635.229	15564.62
635.583	15434.68
635.937	15472.42
636.291	15394
636.645	15519.2
636.999	15365.3
637.352	15378.64
637.706	15295.47
638.06	15423.38
638.413	15415.24
638.767	15325.76
639.121	15276.72
639.474	15252.08
639.828	15177.06
640.181	15239.43
640.534	15262.71
640.888	15261.8
641.241	15179.77
641.594	15223.39
641.947	15219.09
642.301	15197.17
642.654	15142.26
643.007	15200.33
643.36	15138.64
643.713	15112.88
644.066	15229.03
644.419	15083.73
644.771	14927.35
645.124	14855.94
645.477	14850.51
645.83	14769.39
646.182	14737.97
646.535	14656.62
646.888	14659.11
647.24	14581.14
647.593	14630.86
647.945	14632.44
648.298	14565.1
648.65	14558.32
649.002	14564.42
649.355	14519.22
649.707	14594.02
650.059	14626.56
650.411	14881.47
650.763	14880.12
651.115	14991.3
651.467	14872.66
651.819	14996.72
652.171	14960.57
652.523	14973.67
652.875	14870.63
653.227	14878.54
653.578	14951.08
653.93	14931.42
654.282	14819.33
654.633	14783.62
654.985	14800.35
655.337	14906.56
655.688	14889.83
656.039	14901.81
656.391	14822.27
656.742	14816.84
657.094	14906.78
657.445	14970.28
657.796	14882.38
658.147	14802.38
658.498	14872.21
658.849	14940.91
659.2	14926.67
659.551	14775.94
659.902	14867.69
660.253	14812.32
660.604	14954.01
660.955	14865.2
661.306	14921.02
661.656	14881.02
662.007	14924.64
662.358	14920.34
662.708	14863.17
663.059	14856.39
663.409	14827.01
663.76	14902.72
664.11	14853.45
664.461	14972.32
664.811	14865.88
665.161	14878.31
665.511	14880.34
665.862	14953.56
666.212	15031.75
666.562	14903.62
666.912	14918.31
667.262	14907.01
667.612	14896.61
667.962	15009.61
668.312	14911.53
668.662	15069.04
669.011	14951.08
669.361	14845.77
669.711	14863.39
670.06	14820.91
670.41	14855.26
670.76	14826.56
671.109	14855.71
671.459	14944.3
671.808	14829.05
672.157	14819.1
672.507	14736.39
672.856	14818.42
673.205	14819.1
673.554	14792.21
673.904	14642.38
674.253	14829.5
674.602	14764.19
674.951	14587.47
675.3	14501.82
675.649	14653
675.998	14747.47
676.346	14669.05
676.695	14702.95
677.044	14505.89
677.393	14681.03
677.741	14632.67
678.09	14640.8
678.438	14565.55
678.787	14570.29
679.135	14602.38
679.484	14462.05
679.832	14583.4
680.181	14486.68
680.529	14479.22
680.877	14408.04
681.225	14429.51
681.573	14570.52
681.922	14383.18
682.27	14414.82
682.618	14334.14
682.966	14416.17
683.314	14366.46
683.661	14308.15
684.009	14228.61
684.357	14301.15
684.705	14263.64
685.053	14274.48
685.4	14286.69
685.748	14035.85
686.095	14170.98
686.443	13991.33
686.79	13980.93
687.138	14046.92
687.485	13952.46
687.832	14019.8
688.18	13939.8
688.527	13784.78
688.874	13785.91
689.221	13830.88
689.568	13817.77
689.915	13704.1
690.262	13708.4
690.609	13682.63
690.956	13605.35
691.303	13642.64
691.65	13512.24
691.997	13558.12
692.344	13468.18
692.69	13410.33
693.037	13458.01
693.383	13272.25
693.73	13373.49
694.077	13222.31
694.423	13184.34
694.769	13171.69
695.116	13160.61
695.462	13088.75
695.808	13027.74
696.155	12928.76
696.501	12932.6
696.847	12964.46
697.193	12787.29
697.539	12810.79
697.885	12691.47
698.231	12651.7
698.577	12710.23
698.923	12668.65
699.269	12648.09
699.614	12573.74
699.96	12487.64
700.306	12489.22
700.651	12458.94
700.997	12442.22
701.342	12372.61
701.688	12341.88
702.033	12335.1
702.379	12335.1
702.724	12226.63
703.069	12160.64
703.415	12038.61
703.76	12117.03
704.105	11984.37
704.45	12015.79
704.795	11979.18
705.14	11888.56
705.485	11852.63
705.83	11795.23
706.175	11817.6
706.52	11844.26
706.865	11771.72
707.209	11745.51
707.554	11620.09
707.899	11635
708.243	11576.02
708.588	11541.9
708.932	11493.77
709.277	11508.68
709.621	11460.32
709.966	11441.79
710.31	11443.6
710.654	11336.93
710.998	11355.01
711.342	11369.25
711.687	11303.04
712.031	11267.56
712.375	11220.78
712.719	11183.72
713.063	11262.36
713.407	11257.84
713.75	11141.68
714.094	11159.09
714.438	11151.18
714.782	11136.94
715.125	11063.95
715.469	11098.52
715.812	11082.48
716.156	10958.19
716.499	10998.64
716.843	10991.18
717.186	10858.08
717.53	10979.88
717.873	10987.11
718.216	10921.13
718.559	10852.88
718.902	10838.64
719.246	10858.75
719.589	10801.58
719.932	10842.26
720.275	10822.14
720.617	10817.85
720.96	10783.73
721.303	10856.95
721.646	10690.4
721.989	10743.95
722.331	10755.93
722.674	10742.37
723.016	10712.54
723.359	10723.84
723.701	10722.26
724.044	10563.17
724.386	10559.1
724.729	10706.22
725.071	10702.15
725.413	10609.27
725.755	10562.49
726.097	10532.89
726.439	10440.91
726.782	10523.85
727.124	10478.88
727.465	10535.6
727.807	10564.07
728.149	10456.05
728.491	10534.02
728.833	10495.37
729.175	10523.4
729.516	10474.58
729.858	10421.93
730.199	10463.28
730.541	10456.73
730.882	10443.85
731.224	10458.99
731.565	10431.42
731.906	10496.05
732.248	10354.13
732.589	10429.16
732.93	10334.47
733.271	10404.53
733.612	10333.8
733.953	10421.03
734.294	10391.2
734.635	10359.56
734.976	10370.41
735.317	10360.69
735.658	10389.84
735.999	10318.43
736.339	10326.79
736.68	10343.06
737.021	10349.61
737.361	10341.93
737.702	10416.73
738.042	10329.73
738.383	10293.12
738.723	10435.49
739.063	10374.7
739.404	10383.06
739.744	10433
740.084	10427.58
740.424	10412.89
740.764	10409.27
741.104	10488.59
741.444	10463.96
741.784	10421.93
742.124	10407.69
742.464	10442.95
742.804	10528.59
743.143	10448.37
743.483	10503.51
743.823	10480.01
744.162	10557.97
744.502	10520.68
744.841	10598.2
745.181	10641.81
745.52	10571.76
745.86	10675.26
746.199	10740.11
746.538	10723.84
746.877	10863.73
747.216	10846.32
747.556	10919.32
747.895	10894.01
748.234	10961.58
748.573	11029.6
748.911	11081.12
749.25	11130.39
749.589	11125.87
749.928	11310.49
750.267	11351.4
750.605	11355.46
750.944	11523.6
751.283	11557.27
751.621	11592.07
751.96	11641.11
752.298	11776.92
752.636	11838.84
752.975	11958.39
753.313	11992.51
753.651	12209.9
753.989	12222.56
754.327	12328.55
754.666	12421.65
755.004	12610.35
755.342	12759.27
755.679	12872.71
756.017	12921.07
756.355	13166.49
756.693	13170.33
757.031	13388.41
757.368	13398.57
757.706	13578.68
758.044	13816.42
758.381	13966.24
758.719	14012.34
759.056	14210.76
759.394	14341.15
759.731	14486.68
760.068	14664.76
760.405	14819.78
760.743	14938.65
761.08	15058.42
761.417	15213.22
761.754	15426.54
762.091	15563.04
762.428	15760.77
762.765	15770.72
763.102	16026.53
763.438	16164.6
763.775	16248.44
764.112	16465.61
764.449	16719.39
764.785	16872.83
765.122	16911.7
765.458	17017.24
765.795	17269.43
766.131	17286.38
766.467	17534.96
766.804	17620.38
767.14	17725.24
767.476	17930.43
767.812	18000.71
768.148	18218.11
768.485	18342.85
768.821	18335.85
769.157	18512.11
769.492	18558.21
769.828	18795.95
770.164	18725.44
770.5	18797.75
770.836	19048.14
771.171	18947.13
771.507	19120.46
771.842	19111.42
772.178	19305.31
772.513	19327.23
772.849	19352.54
773.184	19361.36
773.519	19559.54
773.855	19521.8
774.19	19638.86
774.525	19605.64
774.86	19823.04
775.195	19822.81
775.53	19910.04
775.865	19815.13
776.2	19815.58
776.535	19716.15
776.87	19790.72
777.205	19862.81
777.539	19952.75
777.874	19997.04
778.209	19991.62
778.543	19963.37
778.878	19814.9
779.212	20026.87
779.547	20030.72
779.881	20099.42
780.215	20083.6
780.55	20219.86
780.884	19951.4
781.218	20112.97
781.552	20135.8
781.886	20076.14
782.22	20042.47
782.554	20016.03
782.888	19900.1
783.222	19969.7
783.556	19970.83
783.889	19858.29
784.223	19856.94
784.557	19866.2
784.89	19973.32
785.224	19847.22
785.557	19751.18
785.891	19660.1
786.224	19672.99
786.558	19771.06
786.891	19660.33
787.224	19586.43
787.557	19515.48
787.891	19626.21
788.224	19559.77
788.557	19596.15
788.89	19589.82
789.223	19635.47
789.556	19399.09
789.888	19461.47
790.221	19334.24
790.554	19252.66
790.887	19329.04
791.219	19268.25
791.552	19175.6
791.884	19160.68
792.217	19215.37
792.549	19115.03
792.882	18973.57
793.214	18967.92
793.546	18996.17
793.879	18914.59
794.211	18842.05
794.543	18857.41
794.875	18810.41
795.207	18996.17
795.539	18736.06
795.871	18777.87
796.203	18618.32
796.535	18618.32
796.867	18518.67
797.198	18585.1
797.53	18545.56
797.862	18437.76
798.193	18468.05
798.525	18346.47
798.856	18456.52
799.188	18195.28
799.519	18190.99
799.85	18097.43
800.182	18198.22
800.513	18167.26
800.844	17973.6
801.175	18115.29
801.506	18061.95
801.837	17932.47
802.168	17881.17
802.499	17800.49
802.83	17773.15
803.161	17816.31
803.491	17788.29
803.822	17776.76
804.153	17554.85
804.483	17496.09
804.814	17457.45
805.145	17453.83
805.475	17387.4
805.805	17398.47
806.136	17396.66
806.466	17373.16
806.796	17409.09
807.126	17212.26
807.457	17204.58
807.787	17216.78
808.117	17099.95
808.447	17072.6
808.777	17103.56
809.107	16976.56
809.436	17009.55
809.766	17028.76
810.096	16938.37
810.426	16831.25
810.755	16803.91
811.085	16829.22
811.414	16826.73
811.744	16710.13
812.073	16609.34
812.403	16618.38
812.732	16572.28
813.061	16537.02
813.39	16451.6
813.719	16456.57
814.049	16613.4
814.378	16514.65
814.707	16426.52
815.036	16397.82
815.365	16292.96
815.693	16186.52
816.022	16252.28
816.351	16184.26
816.68	16122.12
817.008	16240.08
817.337	16058.39
817.665	16054.78
817.994	16077.37
818.322	16038.5
818.651	15994.44
818.979	15866.31
819.307	16052.06
819.636	15857.04
819.964	15840.32
820.292	15955.12
820.62	15883.25
820.948	15904.05
821.276	15878.74
821.604	15825.63
821.932	15836.02
822.259	15819.53
822.587	15830.6
822.915	15779.75
823.243	15906.3
823.57	15797.61
823.898	15718.97
824.225	15671.73
824.553	15747.89
824.88	15736.82
825.207	15782.01
825.535	15719.19
825.862	15784.05
826.189	15705.18
826.516	15858.85
826.843	15798.74
827.17	15718.06
827.497	15799.42
827.824	15722.81
828.151	15873.76
828.478	15736.37
828.805	15962.12
829.131	15773.2
829.458	15832.18
829.785	15667.22
830.111	15781.79
830.438	15843.48
830.764	15738.63
831.09	15785.4
831.417	15736.82
831.743	15810.94
832.069	15766.42
832.395	15550.16
832.722	15787.66
833.048	15644.39
833.374	15742.24
833.7	15620.66
834.026	15681.9
834.351	15674.67
834.677	15719.87
835.003	15748.12
835.329	15689.59
835.654	15604.62
835.98	15566.65
836.306	15614.56
836.631	15499.99
836.956	15640.78
837.282	15603.04
837.607	15496.37
837.932	15493.21
838.258	15496.82
838.583	15463.38
838.908	15337.28
839.233	15423.15
839.558	15354
839.883	15297.28
840.208	15255.47
840.533	15305.19
840.858	15228.58
841.182	15264.97
841.507	15241.69
841.832	15045.99
842.156	15121.01
842.481	15119.88
842.805	15027.68
843.13	15034.24
843.454	15024.97
843.778	14961.92
844.103	14812.55
844.427	14996.72
844.751	14898.42
845.075	14781.14
845.399	14761.93
845.723	14668.82
846.047	14747.01
846.371	14577.53
846.695	14649.84
847.019	14417.76
847.343	14429.28
847.666	14382.28
847.99	14325.78
848.313	14253.47
848.637	14167.82
848.96	14201.49
849.284	14189.51
849.607	14032.23
849.931	14043.53
850.254	13947.03
850.577	13929.41
850.9	13787.72
851.223	13791.78
851.546	13652.58
851.869	13603.31
852.192	13628.62
852.515	13622.3
852.838	13473.37
853.161	13547.27
853.483	13393.38
853.806	13397.9
854.129	13394.96
854.451	13296.2
854.774	13243.78
855.096	13215.08
855.419	13200.84
855.741	13183.89
856.063	13081.52
856.385	13081.75
856.708	12896.21
857.03	12947.96
857.352	12933.05
857.674	12863.45
857.996	12841.53
858.318	12853.05
858.64	12870.23
858.961	12714.07
859.283	12717.24
859.605	12588.88
859.926	12705.26
860.248	12547.3
860.57	12516.79
860.891	12558.6
861.212	12549.11
861.534	12522.44
861.855	12456.9
862.176	12417.58
862.498	12393.63
862.819	12439.05
863.14	12356.34
863.461	12310.24
863.782	12289.45
864.103	12293.52
864.424	12205.61
864.745	12254.2
865.065	12159.28
865.386	12167.19
865.707	12184.37
866.027	12111.6
866.348	12104.15
866.668	12139.4
866.989	12034.09
867.309	12037.03
867.63	12086.97
867.95	11956.8
868.27	11961.55
868.59	11939.63
868.91	11918.16
869.23	11841.78
869.55	11857.15
869.87	11942.34
870.19	11809.92
870.51	11940.53
870.83	11868.9
871.15	11868.9
871.469	11844.72
871.789	11751.84
872.109	11758.62
872.428	11682.69
872.748	11676.13
873.067	11685.17
873.386	11706.42
873.706	11696.92
874.025	11557.27
874.344	11575.8
874.663	11636.59
874.982	11613.08
875.301	11579.19
875.62	11531.28
875.939	11498.96
876.258	11527.66
876.577	11480.43
876.896	11482.69
877.214	11462.35
877.533	11406.76
877.852	11441.56
878.17	11401.79
878.489	11402.47
878.807	11320.21
879.125	11338.74
879.444	11309.59
879.762	11329.48
880.08	11319.08
880.398	11202.93
880.716	11228.01
881.034	11171.51
881.352	11213.55
881.67	11134.68
881.988	11156.37
882.306	11082.7
882.624	10998.41
882.941	11056.49
883.259	11021.46
883.577	11013.1
883.894	10954.57
884.212	10943.5
884.529	10972.2
884.846	10917.51
885.164	10931.97
885.481	10736.05
885.798	10902.82
886.115	10733.79
886.432	10745.99
886.75	10737.85
887.067	10741.02
887.383	10687.01
887.7	10713
888.017	10570.63
888.334	10617.18
888.651	10604.98
888.967	10531.31
889.284	10504.19
889.6	10494.7
889.917	10438.88
890.233	10531.31
890.55	10403.85
890.866	10389.39
891.182	10408.82
891.498	10289.5
891.815	10314.14
892.131	10228.04
892.447	10300.35
892.763	10195.49
893.079	10195.95
893.395	10138.32
893.71	10140.13
894.026	10082.28
894.342	10115.95
894.657	10069.62
894.973	9995.95
895.289	10015.61
895.604	9974.71
895.92	9892.9
896.235	9804.77
896.55	9878.44
896.865	9807.71
897.181	9778.1
897.496	9823.75
897.811	9675.73
898.126	9680.03
898.441	9571.1
898.756	9645
899.071	9576.98
899.386	9486.13
899.7	9424.44
900.015	9482.07
900.33	9396.42
900.644	9351.22
900.959	9423.09
901.273	9335.4
901.588	9280.49
901.902	9187.84
902.216	9226.25
902.531	9236.65
902.845	9194.17
903.159	9065.13
903.473	9039.14
903.787	9033.94
904.101	9034.62
904.415	8979.93
904.729	8942.42
905.042	8874.17
905.356	8847.51
905.67	8848.41
905.984	8795.08
906.297	8748.53
906.611	8768.87
906.924	8711.47
907.237	8624.46
907.551	8616.1
907.864	8617.23
908.177	8609.32
908.491	8496.1
908.804	8459.95
909.117	8426.05
909.43	8417.69
909.743	8357.58
910.056	8337.92
910.368	8298.37
910.681	8293.62
910.994	8219.5
911.307	8253.62
911.619	8146.28
911.932	8153.74
912.244	8106.28
912.557	8055.66
912.869	8062.9
913.181	7971.15
913.494	7953.52
913.806	7935.89
914.118	7872.84
914.43	7937.7
914.742	7858.83
915.054	7881.88
915.366	7813.18
915.678	7733.86
915.99	7705.62
916.302	7679.85
916.613	7638.27
916.925	7640.31
917.236	7562.57
917.548	7574.55
917.859	7586.52
918.171	7468.11
918.482	7435.57
918.794	7419.07
919.105	7440.09
919.416	7416.36
919.727	7368.68
920.038	7350.6
920.349	7255.68
920.66	7227.21
920.971	7273.54
921.282	7230.37
921.593	7138.85
921.903	7101.56
922.214	7119.42
922.525	7078.74
922.835	7039.19
923.146	6994.45
923.456	7015.01
923.767	6940.44
924.077	6894.79
924.387	6857.05
924.697	6869.25
925.008	6829.93
925.318	6825.19
925.628	6825.19
925.938	6808.69
926.248	6743.38
926.558	6689.15
926.867	6665.42
927.177	6661.12
927.487	6621.58
927.796	6577.06
928.106	6580
928.416	6503.39
928.725	6530.96
929.034	6527.79
929.344	6527.57
929.653	6466.55
929.962	6383.17
930.271	6339.55
930.581	6296.84
930.89	6321.25
931.199	6270.63
931.508	6321.25
931.817	6239.44
932.125	6264.3
932.434	6226.33
932.743	6191.31
933.051	6112.66
933.36	6114.47
933.669	6099.56
933.977	6090.97
934.286	6030.18
934.594	6053.23
934.902	5991.76
935.21	5971.88
935.519	5948.6
935.827	5877.42
936.135	5880.58
936.443	5873.8
936.751	5847.81
937.059	5801.26
937.367	5789.73
937.674	5822.5
937.982	5730.08
938.29	5783.63
938.597	5684.2
938.905	5702.28
939.213	5618.67
939.52	5568.27
939.827	5652.79
940.135	5524.88
940.442	5540.02
940.749	5524.66
941.056	5481.95
941.363	5493.25
941.67	5442.17
941.977	5461.38
942.284	5399.24
942.591	5383.64
942.898	5378.67
943.205	5358.56
943.511	5318.33
943.818	5275.85
944.125	5285.57
944.431	5264.78
944.738	5234.72
945.044	5250.99
945.35	5127.38
945.657	5169.19
945.963	5149.98
946.269	5076.99
946.575	5133.03
946.881	5067.95
947.187	5070.66
947.493	5035.4
947.799	5027.49
948.105	4964.45
948.41	4971.68
948.716	4947.27
949.022	4896.42
949.327	4887.61
949.633	4867.05
949.938	4828.63
950.244	4902.98
950.549	4804.9
950.854	4779.14
951.16	4787.28
951.465	4739.14
951.77	4762.87
952.075	4679.48
952.38	4717.9
952.685	4700.5
952.99	4659.37
953.294	4613.95
953.599	4624.57
953.904	4562.42
954.209	4535.76
954.513	4573.04
954.818	4533.95
955.122	4528.98
955.426	4492.59
955.731	4500.28
956.035	4436.78
956.339	4482.65
956.643	4440.39
956.948	4424.12
957.252	4382.31
957.556	4348.42
957.86	4343.22
958.163	4318.14
958.467	4300.73
958.771	4268.42
959.075	4292.15
959.378	4267.29
959.682	4263
959.985	4218.48
960.289	4222.54
960.592	4229.55
960.896	4147.52
961.199	4119.95
961.502	4120.85
961.805	4143.9
962.108	4074.75
962.411	4094.41
962.714	4110.46
963.017	4009.67
963.32	4026.62
963.623	4029.56
963.926	4013.74
964.228	4002.66
964.531	3950.91
964.833	4002.44
965.136	3920.86
965.438	3895.55
965.741	3879.73
966.043	3866.4
966.345	3830.24
966.648	3792.73
966.95	3799.05
967.252	3797.7
967.554	3768.77
967.856	3748.43
968.158	3723.8
968.46	3741.65
968.761	3714.99
969.063	3699.39
969.365	3739.85
969.666	3689.68
969.968	3663.01
970.269	3631.37
970.571	3654.88
970.872	3648.1
971.174	3572.62
971.475	3576.23
971.776	3539.62
972.077	3529
972.378	3524.03
972.679	3526.29
972.98	3498.27
973.281	3492.39
973.582	3451.04
973.883	3492.62
974.183	3396.8
974.484	3403.58
974.785	3427.76
975.085	3409.01
975.386	3413.53
975.686	3367.43
975.986	3322.23
976.287	3367.88
976.587	3287.65
976.887	3262.12
977.187	3239.52
977.487	3288.33
977.787	3267.54
978.087	3273.42
978.387	3251.27
978.687	3210.37
978.987	3199.52
979.286	3214.89
979.586	3155
979.885	3168.11
980.185	3137.6
980.484	3152.97
980.784	3098.73
981.083	3104.83
981.382	3096.02
981.682	3063.7
981.981	3098.05
982.28	3049.47
982.579	3013.54
982.878	3029.36
983.177	2996.59
983.475	2999.53
983.774	2996.81
984.073	2976.25
984.372	2939.41
984.67	2885.63
984.969	2901
985.267	2896.25
985.566	2900.32
985.864	2884.05
986.162	2865.97
986.461	2831.17
986.759	2847.67
987.057	2817.61
987.355	2799.53
987.653	2804.95
987.951	2823.26
988.249	2789.59
988.547	2770.83
988.844	2777.16
989.142	2729.7
989.44	2696.26
989.737	2707.1
990.035	2670.49
990.332	2652.87
990.63	2684.96
990.927	2665.07
991.224	2651.06
991.521	2676.6
991.819	2647.67
992.116	2635.47
992.413	2612.87
992.71	2595.92
993.006	2584.17
993.303	2567.22
993.6	2573.77
993.897	2516.37
994.193	2503.04
994.49	2533.32
994.787	2516.37
995.083	2464.62
995.379	2477.05
995.676	2456.94
995.972	2440.44
996.268	2462.59
996.565	2424.63
996.861	2432.31
997.157	2410.16
997.453	2389.82
997.749	2412.87
998.044	2372.42
998.34	2348.47
998.636	2334.46
998.932	2357.73
999.227	2315.93
999.523	2304.18
999.818	2308.47
1000.114	2304.4
1000.409	2285.87
1000.704	2282.71
1001	2267.12
1001.295	2249.71
1001.59	2201.81
1001.885	2220.11
1002.18	2178.98
1002.475	2184.86
1002.77	2178.3
1003.065	2160
1003.359	2155.25
1003.654	2181.92
1003.949	2150.28
1004.243	2108.7
1004.538	2092.2
1004.832	2068.25
1005.127	2100.34
1005.421	2086.33
1005.715	2078.87
1006.009	2050.4
1006.304	2016.95
1006.598	2023.51
1006.892	2002.26
1007.186	2011.53
1007.48	1993.68
1007.773	1973.11
1008.067	1963.17
1008.361	1952.32
1008.655	1962.04
1008.948	1967.46
1009.242	1934.47
1009.535	1917.97
1009.829	1883.4
1010.122	1889.95
1010.415	1866.67
1010.708	1908.93
1011.001	1869.39
1011.295	1871.65
1011.588	1833.68
1011.881	1793.68
1012.173	1826.9
1012.466	1818.31
1012.759	1793
1013.052	1800.24
1013.344	1765.89
1013.637	1779.22
1013.93	1767.92
1014.222	1777.18
1014.514	1757.98
1014.807	1757.75
1015.099	1725.66
1015.391	1661.48
1015.683	1690.41
1015.976	1683.63
1016.268	1671.65
1016.56	1666.45
1016.851	1693.57
1017.143	1669.62
1017.435	1657.87
1017.727	1622.84
1018.018	1594.59
1018.31	1618.09
1018.602	1558.66
1018.893	1561.37
1019.185	1564.31
1019.476	1553.69
1019.767	1562.28
1020.058	1557.08
1020.35	1516.85
1020.641	1510.3
1020.932	1514.37
1021.223	1512.33
1021.514	1492.67
1021.804	1462.62
1022.095	1472.33
1022.386	1470.07
1022.677	1432.79
1022.967	1447.48
1023.258	1443.41
1023.548	1427.36
1023.839	1412.67
1024.129	1381.72
1024.419	1416.29
1024.709	1390.08
1025	1382.39
1025.29	1344.65
1025.58	1356.18
1025.87	1358.89
1026.16	1366.12
1026.449	1357.99
1026.739	1314.82
1027.029	1303.3
1027.319	1306.24
1027.608	1293.81
1027.898	1301.04
1028.187	1272.79
1028.477	1252.45
1028.766	1253.58
1029.055	1253.13
1029.344	1230.53
1029.634	1241.38
1029.923	1224.21
1030.212	1225.56
1030.501	1196.41
1030.79	1198.22
1031.078	1200.25
1031.367	1206.35
1031.656	1199.12
1031.945	1189.86
1032.233	1188.95
1032.522	1162.06
1032.81	1159.12
1033.099	1150.31
1033.387	1140.59
1033.675	1134.94
1033.963	1139.46
1034.251	1118.45
1034.54	1085.45
1034.828	1090.2
1035.116	1080.93
1035.403	1085.68
1035.691	1082.97
1035.979	1073.7
1036.267	1072.34
1036.554	1083.64
1036.842	1052.23
1037.129	1056.75
1037.417	1030.76
1037.704	1060.59
1037.992	1013.14
1038.279	1007.71
1038.566	986.7
1038.853	986.7
1039.14	986.7
