Data from hue_240_FLMS001491_00088.txt Node
Date: Tue Feb 07 16:36:04 GMT 2017
User: dcchb
Spectrometer: FLMS00149
Trigger mode: 0
Integration Time (sec): 2.000000E-2
Scans to average: 10
Electric dark correction enabled: true
Nonlinearity correction enabled: false
Boxcar width: 0
XAxis mode: Wavelengths
Number of Pixels in Spectrum: 2048
>>>>>Begin Spectral Data<<<<<
341.393	-12.95
341.776	-12.95
342.16	-12.95
342.543	-52.5
342.927	-62.89
343.31	-55.89
343.693	-69.67
344.077	-76.68
344.46	-55.89
344.843	-57.24
345.226	-51.14
345.61	-42.33
345.993	-10.69
346.376	-1.43
346.759	-3.69
347.142	28.86
347.525	42.64
347.908	81.06
348.291	83.32
348.674	74.28
349.057	114.5
349.44	107.27
349.823	150.21
350.206	167.38
350.588	201.28
350.971	213.26
351.354	227.27
351.737	245.12
352.119	229.75
352.502	248.96
352.884	271.79
353.267	278.34
353.65	279.7
354.032	281.73
354.414	279.47
354.797	312.46
355.179	312.69
355.562	330.32
355.944	309.07
356.326	324.89
356.709	334.84
357.091	316.08
357.473	327.83
357.855	332.35
358.238	336.87
358.62	327.38
359.002	339.13
359.384	297.77
359.766	333.48
360.148	345.01
360.53	338
360.912	324.67
361.294	306.59
361.676	311.33
362.057	318.34
362.439	318.79
362.821	316.76
363.203	323.99
363.584	309.53
363.966	311.33
364.348	320.37
364.729	307.94
365.111	312.46
365.493	323.08
365.874	296.42
366.256	312.24
366.637	310.66
367.019	307.94
367.4	321.05
367.781	328.96
368.163	316.76
368.544	316.08
368.925	302.07
369.306	314.95
369.688	320.6
370.069	321.95
370.45	314.27
370.831	328.28
371.212	313.37
371.593	312.24
371.974	313.59
372.355	312.46
372.736	325.57
373.117	305.01
373.498	319.92
373.879	314.27
374.26	310.88
374.641	299.13
375.021	300.03
375.402	317.21
375.783	326.7
376.163	329.41
376.544	324.44
376.925	312.01
377.305	325.34
377.686	323.31
378.066	329.64
378.447	326.02
378.827	312.24
379.208	325.12
379.588	314.72
379.968	324.89
380.349	332.12
380.729	330.09
381.109	335.29
381.489	317.44
381.87	329.41
382.25	318.34
382.63	342.75
383.01	330.99
383.39	315.85
383.77	342.29
384.15	344.55
384.53	334.16
384.91	335.51
385.29	331.67
385.67	344.55
386.049	369.64
386.429	343.65
386.809	337.55
387.189	344.78
387.568	340.03
387.948	335.97
388.328	358.56
388.707	346.59
389.087	336.42
389.466	347.72
389.846	350.2
390.225	361.05
390.605	365.12
390.984	348.17
391.363	371.9
391.743	342.07
392.122	367.6
392.501	370.32
392.881	380.94
393.26	368.51
393.639	381.84
394.018	364.89
394.397	341.16
394.776	372.35
395.155	392.69
395.534	364.44
395.913	356.3
396.292	377.77
396.671	390.88
397.05	409.86
397.429	391.56
397.808	400.6
398.186	400.6
398.565	392.24
398.944	393.59
399.323	402.63
399.701	397.89
400.08	394.27
400.458	420.48
400.837	372.35
401.215	402.86
401.594	406.47
401.972	392.69
402.351	400.82
402.729	395.4
403.107	402.4
403.486	403.08
403.864	397.21
404.242	432.46
404.62	426.81
404.999	446.02
405.377	431.56
405.755	437.43
406.133	442.86
406.511	442.4
406.889	443.76
407.267	453.7
407.645	456.41
408.023	447.38
408.401	452.8
408.779	453.7
409.156	471.78
409.534	465.68
409.912	462.06
410.29	456.19
410.667	497.54
411.045	462.29
411.422	497.54
411.8	502.29
412.178	505
412.555	547.26
412.933	535.96
413.31	506.81
413.687	503.64
414.065	540.48
414.442	555.62
414.819	556.52
415.197	543.87
415.574	563.3
415.951	561.04
416.328	578.22
416.705	577.32
417.082	597.2
417.46	566.02
417.837	592.91
418.214	613.7
418.591	578.9
418.967	602.85
419.344	606.92
419.721	594.26
420.098	642.17
420.475	630.87
420.852	665
421.228	652.12
421.605	641.04
421.982	684.66
422.358	657.31
422.735	683.98
423.111	666.8
423.488	702.74
423.864	720.14
424.241	698.89
424.617	740.02
424.994	730.98
425.37	734.6
425.746	740.47
426.123	762.4
426.499	771.43
426.875	770.98
427.251	774.82
427.627	809.17
428.003	801.94
428.379	799.68
428.756	794.71
429.132	851.43
429.507	843.52
429.883	860.47
430.259	850.98
430.635	860.02
431.011	877.42
431.387	879
431.763	905.67
432.138	902.73
432.514	910.87
432.89	925.1
433.265	963.29
433.641	969.62
434.016	933.01
434.392	997.42
434.767	987.93
435.143	1010.98
435.518	1018.21
435.894	1034.03
436.269	1048.94
436.644	1060.92
437.02	1078.55
437.395	1111.31
437.77	1093.91
438.145	1109.96
438.52	1136.4
438.895	1152.89
439.271	1155.61
439.646	1184.76
440.021	1176.62
440.395	1198.32
440.77	1212.1
441.145	1190.18
441.52	1229.95
441.895	1220.01
442.27	1260.46
442.645	1240.12
443.019	1247.35
443.394	1271.31
443.769	1279.22
444.143	1302.27
444.518	1302.27
444.892	1316.5
445.267	1347.24
445.641	1331.65
446.016	1346.11
446.39	1350.85
446.764	1389.72
447.139	1385.66
447.513	1378.65
447.887	1386.33
448.262	1407.8
448.636	1407.35
449.01	1434.02
449.384	1427.46
449.758	1443.73
450.132	1466.56
450.506	1453.45
450.88	1485.54
451.254	1484.64
451.628	1497.52
452.002	1495.03
452.376	1516.73
452.75	1515.37
453.123	1542.49
453.497	1598.98
453.871	1584.29
454.244	1607.12
454.618	1603.73
454.992	1656.83
455.365	1636.5
455.739	1698.87
456.112	1702.03
456.486	1723.5
456.859	1726.89
457.232	1728.25
457.606	1746.32
457.979	1739.54
458.352	1777.74
458.725	1818.64
459.099	1815.02
459.472	1832.88
459.845	1879.65
460.218	1867.22
460.591	1905.64
460.964	1893.66
461.337	1939.99
461.71	1961.23
462.083	1966.43
462.456	2018.18
462.829	1990.84
463.201	2041.91
463.574	2058.41
463.947	2086.2
464.32	2111.29
464.692	2140.44
465.065	2123.49
465.438	2158.29
465.81	2204.17
466.183	2200.32
466.555	2226.31
466.928	2275.8
467.3	2269.02
467.672	2297.5
468.045	2338.62
468.417	2346.99
468.789	2344.05
469.161	2378.4
469.534	2407.78
469.906	2470.15
470.278	2477.38
470.65	2529.81
471.022	2547.66
471.394	2564.16
471.766	2619.75
472.138	2641.44
472.51	2674.66
472.882	2729.8
473.253	2725.73
473.625	2770.25
473.997	2803.7
474.369	2836.24
474.74	2890.7
475.112	2911.49
475.484	2935.22
475.855	3002.34
476.227	3020.19
476.598	3109.45
476.97	3119.17
477.341	3167.98
477.713	3194.42
478.084	3230.8
478.455	3305.83
478.827	3344.7
479.198	3401.42
479.569	3434.64
479.94	3498.82
480.311	3498.59
480.682	3602.55
481.053	3658.59
481.424	3689.32
481.795	3707.85
482.166	3785.59
482.537	3767.97
482.908	3862.88
483.279	3933.84
483.65	3947.17
484.021	4053.38
484.391	4053.61
484.762	4140.84
485.133	4098.35
485.503	4171.35
485.874	4226.94
486.244	4298.8
486.615	4356.2
486.985	4366.82
487.356	4526.82
487.726	4493.14
488.097	4572.24
488.467	4580.37
488.837	4721.61
489.207	4687.26
489.578	4727.71
489.948	4797.32
490.318	4870.08
490.688	4875.51
491.058	4927.94
491.428	5010.65
491.798	5037.54
492.168	5090.87
492.538	5155.27
492.908	5176.74
493.278	5166.35
493.648	5264.88
494.017	5348.94
494.387	5339.9
494.757	5364.08
495.126	5370.64
495.496	5445.21
495.866	5496.06
496.235	5499.9
496.605	5562.72
496.974	5597.97
497.344	5622.83
497.713	5648.37
498.082	5688.82
498.452	5697.41
498.821	5726.11
499.19	5757.74
499.559	5770.85
499.928	5825.31
500.298	5856.05
500.667	5922.26
501.036	5901.47
501.405	5942.15
501.774	5924.75
502.143	5941.69
502.512	5975.14
502.88	5986.21
503.249	6022.6
503.618	6044.29
503.987	6081.35
504.356	6170.84
504.724	6128.81
505.093	6089.71
505.462	6150.95
505.83	6189.6
506.199	6248.58
506.567	6274.34
506.936	6256.26
507.304	6337.84
507.672	6387.56
508.041	6323.38
508.409	6385.3
508.777	6385.52
509.145	6436.82
509.514	6445.41
509.882	6435.47
510.25	6448.35
510.618	6542.81
510.986	6498.06
511.354	6586.2
511.722	6544.16
512.09	6669.13
512.458	6595.24
512.826	6650.83
513.193	6598.63
513.561	6634.11
513.929	6692.18
514.297	6712.52
514.664	6711.84
515.032	6735.12
515.4	6770.37
515.767	6768.11
516.135	6802.46
516.502	6716.36
516.869	6826.87
517.237	6800.43
517.604	6826.19
517.972	6882.01
518.339	6898.73
518.706	6876.13
519.073	6889.69
519.44	6918.39
519.808	7007.88
520.175	6931.27
520.542	6984.83
520.909	7026.41
521.276	6994.32
521.643	7014.66
522.009	7101.21
522.376	7048.11
522.743	7134.43
523.11	7100.53
523.477	7157.93
523.843	7155.45
524.21	7219.4
524.577	7234.99
524.943	7273.18
525.31	7190.25
525.676	7316.57
526.043	7295.78
526.409	7283.35
526.776	7385.05
527.142	7294.43
527.508	7347.08
527.874	7473.63
528.241	7406.06
528.607	7363.58
528.973	7479.28
529.339	7428.43
529.705	7449.45
530.071	7420.75
530.437	7530.35
530.803	7490.13
531.169	7511.14
531.535	7441.32
531.901	7521.99
532.267	7469.34
532.632	7553.63
532.998	7526.06
533.364	7517.92
533.73	7488.09
534.095	7511.37
534.461	7555.21
534.826	7568.09
535.192	7518.6
535.557	7576
535.923	7556.11
536.288	7537.13
536.653	7568.54
537.019	7493.52
537.384	7496.23
537.749	7541.65
538.114	7518.38
538.479	7489.45
538.845	7521.77
539.21	7417.36
539.575	7479.73
539.94	7445.16
540.305	7442.45
540.67	7445.61
541.034	7409.68
541.399	7474.08
541.764	7454.42
542.129	7399.51
542.494	7463.24
542.858	7466.63
543.223	7461.65
543.587	7452.16
543.952	7451.94
544.316	7451.71
544.681	7466.85
545.045	7430.24
545.41	7419.85
545.774	7425.27
546.138	7402.9
546.503	7396.57
546.867	7382.56
547.231	7383.24
547.595	7392.73
547.959	7374.65
548.324	7360.64
548.688	7432.5
549.052	7361.54
549.416	7364.48
549.779	7329.91
550.143	7330.81
550.507	7342.79
550.871	7349.57
551.235	7289.68
551.599	7338.04
551.962	7359.74
552.326	7289.46
552.689	7332.17
553.053	7248.33
553.417	7310.92
553.78	7429.11
554.143	7353.41
554.507	7345.27
554.87	7289.23
555.234	7391.37
555.597	7261.66
555.96	7265.73
556.323	7383.46
556.686	7320.64
557.05	7349.57
557.413	7340.75
557.776	7353.18
558.139	7410.58
558.502	7309.34
558.865	7348.44
559.228	7425.04
559.59	7367.42
559.953	7371.49
560.316	7481.31
560.679	7437.25
561.041	7462.78
561.404	7443.35
561.767	7509.79
562.129	7457.36
562.492	7532.61
562.854	7507.98
563.217	7442.67
563.579	7494.2
563.941	7531.71
564.304	7530.13
564.666	7620.07
565.028	7648.99
565.39	7587.98
565.753	7676.79
566.115	7687.18
566.477	7718.6
566.839	7680.63
567.201	7676.34
567.563	7738.48
567.925	7711.14
568.287	7757.01
568.648	7782.32
569.01	7797.92
569.372	7822.32
569.734	7829.33
570.095	7815.09
570.457	7856.9
570.819	7869.78
571.18	7850.12
571.542	7947.52
571.903	7875.43
572.265	7936.9
572.626	7985.71
572.987	7973.96
573.349	8047.4
573.71	8028.64
574.071	8027.74
574.432	8050.11
574.794	8107.74
575.155	8092.6
575.516	8018.02
575.877	8129.89
576.238	8077.91
576.599	8096.21
576.96	8123.33
577.32	8184.12
577.681	8231.35
578.042	8244.01
578.403	8204.46
578.763	8216.21
579.124	8289.43
579.485	8301.63
579.845	8276.32
580.206	8302.31
580.566	8257.34
580.927	8290.56
581.287	8296.66
581.648	8290.56
582.008	8350.67
582.368	8338.02
582.728	8429.76
583.089	8365.36
583.449	8418.92
583.809	8409.43
584.169	8390.22
584.529	8387.28
584.889	8477.45
585.249	8435.64
585.609	8367.39
585.969	8420.27
586.329	8448.75
586.688	8440.84
587.048	8437.67
587.408	8451.91
587.768	8458.69
588.127	8474.28
588.487	8447.84
588.846	8509.54
589.206	8453.04
589.565	8487.39
589.925	8509.76
590.284	8547.05
590.643	8518.8
591.003	8519.48
591.362	8621.4
591.721	8524.23
592.08	8559.93
592.44	8563.09
592.799	8595.86
593.158	8567.39
593.517	8579.36
593.876	8583.66
594.235	8530.55
594.593	8619.82
594.952	8566.03
595.311	8641.74
595.67	8593.6
596.029	8584.79
596.387	8688.74
596.746	8653.71
597.104	8594.73
597.463	8643.32
597.822	8651
598.18	8700.04
598.538	8680.83
598.897	8771.22
599.255	8617.1
599.613	8773.26
599.972	8700.27
600.33	8709.53
600.688	8674.05
601.046	8721.96
601.404	8755.18
601.762	8680.61
602.12	8740.49
602.478	8721.96
602.836	8800.83
603.194	8718.57
603.552	8694.16
603.91	8704.33
604.268	8756.08
604.625	8771.9
604.983	8736.65
605.341	8717.44
605.698	8768.29
606.056	8773.26
606.413	8799.02
606.771	8824.78
607.128	8820.94
607.485	8827.27
607.843	8799.92
608.2	8830.43
608.557	8839.02
608.914	8834.27
609.272	8868.17
609.629	8864.33
609.986	8884.89
610.343	8901.39
610.7	9012.8
611.057	8877.89
611.414	8929.86
611.771	8899.58
612.127	8913.82
612.484	9019.13
612.841	9011.22
613.198	9005.34
613.554	8929.19
613.911	8993.82
614.267	8948.39
614.624	8967.15
614.98	9024.78
615.337	8976.42
615.693	9001.5
616.05	8965.8
616.406	9085.57
616.762	8997.43
617.118	9000.82
617.475	9057.09
617.831	9027.71
618.187	9036.08
618.543	9018.45
618.899	9147.71
619.255	9060.26
619.611	9041.5
619.967	9093.02
620.323	9076.3
620.678	9051.22
621.034	9009.86
621.39	9042.63
621.746	9089.41
622.101	9154.26
622.457	9097.77
622.812	9136.41
623.168	9134.38
623.523	9141.61
623.879	9107.49
624.234	9061.39
624.589	9113.14
624.945	9117.88
625.3	9081.95
625.655	9085.57
626.01	9083.76
626.365	9046.92
626.72	9065.91
627.075	9022.52
627.43	9056.19
627.785	9026.81
628.14	9076.75
628.495	9108.84
628.85	9025
629.205	9046.92
629.559	9039.69
629.914	9098.9
630.269	9028.17
630.623	9010.54
630.978	8973.03
631.332	9006.02
631.687	9064.32
632.041	8966.47
632.396	8959.47
632.75	8954.04
633.104	8941.62
633.459	8924.67
633.813	8914.95
634.167	8944.78
634.521	8936.19
634.875	8950.65
635.229	8919.92
635.583	8832.69
635.937	8875.4
636.291	8874.27
636.645	8866.36
636.999	8811.68
637.352	8864.56
637.706	8844.89
638.06	8853.93
638.413	8829.53
638.767	8790.66
639.121	8776.87
639.474	8689.64
639.828	8752.69
640.181	8773.71
640.534	8846.02
640.888	8728.97
641.241	8749.3
641.594	8727.38
641.947	8682.41
642.301	8708.85
642.654	8700.49
643.007	8648.52
643.36	8696.42
643.713	8679.02
644.066	8705.01
644.419	8639.25
644.771	8577.1
645.124	8504.11
645.477	8465.7
645.83	8441.29
646.182	8450.78
646.535	8376.43
646.888	8409.2
647.24	8441.74
647.593	8427.05
647.945	8334.85
648.298	8367.39
648.65	8368.07
649.002	8359.26
649.355	8302.99
649.707	8364.23
650.059	8374.4
650.411	8551.57
650.763	8458.69
651.115	8587.73
651.467	8529.42
651.819	8515.19
652.171	8600.83
652.523	8509.08
652.875	8556.54
653.227	8464.57
653.578	8486.03
653.93	8522.87
654.282	8518.12
654.633	8431.12
654.985	8457.33
655.337	8472.25
655.688	8511.34
656.039	8498.24
656.391	8443.55
656.742	8408.52
657.094	8467.96
657.445	8462.53
657.796	8485.13
658.147	8505.69
658.498	8482.19
658.849	8468.18
659.2	8482.64
659.551	8486.26
659.902	8459.14
660.253	8535.98
660.604	8506.37
660.955	8436.32
661.306	8488.52
661.656	8519.03
662.007	8510.44
662.358	8460.72
662.708	8529.2
663.059	8441.74
663.409	8415.53
663.76	8521.74
664.11	8435.41
664.461	8508.63
664.811	8517.45
665.161	8492.59
665.511	8505.02
665.862	8487.39
666.212	8501.4
666.562	8563.77
666.912	8513.83
667.262	8443.32
667.612	8475.41
667.962	8458.24
668.312	8471.12
668.662	8453.49
669.011	8515.64
669.361	8461.4
669.711	8447.84
670.06	8491.46
670.41	8373.04
670.76	8421.63
671.109	8460.95
671.459	8501.85
671.808	8471.35
672.157	8450.55
672.507	8436.32
672.856	8415.08
673.205	8404.45
673.554	8462.98
673.904	8387.05
674.253	8461.4
674.602	8420.05
674.951	8299.82
675.3	8257.34
675.649	8346.15
675.998	8390.67
676.346	8361.29
676.695	8379.6
677.044	8331.46
677.393	8348.18
677.741	8338.24
678.09	8319.26
678.438	8228.64
678.787	8304.8
679.135	8268.41
679.484	8220.05
679.832	8227.74
680.181	8248.53
680.529	8209.88
680.877	8189.32
681.225	8221.86
681.573	8216.89
681.922	8222.76
682.27	8149.09
682.618	8121.07
682.966	8118.13
683.314	8099.15
683.661	8120.62
684.009	8119.72
684.357	8027.06
684.705	8067.29
685.053	8056.89
685.4	8011.92
685.748	7998.59
686.095	7992.49
686.443	8001.3
686.79	7990.68
687.138	7973.73
687.485	7936.9
687.832	7915.43
688.18	7890.34
688.527	7815.09
688.874	7867.97
689.221	7860.97
689.568	7809.67
689.915	7805.6
690.262	7792.04
690.609	7730.35
690.956	7714.53
691.303	7708.88
691.65	7683.8
691.997	7664.36
692.344	7642.44
692.69	7615.77
693.037	7646.73
693.383	7529
693.73	7559.5
694.077	7503.46
694.423	7501.2
694.769	7452.84
695.116	7469.11
695.462	7445.16
695.808	7452.84
696.155	7456.91
696.501	7337.82
696.847	7307.99
697.193	7310.7
697.539	7338.72
697.885	7274.77
698.231	7267.08
698.577	7259.4
698.923	7240.64
699.269	7262.79
699.614	7147.09
699.96	7181.44
700.306	7149.12
700.651	7121.78
700.997	7098.73
701.342	7028.45
701.688	6994.32
702.033	6990.48
702.379	7016.92
702.724	6963.59
703.069	6956.36
703.415	6883.14
703.76	6897.15
704.105	6945.74
704.45	6876.58
704.795	6844.04
705.14	6795
705.485	6808.79
705.83	6743.25
706.175	6774.89
706.52	6731.5
706.865	6720.66
707.209	6662.35
707.554	6697.38
707.899	6697.15
708.243	6657.61
708.588	6631.39
708.932	6652.64
709.277	6607.44
709.621	6598.17
709.966	6618.51
710.31	6579.42
710.654	6519.98
710.998	6581.68
711.342	6540.55
711.687	6444.05
712.031	6509.59
712.375	6476.14
712.719	6411.51
713.063	6439.76
713.407	6451.06
713.75	6419.2
714.094	6442.47
714.438	6433.88
714.782	6428.01
715.125	6328.35
715.469	6391.85
715.812	6324.73
716.156	6315.92
716.499	6344.17
716.843	6330.84
717.186	6279.54
717.53	6350.04
717.873	6329.48
718.216	6305.07
718.559	6347.33
718.902	6178.98
719.246	6282.48
719.589	6220.78
719.932	6218.52
720.275	6195.25
720.617	6187.34
720.96	6198.64
721.303	6190.28
721.646	6166.32
721.989	6174.46
722.331	6167.9
722.674	6151.63
723.016	6141.01
723.359	6144.4
723.701	6170.16
724.044	6148.47
724.386	6124.51
724.729	6140.33
725.071	6109.83
725.413	6101.24
725.755	6115.47
726.097	6103.95
726.439	6019.43
726.782	6015.36
727.124	6111.63
727.465	5981.69
727.807	6044.29
728.149	6045.65
728.491	5991.41
728.833	6009.49
729.175	6034.12
729.516	6042.71
729.858	5978.08
730.199	5994.35
730.541	5986.89
730.882	5995.93
731.224	5954.35
731.565	5937.4
731.906	6005.42
732.248	6047.45
732.589	5965.87
732.93	5994.35
733.271	5962.03
733.612	5993.22
733.953	6071.41
734.294	6011.07
734.635	5982.37
734.976	6013.33
735.317	5935.82
735.658	5942.15
735.999	5970.39
736.339	5990.96
736.68	6048.13
737.021	5969.49
737.361	5951.41
737.702	6004.52
738.042	5991.18
738.383	5968.59
738.723	6051.75
739.063	6030.05
739.404	6011.75
739.744	5967
740.084	5995.03
740.424	6009.71
740.764	5997.29
741.104	6010.17
741.444	6011.07
741.784	6017.4
742.124	6028.47
742.464	6050.84
742.804	6072.99
743.143	6029.38
743.483	6056.95
743.823	6042.93
744.162	6044.52
744.502	6108.47
744.841	6091.97
745.181	6147.56
745.52	6073.67
745.86	6127
746.199	6159.32
746.538	6186.66
746.877	6223.95
747.216	6205.42
747.556	6234.34
747.895	6297.16
748.234	6298.29
748.573	6307.56
748.911	6383.72
749.25	6425.98
749.589	6402.47
749.928	6457.39
750.267	6485.86
750.605	6561.79
750.944	6542.13
751.283	6607.21
751.621	6729.7
751.96	6719.07
752.298	6757.72
752.636	6790.94
752.975	6866.87
753.313	6903.7
753.651	6957.26
753.989	6954.55
754.327	7029.35
754.666	7096.92
755.004	7162.68
755.342	7298.95
755.679	7383.24
756.017	7422.79
756.355	7567.19
756.693	7611.03
757.031	7679.95
757.368	7689.9
757.706	7812.15
758.044	7840.18
758.381	7991.13
758.719	8051.24
759.056	8122.65
759.394	8249.2
759.731	8239.03
760.068	8428.63
760.405	8464.11
760.743	8518.8
761.08	8662.53
761.417	8749.76
761.754	8840.6
762.091	8928.73
762.428	8995.4
762.765	9135.96
763.102	9177.99
763.438	9335.28
763.775	9415.73
764.112	9407.82
764.449	9550.64
764.785	9588.83
765.122	9678.09
765.458	9696.4
765.795	9844.64
766.131	9945.66
766.467	10007.58
766.804	10013.45
767.14	10108.14
767.476	10184.29
767.812	10252.32
768.148	10408.92
768.485	10414.57
768.821	10405.31
769.157	10480.33
769.492	10582.48
769.828	10609.37
770.164	10665.86
770.5	10708.8
770.836	10759.19
771.171	10738.86
771.507	10779.76
771.842	10866.54
772.178	10910.6
772.513	10937.72
772.849	11007.1
773.184	11052.52
773.519	11030.83
773.855	11119.64
774.19	10996.7
774.525	11144.04
774.86	11147.88
775.195	11206.87
775.53	11183.82
775.865	11166.64
776.2	11161.67
776.535	11094.55
776.87	11212.29
777.205	11266.98
777.539	11269.69
777.874	11256.13
778.209	11217.71
778.543	11226.3
778.878	11239.18
779.212	11223.59
779.547	11236.02
779.881	11268.79
780.215	11262.23
780.55	11300.2
780.884	11260.42
781.218	11220.2
781.552	11248.45
781.886	11300.42
782.22	11221.33
782.554	11198.96
782.888	11148.34
783.222	11166.19
783.556	11128.9
783.889	11135.46
784.223	11151.05
784.557	11083.25
784.89	11127.32
785.224	11037.15
785.557	11020.43
785.891	11004.61
786.224	10983.6
786.558	11062.92
786.891	10982.69
787.224	10949.7
787.557	10977.27
787.891	11007.78
788.224	10949.7
788.557	11001
788.89	10938.85
789.223	10936.14
789.556	10852.07
789.888	10824.05
790.221	10926.65
790.554	10716.26
790.887	10721.23
791.219	10703.38
791.552	10775.69
791.884	10667.45
792.217	10739.76
792.549	10650.27
792.882	10616.83
793.214	10560.56
793.546	10654.56
793.879	10511.07
794.211	10516.26
794.543	10541.8
794.875	10456.15
795.207	10542.03
795.539	10525.08
795.871	10528.92
796.203	10405.08
796.535	10332.99
796.867	10358.53
797.198	10365.53
797.53	10351.97
797.862	10271.75
798.193	10358.08
798.525	10246.67
798.856	10306.1
799.188	10097.52
799.519	10131.19
799.85	10088.7
800.182	10154.92
800.513	10043.06
800.844	10080.12
801.175	10130.96
801.506	10116.05
801.837	10027.24
802.168	9965.77
802.499	9946.56
802.83	9914.47
803.161	9957.41
803.491	9905.88
803.822	9995.37
804.153	9795.15
804.483	9819.33
804.814	9831.76
805.145	9717.87
805.475	9770.97
805.805	9718.32
806.136	9742.72
806.466	9700.01
806.796	9651.65
807.126	9598.1
807.457	9599.9
807.787	9598.55
808.117	9587.7
808.447	9476.52
808.777	9573.91
809.107	9527.59
809.436	9441.04
809.766	9456.63
810.096	9492.11
810.426	9381.38
810.755	9480.58
811.085	9494.59
811.414	9415.05
811.744	9359.23
812.073	9310.65
812.403	9318.33
812.732	9253.7
813.061	9283.08
813.39	9280.82
813.719	9220.25
814.049	9232.23
814.378	9213.02
814.707	9104.77
815.036	9188.39
815.365	9108.62
815.693	9017.32
816.022	9154.04
816.351	9078.79
816.68	9060.93
817.008	9030.65
817.337	8959.69
817.665	8883.99
817.994	8970.77
818.322	8905.46
818.651	8970.54
818.979	8853.03
819.307	8950.88
819.636	8898
819.964	8861.17
820.292	8948.62
820.62	8872.24
820.948	8884.89
821.276	8922.63
821.604	8899.81
821.932	8866.14
822.259	8902.97
822.587	8889.87
822.915	8828.62
823.243	8907.94
823.57	8864.56
823.898	8861.62
824.225	8866.81
824.553	8810.55
824.88	8878.79
825.207	8871.56
825.535	8836.53
825.862	8848.06
826.189	8793.37
826.516	8921.28
826.843	8871.56
827.17	8858.23
827.497	8836.53
827.824	8861.39
828.151	8932.58
828.478	8903.65
828.805	8858.68
829.131	8846.25
829.458	8847.15
829.785	8838.79
830.111	8856.87
830.438	8880.37
830.764	8881.73
831.09	8880.37
831.417	8785.01
831.743	8881.05
832.069	8804.9
832.395	8833.6
832.722	8849.87
833.048	8771.45
833.374	8810.77
833.7	8773.03
834.026	8841.5
834.351	8815.97
834.677	8731.45
835.003	8806.48
835.329	8780.72
835.654	8763.99
835.98	8692.81
836.306	8752.02
836.631	8648.06
836.956	8769.64
837.282	8749.98
837.607	8725.12
837.932	8674.28
838.258	8695.52
838.583	8730.32
838.908	8572.36
839.233	8620.95
839.558	8665.01
839.883	8564
840.208	8546.82
840.533	8582.75
840.858	8605.58
841.182	8594.28
841.507	8500.5
841.832	8526.94
842.156	8477.9
842.481	8465.02
842.805	8467.73
843.13	8500.04
843.454	8385.25
843.778	8427.73
844.103	8338.92
844.427	8358.58
844.751	8371.23
845.075	8342.53
845.399	8331.91
845.723	8247.4
846.047	8308.41
846.371	8201.97
846.695	8242.42
847.019	8117.23
847.343	8146.83
847.666	8059.15
847.99	8010.34
848.313	8035.65
848.637	7999.95
848.96	7949.78
849.284	7969.44
849.607	7950.45
849.931	7980.06
850.254	7807.41
850.577	7812.15
850.9	7711.82
851.223	7766.96
851.546	7667.75
851.869	7701.65
852.192	7733.74
852.515	7636.11
852.838	7565.61
853.161	7634.53
853.483	7585.27
853.806	7482.9
854.129	7496.91
854.451	7529.45
854.774	7447.87
855.096	7474.99
855.419	7488.77
855.741	7456.68
856.063	7377.14
856.385	7366.97
856.708	7338.49
857.03	7322.9
857.352	7351.6
857.674	7284.03
857.996	7290.13
858.318	7276.12
858.64	7268.44
858.961	7201.1
859.283	7193.86
859.605	7159.74
859.926	7144.37
860.248	7152.28
860.57	7065.51
860.891	7143.47
861.212	7101.66
861.534	7110.25
861.855	7045.17
862.176	7051.04
862.498	7098.73
862.819	6960.65
863.14	7026.64
863.461	7030.7
863.782	6983.25
864.103	6980.31
864.424	6945.96
864.745	6988.22
865.065	6919.97
865.386	6879.52
865.707	6897.83
866.027	6855.12
866.348	6882.69
866.668	6844.5
866.989	6805.17
867.309	6818.51
867.63	6805.63
867.95	6802.24
868.27	6749.81
868.59	6726.31
868.91	6821.9
869.23	6756.59
869.55	6723.37
869.87	6817.6
870.19	6743.93
870.51	6754.55
870.83	6720.88
871.15	6708.45
871.469	6630.26
871.789	6694.67
872.109	6723.82
872.428	6644.95
872.748	6613.31
873.067	6650.15
873.386	6611.96
873.706	6655.8
874.025	6558.4
874.344	6585.74
874.663	6597.5
874.982	6574.67
875.301	6618.29
875.62	6558.85
875.939	6542.13
876.258	6517.5
876.577	6508.23
876.896	6469.82
877.214	6510.72
877.533	6443.38
877.852	6463.71
878.17	6473.88
878.489	6495.8
878.807	6520.21
879.125	6498.52
879.444	6438.18
879.762	6381.91
880.08	6484.5
880.398	6385.52
880.716	6409.93
881.034	6390.95
881.352	6383.26
881.67	6348.46
881.988	6308.69
882.306	6337.16
882.624	6309.37
882.941	6282.48
883.259	6307.33
883.577	6273.44
883.894	6243.16
884.212	6285.19
884.529	6237.51
884.846	6221.69
885.164	6156.6
885.481	6205.64
885.798	6242.25
886.115	6180.56
886.432	6171.97
886.75	6171.74
887.067	6136.49
887.383	6083.84
887.7	6142.37
888.017	6092.65
888.334	6079.09
888.651	6106.21
888.967	6063.27
889.284	6084.97
889.6	6011.07
889.917	6014.01
890.233	5986.89
890.55	5955.93
890.866	6011.75
891.182	5945.76
891.498	5941.92
891.815	5945.99
892.131	5884.52
892.447	5839.32
892.763	5875.48
893.079	5839.55
893.395	5871.87
893.71	5821.02
894.026	5807.69
894.342	5769.04
894.657	5755.03
894.973	5753.22
895.289	5707.35
895.604	5775.37
895.92	5677.75
896.235	5661.48
896.55	5666.22
896.865	5637.52
897.181	5613.57
897.496	5638.43
897.811	5604.98
898.126	5545.77
898.441	5533.57
898.756	5501.25
899.071	5503.51
899.386	5480.24
899.7	5454.48
900.015	5447.02
900.33	5402.95
900.644	5384.19
900.959	5420.35
901.273	5369.73
901.588	5405.21
901.902	5373.8
902.216	5302.39
902.531	5355.04
902.845	5287.25
903.159	5231.88
903.473	5226.91
903.787	5213.13
904.101	5190.08
904.415	5123.86
904.729	5207.25
905.042	5146.69
905.356	5149.85
905.67	5143.3
905.984	5122.51
906.297	5096.07
906.611	5062.85
906.924	5078.89
907.237	5016.52
907.551	5035.28
907.864	4997.09
908.177	4993.24
908.491	4943.98
908.804	4944.21
909.117	4911.66
909.43	4926.58
909.743	4918.67
910.056	4864.66
910.368	4849.52
910.681	4799.58
910.994	4811.55
911.307	4797.77
911.619	4772.01
911.932	4737.66
912.244	4694.5
912.557	4725.68
912.869	4669.19
913.181	4676.64
913.494	4636.42
913.806	4615.85
914.118	4649.07
914.43	4614.72
914.742	4622.86
915.054	4531.79
915.366	4547.38
915.678	4506.25
915.99	4491.11
916.302	4533.14
916.613	4475.29
916.925	4463.31
917.236	4479.36
917.548	4431.9
917.859	4454.05
918.171	4343.32
918.482	4366.14
918.794	4369.08
919.105	4342.41
919.416	4288.18
919.727	4299.48
920.038	4312.58
920.349	4256.09
920.66	4230.55
920.971	4258.12
921.282	4242.76
921.593	4209.99
921.903	4172.93
922.214	4174.51
922.525	4133.38
922.835	4176.77
923.146	4084.79
923.456	4112.82
923.767	4100.61
924.077	4099.48
924.387	4091.35
924.697	4044.57
925.008	4011.8
925.318	3993.04
925.628	3987.4
925.938	4009.54
926.248	3971.35
926.558	3966.6
926.867	3931.8
927.177	3921.41
927.487	3894.52
927.796	3907.17
928.106	3864.23
928.416	3862.88
928.725	3890.9
929.034	3863.1
929.344	3833.05
929.653	3817.68
929.962	3819.04
930.271	3792.37
930.581	3764.8
930.89	3753.5
931.199	3700.62
931.508	3694.07
931.817	3723.9
932.125	3698.36
932.434	3698.36
932.743	3657.46
933.051	3633.51
933.36	3606.84
933.669	3595.09
933.977	3645.94
934.286	3603.45
934.594	3573.62
934.902	3585.82
935.21	3546.73
935.519	3536.79
935.827	3524.81
936.135	3547.63
936.443	3489.78
936.751	3484.13
937.059	3466.73
937.367	3436
937.674	3444.13
937.982	3432.83
938.29	3393.74
938.597	3420.86
938.905	3384.47
939.213	3330.01
939.52	3350.58
939.827	3325.94
940.135	3309.22
940.442	3287.3
940.749	3316.9
941.056	3283.46
941.363	3239.17
941.67	3233.52
941.977	3241.43
942.284	3185.83
942.591	3219.96
942.898	3211.37
943.205	3224.03
943.511	3164.82
943.818	3190.58
944.125	3132.28
944.431	3143.8
944.738	3125.5
945.044	3126.17
945.35	3099.96
945.657	3118.27
945.963	3065.39
946.269	3076.01
946.575	3026.29
946.881	3018.38
947.187	3030.58
947.493	3039.62
947.799	2995.78
948.105	2968.44
948.41	2953.98
948.716	2961.89
949.022	2990.81
949.327	2933.86
949.633	2928.67
949.938	2953.52
950.244	2932.96
950.549	2922.56
950.854	2916.24
951.16	2868.55
951.465	2859.29
951.77	2840.53
952.075	2813.64
952.38	2840.31
952.685	2782.23
952.99	2770.7
953.294	2774.55
953.599	2764.83
953.904	2777.71
954.209	2757.82
954.513	2729.58
954.818	2741.1
955.122	2723.02
955.426	2707.88
955.731	2727.54
956.035	2669.69
956.339	2688.67
956.643	2658.39
956.948	2627.88
957.252	2669.69
957.556	2641.22
957.86	2616.81
958.163	2606.64
958.467	2632.63
958.771	2609.58
959.075	2584.95
959.378	2560.54
959.682	2590.82
959.985	2540.88
960.289	2539.52
960.592	2521.45
960.896	2502.69
961.199	2538.85
961.502	2513.54
961.805	2490.49
962.108	2458.85
962.411	2492.29
962.714	2469.24
963.017	2450.03
963.32	2430.83
963.623	2436.93
963.926	2425.85
964.228	2410.49
964.531	2419.3
964.833	2375.46
965.136	2403.71
965.438	2383.37
965.741	2354.44
966.043	2336.59
966.345	2354.22
966.648	2306.76
966.95	2311.73
967.252	2323.03
967.554	2307.67
967.856	2292.75
968.158	2279.19
968.46	2288.91
968.761	2233.77
969.063	2281.23
969.365	2262.24
969.666	2226.76
969.968	2230.15
970.269	2208.23
970.571	2232.64
970.872	2219.31
971.174	2197.61
971.475	2204.17
971.776	2176.37
972.077	2153.55
972.378	2147.22
972.679	2158.97
972.98	2188.35
973.281	2149.48
973.582	2142.47
973.883	2120.78
974.183	2101.34
974.484	2114
974.785	2082.81
975.085	2102.02
975.386	2071.29
975.686	2065.86
975.986	2062.93
976.287	2017.5
976.587	2051.63
976.887	2025.64
977.187	2038.97
977.487	2029.48
977.787	2005.3
978.087	2008.69
978.387	2010.95
978.687	1973.66
978.987	1992.42
979.286	1964.17
979.586	1996.94
979.885	1936.38
980.185	1956.49
980.484	1950.16
980.784	1925.3
981.083	1919.65
981.382	1935.92
981.682	1897.73
981.981	1896.83
982.28	1909.48
982.579	1889.6
982.878	1876.26
983.177	1853.44
983.475	1848.92
983.774	1866.55
984.073	1844.17
984.372	1879.88
984.67	1823.84
984.969	1820.22
985.267	1831.52
985.566	1798.07
985.864	1803.27
986.162	1789.26
986.461	1819.32
986.759	1784.52
987.057	1779.77
987.355	1759.88
987.653	1766.66
987.951	1755.36
988.249	1759.21
988.547	1751.75
988.844	1712.43
989.142	1734.35
989.44	1689.83
989.737	1703.61
990.035	1703.61
990.332	1704.74
990.63	1693.9
990.927	1685.31
991.224	1655.03
991.521	1667.46
991.819	1678.3
992.116	1658.42
992.413	1639.21
992.71	1608.47
993.006	1644.86
993.303	1624.75
993.6	1634.46
993.897	1622.94
994.193	1627.91
994.49	1593.79
994.787	1565.09
995.083	1599.66
995.379	1573.45
995.676	1554.46
995.972	1552.2
996.268	1560.11
996.565	1534.58
996.861	1557.18
997.157	1545.65
997.453	1535.71
997.749	1521.02
998.044	1503.62
998.34	1495.48
998.636	1491.42
998.932	1501.36
999.227	1489.61
999.523	1487.12
999.818	1478.08
1000.114	1462.49
1000.409	1463.85
1000.704	1429.72
1001	1453.68
1001.295	1450.96
1001.59	1416.39
1001.885	1421.59
1002.18	1405.09
1002.475	1416.16
1002.77	1413.68
1003.065	1408.03
1003.359	1401.25
1003.654	1396.28
1003.949	1379.78
1004.243	1321.25
1004.538	1324.41
1004.832	1336.17
1005.127	1340.46
1005.421	1349.27
1005.715	1336.17
1006.009	1323.28
1006.304	1317.41
1006.598	1310.4
1006.892	1295.26
1007.186	1295.49
1007.48	1297.07
1007.773	1319.67
1008.067	1264.98
1008.361	1308.14
1008.655	1260.46
1008.948	1277.64
1009.242	1266.34
1009.535	1248.26
1009.829	1273.34
1010.122	1235.6
1010.415	1224.3
1010.708	1208.71
1011.001	1225.89
1011.295	1206.68
1011.588	1208.94
1011.881	1197.41
1012.173	1201.93
1012.466	1189.73
1012.759	1198.54
1013.052	1182.05
1013.344	1149.5
1013.637	1178.2
1013.93	1166.9
1014.222	1133.23
1014.514	1141.59
1014.807	1141.59
1015.099	1137.3
1015.391	1124.65
1015.683	1100.92
1015.976	1138.2
1016.268	1094.59
1016.56	1095.72
1016.851	1093.46
1017.143	1096.62
1017.435	1099.56
1017.727	1073.12
1018.018	1067.92
1018.31	1039.22
1018.602	1063.86
1018.893	1054.82
1019.185	1048.49
1019.476	1049.17
1019.767	1022.5
1020.058	1024.31
1020.35	1005.1
1020.641	1026.12
1020.932	1017.53
1021.223	1008.04
1021.514	989.06
1021.804	998.32
1022.095	975.04
1022.386	986.8
1022.677	978.43
1022.967	976.17
1023.258	948.38
1023.548	963.52
1023.839	981.6
1024.129	963.29
1024.419	944.09
1024.709	949.51
1025	932.33
1025.29	914.48
1025.58	910.64
1025.87	929.17
1026.16	897.98
1026.449	905.67
1026.739	896.63
1027.029	905.89
1027.319	884.65
1027.608	911.54
1027.898	891.43
1028.187	874.03
1028.477	870.19
1028.766	858.44
1029.055	841.26
1029.344	878.1
1029.634	864.31
1029.923	863.41
1030.212	873.35
1030.501	844.43
1030.79	834.48
1031.078	838.55
1031.367	799.91
1031.656	813.47
1031.945	831.77
1032.233	819.57
1032.522	791.77
1032.81	790.19
1033.099	798.33
1033.387	794.48
1033.675	805.33
1033.963	800.13
1034.251	771.66
1034.54	775.5
1034.828	785.45
1035.116	774.82
1035.403	788.61
1035.691	767.82
1035.979	759.01
1036.267	773.92
1036.554	759.68
1036.842	754.03
1037.129	774.82
1037.417	740.93
1037.704	730.31
1037.992	740.7
1038.279	729.18
1038.566	741.6
1038.853	741.6
1039.14	741.6
