Data from hue_340_FLMS001491_2.txt Node
Date: Mon Feb 06 15:42:12 GMT 2017
User: dcchb
Spectrometer: FLMS00149
Trigger mode: 0
Integration Time (sec): 2.000000E-2
Scans to average: 10
Electric dark correction enabled: true
Nonlinearity correction enabled: false
Boxcar width: 0
XAxis mode: Wavelengths
Number of Pixels in Spectrum: 2048
>>>>>Begin Spectral Data<<<<<
341.393	-21.78
341.776	-21.78
342.16	-21.78
342.543	-72.4
342.927	-72.17
343.31	-69.01
343.693	-63.59
344.077	-71.27
344.46	-57.94
344.843	-56.35
345.226	-40.99
345.61	-27.65
345.993	-17.94
346.376	8.28
346.759	-1.21
347.142	30.65
347.525	27.71
347.908	54.38
348.291	84.66
348.674	98.67
349.057	101.61
349.44	133.02
349.823	129.4
350.206	164.88
350.588	188.16
350.971	215.05
351.354	209.63
351.737	230.64
352.119	272.22
352.502	270.19
352.884	262.73
353.267	294.6
353.65	286.46
354.032	296.4
354.414	278.33
354.797	300.02
355.179	325.1
355.562	320.13
355.944	314.94
356.326	317.65
356.709	340.92
357.091	337.08
357.473	343.18
357.855	323.07
358.238	352
358.62	324.88
359.002	333.01
359.384	340.92
359.766	333.01
360.148	345.22
360.53	344.54
360.912	339.34
361.294	337.53
361.676	340.92
362.057	348.38
362.439	335.5
362.821	326.23
363.203	323.07
363.584	324.2
363.966	320.58
364.348	321.26
364.729	317.87
365.111	324.43
365.493	300.92
365.874	324.2
366.256	298.89
366.637	316.74
367.019	302.05
367.4	302.73
367.781	303.41
368.163	309.06
368.544	302.73
368.925	323.97
369.306	335.27
369.688	333.47
370.069	309.96
370.45	291.43
370.831	319.23
371.212	311.55
371.593	276.52
371.974	307.7
372.355	312.9
372.736	321.71
373.117	319
373.498	297.08
373.879	325.78
374.26	281.94
374.641	311.09
375.021	326.23
375.402	322.17
375.783	312.9
376.163	324.65
376.544	318.32
376.925	313.58
377.305	315.16
377.686	320.81
378.066	316.29
378.447	330.75
378.827	322.62
379.208	327.36
379.588	320.13
379.968	324.88
380.349	324.65
380.729	329.85
381.109	314.03
381.489	311.32
381.87	319.45
382.25	328.49
382.63	321.26
383.01	315.84
383.39	354.71
383.77	352.45
384.15	338.89
384.53	337.31
384.91	345.89
385.29	353.58
385.67	342.51
386.049	369.4
386.429	349.74
386.809	366.23
387.189	356.97
387.568	346.8
387.948	348.15
388.328	342.96
388.707	338.44
389.087	352.67
389.466	359.68
389.846	359.91
390.225	340.7
390.605	374.14
390.984	379.57
391.363	358.32
391.743	377.76
392.122	363.75
392.501	354.26
392.881	356.29
393.26	359
393.639	379.79
394.018	380.24
394.397	399
394.776	366.23
395.155	366.23
395.534	383.86
395.913	381.15
396.292	379.57
396.671	389.06
397.05	406.46
397.429	398.1
397.808	367.82
398.186	406.01
398.565	391.09
398.944	379.57
399.323	391.09
399.701	393.58
400.08	397.19
400.458	390.87
400.837	385.44
401.215	396.06
401.594	385.22
401.972	391.54
402.351	421.6
402.729	411.88
403.107	409.4
403.486	393.13
403.864	401.49
404.242	401.71
404.62	397.42
404.999	423.63
405.377	410.75
405.755	408.94
406.133	404.42
406.511	449.17
406.889	431.32
407.267	461.37
407.645	417.98
408.023	443.52
408.401	439.23
408.779	438.1
409.156	446.01
409.534	463.86
409.912	446.68
410.29	451.65
410.667	486.46
411.045	456.4
411.422	479.22
411.8	480.81
412.178	453.24
412.555	490.3
412.933	462.95
413.31	482.16
413.687	499.34
414.065	500.02
414.442	501.82
414.819	500.69
415.197	517.19
415.574	511.09
415.951	513.8
416.328	532.78
416.705	520.13
417.082	537.98
417.46	533.46
417.837	528.04
418.214	519.22
418.591	541.14
418.967	541.82
419.344	569.62
419.721	569.39
420.098	567.81
420.475	554.93
420.852	589.5
421.228	577.3
421.605	563.06
421.982	591.99
422.358	600.13
422.735	594.48
423.111	610.07
423.488	609.16
423.864	612.1
424.241	617.75
424.617	631.99
424.994	643.06
425.37	651.88
425.746	627.47
426.123	635.15
426.499	633.34
426.875	658.43
427.251	650.52
427.627	642.84
428.003	661.37
428.379	669.5
428.756	683.51
429.132	695.72
429.507	699.11
429.883	703.63
430.259	691.65
430.635	717.41
431.011	714.7
431.387	720.35
431.763	719.44
432.138	736.17
432.514	729.84
432.89	758.99
433.265	751.76
433.641	775.26
434.016	768.71
434.392	816.39
434.767	762.38
435.143	801.93
435.518	789.05
435.894	815.26
436.269	818.2
436.644	839.22
437.02	813.91
437.395	819.33
437.77	822.72
438.145	839.44
438.52	827.92
438.895	847.12
439.271	827.69
439.646	885.99
440.021	859.33
440.395	854.36
440.77	864.98
441.145	904.52
441.52	923.05
441.895	881.47
442.27	874.24
442.645	902.49
443.019	926.67
443.394	923.05
443.769	933.45
444.143	921.02
444.518	924.18
444.892	935.03
445.267	946.33
445.641	947.01
446.016	956.5
446.39	949.72
446.764	951.3
447.139	962.6
447.513	972.55
447.887	945.2
448.262	954.01
448.636	950.4
449.01	1002.15
449.384	983.84
449.758	989.72
450.132	990.4
450.506	984.75
450.88	1009.83
451.254	1006.89
451.628	1029.04
452.002	1010.28
452.376	1005.76
452.75	1050.51
453.123	1059.55
453.497	1038.08
453.871	1062.71
454.244	1074.46
454.618	1102.94
454.992	1078.08
455.365	1083.05
455.739	1124.18
456.112	1103.39
456.486	1123.95
456.859	1133.44
457.232	1162.82
457.606	1147.91
457.979	1168.25
458.352	1185.42
458.725	1180.9
459.099	1168.47
459.472	1195.14
459.845	1227
460.218	1198.98
460.591	1224.52
460.964	1227.68
461.337	1239.2
461.71	1251.63
462.083	1286.21
462.456	1300.22
462.829	1309.49
463.201	1314.23
463.574	1311.97
463.947	1322.37
464.32	1357.17
464.692	1365.98
465.065	1362.82
465.438	1368.69
465.81	1395.58
466.183	1428.13
466.555	1429.03
466.928	1432.65
467.3	1455.47
467.672	1454.57
468.045	1484.62
468.417	1492.98
468.789	1493.66
469.161	1506.54
469.534	1536.6
469.906	1580.44
470.278	1567.56
470.65	1585.86
471.022	1623.83
471.394	1634.22
471.766	1650.04
472.138	1671.06
472.51	1709.7
472.882	1709.02
473.253	1706.76
473.625	1733.88
473.997	1795.35
474.369	1807.55
474.74	1815.69
475.112	1857.95
475.484	1851.39
475.855	1903.82
476.227	1933.88
476.598	1923.93
476.97	1950.82
477.341	2000.54
477.713	2030.82
478.084	2050.93
478.455	2095.68
478.827	2085.28
479.198	2172.97
479.569	2177.71
479.94	2213.64
480.311	2229.69
480.682	2252.96
481.053	2302
481.424	2346.07
481.795	2393.75
482.166	2430.13
482.537	2437.37
482.908	2481.21
483.279	2514.88
483.65	2563.92
484.021	2572.5
484.391	2639.85
484.762	2668.55
485.133	2667.42
485.503	2728.21
485.874	2781.54
486.244	2771.59
486.615	2811.37
486.985	2880.97
487.356	2940.85
487.726	2928.43
488.097	2990.57
488.467	2985.37
488.837	3040.97
489.207	3127.29
489.578	3111.92
489.948	3139.95
490.318	3209.1
490.688	3236.44
491.058	3261.07
491.428	3297.23
491.798	3309.21
492.168	3420.39
492.538	3390.79
492.908	3406.61
493.278	3497.68
493.648	3474.4
494.017	3527.51
494.387	3574.28
494.757	3581.29
495.126	3603.89
495.496	3637.56
495.866	3663.1
496.235	3652.02
496.605	3713.49
496.974	3786.93
497.344	3769.08
497.713	3801.4
498.082	3792.36
498.452	3856.09
498.821	3817.89
499.19	3884.11
499.559	3918.46
499.928	3878.68
500.298	3996.42
500.667	4016.53
501.036	4000.94
501.405	4006.14
501.774	3990.77
502.143	4080.49
502.512	4051.11
502.88	4123.42
503.249	4093.37
503.618	4121.39
503.987	4172.01
504.356	4203.87
504.724	4164.33
505.093	4167.04
505.462	4223.53
505.83	4248.17
506.199	4282.29
506.567	4321.38
506.936	4300.14
507.304	4331.55
507.672	4364.55
508.041	4318.22
508.409	4409.97
508.777	4438.67
509.145	4475.96
509.514	4415.39
509.882	4446.35
510.25	4467.59
510.618	4508.05
510.986	4519.34
511.354	4528.38
511.722	4568.16
512.09	4597.99
512.458	4587.59
512.826	4586.91
513.193	4606.35
513.561	4655.84
513.929	4667.59
514.297	4738.77
514.664	4713.69
515.032	4753.24
515.4	4699
515.767	4744.42
516.135	4793.91
516.502	4743.07
516.869	4848.15
517.237	4801.6
517.604	4830.52
517.972	4915.94
518.339	4903.97
518.706	4891.99
519.073	4921.59
519.44	4911.65
519.808	4912.78
520.175	4955.72
520.542	4999.11
520.909	4993.46
521.276	5005.66
521.643	5057.86
522.009	5039.56
522.376	5050.63
522.743	5100.8
523.11	5116.39
523.477	5160.46
523.843	5183.51
524.21	5274.35
524.577	5207.69
524.943	5241.59
525.31	5275.26
525.676	5308.93
526.043	5359.32
526.409	5335.59
526.776	5423.05
527.142	5458.98
527.508	5458.3
527.874	5482.26
528.241	5496.49
528.607	5491.52
528.973	5580.11
529.339	5549.83
529.705	5608.81
530.071	5670.27
530.437	5669.14
530.803	5673.44
531.169	5762.02
531.535	5779.2
531.901	5763.38
532.267	5803.38
532.632	5816.49
532.998	5839.99
533.364	5896.71
533.73	5860.1
534.095	5951.62
534.461	5976.48
534.826	5985.97
535.192	6046.54
535.557	6052.41
535.923	5982.58
536.288	6033.2
536.653	6052.86
537.019	6070.94
537.384	6116.36
537.749	6092.18
538.114	6156.36
538.479	6190.94
538.845	6239.3
539.21	6218.96
539.575	6228.23
539.94	6273.65
540.305	6298.73
540.67	6270.26
541.034	6369.69
541.399	6335.34
541.764	6394.1
542.129	6473.42
542.494	6449.24
542.858	6486.3
543.223	6538.95
543.587	6552.06
543.952	6566.3
544.316	6563.58
544.681	6605.39
545.045	6591.61
545.41	6680.42
545.774	6678.16
546.138	6739.63
546.503	6753.18
546.867	6757.03
547.231	6805.84
547.595	6865.5
547.959	6835.89
548.324	6840.64
548.688	6881.54
549.052	6882.67
549.416	6935.78
549.779	6981.43
550.143	6945.95
550.507	7027.53
550.871	6987.75
551.235	6982.78
551.599	7085.6
551.962	7134.19
552.326	7076.11
552.689	7139.61
553.053	7163.12
553.417	7194.53
553.78	7227.75
554.143	7208.09
554.507	7193.4
554.87	7260.97
555.234	7299.84
555.597	7271.36
555.96	7288.54
556.323	7343
556.686	7407.86
557.05	7472.49
557.413	7426.84
557.776	7427.06
558.139	7497.12
558.502	7457.8
558.865	7491.24
559.228	7598.59
559.59	7545.71
559.953	7619.6
560.316	7637
560.679	7606.72
561.041	7727.62
561.404	7686.94
561.767	7737.11
562.129	7756.77
562.492	7787.51
562.854	7816.88
563.217	7817.56
563.579	7839.48
563.941	7929.2
564.304	7972.81
564.666	7989.76
565.028	7998.8
565.39	7999.03
565.753	8065.92
566.115	7991.8
566.477	8082.19
566.839	8085.13
567.201	8154.96
567.563	8220.49
567.925	8266.36
568.287	8232.47
568.648	8216.2
569.01	8279.02
569.372	8316.76
569.734	8333.93
570.095	8361.96
570.457	8392.69
570.819	8470.43
571.18	8483.99
571.542	8536.64
571.903	8538.67
572.265	8562.18
572.626	8655.73
572.987	8670.87
573.349	8676.3
573.71	8761.49
574.071	8858.21
574.432	8909.96
574.794	9032.22
575.155	8998.55
575.516	9084.42
575.877	9111.09
576.238	9209.84
576.599	9257.3
576.96	9317.64
577.32	9413.23
577.681	9479.21
578.042	9470.17
578.403	9598.31
578.763	9713.11
579.124	9805.76
579.485	9889.15
579.845	9979.77
580.206	10057.96
580.566	10160.33
580.927	10294.56
581.287	10395.8
581.648	10445.29
582.008	10685.96
582.368	10834.88
582.728	10932.06
583.089	11069.68
583.449	11290.01
583.809	11378.83
584.169	11616.11
584.529	11754.41
584.889	11984.68
585.249	12047.96
585.609	12283.89
585.969	12568.85
586.329	12638.9
586.688	12929.52
587.048	13070.53
587.408	13336.29
587.768	13542.16
588.127	13749.16
588.487	13868.03
588.846	14259.65
589.206	14488.8
589.565	14668.68
589.925	14994.78
590.284	15247.65
590.643	15491.94
591.003	15789.33
591.362	16109.77
591.721	16335.98
592.08	16638.12
592.44	16948.85
592.799	17257.09
593.158	17455.95
593.517	17674.25
593.876	18056.16
594.235	18382.48
594.593	18556.94
594.952	18865.41
595.311	19123.03
595.67	19469.91
596.029	19859.05
596.387	20127.07
596.746	20466.5
597.104	20662.65
597.463	20911.23
597.822	21277.32
598.18	21513.02
598.538	21757.31
598.897	22225.32
599.255	22269.39
599.613	22857.39
599.972	23024.85
600.33	23386.19
600.688	23552.74
601.046	23847.2
601.404	24211.71
601.762	24501.87
602.12	24798.81
602.478	25215.07
602.836	25274.96
603.194	25447.61
603.552	25777.77
603.91	26000.81
604.268	26358.77
604.625	26403.29
604.983	26895.93
605.341	26928.92
605.698	27372.3
606.056	27622.01
606.413	27864.95
606.771	28163.47
607.128	28356.91
607.485	28440.75
607.843	28810.46
608.2	29026.5
608.557	29386.49
608.914	29421.29
609.272	29696.99
609.629	30032.12
609.986	30315.73
610.343	30529.73
610.7	30795.26
611.057	30968.37
611.414	31120.9
611.771	31355.93
612.127	31639.76
612.484	31751.4
612.841	32138.05
613.198	32104.16
613.554	32203.81
613.911	32576.01
614.267	32733.52
614.624	32840.86
614.98	32969.9
615.337	33260.96
615.693	33312.71
616.05	33433.84
616.406	33854.17
616.762	33727.62
617.118	34015.52
617.475	34043.54
617.831	34329.86
618.187	34468.84
618.543	34652.34
618.899	34931.88
619.255	34917.42
619.611	34953.8
619.967	35324.86
620.323	35421.81
620.678	35361.02
621.034	35370.51
621.39	35497.29
621.746	35612.99
622.101	36197.61
622.457	35859.99
622.812	36049.81
623.168	36264.72
623.523	36236.25
623.879	36512.63
624.234	36262.69
624.589	36479.41
624.945	36749.23
625.3	36713.07
625.655	36833.07
626.01	36990.13
626.365	36959.85
626.72	36989.23
627.075	37045.04
627.43	37029.9
627.785	36994.87
628.14	37123.91
628.495	37310.57
628.85	37289.33
629.205	37207.52
629.559	37508.31
629.914	37366.62
630.269	37474.41
630.623	37296.79
630.978	37482.55
631.332	37602.32
631.687	37704.69
632.041	37645.25
632.396	37720.96
632.75	37707.62
633.104	37763.22
633.459	37538.14
633.813	37686.16
634.167	37685.25
634.521	37708.98
634.875	37759.6
635.229	37705.14
635.583	37565.26
635.937	37780.39
636.291	37610.23
636.645	37626.72
636.999	37579.04
637.352	37753.72
637.706	37552.83
638.06	37775.87
638.413	37711.01
638.767	37701.75
639.121	37777
639.474	37544.92
639.828	37650.9
640.181	37563.9
640.534	37784.46
640.888	37599.83
641.241	37489.32
641.594	37595.54
641.947	37838.69
642.301	37576.33
642.654	37563.45
643.007	37600.73
643.36	37630.56
643.713	37547.85
644.066	37677.12
644.419	37474.64
644.771	37299.5
645.124	36994.87
645.477	36938.38
645.83	36747.2
646.182	36527.54
646.535	36546.98
646.888	36437.6
647.24	36351.73
647.593	36558.73
647.945	36516.24
648.298	36399.86
648.65	36295.01
649.002	36161.68
649.355	36355.12
649.707	36383.37
650.059	36523.02
650.411	36915.55
650.763	36815.9
651.115	37236
651.467	37182.89
651.819	37327.3
652.171	37115.32
652.523	37172.05
652.875	37161.65
653.227	37080.3
653.578	37170.46
653.93	37200.75
654.282	37092.27
654.633	36974.31
654.985	36937.25
655.337	37033.07
655.688	36988.32
656.039	37125.04
656.391	36679.4
656.742	36886.4
657.094	36881.21
657.445	36893.18
657.796	36959.17
658.147	36888.89
658.498	36713.98
658.849	36837.59
659.2	36831.72
659.551	36686.18
659.902	36843.69
660.253	36917.36
660.604	36911.26
660.955	36713.3
661.306	36888.66
661.656	36645.51
662.007	36766.18
662.358	36765.5
662.708	36765.05
663.059	36723.47
663.409	36552.17
663.76	36820.42
664.11	36736.35
664.461	36741.32
664.811	36703.36
665.161	36657.48
665.511	36661.55
665.862	36638.05
666.212	36807.31
666.562	36831.49
666.912	36704.26
667.262	36765.28
667.612	36643.7
667.962	36606.64
668.312	36674.66
668.662	36579.97
669.011	36694.32
669.361	36547.2
669.711	36528.67
670.06	36407.32
670.41	36459.75
670.76	36512.63
671.109	36609.57
671.459	36445.28
671.808	36489.58
672.157	36585.39
672.507	36439.18
672.856	36244.16
673.205	36427.66
673.554	36554.21
673.904	36425.4
674.253	36616.81
674.602	36437.15
674.951	35926.65
675.3	35743.38
675.649	36247.1
675.998	36317.38
676.346	36326.19
676.695	36387.21
677.044	36174.78
677.393	36256.36
677.741	36241.22
678.09	36184.5
678.438	36123.03
678.787	36106.76
679.135	36133.2
679.484	35967.78
679.832	36062.92
680.181	35905.64
680.529	36069.02
680.877	35891.4
681.225	35777.28
681.573	36030.15
681.922	35782.7
682.27	35584.97
682.618	35840.55
682.966	35619.54
683.314	35780.44
683.661	35629.94
684.009	35381.36
684.357	35369.38
684.705	35237.18
685.053	35390.85
685.4	35233.79
685.748	35154.47
686.095	35088.26
686.443	34992.67
686.79	34881.48
687.138	35136.39
687.485	34978.88
687.832	34881.03
688.18	34956.28
688.527	34750.41
688.874	34764.65
689.221	34628.16
689.568	34639.23
689.915	34543.41
690.262	34529.4
690.609	34248.96
690.956	34359.46
691.303	34208.73
691.65	34136.87
691.997	34036.76
692.344	34009.42
692.69	33965.58
693.037	33907.72
693.383	33622.99
693.73	33840.61
694.077	33740.27
694.423	33706.6
694.769	33474.97
695.116	33432.93
695.462	33394.74
695.808	33246.27
696.155	33306.84
696.501	33081.31
696.847	33047.63
697.193	32870.46
697.539	32938.03
697.885	32726.96
698.231	32686.74
698.577	32549.12
698.923	32561.54
699.269	32415.33
699.614	32201.1
699.96	32125.17
700.306	32218.28
700.651	32123.59
700.997	31900.55
701.342	31862.81
701.688	31830.26
702.033	31809.7
702.379	31685.86
702.724	31511.4
703.069	31673.66
703.415	31285.42
703.76	31448.13
704.105	31343.05
704.45	31277.96
704.795	31113.45
705.14	30988.93
705.485	31109.38
705.83	30846.79
706.175	30959.78
706.52	30842.49
706.865	30676.85
707.209	30744.87
707.554	30637.53
707.899	30613.35
708.243	30428.72
708.588	30432.56
708.932	30151.21
709.277	30292.45
709.621	30211.55
709.966	30037.77
710.31	30137.65
710.654	29852.24
710.998	30035.28
711.342	29975.62
711.687	29843.88
712.031	29695.63
712.375	29606.14
712.719	29787.38
713.063	29506.03
713.407	29659.7
713.75	29443.89
714.094	29466.03
714.438	29294.06
714.782	29373.38
715.125	29210.67
715.469	29227.85
715.812	29076.44
716.156	28918.7
716.499	29026.27
716.843	29005.03
717.186	28850.23
717.53	28940.62
717.873	28945.37
718.216	28935.2
718.559	28725.26
718.902	28576.11
719.246	28629.44
719.589	28615.43
719.932	28491.6
720.275	28427.19
720.617	28393.07
720.96	28252.51
721.303	28413.18
721.646	28411.15
721.989	28152.4
722.331	28256.35
722.674	28153.3
723.016	28155.79
723.359	28081.89
723.701	27977.94
724.044	27936.81
724.386	27755.57
724.729	27924.38
725.071	27844.38
725.413	27822.01
725.755	27825.62
726.097	27698.4
726.439	27490.27
726.782	27620.21
727.124	27634.89
727.465	27375.01
727.807	27428.12
728.149	27422.02
728.491	27390.38
728.833	27426.54
729.175	27241.68
729.516	27219.76
729.858	27239.88
730.199	27346.77
730.541	27205.3
730.882	27124.17
731.224	27064.97
731.565	27010.05
731.906	27043.72
732.248	27049.37
732.589	26921.02
732.93	26795.59
733.271	26841.47
733.612	26798.31
733.953	26826.78
734.294	26708.59
734.635	26641.25
734.976	26741.36
735.317	26622.49
735.658	26547.47
735.999	26558.31
736.339	26478.09
736.68	26571.87
737.021	26387.7
737.361	26388.83
737.702	26497.52
738.042	26367.58
738.383	26287.13
738.723	26403.97
739.063	26237.87
739.404	26267.25
739.744	26242.16
740.084	26048.04
740.424	26145.22
740.764	26090.98
741.104	26178.44
741.444	25926.01
741.784	25793.59
742.124	25897.77
742.464	25910.19
742.804	25758.56
743.143	25854.38
743.483	25820.71
743.823	25632.01
744.162	25638.56
744.502	25563.76
744.841	25566.02
745.181	25644.21
745.52	25562.86
745.86	25472.24
746.199	25526.48
746.538	25423.43
746.877	25412.13
747.216	25338.01
747.556	25431.11
747.895	25386.82
748.234	25224.34
748.573	25075.19
748.911	25125.13
749.25	25220.5
749.589	25018.92
749.928	25034.74
750.267	25100.95
750.605	24999.03
750.944	24961.52
751.283	24845.82
751.621	24883.55
751.96	24789.09
752.298	24758.13
752.636	24688.76
752.975	24500.97
753.313	24566.73
753.651	24695.54
753.989	24550
754.327	24410.12
754.666	24372.16
755.004	24416.45
755.342	24392.04
755.679	24221.43
756.017	24162.67
756.355	24141.2
756.693	24209.67
757.031	24182.1
757.368	24044.93
757.706	23914.09
758.044	23840.64
758.381	23787.76
758.719	23741.89
759.056	23772.17
759.394	23668.67
759.731	23562.23
760.068	23558.17
760.405	23538.51
760.743	23411.96
761.08	23409.47
761.417	23337.38
761.754	23177.38
762.091	23112.75
762.428	23102.36
762.765	22988.24
763.102	22937.84
763.438	22931.06
763.775	22879.77
764.112	22761.8
764.449	22750.05
764.785	22765.42
765.122	22485.65
765.458	22476.39
765.795	22446.78
766.131	22482.49
766.467	22358.42
766.804	22273.91
767.14	22175.38
767.476	22089.96
767.812	22011.54
768.148	21946.68
768.485	21850.19
768.821	21803.64
769.157	21701.49
769.492	21650.19
769.828	21687.48
770.164	21532.68
770.5	21403.65
770.836	21375.17
771.171	21292.46
771.507	21240.26
771.842	21096.54
772.178	21102.64
772.513	21064.22
772.849	21028.29
773.184	20844.11
773.519	20850.44
773.855	20678.69
774.19	20678.92
774.525	20516.66
774.86	20555.76
775.195	20618.81
775.53	20394.86
775.865	20256.33
776.2	20338.36
776.535	20057.47
776.87	20051.14
777.205	20015.21
777.539	19957.58
777.874	19903.35
778.209	19793.75
778.543	19698.15
778.878	19685.5
779.212	19638.95
779.547	19440.31
779.881	19537.25
780.215	19322.8
780.55	19344.94
780.884	19297.49
781.218	19247.09
781.552	19230.37
781.886	19093.42
782.22	19130.71
782.554	18961.22
782.888	18730.04
783.222	18717.84
783.556	18516.26
783.889	18665.87
784.223	18414.35
784.557	18418.87
784.89	18492.54
785.224	18264.29
785.557	18260.23
785.891	18237.18
786.224	18169.38
786.558	18170.96
786.891	17921.93
787.224	17918.54
787.557	17898.43
787.891	17867.02
788.224	17795.83
788.557	17821.14
788.89	17737.08
789.223	17724.87
789.556	17470.87
789.888	17490.75
790.221	17386.12
790.554	17210.08
790.887	17215.51
791.219	17142.52
791.552	17188.39
791.884	17143.65
792.217	17041.05
792.549	16856.42
792.882	16808.96
793.214	16745.69
793.546	16866.82
793.879	16745.46
794.211	16620.72
794.543	16650.78
794.875	16587.05
795.207	16603.09
795.539	16524
795.871	16480.84
796.203	16312.48
796.535	16272.93
796.867	16240.39
797.198	16271.58
797.53	16189.09
797.862	16117.46
798.193	16101.19
798.525	15977.35
798.856	15974.18
799.188	15843.11
799.519	15900.29
799.85	15776.45
800.182	15645.83
800.513	15726.28
800.844	15576.91
801.175	15717.69
801.506	15529.68
801.837	15504.59
802.168	15427.08
802.499	15514.99
802.83	15371.49
803.161	15295.78
803.491	15345.95
803.822	15366.06
804.153	15185.96
804.483	15110.25
804.814	15089.01
805.145	15073.87
805.475	15002.01
805.805	14889.24
806.136	14936.02
806.466	14898.05
806.796	14893.76
807.126	14722.47
807.457	14788.45
807.787	14652.19
808.117	14566.54
808.447	14625.07
808.777	14615.58
809.107	14536.93
809.436	14508.91
809.766	14418.75
810.096	14458.97
810.426	14383.49
810.755	14341.23
811.085	14300.1
811.414	14295.13
811.744	14171.97
812.073	14156.38
812.403	14212.87
812.732	14114.12
813.061	14115.7
813.39	13981.02
813.719	13944.41
814.049	14081.8
814.378	13929.72
814.707	13864.64
815.036	13878.65
815.365	13807.01
815.693	13724.07
816.022	13670.06
816.351	13671.19
816.68	13657.86
817.008	13639.56
817.337	13557.75
817.665	13607.92
817.994	13518.88
818.322	13499.45
818.651	13419.45
818.979	13378.77
819.307	13490.63
819.636	13317.98
819.964	13307.59
820.292	13318.89
820.62	13300.36
820.948	13237.76
821.276	13346.46
821.604	13289.28
821.932	13313.69
822.259	13249.96
822.587	13259.91
822.915	13217.19
823.243	13191.66
823.57	13191.21
823.898	13224.2
824.225	13196.18
824.553	13217.19
824.88	13150.08
825.207	13227.59
825.535	13161.6
825.862	13207.7
826.189	13159.8
826.516	13226.01
826.843	13262.17
827.17	13231.88
827.497	13246.12
827.824	13175.61
828.151	13245.89
828.478	13204.09
828.805	13294.71
829.131	13155.28
829.458	13179.46
829.785	13126.35
830.111	13109.85
830.438	13254.26
830.764	13160.7
831.09	13178.55
831.417	13139.46
831.743	13161.83
832.069	13182.39
832.395	13097.65
832.722	13077.09
833.048	13094.03
833.374	13192.34
833.7	13028.05
834.026	13052.45
834.351	12994.6
834.677	13000.93
835.003	13092.23
835.329	13021.95
835.654	12925.23
835.98	12844.1
836.306	12858.11
836.631	12959.35
836.956	12994.6
837.282	12953.02
837.607	12830.99
837.932	12780.6
838.258	12856.98
838.583	12762.97
838.908	12699.02
839.233	12807.94
839.558	12762.29
839.883	12717.09
840.208	12609.98
840.533	12604.56
840.858	12579.25
841.182	12600.26
841.507	12569.3
841.832	12499.93
842.156	12467.84
842.481	12534.5
842.805	12495.18
843.13	12460.15
843.454	12396.2
843.778	12427.84
844.103	12388.29
844.427	12323.21
844.751	12252.25
845.075	12250.67
845.399	12229.88
845.723	12121.86
846.047	12209.54
846.371	12092.93
846.695	12161.63
847.019	11999.15
847.343	11915.08
847.666	11897
847.99	11812.94
848.313	11856.1
848.637	11806.61
848.96	11689.33
849.284	11711.7
849.607	11647.07
849.931	11598.48
850.254	11497.47
850.577	11470.35
850.9	11351.03
851.223	11369.56
851.546	11270.81
851.869	11242.33
852.192	11309.22
852.515	11154.2
852.838	11144.25
853.161	11146.29
853.483	11006.18
853.806	11012.06
854.129	11069.23
854.451	10979.29
854.774	10881.21
855.096	10870.59
855.419	10874.43
855.741	10863.36
856.063	10790.37
856.385	10759.18
856.708	10801.44
857.03	10692.06
857.352	10736.81
857.674	10606.19
857.996	10624.49
858.318	10571.84
858.64	10597.83
858.961	10503.82
859.283	10486.65
859.605	10361.22
859.926	10457.04
860.248	10421.11
860.57	10408.91
860.891	10430.15
861.212	10310.38
861.534	10282.36
861.855	10255.24
862.176	10337.04
862.498	10270.38
862.819	10215.92
863.14	10242.58
863.461	10176.37
863.782	10097.73
864.103	10138.18
864.424	10085.3
864.745	10156.03
865.065	10038.3
865.386	10043.04
865.707	9989.94
866.027	10015.02
866.348	10039.2
866.668	9987.22
866.989	9979.09
867.309	9899.77
867.63	9961.91
867.95	9936.15
868.27	9889.37
868.59	9874.46
868.91	9859.54
869.23	9860.9
869.55	9810.5
869.87	9781.35
870.19	9849.6
870.51	9817.96
870.83	9740.45
871.15	9713.56
871.469	9779.77
871.789	9743.84
872.109	9718.08
872.428	9669.94
872.748	9730.05
873.067	9655.93
873.386	9674.92
873.706	9741.58
874.025	9621.58
874.344	9570.06
874.663	9582.49
874.982	9619.55
875.301	9533.22
875.62	9547.91
875.939	9449.38
876.258	9510.17
876.577	9551.08
876.896	9457.75
877.214	9437.86
877.533	9484.64
877.852	9446.67
878.17	9401.25
878.489	9361.25
878.807	9351.76
879.125	9335.71
879.444	9327.13
879.762	9322.38
880.08	9274.02
880.398	9290.97
880.716	9258.65
881.034	9224.98
881.352	9198.32
881.67	9238.54
881.988	9173.23
882.306	9200.8
882.624	9174.14
882.941	9048.49
883.259	9069.96
883.577	9080.81
883.894	9078.32
884.212	9027.47
884.529	8997.19
884.846	8975.27
885.164	8980.47
885.481	8913.58
885.798	8945.67
886.115	8920.81
886.432	8914.71
886.75	8944.31
887.067	8892.11
887.383	8858.44
887.7	8821.83
888.017	8839.68
888.334	8782.06
888.651	8800.81
888.967	8703.64
889.284	8685.56
889.6	8681.95
889.917	8620.71
890.233	8642.17
890.55	8560.37
890.866	8618.45
891.182	8569.18
891.498	8530.76
891.815	8549.29
892.131	8500.48
892.447	8503.65
892.763	8418.9
893.079	8373.03
893.395	8387.72
893.71	8345.46
894.026	8309.98
894.342	8347.04
894.657	8238.79
894.973	8227.95
895.289	8251
895.604	8271.11
895.92	8186.37
896.235	8114.73
896.55	8092.36
896.865	8078.12
897.181	8055.75
897.496	8081.51
897.811	8016.88
898.126	8027.95
898.441	7987.28
898.756	7933.72
899.071	7938.24
899.386	7850.56
899.7	7853.95
900.015	7810.33
900.33	7725.14
900.644	7743.67
900.959	7756.77
901.273	7760.16
901.588	7643.56
901.902	7682.2
902.216	7610.79
902.531	7587.29
902.845	7605.14
903.159	7586.38
903.473	7507.74
903.787	7471.13
904.101	7424.58
904.415	7437.91
904.729	7393.85
905.042	7296.22
905.356	7393.85
905.67	7341.64
905.984	7296.22
906.297	7315.2
906.611	7290.35
906.924	7234.53
907.237	7153.85
907.551	7215.09
907.864	7098.71
908.177	7161.08
908.491	7094.19
908.804	7027.98
909.117	6979.39
909.43	6977.13
909.743	6958.15
910.056	6986.4
910.368	6923.12
910.681	6896.68
910.994	6841.77
911.307	6798.61
911.619	6802.9
911.932	6798.83
912.244	6675.67
912.557	6701.43
912.869	6681.77
913.181	6698.95
913.494	6697.37
913.806	6561.32
914.118	6563.36
914.43	6564.94
914.742	6526.07
915.054	6509.57
915.366	6474.55
915.678	6432.51
915.99	6404.72
916.302	6417.83
916.613	6306.42
916.925	6329.92
917.236	6370.14
917.548	6283.14
917.859	6292.63
918.171	6262.12
918.482	6178.06
918.794	6175.57
919.105	6149.36
919.416	6136.03
919.727	6120.43
920.038	6056.03
920.349	6017.38
920.66	6035.24
920.971	6025.07
921.282	5956.82
921.593	5973.54
921.903	5922.47
922.214	5903.94
922.525	5945.52
922.835	5876.37
923.146	5755.92
923.456	5870.04
923.767	5792.98
924.077	5788.46
924.387	5752.31
924.697	5703.04
925.008	5732.19
925.318	5672.31
925.628	5661.69
925.938	5681.35
926.248	5538.75
926.558	5597.96
926.867	5552.09
927.177	5562.48
927.487	5552.99
927.796	5457.17
928.106	5516.61
928.416	5429.15
928.725	5389.15
929.034	5395.93
929.344	5379.66
929.653	5385.54
929.962	5348.25
930.271	5331.75
930.581	5280
930.89	5241.81
931.199	5228.93
931.508	5204.3
931.817	5234.35
932.125	5192.55
932.434	5180.57
932.743	5148.93
933.051	5108.26
933.36	5071.87
933.669	5066.9
933.977	5007.47
934.286	5012.44
934.594	4998.2
934.902	4967.24
935.21	4988.71
935.519	4983.51
935.827	4880.24
936.135	4933.34
936.443	4872.56
936.751	4867.36
937.059	4788.49
937.367	4814.48
937.674	4829.39
937.982	4817.64
938.29	4734.93
938.597	4748.94
938.905	4676.63
939.213	4696.06
939.52	4660.13
939.827	4660.81
940.135	4585.78
940.442	4593.92
940.749	4563.86
941.056	4565.44
941.363	4529.97
941.67	4530.87
941.977	4484.54
942.284	4474.15
942.591	4485.45
942.898	4461.04
943.205	4461.04
943.511	4421.72
943.818	4408.16
944.125	4384.66
944.431	4327.94
944.738	4327.26
945.044	4344.21
945.35	4291.78
945.657	4272.8
945.963	4269.18
946.269	4216.98
946.575	4253.36
946.881	4233.48
947.187	4188.05
947.493	4184.89
947.799	4192.35
948.105	4113.48
948.41	4100.6
948.716	4093.82
949.022	4111.22
949.327	4052.46
949.633	4014.27
949.938	4041.84
950.244	4023.31
950.549	4017.89
950.854	3984.44
951.16	3947.16
951.465	3973.14
951.77	3905.12
952.075	3962.3
952.38	3884.78
952.685	3898.57
952.99	3860.38
953.294	3885.91
953.599	3832.13
953.904	3828.06
954.209	3794.84
954.513	3804.11
954.818	3722.76
955.122	3756.88
955.426	3738.12
955.731	3711.46
956.035	3695.41
956.339	3681.63
956.643	3672.81
956.948	3643.89
957.252	3618.8
957.556	3660.84
957.86	3601.4
958.163	3603.89
958.467	3614.06
958.771	3603.66
959.075	3555.3
959.378	3502.42
959.682	3550.78
959.985	3548.07
960.289	3530.67
960.592	3457.68
960.896	3447.73
961.199	3428.53
961.502	3420.84
961.805	3405.48
962.108	3372.93
962.411	3387.4
962.714	3405.02
963.017	3344.91
963.32	3299.94
963.623	3320.05
963.926	3293.39
964.228	3283.22
964.531	3275.76
964.833	3272.15
965.136	3229.89
965.438	3243.22
965.741	3221.75
966.043	3197.57
966.345	3201.19
966.648	3193.5
966.95	3188.76
967.252	3170.45
967.554	3157.35
967.856	3156.44
968.158	3128.19
968.46	3064.92
968.761	3079.61
969.063	3095.88
969.365	3085.94
969.666	3068.31
969.968	3043.23
970.269	3046.61
970.571	3031.7
970.872	2983.34
971.174	2963
971.475	2973.85
971.776	2968.88
972.077	2928.65
972.378	2945.15
972.679	2919.84
972.98	2877.13
973.281	2890.46
973.582	2890.91
973.883	2884.81
974.183	2880.74
974.484	2824.47
974.785	2822.21
975.085	2846.62
975.386	2818.82
975.686	2791.93
975.986	2753.52
976.287	2759.16
976.587	2777.47
976.887	2756.9
977.187	2741.99
977.487	2729.56
977.787	2737.47
978.087	2712.16
978.387	2688.66
978.687	2678.26
978.987	2685.27
979.286	2637.36
979.586	2637.13
979.885	2629
980.185	2619.06
980.484	2606.4
980.784	2599.39
981.083	2598.27
981.382	2603.91
981.682	2552.84
981.981	2589.45
982.28	2549
982.579	2530.02
982.878	2531.83
983.177	2503.8
983.475	2518.04
983.774	2474.43
984.073	2483.01
984.372	2476.23
984.67	2433.3
984.969	2450.7
985.267	2439.17
985.566	2418.16
985.864	2403.69
986.162	2387.65
986.461	2372.06
986.759	2412.28
987.057	2347.88
987.355	2364.37
987.653	2316.69
987.951	2350.36
988.249	2342.45
988.547	2302.91
988.844	2320.08
989.142	2304.71
989.44	2286.18
989.737	2275.56
990.035	2245.96
990.332	2275.11
990.63	2271.95
990.927	2234.66
991.224	2239.4
991.521	2240.53
991.819	2175.23
992.116	2184.49
992.413	2200.08
992.71	2197.37
993.006	2150.82
993.303	2154.43
993.6	2131.84
993.897	2147.66
994.193	2134.32
994.49	2156.92
994.787	2121.22
995.083	2108.56
995.379	2094.32
995.676	2081.89
995.972	2071.27
996.268	2061.1
996.565	2035.57
996.861	2048.45
997.157	2016.13
997.453	2003.03
997.749	2028.34
998.044	1995.12
998.34	1976.13
998.636	1974.33
998.932	1979.75
999.227	1951.95
999.523	1968
999.818	1966.87
1000.114	1934.78
1000.409	1932.52
1000.704	1924.61
1001	1883.48
1001.295	1891.16
1001.59	1874.22
1001.885	1899.75
1002.18	1835.8
1002.475	1860.43
1002.77	1841.9
1003.065	1859.98
1003.359	1802.58
1003.654	1800.77
1003.949	1794.22
1004.243	1788.57
1004.538	1791.28
1004.832	1761.45
1005.127	1762.35
1005.421	1738.17
1005.715	1746.99
1006.009	1732.3
1006.304	1714.45
1006.598	1697.5
1006.892	1709.47
1007.186	1695.01
1007.48	1695.92
1007.773	1657.05
1008.067	1650.27
1008.361	1645.97
1008.655	1647.1
1008.948	1641.23
1009.242	1628.35
1009.535	1625.41
1009.829	1607.1
1010.122	1607.56
1010.415	1590.16
1010.708	1597.16
1011.001	1597.61
1011.295	1567.56
1011.588	1551.06
1011.881	1549.03
1012.173	1538.86
1012.466	1553.09
1012.759	1507.9
1013.052	1538.63
1013.344	1510.16
1013.637	1524.39
1013.93	1508.35
1014.222	1490.5
1014.514	1513.1
1014.807	1479.42
1015.099	1450.27
1015.391	1450.27
1015.683	1451.63
1015.976	1440.33
1016.268	1427
1016.56	1431.74
1016.851	1413.21
1017.143	1388.81
1017.435	1419.99
1017.727	1384.29
1018.018	1375.25
1018.31	1374.57
1018.602	1377.28
1018.893	1360.56
1019.185	1364.85
1019.476	1325.3
1019.767	1343.61
1020.058	1351.52
1020.35	1309.71
1020.641	1315.36
1020.932	1288.02
1021.223	1293.89
1021.514	1263.61
1021.804	1252.76
1022.095	1275.59
1022.386	1269.03
1022.677	1264.29
1022.967	1215.7
1023.258	1224.74
1023.548	1210.05
1023.839	1213.44
1024.129	1204.4
1024.419	1208.47
1024.709	1200.11
1025	1191.97
1025.29	1187
1025.58	1179.32
1025.87	1157.4
1026.16	1165.31
1026.449	1151.3
1026.739	1144.07
1027.029	1126.44
1027.319	1118.76
1027.608	1132.09
1027.898	1119.66
1028.187	1118.08
1028.477	1091.19
1028.766	1112.65
1029.055	1085.31
1029.344	1092.09
1029.634	1091.86
1029.923	1060.68
1030.212	1071.98
1030.501	1060.23
1030.79	1035.59
1031.078	1022.94
1031.367	1021.13
1031.656	1040.57
1031.945	1019.1
1032.233	1032.43
1032.522	1011.41
1032.81	1016.84
1033.099	1001.7
1033.387	990.17
1033.675	982.49
1033.963	976.39
1034.251	977.97
1034.54	965.09
1034.828	952.43
1035.116	950.17
1035.403	956.05
1035.691	958.08
1035.979	945.88
1036.267	937.52
1036.554	923.51
1036.842	920.57
1037.129	916.73
1037.417	926.67
1037.704	921.7
1037.992	911.53
1038.279	914.02
1038.566	894.81
1038.853	894.81
1039.14	894.81
