Data from hue_100_FLMS001491_00002.txt Node
Date: Tue Feb 07 17:02:33 GMT 2017
User: dcchb
Spectrometer: FLMS00149
Trigger mode: 0
Integration Time (sec): 2.000000E-2
Scans to average: 10
Electric dark correction enabled: true
Nonlinearity correction enabled: false
Boxcar width: 0
XAxis mode: Wavelengths
Number of Pixels in Spectrum: 2048
>>>>>Begin Spectral Data<<<<<
341.393	-6
341.776	-6
342.16	-6
342.543	-70.63
342.927	-92.78
343.31	-51.43
343.693	-70.18
344.077	-64.53
344.46	-59.79
344.843	-32.89
345.226	-48.71
345.61	-37.19
345.993	-24.76
346.376	-10.3
346.759	21.57
347.142	2.81
347.525	47.33
347.908	47.56
348.291	79.42
348.674	106.54
349.057	94.56
349.44	130.26
349.823	132.98
350.206	142.02
350.588	196.25
350.971	235.35
351.354	211.62
351.737	232.41
352.119	245.74
352.502	234.67
352.884	272.18
353.267	278.06
353.65	295.91
354.032	293.2
354.414	301.33
354.797	319.86
355.179	311.73
355.562	304.05
355.944	308.79
356.326	318.73
356.709	320.54
357.091	318.96
357.473	325.74
357.855	326.87
358.238	337.27
358.62	322.58
359.002	335.23
359.384	318.73
359.766	316.7
360.148	329.81
360.53	334.78
360.912	336.14
361.294	342.01
361.676	326.87
362.057	344.5
362.439	330.94
362.821	316.47
363.203	317.15
363.584	319.86
363.966	331.16
364.348	312.41
364.729	326.42
365.111	317.38
365.493	323.25
365.874	337.27
366.256	305.85
366.637	323.71
367.019	309.92
367.4	310.6
367.781	297.72
368.163	309.47
368.544	310.37
368.925	321.9
369.306	337.94
369.688	323.03
370.069	323.71
370.45	289.81
370.831	289.81
371.212	307.66
371.593	299.3
371.974	309.24
372.355	320.99
372.736	291.16
373.117	326.42
373.498	304.27
373.879	328.9
374.26	320.32
374.641	320.99
375.021	300.43
375.402	305.18
375.783	312.41
376.163	325.97
376.544	324.38
376.925	331.84
377.305	326.87
377.686	345.63
378.066	328
378.447	326.19
378.827	340.43
379.208	331.39
379.588	345.4
379.968	338.85
380.349	335.68
380.729	336.36
381.109	346.53
381.489	346.98
381.87	315.8
382.25	350.37
382.63	339.07
383.01	333.42
383.39	331.62
383.77	340.88
384.15	320.32
384.53	358.96
384.91	345.85
385.29	375
385.67	345.17
386.049	375.46
386.429	358.96
386.809	354.44
387.189	357.15
387.568	354.44
387.948	344.95
388.328	369.35
388.707	366.64
389.087	365.51
389.466	346.08
389.846	365.96
390.225	391.5
390.605	385.17
390.984	397.38
391.363	391.28
391.743	371.16
392.122	381.33
392.501	381.78
392.881	391.05
393.26	383.59
393.639	409.35
394.018	393.31
394.397	400.09
394.776	386.98
395.155	380.65
395.534	390.6
395.913	392.18
396.292	416.13
396.671	405.74
397.05	417.94
397.429	419.07
397.808	382.46
398.186	404.16
398.565	410.03
398.944	399.18
399.323	398.28
399.701	420.43
400.08	411.16
400.458	425.85
400.837	438.73
401.215	417.04
401.594	449.13
401.972	427.88
402.351	432.86
402.729	436.25
403.107	426.3
403.486	426.53
403.864	455
404.242	438.05
404.62	439.86
404.999	444.38
405.377	448.22
405.755	451.61
406.133	422.23
406.511	447.09
406.889	445.06
407.267	458.62
407.645	446.87
408.023	464.04
408.401	479.63
408.779	475.79
409.156	461.56
409.534	465.4
409.912	485.96
410.29	483.02
410.667	475.79
411.045	470.59
411.422	501.33
411.8	469.92
412.178	503.14
412.555	511.95
412.933	518.5
413.31	504.49
413.687	508.11
414.065	523.7
414.442	533.19
414.819	532.06
415.197	532.51
415.574	529.8
415.951	549.69
416.328	537.71
416.705	540.65
417.082	556.24
417.46	536.13
417.837	553.3
418.214	537.94
418.591	560.08
418.967	586.52
419.344	566.19
419.721	582.23
420.098	574.77
420.475	568.45
420.852	570.03
421.228	577.26
421.605	586.98
421.982	612.96
422.358	599.41
422.735	613.42
423.111	624.04
423.488	629.23
423.864	619.74
424.241	626.75
424.617	625.17
424.994	633.53
425.37	627.88
425.746	654.54
426.123	662.45
426.499	636.01
426.875	647.54
427.251	670.82
427.627	689.8
428.003	704.49
428.379	673.3
428.756	684.6
429.132	680.53
429.507	719.63
429.883	698.16
430.259	699.52
430.635	727.09
431.011	706.52
431.387	744.03
431.763	712.17
432.138	731.61
432.514	750.59
432.89	749.68
433.265	762.56
433.641	774.77
434.016	778.16
434.392	776.35
434.767	812.96
435.143	795.11
435.518	798.27
435.894	810.7
436.269	812.05
436.644	833.52
437.02	853.41
437.395	833.75
437.77	828.1
438.145	883.47
438.52	873.97
438.895	906.74
439.271	876.01
439.646	892.73
440.021	926.85
440.395	887.31
440.77	889.12
441.145	887.99
441.52	921.66
441.895	906.29
442.27	920.53
442.645	937.48
443.019	939.74
443.394	931.15
443.769	979.06
444.143	961.66
444.518	963.69
444.892	937.25
445.267	979.06
445.641	988.77
446.016	978.38
446.39	1015.67
446.764	1008.21
447.139	1009.11
447.513	1029.22
447.887	1036.91
448.262	1011.15
448.636	1018.15
449.01	1034.87
449.384	1043.46
449.758	1056.57
450.132	1070.13
450.506	1085.04
450.88	1096.79
451.254	1088.66
451.628	1099.28
452.002	1145.61
452.376	1144.02
452.75	1159.16
453.123	1148.09
453.497	1152.16
453.871	1156.68
454.244	1184.93
454.618	1178.15
454.992	1193.97
455.365	1223.34
455.739	1235.09
456.112	1234.87
456.486	1292.27
456.859	1276
457.232	1294.08
457.606	1267.86
457.979	1313.74
458.352	1334.08
458.725	1379.27
459.099	1344.47
459.472	1395.99
459.845	1399.84
460.218	1446.16
460.591	1418.82
460.964	1448.65
461.337	1489.33
461.71	1500.4
462.083	1509.21
462.456	1502.88
462.829	1550.34
463.201	1548.08
463.574	1591.7
463.947	1592.15
464.32	1616.33
464.692	1646.16
465.065	1678.7
465.438	1672.15
465.81	1734.06
466.183	1731.13
466.555	1776.78
466.928	1790.79
467.3	1795.53
467.672	1839.82
468.045	1886.6
468.417	1909.88
468.789	1917.34
469.161	1956.43
469.534	1977.45
469.906	1981.06
470.278	2040.95
470.65	2091.57
471.022	2121.63
471.394	2168.4
471.766	2187.61
472.138	2220.15
472.51	2308.51
472.882	2321.39
473.253	2358
473.625	2403.65
473.997	2491.78
474.369	2530.43
474.74	2574.04
475.112	2597.54
475.484	2704.66
475.855	2741.72
476.227	2776.3
476.598	2915.05
476.97	2959.12
477.341	3007.48
477.713	3052.67
478.084	3160.47
478.455	3256.28
478.827	3322.05
479.198	3395.49
479.569	3497.63
479.94	3548.48
480.311	3646.78
480.682	3733.56
481.053	3867.79
481.424	3979.88
481.795	4049.71
482.166	4130.84
482.537	4213.77
482.908	4404.73
483.279	4453.99
483.65	4580.32
484.021	4708.45
484.391	4821.67
484.762	4899.41
485.133	5026.63
485.503	5143.47
485.874	5299.85
486.244	5441.31
486.615	5564.7
486.985	5692.83
487.356	5834.75
487.726	5984.35
488.097	6097.34
488.467	6249.65
488.837	6372.13
489.207	6486.71
489.578	6714.27
489.948	6811.67
490.318	7016.64
490.688	7090.08
491.058	7321.94
491.428	7448.72
491.798	7587.47
492.168	7767.8
492.538	7945.65
492.908	8040.79
493.278	8223.84
493.648	8312.87
494.017	8525.3
494.387	8623.6
494.757	8704.73
495.126	8951.28
495.496	9054.78
495.866	9147.43
496.235	9260.65
496.605	9451.83
496.974	9564.82
497.344	9648.66
497.713	9845.04
498.082	9951.93
498.452	10134.97
498.821	10206.84
499.19	10308.75
499.559	10447.96
499.928	10575.19
500.298	10684.11
500.667	10859.02
501.036	10933.82
501.405	11034.16
501.774	11051.11
502.143	11210.43
502.512	11299.69
502.88	11481.15
503.249	11495.84
503.618	11545.33
503.987	11748.04
504.356	11787.36
504.724	11893.12
505.093	11979.44
505.462	12073.45
505.83	12176.28
506.199	12312.54
506.567	12508.47
506.936	12532.65
507.304	12626.21
507.672	12667.79
508.041	12807.67
508.409	12922.7
508.777	13027.1
509.145	13132.41
509.514	13148.68
509.882	13243.82
510.25	13302.12
510.618	13300.99
510.986	13386.41
511.354	13415.34
511.722	13537.82
512.09	13677.48
512.458	13682.68
512.826	13759.74
513.193	13835.44
513.561	13897.36
513.929	14029.56
514.297	14081.31
514.664	14146.17
515.032	14244.7
515.4	14414.41
515.767	14282.66
516.135	14412.83
516.502	14300.97
516.869	14579.83
517.237	14578.25
517.604	14627.74
517.972	14615.76
518.339	14759.48
518.706	14666.61
519.073	14639.71
519.44	14773.04
519.808	14962.64
520.175	14896.2
520.542	14991.8
520.909	15026.37
521.276	15082.19
521.643	15163.77
522.009	15322.86
522.376	15307.94
522.743	15389.98
523.11	15365.8
523.477	15494.15
523.843	15561.95
524.21	15639.24
524.577	15698.9
524.943	15645.79
525.31	15782.96
525.676	15792
526.043	15878.55
526.409	15849.85
526.776	16060.92
527.142	15938.89
527.508	16025.67
527.874	16052.33
528.241	16070.64
528.607	16096.17
528.973	16171.65
529.339	16097.3
529.705	16220.69
530.071	16331.19
530.437	16239.22
530.803	16237.41
531.169	16328.48
531.535	16281.48
531.901	16297.52
532.267	16212.78
532.632	16351.99
532.998	16368.03
533.364	16389.05
533.73	16341.59
534.095	16432.89
534.461	16361.48
534.826	16358.76
535.192	16379.78
535.557	16477.63
535.923	16373.68
536.288	16328.26
536.653	16376.39
537.019	16313.12
537.384	16332.1
537.749	16408.26
538.114	16263.4
538.479	16201.03
538.845	16218.66
539.21	16236.73
539.575	16203.06
539.94	16177.98
540.305	16232.21
540.67	16117.42
541.034	16220.92
541.399	16149.96
541.764	16163.52
542.129	16102.73
542.494	16050.07
542.858	15992.67
543.223	15991.99
543.587	16074.03
543.952	15999.9
544.316	15890.53
544.681	15885.1
545.045	15939.34
545.41	15991.09
545.774	15941.83
546.138	15864.77
546.503	15815.95
546.867	15786.35
547.231	15879.23
547.595	15829.74
547.959	15775.73
548.324	15678.56
548.688	15756.52
549.052	15654.6
549.416	15681.27
549.779	15625.22
550.143	15603.76
550.507	15697.54
550.871	15623.42
551.235	15551.55
551.599	15603.98
551.962	15638.78
552.326	15546.36
552.689	15491.89
553.053	15452.57
553.417	15393.59
553.78	15537.77
554.143	15375.74
554.507	15504.32
554.87	15386.59
555.234	15453.93
555.597	15429.3
555.96	15511.56
556.323	15445.79
556.686	15386.59
557.05	15467.49
557.413	15438.56
557.776	15362.41
558.139	15505.23
558.502	15378.9
558.865	15434.5
559.228	15500.26
559.59	15471.1
559.953	15452.12
560.316	15489.41
560.679	15562.85
561.041	15571.89
561.404	15546.58
561.767	15503.87
562.129	15511.33
562.492	15670.87
562.854	15570.76
563.217	15469.75
563.579	15613.02
563.941	15625.45
564.304	15653.25
564.666	15740.25
565.028	15661.16
565.39	15682.62
565.753	15805.33
566.115	15688.73
566.477	15877.42
566.839	15797.2
567.201	15796.07
567.563	15874.71
567.925	15936.18
568.287	15886.01
568.648	15880.59
569.01	15910.41
569.372	15980.7
569.734	15944.54
570.095	16009.4
570.457	16064.54
570.819	16149.5
571.18	16017.08
571.542	16081.26
571.903	16119.68
572.265	16155.83
572.626	16129.39
572.987	16176.62
573.349	16137.3
573.71	16157.19
574.071	16117.42
574.432	16187.47
574.794	16293.23
575.155	16194.02
575.516	16176.17
575.877	16160.13
576.238	16293.23
576.599	16386.33
576.96	16313.57
577.32	16340.46
577.681	16345.88
578.042	16329.84
578.403	16305.66
578.763	16384.75
579.124	16418.42
579.485	16381.36
579.845	16415.26
580.206	16385.43
580.566	16350.4
580.927	16413.45
581.287	16420.23
581.648	16363.06
582.008	16440.57
582.368	16360.12
582.728	16397.63
583.089	16332.32
583.449	16337.97
583.809	16408.26
584.169	16430.85
584.529	16333
584.889	16412.77
585.249	16323.29
585.609	16304.75
585.969	16342.49
586.329	16166.68
586.688	16260.24
587.048	16366.45
587.408	16189.5
587.768	16291.65
588.127	16309.5
588.487	16224.76
588.846	16325.77
589.206	16121.93
589.565	16188.83
589.925	16268.82
590.284	16210.07
590.643	16201.71
591.003	16182.27
591.362	16406.22
591.721	16173.23
592.08	16166.23
592.44	16252.55
592.799	16216.85
593.158	16214.14
593.517	16100.92
593.876	16115.38
594.235	16086.46
594.593	16108.15
594.952	16167.58
595.311	16110.86
595.67	16111.77
596.029	16206.9
596.387	16207.81
596.746	16279.44
597.104	16166.23
597.463	16153.8
597.822	16146.79
598.18	16119.68
598.538	16026.8
598.897	16257.75
599.255	16023.86
599.613	16285.09
599.972	16157.87
600.33	16139.56
600.688	16104.08
601.046	16064.54
601.404	16146.57
601.762	16116.29
602.12	16167.81
602.478	16134.59
602.836	16227.02
603.194	16090.75
603.552	16107.92
603.91	16052.78
604.268	16191.31
604.625	16065.89
604.983	16140.47
605.341	16010.98
605.698	16161.48
606.056	16283.74
606.413	16108.38
606.771	16296.17
607.128	16170.75
607.485	16115.38
607.843	16125.55
608.2	16190.18
608.557	16231.99
608.914	16264.53
609.272	16318.31
609.629	16348.82
609.986	16296.17
610.343	16191.76
610.7	16322.61
611.057	16319.22
611.414	16385.43
611.771	16317.41
612.127	16387.92
612.484	16356.96
612.841	16456.84
613.198	16299.11
613.554	16367.13
613.911	16506.56
614.267	16485.99
614.624	16395.37
614.98	16402.61
615.337	16572.32
615.693	16473.79
616.05	16467.69
616.406	16568.02
616.762	16586.33
617.118	16470.63
617.475	16452.1
617.831	16484.86
618.187	16634.01
618.543	16578.87
618.899	16687.8
619.255	16570.96
619.611	16626.55
619.967	16655.25
620.323	16737.51
620.678	16643.28
621.034	16615.26
621.39	16683.95
621.746	16560.79
622.101	16820.9
622.457	16645.08
622.812	16630.85
623.168	16755.14
623.523	16616.16
623.879	16797.17
624.234	16614.35
624.589	16712.65
624.945	16709.26
625.3	16673.11
625.655	16610.28
626.01	16720.11
626.365	16658.64
626.72	16597.4
627.075	16634.24
627.43	16641.02
627.785	16547.69
628.14	16597.63
628.495	16539.55
628.85	16649.15
629.205	16543.39
629.559	16683.05
629.914	16573.9
630.269	16520.12
630.623	16558.08
630.978	16474.69
631.332	16493
631.687	16618.19
632.041	16429.05
632.396	16581.36
632.75	16509.5
633.104	16551.75
633.459	16441.7
633.813	16366
634.167	16462.26
634.521	16398.31
634.875	16383.17
635.229	16364.64
635.583	16290.97
635.937	16400.8
636.291	16285.77
636.645	16321.93
636.999	16206
637.352	16334.13
637.706	16198.54
638.06	16194.93
638.413	16196.28
638.767	16089.17
639.121	16168.94
639.474	16065.89
639.828	16057.3
640.181	16089.62
640.534	16125.32
640.888	16008.27
641.241	15947.48
641.594	16053.91
641.947	16007.14
642.301	15999.9
642.654	16028.38
643.007	16057.3
643.36	15929.62
643.713	15936.18
644.066	15994.71
644.419	15777.31
644.771	15818.21
645.124	15692.57
645.477	15635.17
645.83	15548.16
646.182	15506.81
646.535	15511.78
646.888	15537.32
647.24	15371.45
647.593	15383.65
647.945	15305.91
648.298	15265.23
648.65	15303.65
649.002	15224.11
649.355	15404.21
649.707	15395.4
650.059	15521.72
650.411	15567.15
650.763	15642.85
651.115	15844.2
651.467	15730.08
651.819	15737.99
652.171	15676.3
652.523	15647.82
652.875	15642.17
653.227	15623.19
653.578	15765.56
653.93	15679.46
654.282	15589.52
654.633	15595.85
654.985	15576.64
655.337	15700.93
655.688	15675.39
656.039	15759.91
656.391	15617.99
656.742	15561.5
657.094	15651.66
657.445	15726.92
657.796	15741.15
658.147	15616.86
658.498	15642.63
658.849	15730.76
659.2	15704.54
659.551	15657.54
659.902	15680.59
660.253	15695.28
660.604	15662.74
660.955	15706.8
661.306	15727.14
661.656	15603.76
662.007	15681.49
662.358	15676.07
662.708	15680.59
663.059	15629.97
663.409	15569.18
663.76	15728.05
664.11	15748.39
664.461	15667.71
664.811	15708.16
665.161	15678.56
665.511	15694.6
665.862	15593.14
666.212	15733.47
666.562	15722.4
666.912	15659.57
667.262	15746.8
667.612	15703.41
667.962	15723.98
668.312	15665.68
668.662	15843.98
669.011	15661.16
669.361	15712.68
669.711	15620.25
670.06	15665
670.41	15644.21
670.76	15635.17
671.109	15684.21
671.459	15617.09
671.808	15654.15
672.157	15619.35
672.507	15530.31
672.856	15587.49
673.205	15571.67
673.554	15668.84
673.904	15460.94
674.253	15676.07
674.602	15494.61
674.951	15329.41
675.3	15259.13
675.649	15447.83
675.998	15449.18
676.346	15466.13
676.695	15439.47
677.044	15357.66
677.393	15365.8
677.741	15389.07
678.09	15352.92
678.438	15341.39
678.787	15423.87
679.135	15374.38
679.484	15214.39
679.832	15282.41
680.181	15166.93
680.529	15242.18
680.877	15132.81
681.225	15053.71
681.573	15263.65
681.922	15123.09
682.27	15057.33
682.618	15025.01
682.966	15053.71
683.314	15022.53
683.661	15019.59
684.009	14992.02
684.357	14885.13
684.705	14904.57
685.053	14893.04
685.4	14877.9
685.748	14730.56
686.095	14760.16
686.443	14719.94
686.79	14679.94
687.138	14630.45
687.485	14658.47
687.832	14649.88
688.18	14618.02
688.527	14501.19
688.874	14517.68
689.221	14467.52
689.568	14420.51
689.915	14365.6
690.262	14439.72
690.609	14380.74
690.956	14267.07
691.303	14304.13
691.65	14183.23
691.997	14164.47
692.344	14126.28
692.69	14074.08
693.037	14087.64
693.383	13929.9
693.73	13984.59
694.077	13882.22
694.423	13935.78
694.769	13837.7
695.116	13780.3
695.462	13790.92
695.808	13649.01
696.155	13779.4
696.501	13555.9
696.847	13562
697.193	13455.11
697.539	13489.91
697.885	13414.44
698.231	13293.99
698.577	13456.24
698.923	13325.62
699.269	13273.2
699.614	13173.31
699.96	13145.97
700.306	13070.49
700.651	13048.12
700.997	13023.03
701.342	12982.58
701.688	12898.29
702.033	13021
702.379	12934.67
702.724	12847.67
703.069	12850.38
703.415	12722.93
703.76	12720.89
704.105	12738.97
704.45	12606.32
704.795	12533.1
705.14	12526.1
705.485	12577.85
705.83	12506.44
706.175	12483.84
706.52	12405.2
706.865	12357.06
707.209	12337.18
707.554	12321.13
707.899	12271.87
708.243	12167.24
708.588	12201.13
708.932	12082.95
709.277	12060.8
709.621	12085.66
709.966	11991.42
710.31	12033.45
710.654	11952.78
710.998	11946
711.342	11936.51
711.687	11903.06
712.031	11936.73
712.375	11828.49
712.719	11811.54
713.063	11785.78
713.407	11781.71
713.75	11775.16
714.094	11660.13
714.438	11683.86
714.782	11730.41
715.125	11591.43
715.469	11650.41
715.812	11561.15
716.156	11514.37
716.499	11550.76
716.843	11463.75
717.186	11440.25
717.53	11429.85
717.873	11545.11
718.216	11460.36
718.559	11414.49
718.902	11421.27
719.246	11406.58
719.589	11313.7
719.932	11234.38
720.275	11291.1
720.617	11307.15
720.96	11375.17
721.303	11304.66
721.646	11295.4
721.989	11232.35
722.331	11301.72
722.674	11174.72
723.016	11208.17
723.359	11263.53
723.701	11240.93
724.044	11135.17
724.386	11147.83
724.729	11178.79
725.071	11161.39
725.413	11200.03
725.755	11121.16
726.097	11109.64
726.439	11085.23
726.782	11033.26
727.124	11101.05
727.465	11094.95
727.807	11043.88
728.149	11071.45
728.491	10950.32
728.833	11071.22
729.175	11029.64
729.516	10975.4
729.858	11002.75
730.199	10967.27
730.541	11011.79
730.882	10954.39
731.224	10987.83
731.565	10887.04
731.906	10987.61
732.248	10881.62
732.589	10880.49
732.93	10836.42
733.271	10867.16
733.612	10907.83
733.953	10950.55
734.294	10918.23
734.635	10929.75
734.976	10895.18
735.317	10784.45
735.658	10866.25
735.999	10874.16
736.339	10910.55
736.68	10942.64
737.021	10908.74
737.361	10827.38
737.702	10892.24
738.042	10888.4
738.383	10890.43
738.723	10874.84
739.063	10936.53
739.404	10922.75
739.744	10967.72
740.084	10849.53
740.424	10955.74
740.764	10907.61
741.104	10982.86
741.444	10952.58
741.784	10960.49
742.124	11032.13
742.464	10999.58
742.804	11008.85
743.143	11022.63
743.483	11142.4
743.823	11039.58
744.162	11035.97
744.502	11112.12
744.841	11079.36
745.181	11158.22
745.52	11159.81
745.86	11268.05
746.199	11233.25
746.538	11349.86
746.877	11353.02
747.216	11401.83
747.556	11393.25
747.895	11485.67
748.234	11500.14
748.573	11588.27
748.911	11562.05
749.25	11690.86
749.589	11725.67
749.928	11808.83
750.267	11950.75
750.605	11976.96
750.944	12025.77
751.283	12028.48
751.621	12234.81
751.96	12211.08
752.298	12319.1
752.636	12471.18
752.975	12503.72
753.313	12545.31
753.651	12704.17
753.989	12782.59
754.327	12929.7
754.666	12936.48
755.004	13113.2
755.342	13305.51
755.679	13408.11
756.017	13500.76
756.355	13676.8
756.693	13791.6
757.031	13949.79
757.368	14067.75
757.706	14219.61
758.044	14394.07
758.381	14505.71
758.719	14631.8
759.056	14845.36
759.394	14957.22
759.731	15005.58
760.068	15217.1
760.405	15350.66
760.743	15417.55
761.08	15671.1
761.417	15788.38
761.754	15948.61
762.091	16135.95
762.428	16235.15
762.765	16344.53
763.102	16590.4
763.438	16754.46
763.775	16839.88
764.112	17037.84
764.449	17285.97
764.785	17467.89
765.122	17457.04
765.458	17630.6
765.795	17815.9
766.131	17909.91
766.467	18107.65
766.804	18181.99
767.14	18293.18
767.476	18398.71
767.812	18428.54
768.148	18663.11
768.485	18786.95
768.821	18838.02
769.157	18978.81
769.492	19062.2
769.828	19260.61
770.164	19169.09
770.5	19351.91
770.836	19410.89
771.171	19376.09
771.507	19632.8
771.842	19636.42
772.178	19765.91
772.513	19848.62
772.849	19973.36
773.184	19913.47
773.519	20054.49
773.855	20118.44
774.19	20176.52
774.525	20136.74
774.86	20194.14
775.195	20330.86
775.53	20287.02
775.865	20276.85
776.2	20250.64
776.535	20204.31
776.87	20351.43
777.205	20334.71
777.539	20388.94
777.874	20492.44
778.209	20317.76
778.543	20509.62
778.878	20440.24
779.212	20383.52
779.547	20469.17
779.881	20581.25
780.215	20482.27
780.55	20590.29
780.884	20527.92
781.218	20516.85
781.552	20525.89
781.886	20569.28
782.22	20482.27
782.554	20374.25
782.888	20291.09
783.222	20340.58
783.556	20271.66
783.889	20294.03
784.223	20185.56
784.557	20209.96
784.89	20349.85
785.224	20115.95
785.557	20149.63
785.891	20069.4
786.224	20107.59
786.558	20162.28
786.891	19969.29
787.224	19932
787.557	19956.64
787.891	19949.63
788.224	19941.95
788.557	20014.49
788.89	20055.62
789.223	20003.19
789.556	19779.01
789.888	19844.1
790.221	19784.44
790.554	19662.41
790.887	19660.82
791.219	19590.09
791.552	19638.23
791.884	19524.56
792.217	19500.15
792.549	19327.27
792.882	19370.89
793.214	19349.19
793.546	19485.24
793.879	19301.51
794.211	19195.53
794.543	19249.31
794.875	19271.68
795.207	19198.24
795.539	19115.3
795.871	19078.69
796.203	18942.88
796.535	18857.46
796.867	18847.29
797.198	18876.66
797.53	18834.18
797.862	18647.52
798.193	18785.14
798.525	18692.71
798.856	18730
799.188	18429.44
799.519	18482.55
799.85	18404.81
800.182	18450.91
800.513	18518.71
800.844	18356.23
801.175	18340.41
801.506	18220.86
801.837	18126.85
802.168	18251.14
802.499	18149
802.83	18036.69
803.161	18062.67
803.491	18057.7
803.822	18074.2
804.153	17947.42
804.483	17810.25
804.814	17741.55
805.145	17708.79
805.475	17711.27
805.805	17658.17
806.136	17678.73
806.466	17739.52
806.796	17652.29
807.126	17479.41
807.457	17364.61
807.787	17446.19
808.117	17457.72
808.447	17340.66
808.777	17466.98
809.107	17379.98
809.436	17288.68
809.766	17184.96
810.096	17246.65
810.426	17146.09
810.755	17136.6
811.085	17180.44
811.414	17084.62
811.744	16942.48
812.073	16941.8
812.403	16967.56
812.732	16990.61
813.061	16836.72
813.39	16727.34
813.719	16689.83
814.049	16784.97
814.378	16691.86
814.707	16695.71
815.036	16654.8
815.365	16616.84
815.693	16404.87
816.022	16471.76
816.351	16391.76
816.68	16347.47
817.008	16404.41
817.337	16245.77
817.665	16254.13
817.994	16360.57
818.322	16203.06
818.651	16182.95
818.979	16130.75
819.307	16156.74
819.636	16224.08
819.964	16097.75
820.292	16091.43
820.62	16087.36
820.948	16016.4
821.276	16087.81
821.604	16046.23
821.932	16008.49
822.259	16078.55
822.587	16108.38
822.915	15926.46
823.243	16106.12
823.57	15954.26
823.898	16039.23
824.225	15961.04
824.553	15945.22
824.88	16014.14
825.207	15997.64
825.535	16033.58
825.862	15996.06
826.189	15925.56
826.516	16053.91
826.843	16107.47
827.17	16080.81
827.497	16056.63
827.824	16020.92
828.151	16083.52
828.478	16066.8
828.805	16055.04
829.131	15972.56
829.458	15943.63
829.785	15955.39
830.111	16030.41
830.438	16008.04
830.764	16016.17
831.09	16062.5
831.417	15909.96
831.743	15998.1
832.069	16005.55
832.395	15883.3
832.722	15977.08
833.048	15839.91
833.374	15905.67
833.7	15901.38
834.026	15912
834.351	15923.3
834.677	15897.31
835.003	15881.72
835.329	15924.88
835.654	15873.58
835.98	15818.89
836.306	15863.64
836.631	15721.27
836.956	15820.25
837.282	15819.57
837.607	15708.61
837.932	15638.56
838.258	15724.66
838.583	15664.09
838.908	15558.79
839.233	15550.2
839.558	15562.85
839.883	15445.57
840.208	15549.52
840.533	15431.56
840.858	15557.2
841.182	15422.52
841.507	15388.85
841.832	15362.63
842.156	15324.22
842.481	15310.43
842.805	15323.54
843.13	15361.73
843.454	15149.53
843.778	15203.54
844.103	15088.29
844.427	15048.74
844.751	15067.05
845.075	15071.57
845.399	14946.82
845.723	14907.73
846.047	14990.44
846.371	14795.87
846.695	14822.53
847.019	14707.51
847.343	14716.1
847.666	14515.88
847.99	14581.64
848.313	14559.04
848.637	14376.22
848.96	14357.24
849.284	14361.3
849.607	14246.5
849.931	14265.49
850.254	14140.52
850.577	14089.45
850.9	13958.15
851.223	13908.21
851.546	13990.47
851.869	13727.42
852.192	13834.09
852.515	13801.32
852.838	13719.06
853.161	13683.81
853.483	13573.75
853.806	13540.53
854.129	13537.6
854.451	13465.06
854.774	13348.45
855.096	13342.12
855.419	13318.17
855.741	13236.14
856.063	13225.97
856.385	13222.8
856.708	13127.66
857.03	13147.55
857.352	13071.39
857.674	13070.49
857.996	13036.37
858.318	12916.6
858.64	12914.34
858.961	12839.54
859.283	12821.68
859.605	12722.93
859.926	12804.73
860.248	12802.02
860.57	12694.91
860.891	12762.93
861.212	12634.34
861.534	12576.49
861.855	12570.39
862.176	12565.64
862.498	12547.79
862.819	12629.82
863.14	12555.47
863.461	12531.07
863.782	12488.58
864.103	12498.3
864.424	12386.89
864.745	12385.31
865.065	12400
865.386	12272.32
865.707	12234.35
866.027	12267.8
866.348	12238.65
866.668	12230.29
866.989	12137.41
867.309	12043.17
867.63	12197.07
867.95	12209.04
868.27	12101.25
868.59	12125.2
868.91	12084.53
869.23	12075.94
869.55	11957.3
869.87	12148.93
870.19	12057.18
870.51	11986.9
870.83	12040.01
871.15	11963.17
871.469	12030.74
871.789	11988.03
872.109	11926.11
872.428	11769.28
872.748	11904.19
873.067	11866
873.386	11800.01
873.706	11780.81
874.025	11752.11
874.344	11696.97
874.663	11756.63
874.982	11731.32
875.301	11738.1
875.62	11654.26
875.939	11663.07
876.258	11684.54
876.577	11583.52
876.896	11586.69
877.214	11508.95
877.533	11645.89
877.852	11563.41
878.17	11505.11
878.489	11501.49
878.807	11510.98
879.125	11445.45
879.444	11425.34
879.762	11447.93
880.08	11379.01
880.398	11396.18
880.716	11430.98
881.034	11341.95
881.352	11366.81
881.67	11259.01
881.988	11316.64
882.306	11227.6
882.624	11253.59
882.941	11123.2
883.259	11145.12
883.577	11069.64
883.894	11065.8
884.212	11039.36
884.529	11012.46
884.846	11033.03
885.164	10929.53
885.481	10960.26
885.798	10974.95
886.115	10845.24
886.432	10930.43
886.75	10884.78
887.067	10882.3
887.383	10861.28
887.7	10859.47
888.017	10834.39
888.334	10793.71
888.651	10755.97
888.967	10742.19
889.284	10614.74
889.6	10649.54
889.917	10497.68
890.233	10552.14
890.55	10538.8
890.866	10520.27
891.182	10504.91
891.498	10425.14
891.815	10402.99
892.131	10404.57
892.447	10381.75
892.763	10337
893.079	10313.95
893.395	10238.7
893.71	10216.33
894.026	10255.42
894.342	10219.72
894.657	10055.2
894.973	10116.67
895.289	10121.87
895.604	10073.73
895.92	10000.51
896.235	9965.26
896.55	10055.88
896.865	9885.71
897.181	9913.51
897.496	9903.79
897.811	9755.55
898.126	9788.32
898.441	9759.39
898.756	9713.29
899.071	9596.46
899.386	9631.71
899.7	9576.12
900.015	9513.52
900.33	9510.81
900.644	9521.88
900.959	9548.32
901.273	9485.27
901.588	9418.16
901.902	9378.61
902.216	9326.41
902.531	9249.35
902.845	9239.4
903.159	9181.78
903.473	9181.33
903.787	9166.64
904.101	9119.41
904.415	9104.94
904.729	9025.62
905.042	8983.14
905.356	8961.22
905.67	8937.72
905.984	8931.84
906.297	8916.93
906.611	8884.39
906.924	8791.28
907.237	8802.58
907.551	8765.74
907.864	8781.11
908.177	8687.33
908.491	8651.62
908.804	8624.5
909.117	8528.69
909.43	8556.26
909.743	8437.62
910.056	8448.92
910.368	8411.63
910.681	8358.52
910.994	8373.89
911.307	8271.29
911.619	8289.37
911.932	8260.22
912.244	8240.56
912.557	8201.01
912.869	8055.93
913.181	8058.42
913.494	8083.73
913.806	8071.98
914.118	8034.92
914.43	7909.95
914.742	8013.45
915.054	7927.8
915.366	7860.23
915.678	7869.27
915.99	7817.52
916.302	7694.59
916.613	7716.05
916.925	7680.35
917.236	7700.91
917.548	7692.78
917.859	7603.29
918.171	7581.37
918.482	7539.11
918.794	7549.28
919.105	7547.7
919.416	7463.41
919.727	7383.63
920.038	7374.14
920.349	7373.01
920.66	7324.65
920.971	7351.54
921.282	7309.29
921.593	7206.24
921.903	7203.75
922.214	7154.04
922.525	7192.9
922.835	7123.3
923.146	7120.82
923.456	7087.6
923.767	7034.49
924.077	7026.13
924.387	6992.01
924.697	6952.23
925.008	6944.55
925.318	6927.15
925.628	6886.7
925.938	6870.43
926.248	6844.66
926.558	6794.5
926.867	6768.96
927.177	6773.48
927.487	6770.54
927.796	6653.71
928.106	6614.84
928.416	6631.56
928.725	6560.15
929.034	6594.28
929.344	6534.16
929.653	6559.7
929.962	6477.67
930.271	6450.78
930.581	6392.7
930.89	6357.45
931.199	6328.97
931.508	6354.51
931.817	6343.43
932.125	6328.97
932.434	6315.64
932.743	6230.67
933.051	6240.39
933.36	6175.98
933.669	6189.31
933.977	6155.87
934.286	6109.09
934.594	6091.92
934.902	6067.96
935.21	6039.26
935.519	6035.87
935.827	6018.47
936.135	5932.15
936.443	5869.55
936.751	5894.86
937.059	5935.76
937.367	5882.88
937.674	5829.78
937.982	5807.86
938.29	5753.62
938.597	5775.99
938.905	5724.92
939.213	5704.58
939.52	5721.08
939.827	5666.16
940.135	5634.08
940.442	5623.91
940.749	5606.05
941.056	5609.22
941.363	5562.89
941.67	5505.94
941.977	5486.96
942.284	5448.32
942.591	5452.61
942.898	5403.12
943.205	5408.54
943.511	5384.36
943.818	5329
944.125	5353.18
944.431	5325.83
944.738	5292.39
945.044	5272.5
945.35	5216.01
945.657	5244.71
945.963	5154.77
946.269	5145.27
946.575	5180.3
946.881	5128.78
947.187	5077.71
947.493	5094.88
947.799	5060.53
948.105	5010.36
948.41	4975.79
948.716	4981.66
949.022	4960.87
949.327	4940.31
949.633	4899.86
949.938	4920.42
950.244	4896.92
950.549	4830.03
950.854	4870.48
951.16	4868.67
951.465	4796.13
951.77	4763.36
952.075	4775.79
952.38	4747.09
952.685	4727.66
952.99	4660.77
953.294	4660.77
953.599	4659.41
953.904	4679.75
954.209	4578.28
954.513	4598.62
954.818	4585.52
955.122	4533.76
955.426	4555.46
955.731	4495.35
956.035	4502.58
956.339	4498.74
956.643	4475.91
956.948	4464.84
957.252	4423.49
957.556	4405.41
957.86	4343.04
958.163	4361.34
958.467	4342.36
958.771	4336.71
959.075	4352.98
959.378	4289.93
959.682	4307.33
959.985	4262.81
960.289	4218.52
960.592	4176.49
960.896	4249.93
961.199	4188.46
961.502	4180.33
961.805	4127.9
962.108	4123.38
962.411	4104.85
962.714	4068.01
963.017	4094.45
963.32	4054.46
963.623	4008.58
963.926	4047.45
964.228	3992.99
964.531	3998.19
964.833	3982.82
965.136	3959.32
965.438	3931.07
965.741	3939.43
966.043	3890.39
966.345	3925.19
966.648	3887.91
966.95	3855.14
967.252	3853.1
967.554	3805.65
967.856	3773.11
968.158	3801.13
968.46	3732.66
968.761	3717.29
969.063	3713.22
969.365	3675.93
969.666	3680.23
969.968	3664.18
970.269	3669.15
970.571	3687.91
970.872	3629.61
971.174	3595.71
971.475	3581.7
971.776	3555.26
972.077	3526.79
972.378	3538.31
972.679	3564.75
972.98	3545.09
973.281	3527.46
973.582	3450.18
973.883	3482.49
974.183	3502.61
974.484	3465.32
974.785	3382.83
975.085	3373.57
975.386	3451.31
975.686	3455.83
975.986	3367.24
976.287	3352.55
976.587	3293.57
976.887	3304.19
977.187	3291.09
977.487	3257.41
977.787	3283.18
978.087	3267.58
978.387	3297.64
978.687	3248.38
978.987	3217.42
979.286	3209.28
979.586	3199.56
979.885	3148.72
980.185	3178.77
980.484	3156.63
980.784	3122.05
981.083	3090.64
981.382	3094.25
981.682	3128.6
981.981	3071.88
982.28	3045.89
982.579	3044.31
982.878	3072.56
983.177	3034.82
983.475	3011.09
983.774	2972
984.073	2996.4
984.372	2958.67
984.67	2953.92
984.969	2929.97
985.267	2935.84
985.566	2887.93
985.864	2908.05
986.162	2876.63
986.461	2855.84
986.759	2882.28
987.057	2839.57
987.355	2817.43
987.653	2798.9
987.951	2771.78
988.249	2818.56
988.547	2760.25
988.844	2776.3
989.142	2762.51
989.44	2753.47
989.737	2732.23
990.035	2708.73
990.332	2684.32
990.63	2679.12
990.927	2686.36
991.224	2644.32
991.521	2690.42
991.819	2630.99
992.116	2651.1
992.413	2629.18
992.71	2589.64
993.006	2588.28
993.303	2630.76
993.6	2571.1
993.897	2581.5
994.193	2555.06
994.49	2521.39
994.787	2550.09
995.083	2505.34
995.379	2508.28
995.676	2477.1
995.972	2487.04
996.268	2452.01
996.565	2475.74
996.861	2420.6
997.157	2430.77
997.453	2409.98
997.749	2412.24
998.044	2405.69
998.34	2378.34
998.636	2373.6
998.932	2338.12
999.227	2334.05
999.523	2310.77
999.818	2318.23
1000.114	2313.94
1000.409	2275.52
1000.704	2287.95
1001	2265.58
1001.295	2268.51
1001.59	2231.68
1001.885	2204.11
1002.18	2193.49
1002.475	2188.52
1002.77	2202.07
1003.065	2163.88
1003.359	2155.75
1003.654	2187.39
1003.949	2128.4
1004.243	2143.32
1004.538	2138.8
1004.832	2094.73
1005.127	2103.09
1005.421	2098.57
1005.715	2095.64
1006.009	2062.64
1006.304	2012.48
1006.598	2011.8
1006.892	2041.85
1007.186	1998.46
1007.48	2003.44
1007.773	1990.1
1008.067	1983.32
1008.361	1957.79
1008.655	1937.45
1008.948	1968.41
1009.242	1920.5
1009.535	1940.84
1009.829	1897.45
1010.122	1912.36
1010.415	1870.78
1010.708	1873.04
1011.001	1872.14
1011.295	1875.76
1011.588	1843.89
1011.881	1814.51
1012.173	1831.24
1012.466	1812.03
1012.759	1812.48
1013.052	1786.72
1013.344	1790.11
1013.637	1769.77
1013.93	1766.38
1014.222	1729.77
1014.514	1741.07
1014.807	1753.05
1015.099	1727.06
1015.391	1711.92
1015.683	1683.22
1015.976	1681.86
1016.268	1687.51
1016.56	1661.3
1016.851	1662.2
1017.143	1615.2
1017.435	1656.78
1017.727	1617.01
1018.018	1626.72
1018.31	1595.09
1018.602	1600.51
1018.893	1570.23
1019.185	1575.65
1019.476	1572.94
1019.767	1574.75
1020.058	1518.25
1020.35	1539.72
1020.641	1517.8
1020.932	1528.65
1021.223	1507.86
1021.514	1512.6
1021.804	1480.29
1022.095	1495.65
1022.386	1458.82
1022.677	1434.41
1022.967	1460.85
1023.258	1430.12
1023.548	1436.22
1023.839	1405.03
1024.129	1396.45
1024.419	1388.08
1024.709	1397.12
1025	1359.61
1025.29	1368.42
1025.58	1354.87
1025.87	1319.16
1026.16	1345.83
1026.449	1340.4
1026.739	1314.87
1027.029	1331.82
1027.319	1293.85
1027.608	1297.69
1027.898	1282.33
1028.187	1283.45
1028.477	1245.04
1028.766	1265.38
1029.055	1254.76
1029.344	1266.28
1029.634	1267.41
1029.923	1200.75
1030.212	1243.46
1030.501	1240.29
1030.79	1207.75
1031.078	1205.49
1031.367	1187.86
1031.656	1188.77
1031.945	1186.06
1032.233	1173.4
1032.522	1161.42
1032.81	1164.59
1033.099	1124.59
1033.387	1138.37
1033.675	1117.13
1033.963	1146.96
1034.251	1091.6
1034.54	1088.21
1034.828	1090.24
1035.116	1092.05
1035.403	1102.89
1035.691	1056.12
1035.979	1075.32
1036.267	1062.22
1036.554	1064.93
1036.842	1033.97
1037.129	1043.24
1037.417	1013.63
1037.704	1013.18
1037.992	1018.6
1038.279	1002.33
1038.566	996.91
1038.853	996.91
1039.14	996.91
