Data from hue_340_FLMS001491_79.txt Node
Date: Mon Feb 06 15:43:35 GMT 2017
User: dcchb
Spectrometer: FLMS00149
Trigger mode: 0
Integration Time (sec): 2.000000E-2
Scans to average: 10
Electric dark correction enabled: true
Nonlinearity correction enabled: false
Boxcar width: 0
XAxis mode: Wavelengths
Number of Pixels in Spectrum: 2048
>>>>>Begin Spectral Data<<<<<
341.393	-22.05
341.776	-22.05
342.16	-22.05
342.543	-47.13
342.927	-61.82
343.31	-73.57
343.693	-63.18
344.077	-64.31
344.46	-83.97
344.843	-46.23
345.226	-50.75
345.61	-17.98
345.993	-21.82
346.376	8.69
346.759	13.88
347.142	29.93
347.525	30.61
347.908	53.43
348.291	69.02
348.674	101.79
349.057	114.45
349.44	133.2
349.823	159.19
350.206	142.24
350.588	177.95
350.971	202.13
351.354	233.09
351.737	224.5
352.119	221.11
352.502	264.05
352.884	258.4
353.267	260.88
353.65	283.26
354.032	278.28
354.414	298.62
354.797	310.6
355.179	307.89
355.562	325.06
355.944	325.06
356.326	325.97
356.709	327.77
357.091	360.77
357.473	339.3
357.855	351.95
358.238	333.42
358.62	327.77
359.002	342.91
359.384	340.65
359.766	340.2
360.148	347.43
360.53	332.97
360.912	325.06
361.294	334.78
361.676	302.69
362.057	318.28
362.439	339.75
362.821	332.29
363.203	326.42
363.584	311.5
363.966	341.78
364.348	307.66
364.729	314.44
365.111	336.14
365.493	323.03
365.874	315.57
366.256	320.09
366.637	307.44
367.019	306.08
367.4	311.28
367.781	314.89
368.163	332.29
368.544	322.58
368.925	295.46
369.306	325.97
369.688	297.27
370.069	313.54
370.45	311.28
370.831	302.24
371.212	316.02
371.593	308.11
371.974	293.42
372.355	304.5
372.736	319.64
373.117	306.08
373.498	313.76
373.879	319.41
374.26	311.05
374.641	313.76
375.021	300.66
375.402	297.72
375.783	313.76
376.163	320.99
376.544	327.1
376.925	352.86
377.305	333.88
377.686	314.89
378.066	337.94
378.447	312.18
378.827	321.45
379.208	318.06
379.588	306.08
379.968	337.94
380.349	342.24
380.729	318.28
381.109	358.06
381.489	324.38
381.87	343.59
382.25	365.29
382.63	332.07
383.01	348.34
383.39	339.98
383.77	336.81
384.15	344.72
384.53	337.04
384.91	343.82
385.29	342.24
385.67	353.08
386.049	349.69
386.429	326.64
386.809	348.79
387.189	352.63
387.568	378.62
387.948	333.65
388.328	359.86
388.707	369.35
389.087	349.69
389.466	380.2
389.846	353.54
390.225	359.19
390.605	378.62
390.984	372.29
391.363	354.89
391.743	376.36
392.122	361.67
392.501	341.56
392.881	369.81
393.26	362.12
393.639	382.46
394.018	350.37
394.397	362.35
394.776	374.78
395.155	369.35
395.534	372.97
395.913	375.91
396.292	383.37
396.671	380.43
397.05	370.71
397.429	379.75
397.808	385.4
398.186	362.35
398.565	392.18
398.944	397.38
399.323	369.81
399.701	391.5
400.08	389.92
400.458	393.31
400.837	407.32
401.215	412.74
401.594	394.89
401.972	395.57
402.351	393.99
402.729	397.38
403.107	407.55
403.486	403.48
403.864	429.01
404.242	417.26
404.62	411.16
404.999	435.79
405.377	419.97
405.755	440.54
406.133	414.78
406.511	428.11
406.889	446.64
407.267	441.67
407.645	455.68
408.023	436.7
408.401	433.99
408.779	435.57
409.156	455.45
409.534	446.19
409.912	444.38
410.29	473.98
410.667	452.52
411.045	470.59
411.422	493.19
411.8	497.03
412.178	473.98
412.555	481.44
412.933	490.71
413.31	502.91
413.687	495.68
414.065	506.07
414.442	518.96
414.819	527.77
415.197	516.24
415.574	507.66
415.951	521.44
416.328	518.28
416.705	536.36
417.082	558.73
417.46	552.85
417.837	578.84
418.214	547.88
418.591	564.83
418.967	566.64
419.344	535
419.721	580.87
420.098	551.5
420.475	590.37
420.852	591.04
421.228	609.12
421.605	598.28
421.982	591.72
422.358	597.82
422.735	588.11
423.111	629.91
423.488	604.83
423.864	627.65
424.241	638.5
424.617	608.44
424.994	639.63
425.37	651.38
425.746	643.7
426.123	653.87
426.499	665.62
426.875	652.74
427.251	658.39
427.627	676.69
428.003	679.4
428.379	669.91
428.756	682.11
429.132	692.51
429.507	687.54
429.883	708.33
430.259	696.13
430.635	717.14
431.011	702.45
431.387	724.15
431.763	723.24
432.138	759.85
432.514	773.19
432.89	782.23
433.265	767.54
433.641	775.22
434.016	782.68
434.392	781.1
434.767	795.56
435.143	814.31
435.518	822.45
435.894	811.38
436.269	809.34
436.644	838.04
437.02	836.01
437.395	847.31
437.77	860.87
438.145	852.28
438.52	883.47
438.895	874.2
439.271	874.43
439.646	902
440.021	907.65
440.395	886.63
440.77	911.71
441.145	908.1
441.52	915.56
441.895	934.76
442.27	938.61
442.645	941.32
443.019	950.81
443.394	954.88
443.769	956.46
444.143	954.88
444.518	943.58
444.892	956.01
445.267	990.81
445.641	977.02
446.016	970.92
446.39	993.75
446.764	981.99
447.139	983.12
447.513	995.55
447.887	1006.85
448.262	991.49
448.636	979.28
449.01	986.29
449.384	1026.29
449.758	1030.35
450.132	1035.78
450.506	1042.78
450.88	1031.71
451.254	1031.03
451.628	1038.94
452.002	1057.7
452.376	1061.54
452.75	1050.69
453.123	1077.81
453.497	1070.81
453.871	1095.44
454.244	1108.09
454.618	1108.77
454.992	1112.61
455.365	1106.74
455.739	1138.83
456.112	1172.72
456.486	1160.75
456.859	1173.18
457.232	1205.04
457.606	1178.15
457.979	1183.57
458.352	1213.17
458.725	1236.68
459.099	1233.74
459.472	1269.67
459.845	1237.13
460.218	1259.73
460.591	1274.64
460.964	1292.95
461.337	1300.4
461.71	1298.6
462.083	1313.74
462.456	1346.28
462.829	1339.95
463.201	1365.26
463.574	1358.93
463.947	1371.36
464.32	1427.18
464.692	1396.67
465.065	1413.62
465.438	1433.73
465.81	1436.45
466.183	1441.19
466.555	1476.9
466.928	1468.53
467.3	1478.7
467.672	1490
468.045	1524.8
468.417	1539.95
468.789	1536.56
469.161	1554.41
469.534	1608.87
469.906	1616.55
470.278	1645.03
470.65	1617.23
471.022	1685.03
471.394	1725.93
471.766	1725.03
472.138	1733.39
472.51	1763.89
472.882	1776.32
473.253	1802.99
473.625	1817.45
473.997	1847.51
474.369	1873.72
474.74	1893.83
475.112	1919.82
475.484	1930.22
475.855	1950.1
476.227	1995.98
476.598	2016.77
476.97	2062.64
477.341	2078.69
477.713	2103.09
478.084	2143.09
478.455	2152.81
478.827	2185.8
479.198	2207.05
479.569	2243.88
479.94	2291.11
480.311	2313.94
480.682	2372.24
481.053	2410.88
481.424	2412.46
481.795	2483.2
482.166	2515.74
482.537	2529.3
482.908	2600.48
483.279	2607.26
483.65	2624.44
484.021	2685.68
484.391	2747.6
484.762	2751.66
485.133	2754.15
485.503	2791.66
485.874	2888.84
486.244	2900.14
486.615	2943.98
486.985	2948.95
487.356	2977.2
487.726	3042.73
488.097	3098.1
488.467	3091.54
488.837	3124.76
489.207	3185.78
489.578	3226.45
489.948	3242.95
490.318	3297.41
490.688	3308.94
491.058	3353.68
491.428	3357.75
491.798	3445.88
492.168	3498.31
492.538	3486.11
492.908	3546.22
493.278	3583.28
493.648	3589.16
494.017	3653.34
494.387	3680.23
494.757	3695.14
495.126	3745.31
495.496	3737.4
495.866	3776.72
496.235	3813.56
496.605	3840.68
496.974	3887.91
497.344	3896.27
497.713	3907.34
498.082	3912.31
498.452	4001.58
498.821	4017.62
499.19	4034.57
499.559	4032.54
499.928	4090.16
500.298	4078.41
500.667	4092.42
501.036	4109.14
501.405	4154.34
501.774	4124.06
502.143	4182.36
502.512	4211.51
502.88	4254.9
503.249	4259.87
503.618	4278.4
503.987	4268.46
504.356	4347.33
504.724	4324.96
505.093	4344.17
505.462	4369.93
505.83	4361.57
506.199	4409.7
506.567	4460.32
506.936	4444.5
507.304	4503.03
507.672	4565.4
508.041	4527.89
508.409	4527.21
508.777	4613.76
509.145	4577.83
509.514	4580.09
509.882	4616.7
510.25	4651.5
510.618	4674.33
510.986	4649.92
511.354	4719.07
511.722	4735.12
512.09	4720.65
512.458	4743.03
512.826	4757.26
513.193	4823.02
513.561	4856.69
513.929	4805.62
514.297	4804.72
514.664	4903.25
515.032	4856.47
515.4	4920.65
515.767	4922.46
516.135	4940.99
516.502	4875
516.869	4982.34
517.237	5018.72
517.604	5018.5
517.972	5036.35
518.339	5077.25
518.706	5071.15
519.073	5041.77
519.44	5121.32
519.808	5132.62
520.175	5105.5
520.542	5142.79
520.909	5142.79
521.276	5209
521.643	5271.82
522.009	5263.46
522.376	5274.08
522.743	5272.5
523.11	5344.14
523.477	5408.32
523.843	5379.39
524.21	5390.01
524.577	5486.73
524.943	5470.69
525.31	5511.59
525.676	5586.39
526.043	5552.95
526.409	5581.87
526.776	5618.48
527.142	5669.78
527.508	5677.69
527.874	5719.95
528.241	5793.62
528.607	5720.17
528.973	5779.38
529.339	5826.16
529.705	5886.95
530.071	5900.28
530.437	5884.01
530.803	5942.09
531.169	5966.5
531.535	5979.38
531.901	6031.58
532.267	5997.68
532.632	6064.12
532.998	6047.17
533.364	6133.04
533.73	6157.23
534.095	6149.77
534.461	6180.73
534.826	6209.88
535.192	6212.82
535.557	6235.64
535.923	6253.95
536.288	6323.32
536.653	6336.43
537.019	6327.62
537.384	6334.62
537.749	6414.62
538.114	6455.52
538.479	6420.95
538.845	6448.97
539.21	6493.94
539.575	6495.52
539.94	6540.27
540.305	6562.86
540.67	6582.52
541.034	6578.91
541.399	6600.6
541.764	6688.06
542.129	6708.4
542.494	6764.67
542.858	6753.37
543.223	6814.83
543.587	6801.73
543.952	6865.91
544.316	6824.78
544.681	6895.51
545.045	6924.44
545.41	6948.39
545.774	6958.79
546.138	7023.87
546.503	7022.97
546.867	6992.23
547.231	7053.7
547.595	7107.48
547.959	7111.1
548.324	7098.22
548.688	7147.93
549.052	7217.99
549.416	7243.3
549.779	7208.95
550.143	7292.11
550.507	7305.9
550.871	7327.36
551.235	7283.98
551.599	7344.31
551.962	7397.19
552.326	7420.24
552.689	7448.94
553.053	7429.06
553.417	7426.8
553.78	7544.99
554.143	7542.73
554.507	7514.25
554.87	7544.99
555.234	7588.37
555.597	7594.7
555.96	7624.08
556.323	7650.52
556.686	7665.89
557.05	7686.22
557.413	7691.42
557.776	7765.54
558.139	7799.89
558.502	7740.91
558.865	7851.42
559.228	7864.07
559.59	7994.69
559.953	7946.56
560.316	7978.19
560.679	8033.33
561.041	8068.59
561.404	8060.45
561.767	8161.24
562.129	8107
562.492	8195.59
562.854	8176.83
563.217	8089.6
563.579	8238.3
563.941	8227.91
564.304	8280.11
564.666	8289.6
565.028	8351.07
565.39	8359.2
565.753	8389.03
566.115	8407.56
566.477	8448.69
566.839	8424.51
567.201	8543.83
567.563	8532.3
567.925	8572.98
568.287	8591.96
568.648	8648.01
569.01	8695.69
569.372	8691.62
569.734	8709.25
570.095	8792.86
570.457	8805.97
570.819	8813.88
571.18	8877.61
571.542	8905.18
571.903	8971.84
572.265	9006.87
572.626	9051.61
572.987	9131.61
573.349	9107.88
573.71	9140.88
574.071	9322.57
574.432	9290.02
574.794	9392.85
575.155	9405.05
575.516	9396.69
575.877	9555.1
576.238	9562.33
576.599	9719.84
576.96	9716.91
577.32	9739.96
577.681	9818.15
578.042	10007.29
578.403	10013.17
578.763	10104.69
579.124	10209.1
579.485	10294.97
579.845	10417.9
580.206	10448.41
580.566	10520.27
580.927	10698.12
581.287	10827.38
581.648	10879.36
582.008	11037.55
582.368	11241.16
582.728	11380.59
583.089	11510.76
583.449	11613.13
583.809	11836.4
584.169	11990.97
584.529	12112.1
584.889	12368.81
585.249	12563.61
585.609	12683.61
585.969	12910.49
586.329	13090.83
586.688	13258.28
587.048	13392.29
587.408	13628.22
587.768	13912.73
588.127	14113.63
588.487	14252.83
588.846	14664.8
589.206	14798.35
589.565	14965.58
589.925	15282.18
590.284	15478.11
590.643	15883.75
591.003	16090.75
591.362	16329.84
591.721	16660.45
592.08	16835.36
592.44	17200.78
592.799	17456.14
593.158	17694.32
593.517	17981.1
593.876	18381.08
594.235	18567.75
594.593	18843.45
594.952	19137
595.311	19345.8
595.67	19739.92
596.029	20123.64
596.387	20220.81
596.746	20627.13
597.104	20827.8
597.463	21125.65
597.822	21454.68
598.18	21740.77
598.538	21875.68
598.897	22419.17
599.255	22353.41
599.613	23065.71
599.972	23080.62
600.33	23463.21
600.688	23639.7
601.046	24114.72
601.404	24303.19
601.762	24541.37
602.12	24964.87
602.478	25257.97
602.836	25389.71
603.194	25566.43
603.552	25966.87
603.91	25978.4
604.268	26399.18
604.625	26560.08
604.983	26946.06
605.341	26957.81
605.698	27398.47
606.056	27740.61
606.413	27880.95
606.771	28238.68
607.128	28430.54
607.485	28551.89
607.843	28797.99
608.2	29109.39
608.557	29496.5
608.914	29470.28
609.272	29812.2
609.629	30077.27
609.986	30399.53
610.343	30393.42
610.7	30716.35
611.057	30884.94
611.414	31136
611.771	31140.97
612.127	31639.49
612.484	31679.72
612.841	31988.64
613.198	32013.04
613.554	32196.54
613.911	32590.2
614.267	32585.91
614.624	32789.97
614.98	32964.2
615.337	33121.49
615.693	33224.99
616.05	33405.55
616.406	33713.79
616.762	33644.41
617.118	33757.18
617.475	33884.63
617.831	34211.4
618.187	34389.48
618.543	34528.23
618.899	34790.82
619.255	34796.25
619.611	34996.69
619.967	35068.1
620.323	35179.96
620.678	35124.15
621.034	35223.58
621.39	35309.9
621.746	35452.5
622.101	35868.99
622.457	35663.57
622.812	36024.01
623.168	36054.52
623.523	36209.77
623.879	36276.21
624.234	36065.59
624.589	36272.82
624.945	36505.58
625.3	36456.77
625.655	36638.23
626.01	36619.47
626.365	36751.45
626.72	36905.12
627.075	37047.03
627.43	36885.46
627.785	36982.18
628.14	37140.14
628.495	37175.84
628.85	37099.01
629.205	37165.68
629.559	37369.96
629.914	37329.06
630.269	37325.67
630.623	37407.02
630.978	37369.06
631.332	37411.54
631.687	37535.16
632.041	37470.75
632.396	37621.71
632.75	37430.53
633.104	37697.19
633.459	37395.73
633.813	37423.07
634.167	37485.89
634.521	37545.33
634.875	37482.73
635.229	37489.28
635.583	37453.13
635.937	37434.82
636.291	37532.22
636.645	37586.46
636.999	37378.1
637.352	37526.8
637.706	37409.06
638.06	37570.41
638.413	37427.59
638.767	37406.12
639.121	37506.23
639.474	37336.07
639.828	37404.54
640.181	37383.75
640.534	37458.1
640.888	37357.08
641.241	37278.89
641.594	37484.76
641.947	37444.09
642.301	37329.96
642.654	37497.64
643.007	37419.68
643.36	37470.53
643.713	37507.14
644.066	37465.1
644.419	37361.15
644.771	37099.24
645.124	36711.68
645.477	36712.35
645.83	36503.09
646.182	36371.57
646.535	36277.11
646.888	36354.62
647.24	36264.46
647.593	36519.36
647.945	36252.03
648.298	36221.75
648.65	36233.95
649.002	36098.36
649.355	36180.16
649.707	36136.1
650.059	36270.56
650.411	36743.09
650.763	36910.54
651.115	37281.15
651.467	37030.76
651.819	37091.55
652.171	36999.58
652.523	36913.48
652.875	36927.72
653.227	36817.21
653.578	37014.04
653.93	36990.76
654.282	36733.37
654.633	36785.57
654.985	36862.18
655.337	36871.22
655.688	36909.64
656.039	36922.07
656.391	36644.11
656.742	36619.93
657.094	36665.12
657.445	36909.86
657.796	36773.14
658.147	36599.36
658.498	36693.82
658.849	36765.46
659.2	36720.04
659.551	36637.33
659.902	36772.69
660.253	36561.85
660.604	36814.5
660.955	36576.76
661.306	36797.78
661.656	36626.48
662.007	36689.3
662.358	36703.77
662.708	36558.69
663.059	36679.59
663.409	36367.96
663.76	36626.93
664.11	36647.72
664.461	36678.68
664.811	36631
665.161	36692.69
665.511	36520.04
665.862	36577.67
666.212	36661.06
666.562	36724.33
666.912	36528.18
667.262	36611.79
667.612	36605.92
667.962	36593.71
668.312	36398.46
668.662	36635.97
669.011	36449.99
669.361	36452.25
669.711	36430.1
670.06	36429.65
670.41	36395.3
670.76	36377
671.109	36525.92
671.459	36492.47
671.808	36416.77
672.157	36428.52
672.507	36299.03
672.856	36290.22
673.205	36270.56
673.554	36473.94
673.904	36290.44
674.253	36407.5
674.602	36185.81
674.951	35901.75
675.3	35620.18
675.649	36172.03
675.998	36144.91
676.346	36074.18
676.695	36357.33
677.044	35937.01
677.393	35977.46
677.741	36156.66
678.09	36001.19
678.438	36084.12
678.787	36050.9
679.135	36086.61
679.484	35862.43
679.832	35972.94
680.181	35893.62
680.529	35890.91
680.877	35756.9
681.225	35804.13
681.573	35951.7
681.922	35683.45
682.27	35519.16
682.618	35692.95
682.966	35398.26
683.314	35429.68
683.661	35451.14
684.009	35474.87
684.357	35198.5
684.705	35196.69
685.053	35232.84
685.4	35255.44
685.748	34990.14
686.095	35106.29
686.443	34888
686.79	34843.7
687.138	34931.61
687.485	34805.96
687.832	34739.75
688.18	34874.44
688.527	34490.27
688.874	34569.81
689.221	34585.4
689.568	34431.74
689.915	34392.41
690.262	34375.69
690.609	34157.17
690.956	34167.56
691.303	34191.97
691.65	34134.34
691.997	33958.08
692.344	33702.04
692.69	33744.3
693.037	33732.32
693.383	33512.21
693.73	33696.16
694.077	33396.06
694.423	33415.94
694.769	33290.07
695.116	33173.01
695.462	33153.35
695.808	33068.16
696.155	33108.83
696.501	32869.97
696.847	32883.3
697.193	32665.45
697.539	32757.2
697.885	32643.99
698.231	32565.57
698.577	32608.96
698.923	32585.46
699.269	32358.57
699.614	32120.84
699.96	32157.67
700.306	32229.08
700.651	32029.54
700.997	31945.25
701.342	31919.71
701.688	31717.01
702.033	31652.83
702.379	31690.57
702.724	31550
703.069	31657.35
703.415	31220.75
703.76	31306.62
704.105	31290.8
704.45	31223.91
704.795	31100.98
705.14	31005.84
705.485	30951.15
705.83	30809.01
706.175	30832.96
706.52	30840.42
706.865	30643.59
707.209	30634.55
707.554	30563.82
707.899	30589.58
708.243	30467.77
708.588	30255.35
708.932	30221.68
709.277	30159.76
709.621	30204.73
709.966	29947.11
710.31	30116.37
710.654	29793.44
710.998	29926.09
711.342	29914.34
711.687	29774.46
712.031	29671.41
712.375	29546.67
712.719	29639.55
713.063	29445.65
713.407	29594.57
713.75	29328.14
714.094	29400.68
714.438	29192.78
714.782	29364.52
715.125	29185.09
715.469	29177.18
715.812	29038.66
716.156	28893.35
716.499	28859.23
716.843	28783.52
717.186	28747.59
717.53	29029.84
717.873	28831.21
718.216	28771.09
718.559	28659.68
718.902	28476.41
719.246	28508.5
719.589	28446.36
719.932	28409.3
720.275	28355.06
720.617	28327.94
720.96	28212.01
721.303	28232.35
721.646	28132.24
721.989	28048.85
722.331	28083.43
722.674	28103.09
723.016	28110.09
723.359	27977.89
723.701	27905.81
724.044	27846.15
724.386	27687.51
724.729	27875.52
725.071	27727.73
725.413	27740.39
725.755	27758.24
726.097	27572.48
726.439	27431.92
726.782	27501.52
727.124	27549.43
727.465	27453.84
727.807	27444.35
728.149	27342.43
728.491	27201.64
728.833	27417.23
729.175	27259.72
729.516	27236.22
729.858	27172.72
730.199	27175.88
730.541	27093.62
730.882	27107.18
731.224	27080.97
731.565	26938.83
731.906	26824.25
732.248	26907.19
732.589	26746.29
732.93	26655.44
733.271	26720.3
733.612	26732.05
733.953	26791.71
734.294	26719.62
734.635	26521.21
734.976	26586.07
735.317	26422.45
735.658	26417.26
735.999	26489.57
736.339	26295.68
736.68	26511.72
737.021	26422.91
737.361	26293.42
737.702	26387.65
738.042	26260.65
738.383	26187.21
738.723	26390.14
739.063	26113.31
739.404	26173.2
739.744	26108.34
740.084	26107.21
740.424	26004.39
740.764	25919.42
741.104	25993.99
741.444	25879.19
741.784	25766.65
742.124	25858.85
742.464	25766.88
742.804	25706.99
743.143	25720.78
743.483	25735.92
743.823	25485.08
744.162	25662.47
744.502	25523.5
744.841	25505.19
745.181	25577.73
745.52	25392.65
745.86	25370.51
746.199	25404.63
746.538	25321.69
746.877	25340.22
747.216	25261.36
747.556	25299.32
747.895	25362.6
748.234	25111.98
748.573	25133.45
748.911	25236.27
749.25	25181.58
749.589	24980.01
749.928	25079.21
750.267	24915.38
750.605	24965.77
750.944	24887.13
751.283	24841.25
751.621	24812.78
751.96	24806
752.298	24668.38
752.636	24670.18
752.975	24610.07
753.313	24476.97
753.651	24560.13
753.989	24451.66
754.327	24383.41
754.666	24255.96
755.004	24354.71
755.342	24394.03
755.679	24191.1
756.017	24143.87
756.355	24113.36
756.693	24103.65
757.031	24153.14
757.368	23909.98
757.706	23938.68
758.044	23818.68
758.381	23854.16
758.719	23721.74
759.056	23735.52
759.394	23599.93
759.731	23475.64
760.068	23474.74
760.405	23502.31
760.743	23388.86
761.08	23436.77
761.417	23255.98
761.754	23231.8
762.091	23096.21
762.428	23143.45
762.765	22901.64
763.102	22878.59
763.438	22916.11
763.775	22781.65
764.112	22760.63
764.449	22771.03
764.785	22614.87
765.122	22576.45
765.458	22538.94
765.795	22371.04
766.131	22357.25
766.467	22190.02
766.804	22118.39
767.14	22104.38
767.476	22091.95
767.812	22052.17
768.148	21966.75
768.485	21835.23
768.821	21794.55
769.157	21695.8
769.492	21731.96
769.828	21658.06
770.164	21435.92
770.5	21404.28
770.836	21458.29
771.171	21228.02
771.507	21165.87
771.842	20986.89
772.178	21042.94
772.513	21028.25
772.849	20889.95
773.184	20924.75
773.519	20833.68
773.855	20733.34
774.19	20718.42
774.525	20611.99
774.86	20557.52
775.195	20472.78
775.53	20412.67
775.865	20184.65
776.2	20114.15
776.535	20128.84
776.87	20056.07
777.205	20022.4
777.539	19819.01
777.874	19955.05
778.209	19732.69
778.543	19667.15
778.878	19630.32
779.212	19513.94
779.547	19353.26
779.881	19388.97
780.215	19303.09
780.55	19406.59
780.884	19271.91
781.218	19167.96
781.552	19091.57
781.886	19045.02
782.22	18927.74
782.554	18892.26
782.888	18756.44
783.222	18653.39
783.556	18558.25
783.889	18467.18
784.223	18425.83
784.557	18337.47
784.89	18404.13
785.224	18316.91
785.557	18203.69
785.891	18206.85
786.224	18114.88
786.558	18063.13
786.891	17812.51
787.224	17824.04
787.557	17837.37
787.891	17780.65
788.224	17801.89
788.557	17767.99
788.89	17589.92
789.223	17703.81
789.556	17518.28
789.888	17423.14
790.221	17392.64
790.554	17241.91
790.887	17241
791.219	17165.52
791.552	17116.03
791.884	17148.12
792.217	17045.98
792.549	16869.49
792.882	16835.14
793.214	16809.6
793.546	16826.55
793.879	16710.85
794.211	16640.57
794.543	16700.22
794.875	16597.18
795.207	16664.52
795.539	16556.27
795.871	16500
796.203	16366.45
796.535	16290.07
796.867	16228.82
797.198	16194.25
797.53	16153.8
797.862	16015.5
798.193	16173.01
798.525	15982.5
798.856	16004.65
799.188	15889.85
799.519	15824.77
799.85	15698.22
800.182	15726.24
800.513	15787.48
800.844	15560.14
801.175	15576.86
801.506	15559.24
801.837	15575.28
802.168	15521.95
802.499	15405.12
802.83	15367.83
803.161	15261.84
803.491	15240.38
803.822	15178.68
804.153	15132.58
804.483	15056.2
804.814	15001.29
805.145	14980.27
805.475	14984.79
805.805	14991.57
806.136	14936.88
806.466	14926.71
806.796	14872.7
807.126	14775.98
807.457	14734.4
807.787	14792.48
808.117	14674.97
808.447	14608.53
808.777	14596.55
809.107	14528.98
809.436	14507.29
809.766	14509.77
810.096	14472.26
810.426	14283.57
810.755	14311.59
811.085	14340.96
811.414	14400.4
811.744	14231.14
812.073	14232.04
812.403	14131.03
812.732	14024.81
813.061	14075.21
813.39	14037.92
813.719	14044.02
814.049	14013.97
814.378	14008.09
814.707	13935.1
815.036	13810.36
815.365	13841.09
815.693	13693.3
816.022	13763.35
816.351	13635.67
816.68	13605.84
817.008	13662.34
817.337	13534.66
817.665	13547.54
817.994	13539.63
818.322	13533.75
818.651	13421.21
818.979	13373.08
819.307	13441.78
819.636	13375.79
819.964	13286.08
820.292	13282.24
820.62	13301.67
820.948	13225.97
821.276	13362.46
821.604	13282.69
821.932	13248.79
822.259	13263.93
822.587	13294.66
822.915	13244.72
823.243	13312.07
823.57	13313.2
823.898	13194.33
824.225	13234.1
824.553	13150.49
824.88	13220.77
825.207	13224.16
825.535	13231.16
825.862	13217.38
826.189	13220.99
826.516	13222.8
826.843	13235.01
827.17	13259.41
827.497	13214.44
827.824	13256.93
828.151	13170.6
828.478	13150.04
828.805	13221.67
829.131	13078.17
829.458	13092.86
829.785	13031.62
830.111	13030.94
830.438	13164.5
830.764	13101.9
831.09	13177.61
831.417	13020.77
831.743	13135.35
832.069	13208.34
832.395	13024.62
832.722	13164.5
833.048	13044.28
833.374	13100.55
833.7	13032.07
834.026	13035.91
834.351	13032.3
834.677	13019.42
835.003	13056.03
835.329	13023.03
835.654	12969.7
835.98	12959.08
836.306	12956.59
836.631	12889.7
836.956	12948.91
837.282	12896.48
837.607	12842.7
837.932	12765.41
838.258	12820.55
838.583	12841.12
838.908	12751.63
839.233	12704.62
839.558	12714.79
839.883	12677.73
840.208	12665.3
840.533	12593.44
840.858	12659.88
841.182	12604.51
841.507	12577.62
841.832	12527
842.156	12520.45
842.481	12495.59
842.805	12434.35
843.13	12476.16
843.454	12483.16
843.778	12369.27
844.103	12313.45
844.427	12274.35
844.751	12325.42
845.075	12277.97
845.399	12185.32
845.723	12153.45
846.047	12191.87
846.371	12060.35
846.695	12144.86
847.019	12004.75
847.343	11982.83
847.666	11874.14
847.99	11884.53
848.313	11916.17
848.637	11735.61
848.96	11794.82
849.284	11686.35
849.607	11646.8
849.931	11551.21
850.254	11537.2
850.577	11457.88
850.9	11375.84
851.223	11337.43
851.546	11324.77
851.869	11235.74
852.192	11302.4
852.515	11188.28
852.838	11183.08
853.161	11189.41
853.483	11089.07
853.806	11054.95
854.129	11042.29
854.451	11013.14
854.774	10913.48
855.096	10907.61
855.419	10820.61
855.741	10880.72
856.063	10766.82
856.385	10795.3
856.708	10710.33
857.03	10690.21
857.352	10719.14
857.674	10675.3
857.996	10642.3
858.318	10593.04
858.64	10594.62
858.961	10527.96
859.283	10511.46
859.605	10424.46
859.926	10454.51
860.248	10428.98
860.57	10376.78
860.891	10354.63
861.212	10302.65
861.534	10265.82
861.855	10237.8
862.176	10304.69
862.498	10277.57
862.819	10273.73
863.14	10203.22
863.461	10154.63
863.782	10150.11
864.103	10169.77
864.424	10079.83
864.745	10140.4
865.065	10028.08
865.386	10085.94
865.707	10006.62
866.027	10032.15
866.348	10067.63
866.668	9960.97
866.989	9908.54
867.309	9916.67
867.63	9922.1
867.95	9955.32
868.27	9768.88
868.59	9851.59
868.91	9889.1
869.23	9859.73
869.55	9838.26
869.87	9825.38
870.19	9734.53
870.51	9783.57
870.83	9787.86
871.15	9752.38
871.469	9677.13
871.789	9755.77
872.109	9692.05
872.428	9642.33
872.748	9636.68
873.067	9681.88
873.386	9689.34
873.706	9633.52
874.025	9571.82
874.344	9595.1
874.663	9553.07
874.982	9585.38
875.301	9553.97
875.62	9560.3
875.939	9501.77
876.258	9527.76
876.577	9460.64
876.896	9416.12
877.214	9479.85
877.533	9476.69
877.852	9391.72
878.17	9372.51
878.489	9422.68
878.807	9391.26
879.125	9343.13
879.444	9379.97
879.762	9344.49
880.08	9260.87
880.398	9255.67
880.716	9275.56
881.034	9248.22
881.352	9189.46
881.67	9257.93
881.988	9210.93
882.306	9241.21
882.624	9151.27
882.941	9122.34
883.259	9034.66
883.577	9099.07
883.894	9030.82
884.212	9021.56
884.529	9061.1
884.846	8999.86
885.164	9001.9
885.481	8939.98
885.798	9026.53
886.115	8846.19
886.432	8910.6
886.75	8837.83
887.067	8863.82
887.383	8797.83
887.7	8893.42
888.017	8775.24
888.334	8769.59
888.651	8710.6
888.967	8690.94
889.284	8702.69
889.6	8695.69
889.917	8632.41
890.233	8684.39
890.55	8597.84
890.866	8598.74
891.182	8602.13
891.498	8533.89
891.815	8551.29
892.131	8557.61
892.447	8494.56
892.763	8372.08
893.079	8355.59
893.395	8369.82
893.71	8363.27
894.026	8307.9
894.342	8346.55
894.657	8257.28
894.973	8289.82
895.289	8211.86
895.604	8250.73
895.92	8150.85
896.235	8154.23
896.55	8136.16
896.865	8105.2
897.181	8076.27
897.496	8062.71
897.811	8045.54
898.126	8076.04
898.441	7965.09
898.756	7988.82
899.071	7896.84
899.386	7908.37
899.7	7813.68
900.015	7817.97
900.33	7734.81
900.644	7800.57
900.959	7754.02
901.273	7722.38
901.588	7686.22
901.902	7637.64
902.216	7645.77
902.531	7521.26
902.845	7620.69
903.159	7497.3
903.473	7563.74
903.787	7461.82
904.101	7421.37
904.415	7479.68
904.729	7382.73
905.042	7336.4
905.356	7371.43
905.67	7314.71
905.984	7373.46
906.297	7289.4
906.611	7271.77
906.924	7212.11
907.237	7184.32
907.551	7178.89
907.864	7217.54
908.177	7040.82
908.491	7121.04
908.804	7104.09
909.117	6984.32
909.43	7039.69
909.743	6999.69
910.056	6960.37
910.368	6928.05
910.681	6870.88
910.994	6870.2
911.307	6873.82
911.619	6752.24
911.932	6787.04
912.244	6761.5
912.557	6745.23
912.869	6693.48
913.181	6640.38
913.494	6634.27
913.806	6563.77
914.118	6621.39
914.43	6497.56
914.742	6544.79
915.054	6488.97
915.366	6521.28
915.678	6436.31
915.99	6444.9
916.302	6372.59
916.613	6357.67
916.925	6368.97
917.236	6341.4
917.548	6326.94
917.859	6278.35
918.171	6207.17
918.482	6198.35
918.794	6219.37
919.105	6188.86
919.416	6170.33
919.727	6097.34
920.038	6141.63
920.349	6056.44
920.66	6045.82
920.971	6017.79
921.282	5979.6
921.593	5964.91
921.903	5959.04
922.214	5923.56
922.525	5892.6
922.835	5839.49
923.146	5835.65
923.456	5807.63
923.767	5839.72
924.077	5762.43
924.387	5757.46
924.697	5762.66
925.008	5726.73
925.318	5665.03
925.628	5679.05
925.938	5623
926.248	5572.61
926.558	5564.92
926.867	5550.24
927.177	5509.78
927.487	5474.53
927.796	5426.62
928.106	5477.24
928.416	5417.13
928.725	5427.53
929.034	5394.53
929.344	5386.85
929.653	5334.65
929.962	5304.82
930.271	5288.32
930.581	5289.45
930.89	5232.73
931.199	5282.45
931.508	5235.22
931.817	5260.3
932.125	5194.09
932.434	5138.27
932.743	5087.87
933.051	5089.68
933.36	5131.72
933.669	5065.5
933.977	5040.64
934.286	5004.94
934.594	5010.59
934.902	4972.85
935.21	4948.9
935.519	4966.97
935.827	4905.96
936.135	4873.42
936.443	4860.99
936.751	4841.1
937.059	4801.55
937.367	4815.11
937.674	4801.78
937.982	4812.4
938.29	4766.75
938.597	4727.88
938.905	4663.93
939.213	4714.1
939.52	4666.64
939.827	4643.37
940.135	4613.76
940.442	4625.97
940.749	4597.04
941.056	4584.39
941.363	4556.82
941.67	4540.32
941.977	4542.58
942.284	4503.48
942.591	4467.55
942.898	4422.36
943.205	4426.2
943.511	4409.93
943.818	4383.94
944.125	4353.88
944.431	4339.65
944.738	4312.98
945.044	4341
945.35	4308.69
945.657	4290.16
945.963	4241.8
946.269	4259.42
946.575	4225.52
946.881	4220.33
947.187	4202.25
947.493	4168.58
947.799	4186.88
948.105	4105.08
948.41	4109.82
948.716	4089.48
949.022	4112.76
949.327	4081.57
949.633	4030.05
949.938	4065.75
950.244	4052.42
950.549	3983.04
950.854	3934.23
951.16	4003.61
951.465	3944.63
951.77	3925.42
952.075	3907.79
952.38	3902.82
952.685	3907.79
952.99	3847.91
953.294	3838.42
953.599	3806.55
953.904	3828.25
954.209	3773.33
954.513	3790.96
954.818	3730.85
955.122	3771.07
955.426	3731.98
955.731	3699.66
956.035	3720.23
956.339	3687.23
956.643	3677.97
956.948	3644.75
957.252	3664.86
957.556	3624.64
957.86	3579.44
958.163	3619.21
958.467	3574.24
958.771	3570.4
959.075	3526.33
959.378	3529.27
959.682	3555.71
959.985	3520.91
960.289	3499.89
960.592	3506.9
960.896	3465.09
961.199	3425.09
961.502	3444.98
961.805	3396.39
962.108	3409.73
962.411	3377.86
962.714	3395.26
963.017	3407.24
963.32	3368.37
963.623	3338.99
963.926	3321.59
964.228	3296.06
964.531	3289.05
964.833	3300.13
965.136	3258.77
965.438	3215.61
965.741	3221.26
966.043	3234.36
966.345	3202.27
966.648	3171.77
966.95	3220.58
967.252	3162.73
967.554	3154.82
967.856	3138.55
968.158	3138.77
968.46	3126.57
968.761	3107.59
969.063	3077.53
969.365	3068.04
969.666	3079.79
969.968	3033.47
970.269	3032.34
970.571	3037.76
970.872	3047.02
971.174	2992.56
971.475	2983.52
971.776	2977.2
972.077	2937.87
972.378	2945.56
972.679	2933.13
972.98	2905.33
973.281	2898.1
973.582	2866.46
973.883	2881.38
974.183	2922.96
974.484	2857.88
974.785	2828.27
975.085	2823.53
975.386	2794.6
975.686	2799.12
975.986	2766.58
976.287	2778.78
976.587	2766.58
976.887	2761.38
977.187	2721.61
977.487	2746.47
977.787	2704.43
978.087	2710.31
978.387	2674.83
978.687	2675.06
978.987	2646.13
979.286	2653.59
979.586	2668.73
979.885	2622.63
980.185	2609.75
980.484	2618.56
980.784	2636.64
981.083	2613.59
981.382	2575.4
981.682	2573.82
981.981	2579.69
982.28	2576.3
982.579	2527.26
982.878	2493.37
983.177	2537.21
983.475	2485.46
983.774	2496.76
984.073	2481.84
984.372	2457.66
984.67	2474.84
984.969	2428.06
985.267	2478
985.566	2430.54
985.864	2457.66
986.162	2417.89
986.461	2407.04
986.759	2385.35
987.057	2357.33
987.355	2373.6
987.653	2335.4
987.951	2342.64
988.249	2327.95
988.547	2345.12
988.844	2314.39
989.142	2289.53
989.44	2293.15
989.737	2259.47
990.035	2268.51
990.332	2274.84
990.63	2259.47
990.927	2262.64
991.224	2219.7
991.521	2222.64
991.819	2170.21
992.116	2219.02
992.413	2192.58
992.71	2167.5
993.006	2212.24
993.303	2153.94
993.6	2178.35
993.897	2122.3
994.193	2126.6
994.49	2110.33
994.787	2141.29
995.083	2104.45
995.379	2071
995.676	2079.37
995.972	2091.57
996.268	2033.04
996.565	2056.99
996.861	2039.37
997.157	2035.53
997.453	2026.49
997.749	2013.83
998.044	2003.21
998.34	2003.21
998.636	1997.79
998.932	1966.15
999.227	1961.4
999.523	1960.5
999.818	1919.6
1000.114	1956.43
1000.409	1924.79
1000.704	1912.82
1001	1884.8
1001.295	1892.25
1001.59	1887.73
1001.885	1880.5
1002.18	1871.91
1002.475	1845.47
1002.77	1871.91
1003.065	1824.68
1003.359	1829.66
1003.654	1840.95
1003.949	1791.69
1004.243	1818.81
1004.538	1807.96
1004.832	1781.29
1005.127	1787.17
1005.421	1763.89
1005.715	1751.92
1006.009	1743.78
1006.304	1725.03
1006.598	1730
1006.892	1704.23
1007.186	1725.48
1007.48	1693.61
1007.773	1679.83
1008.067	1676.44
1008.361	1662.43
1008.655	1669.89
1008.948	1626.72
1009.242	1649.1
1009.535	1660.62
1009.829	1620.17
1010.122	1599.6
1010.415	1608.42
1010.708	1598.47
1011.001	1573.16
1011.295	1576.33
1011.588	1530.68
1011.881	1549.44
1012.173	1565.93
1012.466	1563.22
1012.759	1527.06
1013.052	1532.71
1013.344	1504.24
1013.637	1502.21
1013.93	1508.31
1014.222	1495.88
1014.514	1477.57
1014.807	1469.21
1015.099	1470.12
1015.391	1446.16
1015.683	1438.25
1015.976	1463.56
1016.268	1421.08
1016.56	1440.51
1016.851	1403.45
1017.143	1395.54
1017.435	1391.25
1017.727	1371.14
1018.018	1401.87
1018.31	1388.99
1018.602	1384.24
1018.893	1347.18
1019.185	1325.71
1019.476	1328.43
1019.767	1337.46
1020.058	1316
1020.35	1322.78
1020.641	1326.62
1020.932	1296.34
1021.223	1294.98
1021.514	1289.33
1021.804	1269.67
1022.095	1253.85
1022.386	1263.34
1022.677	1247.98
1022.967	1214.76
1023.258	1219.73
1023.548	1231.25
1023.839	1236.9
1024.129	1219.5
1024.419	1234.19
1024.709	1194.42
1025	1213.85
1025.29	1189.45
1025.58	1202.55
1025.87	1150.35
1026.16	1172.5
1026.449	1164.36
1026.739	1159.39
1027.029	1143.8
1027.319	1125.94
1027.608	1121.88
1027.898	1120.52
1028.187	1088.21
1028.477	1106.74
1028.766	1094.31
1029.055	1093.63
1029.344	1083.46
1029.634	1085.72
1029.923	1061.99
1030.212	1053.86
1030.501	1040.52
1030.79	1032.39
1031.078	1047.08
1031.367	1035.1
1031.656	1017.25
1031.945	999.62
1032.233	1026.06
1032.522	1021.99
1032.81	1011.15
1033.099	986.97
1033.387	979.06
1033.675	981.99
1033.963	984.71
1034.251	972.73
1034.54	962.79
1034.828	953.29
1035.116	959.4
1035.403	948.55
1035.691	946.97
1035.979	942.67
1036.267	932.73
1036.554	941.09
1036.842	905.16
1037.129	922.56
1037.417	880.3
1037.704	906.52
1037.992	878.72
1038.279	908.32
1038.566	904.26
1038.853	904.26
1039.14	904.26
