Data from hue_270_FLMS001491_00020.txt Node
Date: Tue Feb 07 15:56:51 GMT 2017
User: dcchb
Spectrometer: FLMS00149
Trigger mode: 0
Integration Time (sec): 2.000000E-2
Scans to average: 10
Electric dark correction enabled: true
Nonlinearity correction enabled: false
Boxcar width: 0
XAxis mode: Wavelengths
Number of Pixels in Spectrum: 2048
>>>>>Begin Spectral Data<<<<<
341.393	-17.03
341.776	-17.03
342.16	-17.03
342.543	-72.85
342.927	-68.11
343.31	-76.92
343.693	-78.73
344.077	-83.02
344.46	-55.45
344.843	-58.84
345.226	-37.15
345.61	-38.5
345.993	6.24
346.376	0.37
346.759	15.51
347.142	26.13
347.525	58.22
347.908	59.8
348.291	67.48
348.674	86.92
349.057	107.94
349.44	131.89
349.823	127.82
350.206	146.8
350.588	173.7
350.971	220.02
351.354	212.34
351.737	224.09
352.119	233.81
352.502	272.22
352.884	270.19
353.267	269.51
353.65	289.17
354.032	296.86
354.414	300.25
354.797	307.93
355.179	301.38
355.562	330.53
355.944	325.56
356.326	334.14
356.709	328.49
357.091	308.16
357.473	317.65
357.855	324.88
358.238	328.04
358.62	324.65
359.002	340.7
359.384	332.34
359.766	329.17
360.148	317.2
360.53	314.94
360.912	305.44
361.294	319.23
361.676	301.15
362.057	327.14
362.439	331.43
362.821	311.55
363.203	332.11
363.584	326.91
363.966	303.41
364.348	309.74
364.729	291.88
365.111	337.08
365.493	325.33
365.874	315.39
366.256	318.78
366.637	316.52
367.019	304.09
367.4	289.85
367.781	305.44
368.163	313.81
368.544	311.09
368.925	307.25
369.306	321.71
369.688	323.52
370.069	296.4
370.45	298.89
370.831	308.83
371.212	304.77
371.593	304.31
371.974	317.42
372.355	327.82
372.736	309.51
373.117	290.08
373.498	304.09
373.879	326.69
374.26	304.31
374.641	304.99
375.021	295.05
375.402	336.4
375.783	333.24
376.163	319.45
376.544	344.76
376.925	330.08
377.305	317.42
377.686	328.04
378.066	325.78
378.447	324.2
378.827	340.7
379.208	323.07
379.588	328.49
379.968	329.17
380.349	348.61
380.729	343.18
381.109	330.75
381.489	325.33
381.87	336.63
382.25	351.77
382.63	342.05
383.01	343.18
383.39	328.72
383.77	332.79
384.15	345.67
384.53	313.35
384.91	343.41
385.29	340.02
385.67	346.12
386.049	352.22
386.429	330.3
386.809	354.03
387.189	344.99
387.568	355.84
387.948	347.48
388.328	340.7
388.707	351.09
389.087	356.06
389.466	358.32
389.846	365.56
390.225	397.64
390.605	348.38
390.984	357.65
391.363	372.33
391.743	384.76
392.122	368.27
392.501	393.13
392.881	375.27
393.26	374.14
393.639	391.32
394.018	391.32
394.397	393.13
394.776	385.44
395.155	396.29
395.534	383.41
395.913	390.41
396.292	400.36
396.671	381.37
397.05	389.96
397.429	414.14
397.808	396.51
398.186	412.79
398.565	396.51
398.944	385.22
399.323	419.34
399.701	399.68
400.08	409.4
400.458	408.04
400.837	423.18
401.215	424.08
401.594	413.69
401.972	415.5
402.351	416.18
402.729	424.54
403.107	407.81
403.486	407.81
403.864	450.07
404.242	435.38
404.62	450.3
404.999	450.98
405.377	449.39
405.755	457.3
406.133	469.06
406.511	458.21
406.889	471.09
407.267	464.76
407.645	456.85
408.023	468.38
408.401	485.78
408.779	495.95
409.156	506.79
409.534	495.72
409.912	493.91
410.29	495.95
410.667	496.63
411.045	497.3
411.422	521.71
411.8	514.7
412.178	526
412.555	556.51
412.933	547.02
413.31	551.09
413.687	560.13
414.065	577.08
414.442	576.85
414.819	611.88
415.197	578.88
415.574	597.87
415.951	616.17
416.328	622.95
416.705	611.88
417.082	620.92
417.46	635.15
417.837	631.99
418.214	647.13
418.591	655.49
418.967	660.46
419.344	630.41
419.721	669.5
420.098	659.11
420.475	686.9
420.852	688.03
421.228	696.39
421.605	719.9
421.982	710.18
422.358	707.24
422.735	762.16
423.111	741.59
423.488	752.21
423.864	786.79
424.241	790.4
424.617	778.2
424.994	792.89
425.37	811.65
425.746	823.17
426.123	849.16
426.499	843.06
426.875	869.27
427.251	848.48
427.627	884.64
428.003	857.52
428.379	895.48
428.756	900.46
429.132	930.29
429.507	933.68
429.883	920.34
430.259	952.88
430.635	972.77
431.011	968.93
431.387	1008.25
431.763	992.88
432.138	1008.7
432.514	1024.3
432.89	1052.99
433.265	1053.9
433.641	1064.52
434.016	1069.27
434.392	1128.02
434.767	1106.33
435.143	1130.06
435.518	1148.81
435.894	1172.09
436.269	1197.4
436.644	1188.36
437.02	1226.78
437.395	1224.52
437.77	1216.61
438.145	1238.53
438.52	1273.78
438.895	1282.14
439.271	1310.62
439.646	1348.13
440.021	1325.08
440.395	1368.24
440.77	1332.76
441.145	1394.45
441.52	1345.64
441.895	1374.12
442.27	1401.23
442.645	1404.4
443.019	1421.35
443.394	1414.57
443.769	1467.67
444.143	1439.88
444.518	1484.4
444.892	1495.47
445.267	1506.99
445.641	1500.67
446.016	1476.03
446.39	1537.28
446.764	1537.28
447.139	1543.6
447.513	1532.98
447.887	1546.99
448.262	1561.68
448.636	1585.41
449.01	1568.01
449.384	1606.2
449.758	1634.45
450.132	1635.58
450.506	1632.64
450.88	1665.63
451.254	1638.74
451.628	1656.37
452.002	1698.18
452.376	1673.77
452.75	1682.58
453.123	1716.03
453.497	1705.18
453.871	1758.29
454.244	1802.13
454.618	1797.61
454.992	1791.73
455.365	1810.94
455.739	1835.35
456.112	1846.19
456.486	1874.44
456.859	1837.83
457.232	1913.54
457.606	1918.06
457.979	1897.72
458.352	1955.12
458.725	2004.83
459.099	2007.32
459.472	2011.84
459.845	2042.8
460.218	2072.86
460.591	2081.67
460.964	2062.91
461.337	2097.94
461.71	2136.81
462.083	2167.54
462.456	2171.61
462.829	2153.08
463.201	2224.72
463.574	2218.16
463.947	2186.52
464.32	2294.09
464.692	2295.45
465.065	2322.11
465.438	2335
465.81	2359.63
466.183	2362.34
466.555	2404.15
466.928	2385.62
467.3	2386.29
467.672	2451.38
468.045	2514.43
468.417	2483.24
468.789	2492.51
469.161	2542.67
469.534	2604.59
469.906	2633.74
470.278	2658.83
470.65	2665.83
471.022	2718.26
471.394	2754.19
471.766	2769.33
472.138	2793.29
472.51	2841.87
472.882	2861.99
473.253	2885.94
473.625	2946.73
473.997	3004.81
474.369	2984.02
474.74	3012.04
475.112	3047.97
475.484	3111.47
475.855	3134.3
476.227	3170.68
476.598	3278.93
476.97	3241.19
477.341	3275.31
477.713	3299.72
478.084	3335.42
478.455	3442.31
478.827	3436.21
479.198	3600.05
479.569	3561.63
479.94	3667.39
480.311	3648.86
480.682	3708.52
481.053	3763.66
481.424	3758.23
481.795	3843.66
482.166	3868.97
482.537	3884.33
482.908	3984.44
483.279	4004.78
483.65	4078.23
484.021	4116.42
484.391	4141.73
484.762	4204.1
485.133	4195.51
485.503	4275.51
485.874	4324.1
486.244	4360.93
486.615	4403.87
486.985	4496.75
487.356	4507.82
487.726	4553.69
488.097	4684.09
488.467	4661.26
488.837	4780.58
489.207	4750.3
489.578	4833.01
489.948	4852.89
490.318	4840.69
490.688	4873.69
491.058	4968.82
491.428	5038.43
491.798	5077.52
492.168	5101.48
492.538	5169.27
492.908	5186.22
493.278	5195.48
493.648	5224.41
494.017	5320
494.387	5315.26
494.757	5329.72
495.126	5425.08
495.496	5400.68
495.866	5449.72
496.235	5504.86
496.605	5516.61
496.974	5598.19
497.344	5603.84
497.713	5604.06
498.082	5660.56
498.452	5707.56
498.821	5749.14
499.19	5717.28
499.559	5732.65
499.928	5767.67
500.298	5804.96
500.667	5847.45
501.036	5804.96
501.405	5850.83
501.774	5896.94
502.143	5867.56
502.512	5934
502.88	5957.05
503.249	5998.85
503.618	5952.53
503.987	6009.7
504.356	6009.25
504.724	6046.76
505.093	6048.57
505.462	6066.87
505.83	6044.05
506.199	6119.75
506.567	6185.52
506.936	6154.56
507.304	6251.05
507.672	6222.12
508.041	6266.19
508.409	6294.66
508.777	6307.32
509.145	6294.44
509.514	6308.45
509.882	6356.81
510.25	6351.84
510.618	6342.12
510.986	6401.78
511.354	6377.15
511.722	6452.4
512.09	6491.95
512.458	6453.76
512.826	6501.44
513.193	6569.01
513.561	6514.09
513.929	6509.8
514.297	6534.43
514.664	6580.53
515.032	6576.01
515.4	6587.31
515.767	6644.94
516.135	6637.25
516.502	6599.97
516.869	6656.46
517.237	6684.49
517.604	6628.89
517.972	6675.45
518.339	6720.87
518.706	6719.74
519.073	6717.93
519.44	6707.31
519.808	6801.32
520.175	6765.39
520.542	6793.86
520.909	6830.92
521.276	6814.2
521.643	6857.59
522.009	6860.75
522.376	6938.49
522.743	6886.74
523.11	6934.87
523.477	6991.14
523.843	6996.79
524.21	7035.21
524.577	7040.86
524.943	7050.58
525.31	7046.96
525.676	7127.19
526.043	7139.39
526.409	7128.32
526.776	7232.04
527.142	7202.21
527.508	7234.3
527.874	7241.76
528.241	7266.84
528.607	7227.3
528.973	7273.85
529.339	7227.97
529.705	7315.66
530.071	7378.48
530.437	7376.22
530.803	7383.68
531.169	7420.51
531.535	7391.36
531.901	7378.7
532.267	7445.82
532.632	7483.79
532.998	7451.7
533.364	7467.06
533.73	7518.59
534.095	7553.16
534.461	7609.43
534.826	7576.44
535.192	7531.24
535.557	7557.23
535.923	7546.38
536.288	7616.66
536.653	7535.08
537.019	7526.72
537.384	7631.58
537.749	7593.84
538.114	7629.55
538.479	7611.24
538.845	7601.07
539.21	7608.53
539.575	7582.54
539.94	7644.23
540.305	7665.93
540.67	7662.99
541.034	7710
541.399	7683.56
541.764	7659.6
542.129	7744.8
542.494	7721.97
542.858	7747.28
543.223	7704.12
543.587	7733.95
543.952	7747.06
544.316	7705.25
544.681	7715.64
545.045	7761.97
545.41	7740.5
545.774	7725.14
546.138	7720.84
546.503	7743.21
546.867	7773.04
547.231	7789.99
547.595	7810.78
547.959	7807.62
548.324	7809.2
548.688	7771.24
549.052	7813.95
549.416	7825.92
549.779	7818.01
550.143	7844
550.507	7873.38
550.871	7810.11
551.235	7876.54
551.599	7839.26
551.962	7897.11
552.326	7893.04
552.689	7867.73
553.053	7924.9
553.417	7888.75
553.78	7978.24
554.143	7954.73
554.507	7972.36
554.87	7957.9
555.234	8048.29
555.597	7940.95
555.96	7976.2
556.323	8050.33
556.686	8028.63
557.05	8065.47
557.413	8027.95
557.776	8015.98
558.139	8122.64
558.502	8098.91
558.865	8074.28
559.228	8152.7
559.59	8142.07
559.953	8130.32
560.316	8253.71
560.679	8229.98
561.041	8255.97
561.404	8269.53
561.767	8290.77
562.129	8272.01
562.492	8339.81
562.854	8348.85
563.217	8354.27
563.579	8375.29
563.941	8429.98
564.304	8407.38
564.666	8502.97
565.028	8474.72
565.39	8500.48
565.753	8524.66
566.115	8553.81
566.477	8554.04
566.839	8655.28
567.201	8689.4
567.563	8636.07
567.925	8709.97
568.287	8739.12
568.648	8710.65
569.01	8726.69
569.372	8794.03
569.734	8835.84
570.095	8852.11
570.457	8895.95
570.819	8885.11
571.18	8926.46
571.542	8986.8
571.903	8942.05
572.265	9046.01
572.626	9017.53
572.987	9039.9
573.349	9126.68
573.71	9125.78
574.071	9084.65
574.432	9204.64
574.794	9230.18
575.155	9211.2
575.516	9275.15
575.877	9292.55
576.238	9255.94
576.599	9305.21
576.96	9308.82
577.32	9394.02
577.681	9457.07
578.042	9482.6
578.403	9421.14
578.763	9470.17
579.124	9478.08
579.485	9495.03
579.845	9583.62
580.206	9601.92
580.566	9630.62
580.927	9672.43
581.287	9634.92
581.648	9689.6
582.008	9796.95
582.368	9702.26
582.728	9777.06
583.089	9777.96
583.449	9819.09
583.809	9871.52
584.169	9937.51
584.529	9849.15
584.889	9974.12
585.249	9964.85
585.609	9921.24
585.969	10011.4
586.329	10057.28
586.688	10059.54
587.048	10136.82
587.408	10051.63
587.768	10045.07
588.127	10074.9
588.487	10064.06
588.846	10255.01
589.206	10224.51
589.565	10195.35
589.925	10288.01
590.284	10304.05
590.643	10297.5
591.003	10343.37
591.362	10322.36
591.721	10318.06
592.08	10415.69
592.44	10406.87
592.799	10377.27
593.158	10465.18
593.517	10476.02
593.876	10451.62
594.235	10500.43
594.593	10471.28
594.952	10525.74
595.311	10459.75
595.67	10548.11
596.029	10626.3
596.387	10654.1
596.746	10658.17
597.104	10564.38
597.463	10624.27
597.822	10706.75
598.18	10624.95
598.538	10629.01
598.897	10752.63
599.255	10667.21
599.613	10852.06
599.972	10726.19
600.33	10807.09
600.688	10853.19
601.046	10837.6
601.404	10902.45
601.762	10874.66
602.12	10824.72
602.478	10903.13
602.836	10908.78
603.194	10803.92
603.552	10863.13
603.91	10804.6
604.268	10921.44
604.625	10899.97
604.983	10900.65
605.341	10874.43
605.698	10979.06
606.056	10982.9
606.413	11003.47
606.771	10958.27
607.128	11045.95
607.485	10918.05
607.843	10969.12
608.2	10956.46
608.557	11077.14
608.914	11077.14
609.272	11144.25
609.629	11087.99
609.986	11164.37
610.343	11082.56
610.7	11130.92
611.057	11242.33
611.414	11140.87
611.771	11144.93
612.127	11274.42
612.484	11219.06
612.841	11238.94
613.198	11167.31
613.554	11199.85
613.911	11329.56
614.267	11313.52
614.624	11190.81
614.98	11290.47
615.337	11357.13
615.693	11364.36
616.05	11276.68
616.406	11265.38
616.762	11264.03
617.118	11335.66
617.475	11262.67
617.831	11370.24
618.187	11304.93
618.543	11410.91
618.899	11364.59
619.255	11381.08
619.611	11388.77
619.967	11475.55
620.323	11463.79
620.678	11370.24
621.034	11353.06
621.39	11393.51
621.746	11374.53
622.101	11536.34
622.457	11361.2
622.812	11440.97
623.168	11471.25
623.523	11459.73
623.879	11476.22
624.234	11458.37
624.589	11506.73
624.945	11467.64
625.3	11455.21
625.655	11489.1
626.01	11448.88
626.365	11446.62
626.72	11414.76
627.075	11349.67
627.43	11482.78
627.785	11335.21
628.14	11374.31
628.495	11456.56
628.85	11416.79
629.205	11282.33
629.559	11337.02
629.914	11448.65
630.269	11340.63
630.623	11386.96
630.978	11367.07
631.332	11338.6
631.687	11354.42
632.041	11295.89
632.396	11289.34
632.75	11272.16
633.104	11254.99
633.459	11245.5
633.813	11159.4
634.167	11199.85
634.521	11208.66
634.875	11206.85
635.229	11306.06
635.583	11203.01
635.937	11255.21
636.291	11178.15
636.645	11238.04
636.999	11243.46
637.352	11205.5
637.706	11095.67
638.06	11159.62
638.413	11154.42
638.767	11095.22
639.121	11179.73
639.474	11071.04
639.828	11036.91
640.181	11016.8
640.534	11117.14
640.888	11013.86
641.241	10911.49
641.594	10933.87
641.947	11069.23
642.301	10962.79
642.654	11030.36
643.007	10933.64
643.36	10887.76
643.713	10974.77
644.066	10935.45
644.419	10944.26
644.771	10832.85
645.124	10788.78
645.477	10761.89
645.83	10711.05
646.182	10655.23
646.535	10671.05
646.888	10612.97
647.24	10543.82
647.593	10673.31
647.945	10561.45
648.298	10556.25
648.65	10586.53
649.002	10469.47
649.355	10509.02
649.707	10591.73
650.059	10597.15
650.411	10750.82
650.763	10715.79
651.115	10791.72
651.467	10842.34
651.819	10791.27
652.171	10790.37
652.523	10812.51
652.875	10740.42
653.227	10704.72
653.578	10854.32
653.93	10818.16
654.282	10729.8
654.633	10663.82
654.985	10772.97
655.337	10762.34
655.688	10733.42
656.039	10824.04
656.391	10695.91
656.742	10783.81
657.094	10747.2
657.445	10817.71
657.796	10759.86
658.147	10807.54
658.498	10767.09
658.849	10767.99
659.2	10814.09
659.551	10800.76
659.902	10834.66
660.253	10773.64
660.604	10778.39
660.955	10735.9
661.306	10725.51
661.656	10753.3
662.007	10807.77
662.358	10822.68
662.708	10749.24
663.059	10743.81
663.409	10718.96
663.76	10831.95
664.11	10719.41
664.461	10764.38
664.811	10784.94
665.161	10768.45
665.511	10780.42
665.862	10838.95
666.212	10812.96
666.562	10825.17
666.912	10835.34
667.262	10792.85
667.612	10787.43
667.962	10850.25
668.312	10743.59
668.662	10766.64
669.011	10751.27
669.361	10760.76
669.711	10753.3
670.06	10796.69
670.41	10735.23
670.76	10751.27
671.109	10743.59
671.459	10680.54
671.808	10741.55
672.157	10659.07
672.507	10657.94
672.856	10618.85
673.205	10732.29
673.554	10655.45
673.904	10635.12
674.253	10743.36
674.602	10702.23
674.951	10488.68
675.3	10372.07
675.649	10636.7
675.998	10680.54
676.346	10666.53
676.695	10690.48
677.044	10522.35
677.393	10619.3
677.741	10603.93
678.09	10617.49
678.438	10514.44
678.787	10557.83
679.135	10533.65
679.484	10473.31
679.832	10522.8
680.181	10457.72
680.529	10476.48
680.877	10449.13
681.225	10337.27
681.573	10414.33
681.922	10435.8
682.27	10362.13
682.618	10346.08
682.966	10363.94
683.314	10362.35
683.661	10253.66
684.009	10325.52
684.357	10252.98
684.705	10252.08
685.053	10215.24
685.4	10253.66
685.748	10176.37
686.095	10196.94
686.443	10156.26
686.79	10116.26
687.138	10143.6
687.485	10152.42
687.832	10063.61
688.18	10087.56
688.527	9985.87
688.874	9992.42
689.221	9997.39
689.568	9900.22
689.915	9833.55
690.262	9858.41
690.609	9789.26
690.956	9808.47
691.303	9857.74
691.65	9772.99
691.997	9769.83
692.344	9677.85
692.69	9658.64
693.037	9675.14
693.383	9563.05
693.73	9597.4
694.077	9532.77
694.423	9530.74
694.769	9480.57
695.116	9430.18
695.462	9497.52
695.808	9476.95
696.155	9446.45
696.501	9360.57
696.847	9341.14
697.193	9227.24
697.539	9294.13
697.885	9216.85
698.231	9137.3
698.577	9177.98
698.923	9133.23
699.269	9061.6
699.614	9017.08
699.96	8956.29
700.306	9061.6
700.651	8994.03
700.997	8979.34
701.342	8987.7
701.688	8902.96
702.033	8875.16
702.379	8865.22
702.724	8796.75
703.069	8836.29
703.415	8658.44
703.76	8746.13
704.105	8706.8
704.45	8648.28
704.795	8596.53
705.14	8628.61
705.485	8633.13
705.83	8502.06
706.175	8541.39
706.52	8473.59
706.865	8503.65
707.209	8483.53
707.554	8438.56
707.899	8413.48
708.243	8418
708.588	8428.85
708.932	8354.5
709.277	8295.29
709.621	8343.65
709.966	8264.33
710.31	8278.34
710.654	8245.35
710.998	8184.56
711.342	8224.56
711.687	8200.38
712.031	8209.42
712.375	8187.95
712.719	8138.23
713.063	8118.57
713.407	8105.69
713.75	8041.96
714.094	8017.56
714.438	8107.72
714.782	8044.68
715.125	7997.9
715.469	8013.72
715.812	8011.23
716.156	7881.29
716.499	7969.88
716.843	7973.94
717.186	7929.2
717.53	7943.66
717.873	7968.07
718.216	7905.24
718.559	7814.85
718.902	7878.35
719.246	7869.54
719.589	7839.94
719.932	7763.1
720.275	7814.4
720.617	7783.89
720.96	7755.42
721.303	7756.32
721.646	7760.62
721.989	7715.42
722.331	7742.31
722.674	7715.42
723.016	7706.61
723.359	7704.8
723.701	7710.22
724.044	7696.66
724.386	7620.05
724.729	7682.65
725.071	7670
725.413	7683.56
725.755	7650.11
726.097	7670
726.439	7575.76
726.782	7622.09
727.124	7697.34
727.465	7621.64
727.807	7623.44
728.149	7655.08
728.491	7625.25
728.833	7581.64
729.175	7572.15
729.516	7528.76
729.858	7524.46
730.199	7589.55
730.541	7537.34
730.882	7536.67
731.224	7575.31
731.565	7504.12
731.906	7586.61
732.248	7600.39
732.589	7510
732.93	7573.05
733.271	7524.01
733.612	7567.4
733.953	7540.51
734.294	7486.05
734.635	7495.76
734.976	7560.39
735.317	7535.76
735.658	7500.28
735.999	7586.83
736.339	7534.63
736.68	7576.21
737.021	7565.82
737.361	7516.1
737.702	7592.03
738.042	7543.9
738.383	7550.23
738.723	7603.78
739.063	7556.78
739.404	7561.75
739.744	7582.54
740.084	7609.88
740.424	7582.31
740.764	7690.79
741.104	7642.43
741.444	7634.29
741.784	7597.68
742.124	7630
742.464	7677.23
742.804	7661.86
743.143	7655.99
743.483	7713.16
743.823	7672.48
744.162	7620.28
744.502	7766.04
744.841	7749.54
745.181	7811.01
745.52	7770.56
745.86	7894.4
746.199	7896.43
746.538	7915.64
746.877	7940.05
747.216	8048.29
747.556	8036.31
747.895	8045.35
748.234	8055.75
748.573	8102.08
748.911	8166.71
749.25	8240.38
749.589	8229.76
749.928	8281.51
750.267	8403.54
750.605	8378.9
750.944	8475.62
751.283	8551.1
751.621	8620.03
751.96	8664.32
752.298	8715.62
752.636	8879.91
752.975	8894.37
753.313	8942.96
753.651	9127.58
753.989	9179.56
754.327	9250.07
754.666	9372.1
755.004	9497.74
755.342	9591.3
755.679	9721.24
756.017	9794.46
756.355	9941.35
756.693	9975.7
757.031	10184.96
757.368	10325.75
757.706	10456.82
758.044	10545.4
758.381	10759.41
758.719	10970.02
759.056	10990.81
759.394	11111.04
759.731	11178.6
760.068	11444.81
760.405	11529.33
760.743	11697.01
761.08	11841.19
761.417	11943.78
761.754	12121.18
762.091	12276.43
762.428	12393.94
762.765	12445.46
763.102	12759.81
763.438	12865.57
763.775	12993.92
764.112	13228.27
764.449	13385.55
764.785	13396.63
765.122	13546.23
765.458	13688.59
765.795	13882.04
766.131	14027.57
766.467	14136.04
766.804	14187.34
767.14	14378.75
767.476	14550.49
767.812	14641.79
768.148	14828.23
768.485	14867.55
768.821	14934.89
769.157	15125.85
769.492	15292.39
769.828	15429.79
770.164	15401.54
770.5	15636.11
770.836	15676.79
771.171	15702.55
771.507	15922.66
771.842	15890.57
772.178	15982.55
772.513	16086.27
772.849	16188.87
773.184	16405.59
773.519	16368.52
773.855	16381.18
774.19	16512.93
774.525	16505.02
774.86	16672.7
775.195	16614.62
775.53	16677.89
775.865	16750.66
776.2	16701.85
776.535	16793.15
776.87	16838.12
777.205	16895.97
777.539	16916.76
777.874	16991.11
778.209	16953.59
778.543	17018.9
778.878	17049.18
779.212	16977.32
779.547	17074.27
779.881	17150.42
780.215	17190.2
780.55	17258.44
780.884	17185
781.218	17231.55
781.552	17233.36
781.886	17209.18
782.22	17168.96
782.554	17172.12
782.888	17097.77
783.222	17147.04
783.556	16998.56
783.889	17119.69
784.223	17102.74
784.557	17101.39
784.89	17161.05
785.224	17140.26
785.557	17006.93
785.891	17067.72
786.224	17125.34
786.558	17075.17
786.891	16920.6
787.224	16917.21
787.557	16952.01
787.891	17043.53
788.224	16996.98
788.557	17019.58
788.89	16994.72
789.223	16998.34
789.556	16957.21
789.888	16857.33
790.221	16863.65
790.554	16780.94
790.887	16809.64
791.219	16756.54
791.552	16681.28
791.884	16661.62
792.217	16629.08
792.549	16633.83
792.882	16543.89
793.214	16498.01
793.546	16593.6
793.879	16429.09
794.211	16490.33
794.543	16503.44
794.875	16512.02
795.207	16509.99
795.539	16441.52
795.871	16438.35
796.203	16266.38
796.535	16260.5
796.867	16189.55
797.198	16237.91
797.53	16250.56
797.862	16031.36
798.193	16103.9
798.525	16096.89
798.856	16055.99
799.188	15957.91
799.519	15964.47
799.85	15805.38
800.182	15859.39
800.513	15907.07
800.844	15808.54
801.175	15910.68
801.506	15795.43
801.837	15739.61
802.168	15724.25
802.499	15631.59
802.83	15569.9
803.161	15633.63
803.491	15580.75
803.822	15599.96
804.153	15445.84
804.483	15423.92
804.814	15271.15
805.145	15345.27
805.475	15364.48
805.805	15290.59
806.136	15281.77
806.466	15356.57
806.796	15239.51
807.126	15140.31
807.457	15183.47
807.787	15131.04
808.117	15114.77
808.447	15062.57
808.777	15065.51
809.107	14948.22
809.436	15001.1
809.766	14954.1
810.096	14955.91
810.426	14821.22
810.755	14843.82
811.085	14849.69
811.414	14787.32
811.744	14592.3
812.073	14668.46
812.403	14691.96
812.732	14605.63
813.061	14658.29
813.39	14576.71
813.719	14574
814.049	14547.56
814.378	14541.23
814.707	14435.92
815.036	14401.57
815.365	14432.08
815.693	14357.96
816.022	14303.49
816.351	14333.55
816.68	14243.38
817.008	14225.53
817.337	14193.67
817.665	14153.89
817.994	14241.12
818.322	14216.72
818.651	14130.39
818.979	14084.97
819.307	14161.58
819.636	14062.14
819.964	13929.49
820.292	14086.32
820.62	14054.01
820.948	13969.49
821.276	14015.59
821.604	13943.96
821.932	14028.47
822.259	13950.96
822.587	13936.72
822.915	13982.82
823.243	13963.16
823.57	14018.76
823.898	13891.08
824.225	13854.92
824.553	13868.48
824.88	13972.66
825.207	14005.87
825.535	13964.07
825.862	13994.35
826.189	13913.67
826.516	14058.08
826.843	14069.83
827.17	14109.15
827.497	14146.89
827.824	14072.99
828.151	14058.75
828.478	14028.47
828.805	14079.09
829.131	14037.51
829.458	14008.81
829.785	13931.98
830.111	14078.42
830.438	14073.44
830.764	14072.31
831.09	14046.33
831.417	13987.34
831.743	13971.98
832.069	13918.65
832.395	13992.54
832.722	14006.33
833.048	13996.61
833.374	13983.5
833.7	13897.18
834.026	13955.48
834.351	13949.83
834.677	13975.59
835.003	13950.96
835.329	13904.63
835.654	13866.44
835.98	13793
836.306	13812.21
836.631	13804.75
836.956	13837.29
837.282	13826.9
837.607	13816.28
837.932	13703.96
838.258	13789.16
838.583	13742.83
838.908	13601.14
839.233	13686.34
839.558	13656.05
839.883	13622.38
840.208	13573.34
840.533	13477.75
840.858	13624.42
841.182	13576.73
841.507	13527.7
841.832	13463.52
842.156	13409.51
842.481	13404.99
842.805	13380.81
843.13	13325.21
843.454	13364.54
843.778	13304.42
844.103	13268.04
844.427	13202.73
844.751	13223.97
845.075	13204.77
845.399	13147.14
845.723	13010.65
846.047	13093.81
846.371	12941.95
846.695	12974.72
847.019	12824.66
847.343	12805.23
847.666	12813.14
847.99	12724.1
848.313	12699.69
848.637	12578.57
848.96	12584.67
849.284	12628.06
849.607	12524.78
849.931	12453.15
850.254	12355.3
850.577	12355.75
850.9	12179.26
851.223	12222.42
851.546	12108.3
851.869	12045.47
852.192	12166.6
852.515	12088.41
852.838	12019.26
853.161	11977
853.483	11969.54
853.806	11892.03
854.129	11875.31
854.451	11784.46
854.774	11741.98
855.096	11678.7
855.419	11687.74
855.741	11691.13
856.063	11635.77
856.385	11579.27
856.708	11479.61
857.03	11560.52
857.352	11481.65
857.674	11386.06
857.996	11374.31
858.318	11387.86
858.64	11349.22
858.961	11316.91
859.283	11278.71
859.605	11191.71
859.926	11258.6
860.248	11177.02
860.57	11215.67
860.891	11175.67
861.212	11087.31
861.534	11110.58
861.855	11116.23
862.176	11011.83
862.498	11055.22
862.819	11005.73
863.14	10978.84
863.461	10955.33
863.782	10897.03
864.103	10919.85
864.424	10918.72
864.745	10934.99
865.065	10898.39
865.386	10807.31
865.707	10786.52
866.027	10806.18
866.348	10790.14
866.668	10852.51
866.989	10791.72
867.309	10668.79
867.63	10725.28
867.95	10728.67
868.27	10612.97
868.59	10626.98
868.91	10670.37
869.23	10618.17
869.55	10482.8
869.87	10580.43
870.19	10591.95
870.51	10648.45
870.83	10535.68
871.15	10527.55
871.469	10514.22
871.789	10520.54
872.109	10456.59
872.428	10406.87
872.748	10432.18
873.067	10469.47
873.386	10489.81
873.706	10404.39
874.025	10372.3
874.344	10354.9
874.663	10402.35
874.982	10323.71
875.301	10318.29
875.62	10265.86
875.939	10219.99
876.258	10306.99
876.577	10235.35
876.896	10221.34
877.214	10201.91
877.533	10244.62
877.852	10153.55
878.17	10201.68
878.489	10135.02
878.807	10109.03
879.125	10144.96
879.444	10060.22
879.762	10020.89
880.08	10042.59
880.398	10000.56
880.716	9996.94
881.034	10036.49
881.352	9984.29
881.67	9938.19
881.988	9926.43
882.306	9894.57
882.624	9863.38
882.941	9811.18
883.259	9857.06
883.577	9746.55
883.894	9749.04
884.212	9803.05
884.529	9759.66
884.846	9719.21
885.164	9739.32
885.481	9664.75
885.798	9667.01
886.115	9624.07
886.432	9624.07
886.75	9580
887.067	9602.37
887.383	9554.69
887.7	9529.38
888.017	9481.25
888.334	9511.3
888.651	9489.16
888.967	9478.08
889.284	9417.97
889.6	9350.63
889.917	9303.85
890.233	9330.07
890.55	9305.43
890.866	9299.11
891.182	9238.09
891.498	9186.34
891.815	9242.84
892.131	9166.45
892.447	9125.78
892.763	9115.61
893.079	9064.31
893.395	9043.07
893.71	9034.71
894.026	9028.6
894.342	8952.9
894.657	8928.27
894.973	8921.49
895.289	8919.68
895.604	8847.82
895.92	8829.29
896.235	8716.97
896.55	8740.02
896.865	8831.32
897.181	8710.19
897.496	8709.97
897.811	8656.86
898.126	8626.13
898.441	8560.14
898.756	8535.28
899.071	8525.79
899.386	8511.56
899.7	8391.11
900.015	8358.34
900.33	8327.15
900.644	8385.46
900.959	8381.84
901.273	8291.67
901.588	8209.87
901.902	8158.57
902.216	8233.82
902.531	8164.9
902.845	8207.38
903.159	8098.69
903.473	8058.46
903.787	8087.39
904.101	7987.73
904.415	8028.18
904.729	7879.26
905.042	7874.28
905.356	7876.32
905.67	7860.27
905.984	7806.04
906.297	7844.23
906.611	7759.49
906.924	7759.26
907.237	7744.12
907.551	7689.66
907.864	7638.81
908.177	7687.85
908.491	7625.93
908.804	7585.03
909.117	7534.86
909.43	7505.25
909.743	7466.61
910.056	7427.29
910.368	7457.8
910.681	7348.42
910.994	7320.85
911.307	7312.49
911.619	7300.51
911.932	7310.23
912.244	7233.85
912.557	7199.05
912.869	7161.99
913.181	7130.8
913.494	7078.37
913.806	7080.86
914.118	7029.79
914.43	7009.45
914.742	6980.07
915.054	6935.33
915.366	6949.11
915.678	6914.76
915.99	6853.52
916.302	6861.43
916.613	6823.92
916.925	6796.35
917.236	6814.43
917.548	6747.76
917.859	6685.84
918.171	6717.48
918.482	6672.51
918.794	6587.31
919.105	6628.22
919.416	6562
919.727	6600.19
920.038	6530.14
920.349	6493.08
920.66	6489.24
920.971	6430.48
921.282	6433.19
921.593	6405.4
921.903	6403.59
922.214	6333.31
922.525	6346.42
922.835	6328.56
923.146	6334.89
923.456	6228.68
923.767	6190.03
924.077	6202.01
924.387	6199.98
924.697	6115.01
925.008	6118.17
925.318	6080.21
925.628	6111.62
925.938	6052.64
926.248	6025.07
926.558	5948.23
926.867	6002.24
927.177	5930.61
927.487	5894.9
927.796	5856.94
928.106	5878.63
928.416	5778.75
928.725	5811.74
929.034	5804.28
929.344	5784.17
929.653	5749.14
929.962	5685.64
930.271	5724.96
930.581	5701.01
930.89	5640.22
931.199	5616.49
931.508	5599.99
931.817	5618.75
932.125	5518.64
932.434	5521.13
932.743	5495.14
933.051	5511.86
933.36	5457.4
933.669	5439.32
933.977	5395.71
934.286	5397.51
934.594	5426.21
934.902	5327.46
935.21	5298.98
935.519	5328.81
935.827	5283.39
936.135	5299.44
936.443	5262.6
936.751	5239.1
937.059	5203.62
937.367	5139.67
937.674	5176.73
937.982	5176.05
938.29	5113.45
938.597	5182.6
938.905	5019.44
939.213	5020.8
939.52	5029.84
939.827	5047.24
940.135	4964.53
940.442	4934.93
940.749	4962.27
941.056	4942.16
941.363	4896.28
941.67	4875.49
941.977	4882.27
942.284	4849.51
942.591	4792.56
942.898	4856.51
943.205	4841.37
943.511	4771.09
943.818	4763.41
944.125	4679.79
944.431	4665.78
944.738	4657.19
945.044	4648.61
945.35	4648.61
945.657	4612.22
945.963	4616.97
946.269	4570.87
946.575	4595.05
946.881	4563.41
947.187	4564.99
947.493	4525.22
947.799	4482.51
948.105	4437.76
948.41	4456.97
948.716	4437.31
949.022	4416.97
949.327	4433.7
949.633	4320.93
949.938	4326.81
950.244	4333.36
950.549	4299.24
950.854	4280.93
951.16	4311.44
951.465	4256.3
951.77	4257.2
952.075	4229.63
952.38	4186.47
952.685	4192.57
952.99	4119.35
953.294	4160.94
953.599	4107.38
953.904	4114.84
954.209	4068.06
954.513	4064.22
954.818	4058.57
955.122	4091.33
955.426	4015.4
955.731	3999.58
956.035	4017.89
956.339	3981.73
956.643	3959.13
956.948	3930.43
957.252	3931.34
957.556	3951
957.86	3900.83
958.163	3899.25
958.467	3857.89
958.771	3857.21
959.075	3814.5
959.378	3789.42
959.682	3792.13
959.985	3775.18
960.289	3776.09
960.592	3769.99
960.896	3727.27
961.199	3664.9
961.502	3691.12
961.805	3692.47
962.108	3662.42
962.411	3641.4
962.714	3643.66
963.017	3640.95
963.32	3644.57
963.623	3569.09
963.926	3598.92
964.228	3577
964.531	3541.52
964.833	3510.56
965.136	3522.31
965.438	3526.15
965.741	3474.17
966.043	3445.25
966.345	3421.07
966.648	3440.05
966.95	3397.34
967.252	3397.57
967.554	3405.25
967.856	3388.53
968.158	3387.4
968.46	3380.39
968.761	3329.55
969.063	3295.87
969.365	3286.83
969.666	3285.25
969.968	3241.64
970.269	3267.4
970.571	3214.97
970.872	3243.22
971.174	3228.53
971.475	3223.33
971.776	3170.23
972.077	3177.46
972.378	3139.27
972.679	3194.86
972.98	3150.57
973.281	3103.56
973.582	3140.4
973.883	3097.01
974.183	3088.42
974.484	3062.89
974.785	3051.13
975.085	3027.86
975.386	3040.74
975.686	3022.66
975.986	3006.16
976.287	3019.27
976.587	2956
976.887	2949.22
977.187	2960.29
977.487	2976.11
977.787	2932.04
978.087	2916.9
978.387	2895.21
978.687	2933.85
978.987	2905.83
979.286	2859.95
979.586	2832.38
979.885	2857.92
980.185	2824.25
980.484	2781.76
980.784	2823.8
981.083	2783.12
981.382	2764.59
981.682	2803.23
981.981	2743.57
982.28	2731.37
982.579	2730.46
982.878	2753.29
983.177	2720.3
983.475	2659.96
983.774	2663.35
984.073	2633.52
984.372	2628.32
984.67	2634.65
984.969	2623.35
985.267	2622.45
985.566	2567.98
985.864	2573.63
986.162	2579.28
986.461	2550.13
986.759	2556.01
987.057	2575.89
987.355	2504.26
987.653	2534.76
987.951	2528.44
988.249	2477.59
988.547	2494.31
988.844	2471.71
989.142	2468.78
989.44	2418.38
989.737	2422.45
990.035	2446.63
990.332	2421.77
990.63	2404.6
990.927	2397.82
991.224	2396.69
991.521	2380.87
991.819	2347.65
992.116	2365.5
992.413	2344.03
992.71	2325.28
993.006	2348.78
993.303	2300.65
993.6	2292.74
993.897	2252.06
994.193	2273.98
994.49	2269.46
994.787	2265.39
995.083	2245.28
995.379	2208.22
995.676	2227.65
995.972	2223.36
996.268	2199.86
996.565	2160.08
996.861	2210.93
997.157	2175.68
997.453	2168.22
997.749	2137.71
998.044	2124.15
998.34	2123.48
998.636	2102.68
998.932	2092.97
999.227	2080.31
999.523	2068.79
999.818	2064.27
1000.114	2045.29
1000.409	2064.27
1000.704	2038.51
1001	2019.3
1001.295	2016.59
1001.59	1975
1001.885	1985.4
1002.18	1972.29
1002.475	1977.26
1002.77	1977.72
1003.065	1914.44
1003.359	1937.04
1003.654	1913.54
1003.949	1927.77
1004.243	1930.03
1004.538	1923.25
1004.832	1911.96
1005.127	1880.09
1005.421	1882.13
1005.715	1819.98
1006.009	1841
1006.304	1837.61
1006.598	1823.6
1006.892	1804.39
1007.186	1768.23
1007.48	1768.91
1007.773	1756.25
1008.067	1758.06
1008.361	1751.96
1008.655	1730.72
1008.948	1738.4
1009.242	1716.71
1009.535	1716.71
1009.829	1729.81
1010.122	1700.44
1010.415	1711.51
1010.708	1686.2
1011.001	1654.56
1011.295	1670.15
1011.588	1644.62
1011.881	1651.62
1012.173	1636.93
1012.466	1582.25
1012.759	1596.71
1013.052	1613.66
1013.344	1623.15
1013.637	1597.16
1013.93	1615.47
1014.222	1555.13
1014.514	1560.1
1014.807	1561.46
1015.099	1554.68
1015.391	1520.33
1015.683	1511.51
1015.976	1532.76
1016.268	1534.56
1016.56	1515.58
1016.851	1478.75
1017.143	1456.15
1017.435	1503.15
1017.727	1447.11
1018.018	1466.77
1018.31	1460.22
1018.602	1433.1
1018.893	1406.66
1019.185	1404.62
1019.476	1412.31
1019.767	1400.1
1020.058	1374.57
1020.35	1400.78
1020.641	1387.45
1020.932	1367.34
1021.223	1344.96
1021.514	1345.64
1021.804	1308.13
1022.095	1315.59
1022.386	1318.3
1022.677	1314.68
1022.967	1305.42
1023.258	1283.5
1023.548	1294.34
1023.839	1270.84
1024.129	1257.51
1024.419	1244.63
1024.709	1280.56
1025	1231.3
1025.29	1227.68
1025.58	1235.81
1025.87	1207.34
1026.16	1212.09
1026.449	1208.92
1026.739	1217.96
1027.029	1199.66
1027.319	1169.38
1027.608	1167.34
1027.898	1167.79
1028.187	1160.34
1028.477	1130.06
1028.766	1173.67
1029.055	1138.42
1029.344	1130.73
1029.634	1121.92
1029.923	1127.8
1030.212	1112.2
1030.501	1073.33
1030.79	1097.51
1031.078	1093.67
1031.367	1072.2
1031.656	1062.03
1031.945	1050.96
1032.233	1081.24
1032.522	1034.92
1032.81	1041.7
1033.099	1040.79
1033.387	1045.76
1033.675	1022.26
1033.963	1027.01
1034.251	1023.62
1034.54	992.66
1034.828	1030.85
1035.116	992.21
1035.403	1001.02
1035.691	981.13
1035.979	990.17
1036.267	945.43
1036.554	963.28
1036.842	956.27
1037.129	939.78
1037.417	927.57
1037.704	924.64
1037.992	932.32
1038.279	948.59
1038.566	904.98
1038.853	904.98
1039.14	904.98
