Data from hue_290_FLMS001491_00054.txt Node
Date: Tue Feb 07 15:52:55 GMT 2017
User: dcchb
Spectrometer: FLMS00149
Trigger mode: 0
Integration Time (sec): 2.000000E-2
Scans to average: 10
Electric dark correction enabled: true
Nonlinearity correction enabled: false
Boxcar width: 0
XAxis mode: Wavelengths
Number of Pixels in Spectrum: 2048
>>>>>Begin Spectral Data<<<<<
341.393	-7.17
341.776	-7.17
342.16	-7.17
342.543	-54.18
342.927	-86.04
343.31	-68.19
343.693	-73.61
344.077	-77.23
344.46	-56.89
344.843	-37
345.226	-43.78
345.61	-43.56
345.993	-4.01
346.376	-5.14
346.759	3.9
347.142	25.82
347.525	54.74
347.908	47.06
348.291	69.43
348.674	99.94
349.057	108.53
349.44	122.54
349.823	129.54
350.206	154.85
350.588	175.87
350.971	206.38
351.354	235.53
351.737	217.23
352.119	233.04
352.502	283.89
352.884	264.23
353.267	284.12
353.65	287.28
354.032	306.04
354.414	299.48
354.797	303.33
355.179	308.07
355.562	331.12
355.944	337.67
356.326	330.9
356.709	315.08
357.091	315.75
357.473	346.94
357.855	344.45
358.238	333.16
358.62	306.04
359.002	318.47
359.384	331.57
359.766	324.57
360.148	339.03
360.53	324.79
360.912	322.53
361.294	308.97
361.676	337.45
362.057	314.17
362.439	332.7
362.821	313.04
363.203	334.96
363.584	314.17
363.966	325.25
364.348	323.89
364.729	321.86
365.111	307.39
365.493	306.49
365.874	304.23
366.256	303.55
366.637	296.55
367.019	315.53
367.4	313.72
367.781	311.01
368.163	290.44
368.544	296.09
368.925	299.48
369.306	313.72
369.688	313.27
370.069	319.37
370.45	319.14
370.831	316.43
371.212	316.66
371.593	315.75
371.974	312.59
372.355	306.26
372.736	317.34
373.117	304
373.498	304.68
373.879	302.42
374.26	301.29
374.641	318.24
375.021	294.51
375.402	321.18
375.783	304.23
376.163	306.72
376.544	321.4
376.925	322.08
377.305	321.86
377.686	322.31
378.066	332.03
378.447	313.95
378.827	335.64
379.208	337.9
379.588	341.97
379.968	309.2
380.349	325.47
380.729	343.78
381.109	345.36
381.489	343.32
381.87	311.46
382.25	332.03
382.63	351.91
383.01	318.92
383.39	345.81
383.77	332.03
384.15	335.19
384.53	337.45
384.91	344
385.29	334.51
385.67	339.48
386.049	337
386.429	354.17
386.809	350.78
387.189	328.64
387.568	321.18
387.948	349.65
388.328	366.6
388.707	364.79
389.087	367.73
389.466	364.11
389.846	357.11
390.225	367.96
390.605	356.66
390.984	353.72
391.363	381.52
391.743	397.79
392.122	354.62
392.501	360.5
392.881	365.7
393.26	362.53
393.639	348.52
394.018	387.84
394.397	393.72
394.776	371.57
395.155	374.06
395.534	388.29
395.913	393.49
396.292	383.32
396.671	387.62
397.05	385.13
397.429	405.24
397.808	392.36
398.186	374.06
398.565	380.61
398.944	409.54
399.323	409.99
399.701	398.92
400.08	399.37
400.458	400.27
400.837	414.96
401.215	426.49
401.594	415.86
401.972	400.95
402.351	425.13
402.729	440.5
403.107	424.68
403.486	434.4
403.864	425.13
404.242	457.9
404.62	449.31
404.999	431.23
405.377	456.54
405.755	449.76
406.133	436.2
406.511	455.64
406.889	462.42
407.267	449.54
407.645	481.4
408.023	492.25
408.401	482.3
408.779	487.28
409.156	480.95
409.534	474.85
409.912	510.33
410.29	503.77
410.667	505.58
411.045	521.62
411.422	538.8
411.8	522.98
412.178	579.25
412.555	528.86
412.933	554.84
413.31	553.26
413.687	587.39
414.065	602.3
414.442	565.69
414.819	600.04
415.197	603.66
415.574	601.17
415.951	617.67
416.328	588.29
416.705	602.98
417.082	641.17
417.46	652.02
417.837	640.49
418.214	677.78
418.591	668.97
418.967	656.99
419.344	660.6
419.721	665.35
420.098	696.54
420.475	694.28
420.852	712.58
421.228	713.71
421.605	741.73
421.982	754.39
422.358	733.37
422.735	767.04
423.111	759.58
423.488	775.86
423.864	764.33
424.241	788.06
424.617	813.82
424.994	791.67
425.37	816.53
425.746	796.19
426.123	833.71
426.499	840.03
426.875	820.37
427.251	855.18
427.627	882.97
428.003	867.6
428.379	879.58
428.756	896.3
429.132	904.89
429.507	934.04
429.883	903.76
430.259	947.83
430.635	952.8
431.011	953.48
431.387	964.55
431.763	980.14
432.138	983.31
432.514	1001.39
432.89	1030.76
433.265	1047.71
433.641	1051.1
434.016	1051.1
434.392	1068.28
434.767	1083.64
435.143	1103.3
435.518	1107.37
435.894	1143.3
436.269	1149.4
436.644	1138.33
437.02	1177.88
437.395	1153.47
437.77	1177.43
438.145	1195.51
438.52	1220.14
438.895	1214.49
439.271	1211.55
439.646	1214.26
440.021	1258.33
440.395	1277.99
440.77	1246.58
441.145	1272.11
441.52	1320.25
441.895	1284.77
442.27	1324.09
442.645	1305.33
443.019	1331.32
443.394	1333.81
443.769	1364.99
444.143	1306.46
444.518	1333.13
444.892	1343.75
445.267	1366.8
445.641	1367.48
446.016	1398.44
446.39	1393.24
446.764	1402.51
447.139	1398.21
447.513	1401.15
447.887	1381.94
448.262	1414.03
448.636	1417.65
449.01	1427.82
449.384	1421.94
449.758	1462.16
450.132	1430.08
450.506	1456.52
450.88	1469.17
451.254	1467.81
451.628	1460.36
452.002	1485.89
452.376	1473.24
452.75	1515.95
453.123	1512.11
453.497	1519.11
453.871	1521.6
454.244	1548.72
454.618	1600.01
454.992	1590.52
455.365	1559.79
455.739	1614.03
456.112	1628.49
456.486	1634.59
456.859	1651.54
457.232	1629.39
457.606	1651.54
457.979	1685.89
458.352	1701.03
458.725	1710.75
459.099	1716.17
459.472	1769.5
459.845	1760.46
460.218	1758.88
460.591	1788.26
460.964	1767.92
461.337	1798.2
461.71	1836.39
462.083	1839.56
462.456	1857.41
462.829	1831.19
463.201	1895.6
463.574	1893.79
463.947	1903.96
464.32	1931.98
464.692	1918.2
465.065	1952.77
465.438	1971.76
465.81	1995.94
466.183	1976.28
466.555	2041.58
466.928	2080.68
467.3	2049.95
467.672	2082.26
468.045	2125.88
468.417	2097.18
468.789	2116.16
469.161	2130.17
469.534	2161.58
469.906	2184.41
470.278	2193.45
470.65	2195.93
471.022	2263.95
471.394	2324.29
471.766	2293.33
472.138	2300.33
472.51	2335.36
472.882	2376.72
473.253	2383.5
473.625	2433.21
473.997	2441.8
474.369	2449.94
474.74	2503.95
475.112	2517.05
475.484	2553.44
475.855	2582.36
476.227	2602.7
476.598	2617.39
476.97	2637.5
477.341	2725.86
477.713	2747.55
478.084	2737.39
478.455	2783.03
478.827	2809.7
479.198	2874.33
479.569	2846.08
479.94	2944.61
480.311	2941
480.682	3001.11
481.053	3053.54
481.424	3089.01
481.795	3096.02
482.166	3132.86
482.537	3173.98
482.908	3213.98
483.279	3208.11
483.65	3244.94
484.021	3285.85
484.391	3318.84
484.762	3386.18
485.133	3358.84
485.503	3373.08
485.874	3455.56
486.244	3479.06
486.615	3516.35
486.985	3546.18
487.356	3593.41
487.726	3646.06
488.097	3661.88
488.467	3681.77
488.837	3735.33
489.207	3722.22
489.578	3787.08
489.948	3827.98
490.318	3883.34
490.688	3864.14
491.058	3936.9
491.428	3976.9
491.798	3991.14
492.168	4058.48
492.538	4058.93
492.908	4080.4
493.278	4154.98
493.648	4152.04
494.017	4147.74
494.387	4172.38
494.757	4219.83
495.126	4287.85
495.496	4275.88
495.866	4297.12
496.235	4332.82
496.605	4336.21
496.974	4369.21
497.344	4404.46
497.713	4458.02
498.082	4447.62
498.452	4511.58
498.821	4465.02
499.19	4481.07
499.559	4486.04
499.928	4535.3
500.298	4590.44
500.667	4627.73
501.036	4599.26
501.405	4624.12
501.774	4622.08
502.143	4604.46
502.512	4683.32
502.88	4754.06
503.249	4721.51
503.618	4745.02
503.987	4753.6
504.356	4735.75
504.724	4813.94
505.093	4775.52
505.462	4802.64
505.83	4800.83
506.199	4832.02
506.567	4857.56
506.936	4872.7
507.304	4933.49
507.672	4948.63
508.041	4968.06
508.409	4989.53
508.777	5008.74
509.145	5023.65
509.514	5039.47
509.882	5045.8
510.25	5084.22
510.618	5060.49
510.986	5065.01
511.354	5112.46
511.722	5119.92
512.09	5175.74
512.458	5116.76
512.826	5169.19
513.193	5205.8
513.561	5218.68
513.929	5215.51
514.297	5246.25
514.664	5281.27
515.032	5272.46
515.4	5310.2
515.767	5280.37
516.135	5314.04
516.502	5286.47
516.869	5373.25
517.237	5312.23
517.604	5337.77
517.972	5332.57
518.339	5431.55
518.706	5421.83
519.073	5467.94
519.44	5464.77
519.808	5461.16
520.175	5482.17
520.542	5519.01
520.909	5514.71
521.276	5513.58
521.643	5556.07
522.009	5588.16
522.376	5566.46
522.743	5640.59
523.11	5685.1
523.477	5712.45
523.843	5686.91
524.21	5764.2
524.577	5793.8
524.943	5804.65
525.31	5777.31
525.676	5808.27
526.043	5830.64
526.409	5940.01
526.776	5955.38
527.142	5895.95
527.508	5956.06
527.874	5998.32
528.241	6059.56
528.607	6038.99
528.973	6064.98
529.339	6101.59
529.705	6104.98
530.071	6117.41
530.437	6177.75
530.803	6194.02
531.169	6209.16
531.535	6223.4
531.901	6238.08
532.267	6293.9
532.632	6248.25
532.998	6298.2
533.364	6287.12
533.73	6319.21
534.095	6339.78
534.461	6387.01
534.826	6413
535.192	6458.19
535.557	6476.72
535.923	6463.84
536.288	6471.98
536.653	6520.56
537.019	6477.63
537.384	6490.06
537.749	6532.99
538.114	6588.13
538.479	6596.49
538.845	6624.74
539.21	6609.83
539.575	6662.25
539.94	6658.41
540.305	6706.77
540.67	6641.92
541.034	6733.66
541.399	6756.26
541.764	6740.9
542.129	6758.97
542.494	6739.09
542.858	6793.55
543.223	6799.2
543.587	6821.12
543.952	6815.24
544.316	6821.57
544.681	6926.2
545.045	6840.1
545.41	6940.66
545.774	7011.4
546.138	7020.44
546.503	7053.88
546.867	7026.54
547.231	6979.99
547.595	7053.43
547.959	7042.58
548.324	7099.08
548.688	7078.06
549.052	7115.8
549.416	7125.74
549.779	7157.16
550.143	7089.36
550.507	7189.25
550.871	7226.99
551.235	7199.19
551.599	7216.59
551.962	7218.62
552.326	7254.1
552.689	7322.35
553.053	7257.94
553.417	7306.08
553.78	7379.75
554.143	7308.56
554.507	7429.01
554.87	7320.54
555.234	7444.83
555.597	7389.01
555.96	7448.9
556.323	7382.91
556.686	7442.12
557.05	7514.66
557.413	7544.94
557.776	7536.81
558.139	7581.78
558.502	7525.73
558.865	7526.64
559.228	7620.87
559.59	7604.83
559.953	7639.63
560.316	7729.57
560.679	7726.18
561.041	7717.59
561.404	7725.28
561.767	7744.71
562.129	7729.8
562.492	7870.36
562.854	7819.74
563.217	7787.87
563.579	7815.44
563.941	7912.84
564.304	7838.27
564.666	7913.07
565.028	7968.66
565.39	7986.29
565.753	8033.29
566.115	8022.44
566.477	8024.7
566.839	8066.74
567.201	8129.56
567.563	8117.13
567.925	8170.92
568.287	8172.5
568.648	8210.91
569.01	8189.67
569.372	8320.29
569.734	8254.98
570.095	8303.79
570.457	8405.94
570.819	8376.11
571.18	8403.9
571.542	8449.55
571.903	8542.88
572.265	8486.61
572.626	8513.05
572.987	8601.41
573.349	8594.18
573.71	8582.66
574.071	8627.85
574.432	8704.69
574.794	8818.58
575.155	8869.2
575.516	8840.5
575.877	8930.44
576.238	8886.83
576.599	8930.44
576.96	9045.24
577.32	9132.7
577.681	9133.83
578.042	9134.73
578.403	9224.67
578.763	9303.99
579.124	9387.83
579.485	9442.07
579.845	9404.33
580.206	9534.5
580.566	9634.61
580.927	9723.64
581.287	9835.5
581.648	9879.8
582.008	9901.27
582.368	10006.57
582.728	10163.18
583.089	10114.82
583.449	10249.73
583.809	10408.37
584.169	10516.62
584.529	10604.3
584.889	10758.87
585.249	10795.48
585.609	10862.82
585.969	10997.51
586.329	11055.59
586.688	11213.32
587.048	11375.8
587.408	11474.78
587.768	11578.28
588.127	11650.82
588.487	11821.44
588.846	11982.57
589.206	12134.2
589.565	12146.18
589.925	12356.57
590.284	12467.53
590.643	12559.95
591.003	12803.34
591.362	12997
591.721	13056.44
592.08	13216.66
592.44	13260.27
592.799	13481.28
593.158	13631.56
593.517	13768.51
593.876	13896.41
594.235	13931.89
594.593	14107.71
594.952	14224.54
595.311	14353.13
595.67	14513.12
596.029	14799.22
596.387	14860.91
596.746	15013.9
597.104	15054.12
597.463	15303.16
597.822	15338.86
598.18	15419.76
598.538	15648.91
598.897	15835.57
599.255	15724.84
599.613	16154.21
599.972	16170.93
600.33	16300.19
600.688	16339.74
601.046	16515.1
601.404	16705.61
601.762	16841.2
602.12	16980.85
602.478	17080.29
602.836	17153.73
603.194	17177.23
603.552	17298.81
603.91	17208.64
604.268	17531.8
604.625	17510.78
604.983	17717.78
605.341	17718.01
605.698	17924.78
606.056	18012.92
606.413	18027.38
606.771	18165.23
607.128	18208.17
607.485	18242.06
607.843	18303.53
608.2	18481.15
608.557	18574.94
608.914	18625.1
609.272	18717.53
609.629	18851.09
609.986	18866.45
610.343	18929.05
610.7	19101.02
611.057	19115.03
611.414	19300.79
611.771	19283.62
612.127	19418.75
612.484	19557.73
612.841	19618.07
613.198	19491.75
613.554	19547.79
613.911	19716.37
614.267	19911.4
614.624	19790.95
614.98	19860.55
615.337	20044.95
615.693	20156.59
616.05	20102.35
616.406	20325.85
616.762	20318.62
617.118	20281.33
617.475	20216.7
617.831	20361.78
618.187	20463.47
618.543	20515
618.899	20726.97
619.255	20623.7
619.611	20627.08
619.967	20809.23
620.323	20857.81
620.678	20731.49
621.034	20780.53
621.39	20793.86
621.746	20741.21
622.101	21129.44
622.457	20932.16
622.812	21012.61
623.168	21125.38
623.523	21188.43
623.879	21187.07
624.234	21011.03
624.589	21121.76
624.945	21264.81
625.3	21245.6
625.655	21202.21
626.01	21293.73
626.365	21370.57
626.72	21368.31
627.075	21352.26
627.43	21425.26
627.785	21356.56
628.14	21374.64
628.495	21324.02
628.85	21383
629.205	21287.63
629.559	21427.29
629.914	21331.7
630.269	21389.1
630.623	21263.68
630.978	21320.85
631.332	21455.99
631.687	21350.23
632.041	21295.54
632.396	21334.64
632.75	21293.73
633.104	21277.46
633.459	21215.54
633.813	21167.18
634.167	21251.48
634.521	21288.99
634.875	21342.77
635.229	21228.2
635.583	21145.94
635.937	21185.94
636.291	21205.6
636.645	21215.32
636.999	21121.76
637.352	21237.92
637.706	21087.41
638.06	21201.31
638.413	21206.96
638.767	21179.39
639.121	21180.74
639.474	21028.2
639.828	21136.45
640.181	21052.61
640.534	21041.09
640.888	21098.03
641.241	20938.71
641.594	21089.9
641.947	21079.28
642.301	20950.01
642.654	21025.94
643.007	21092.84
643.36	20985.72
643.713	20966.96
644.066	20994.98
644.419	20780.08
644.771	20844.93
645.124	20599.29
645.477	20589.12
645.83	20533.53
646.182	20381.89
646.535	20356.13
646.888	20434.77
647.24	20330.82
647.593	20423.25
647.945	20443.81
648.298	20389.12
648.65	20364.94
649.002	20307.55
649.355	20369.92
649.707	20362.01
650.059	20478.39
650.411	20729.91
650.763	20647.42
651.115	20969.22
651.467	20899.39
651.819	20890.81
652.171	20837.7
652.523	20691.72
652.875	20792.73
653.227	20697.37
653.578	20884.71
653.93	20871.15
654.282	20760.64
654.633	20712.28
654.985	20759.06
655.337	20762.45
655.688	20897.36
656.039	21006.74
656.391	20758.61
656.742	20804.93
657.094	20771.49
657.445	20796.8
657.796	20823.24
658.147	20852.39
658.498	20925.61
658.849	20864.82
659.2	20787.98
659.551	20852.84
659.902	21029.33
660.253	20880.41
660.604	20819.62
660.955	20713.18
661.306	20904.59
661.656	20921.09
662.007	20873.86
662.358	20859.62
662.708	20893.29
663.059	20924.48
663.409	20836.12
663.76	21020.75
664.11	20879.51
664.461	20960.86
664.811	20954.53
665.161	20890.35
665.511	20939.62
665.862	20860.75
666.212	20975.55
666.562	20932.61
666.912	20947.75
667.262	20865.72
667.612	20863.46
667.962	20790.92
668.312	20848.77
668.662	20966.74
669.011	20921.09
669.361	20938.26
669.711	20947.3
670.06	20789.57
670.41	20853.75
670.76	20891.03
671.109	20947.53
671.459	20778.04
671.808	20912.5
672.157	20953.4
672.507	20677.48
672.856	20769
673.205	20769
673.554	20834.76
673.904	20688.33
674.253	20789.57
674.602	20613.75
674.951	20437.71
675.3	20340.09
675.649	20718.38
675.998	20610.59
676.346	20611.49
676.695	20646.97
677.044	20620.31
677.393	20611.27
677.741	20659.17
678.09	20588.22
678.438	20512.96
678.787	20545.5
679.135	20516.13
679.484	20490.37
679.832	20524.04
680.181	20408.11
680.529	20343.02
680.877	20352.29
681.225	20307.09
681.573	20483.13
681.922	20263.93
682.27	20248.34
682.618	20198.85
682.966	20088.12
683.314	20143.71
683.661	20148.23
684.009	20114.33
684.357	19983.94
684.705	20022.13
685.053	19928.12
685.4	19923.83
685.748	19809.03
686.095	19879.76
686.443	19717.05
686.79	19700.33
687.138	19768.8
687.485	19759.08
687.832	19620.56
688.18	19606.55
688.527	19623.27
688.874	19477.51
689.221	19457.85
689.568	19452.2
689.915	19300.57
690.262	19292.43
690.609	19207.46
690.956	19289.04
691.303	19082.27
691.65	19145.54
691.997	19162.94
692.344	19033.45
692.69	18944.42
693.037	18956.62
693.383	18825.32
693.73	18959.78
694.077	18718.21
694.423	18655.84
694.769	18620.58
695.116	18689.51
695.462	18565.9
695.808	18556.18
696.155	18471.89
696.501	18407.26
696.847	18334.72
697.193	18240.48
697.539	18202.06
697.885	18108.28
698.231	18091.33
698.577	18108.51
698.923	18024.22
699.269	17920.72
699.614	17780.61
699.96	17756.65
700.306	17719.14
700.651	17689.08
700.997	17637.56
701.342	17601.63
701.688	17595.53
702.033	17458.35
702.379	17410.22
702.724	17419.26
703.069	17434.4
703.415	17111.47
703.76	17191.92
704.105	17202.54
704.45	17191.69
704.795	16971.14
705.14	16950.8
705.485	16975.66
705.83	16919.61
706.175	16930.91
706.52	16817.47
706.865	16835.32
707.209	16737.7
707.554	16755.1
707.899	16664.7
708.243	16621.99
708.588	16508.1
708.932	16406.63
709.277	16498.38
709.621	16448.44
709.966	16328.21
710.31	16369.57
710.654	16236.69
710.998	16252.51
711.342	16221.32
711.687	16073.98
712.031	16179.07
712.375	16090.93
712.719	16103.81
713.063	16005.29
713.407	16044.61
713.75	15889.58
714.094	15970.48
714.438	15914.21
714.782	15897.49
715.125	15804.16
715.469	15809.36
715.812	15721.45
716.156	15622.7
716.499	15592.64
716.843	15615.01
717.186	15673.99
717.53	15695.46
717.873	15614.79
718.216	15524.17
718.559	15506.09
718.902	15391.06
719.246	15463.83
719.589	15383.61
719.932	15392.65
720.275	15401.46
720.617	15403.95
720.96	15389.48
721.303	15349.94
721.646	15320.56
721.989	15222.26
722.331	15312.2
722.674	15269.94
723.016	15271.75
723.359	15221.8
723.701	15299.99
724.044	15155.36
724.386	15075.82
724.729	15156.27
725.071	15176.15
725.413	15172.09
725.755	15075.37
726.097	15135.7
726.439	14999.21
726.782	15056.84
727.124	15123.05
727.465	15000.79
727.807	15021.81
728.149	14982.04
728.491	14919.66
728.833	14980.23
729.175	14900
729.516	14872.21
729.858	14841.25
730.199	14928.7
730.541	14891.42
730.882	14871.3
731.224	14937.52
731.565	14847.58
731.906	14850.51
732.248	14836.5
732.589	14810.74
732.93	14711.76
733.271	14778.2
733.612	14758.09
733.953	14821.36
734.294	14805.32
734.635	14798.54
734.976	14813.23
735.317	14770.29
735.658	14767.8
735.999	14754.02
736.339	14674.7
736.68	14796.5
737.021	14765.54
737.361	14657.3
737.702	14790.18
738.042	14779.33
738.383	14761.7
738.723	14851.19
739.063	14693.68
739.404	14860
739.744	14759.89
740.084	14851.19
740.424	14812.55
740.764	14723.51
741.104	14829.95
741.444	14791.08
741.784	14752.89
742.124	14801.02
742.464	14818.88
742.804	14885.54
743.143	14865.88
743.483	14880.8
743.823	14838.54
744.162	15011.19
744.502	15063.16
744.841	14876.95
745.181	15091.41
745.52	15015.25
745.86	15131.64
746.199	15092.77
746.538	15087.57
746.877	15218.64
747.216	15242.82
747.556	15234.01
747.895	15314.23
748.234	15182.03
748.573	15335.47
748.911	15398.07
749.25	15419.54
749.589	15446.2
749.928	15607.78
750.267	15638.52
750.605	15675.58
750.944	15770.26
751.283	15841.22
751.621	15902.01
751.96	15930.03
752.298	16096.13
752.636	16153.76
752.975	16117.37
753.313	16206.18
753.651	16370.02
753.989	16412.51
754.327	16514.88
754.666	16527.76
755.004	16624.48
755.342	16861.08
755.679	16896.34
756.017	16897.24
756.355	17002.1
756.693	17168.42
757.031	17311.47
757.368	17291.58
757.706	17460.84
758.044	17423.78
758.381	17645.69
758.719	17705.35
759.056	17771.11
759.394	17968.85
759.731	17840.27
760.068	18017.89
760.405	18179.01
760.743	18215.17
761.08	18395.96
761.417	18477.08
761.754	18572.45
762.091	18608.15
762.428	18746
762.765	18697.64
763.102	18919.79
763.438	18893.12
763.775	19046.56
764.112	19004.53
764.449	19239.32
764.785	19275.03
765.122	19164.52
765.458	19263.28
765.795	19369.49
766.131	19464.18
766.467	19586.89
766.804	19491.3
767.14	19532.2
767.476	19644.96
767.812	19555.93
768.148	19740.55
768.485	19628.01
768.821	19768.58
769.157	19610.84
769.492	19796.6
769.828	19854.68
770.164	19796.82
770.5	19834.11
770.836	19872.53
771.171	19804.96
771.507	19814.68
771.842	19764.28
772.178	19882.92
772.513	19807.22
772.849	19856.03
773.184	19824.85
773.519	19928.35
773.855	19798.18
774.19	19850.38
774.525	19804.73
774.86	19851.74
775.195	19782.81
775.53	19746.2
775.865	19708.01
776.2	19565.64
776.535	19549.6
776.87	19666.66
777.205	19604.51
777.539	19507.79
777.874	19627.34
778.209	19483.39
778.543	19432.09
778.878	19456.49
779.212	19495.14
779.547	19349.15
779.881	19458.08
780.215	19294.24
780.55	19389.83
780.884	19281.58
781.218	19187.12
781.552	19188.7
781.886	19150.29
782.22	19056.73
782.554	19088.37
782.888	18960.91
783.222	18859.45
783.556	18784.2
783.889	18875.27
784.223	18705.55
784.557	18659.68
784.89	18840.69
785.224	18669.17
785.557	18653.35
785.891	18506.69
786.224	18418.78
786.558	18640.24
786.891	18318.22
787.224	18247.71
787.557	18307.37
787.891	18212.68
788.224	18292.91
788.557	18233.02
788.89	18188.73
789.223	18177.66
789.556	18077.77
789.888	17937.44
790.221	17918.46
790.554	17781.28
790.887	17801.4
791.219	17808.4
791.552	17769.98
791.884	17591.01
792.217	17634.85
792.549	17613.15
792.882	17442.54
793.214	17385.59
793.546	17461.52
793.879	17279.83
794.211	17279.38
794.543	17231.24
794.875	17189.21
795.207	17236.67
795.539	17128.87
795.871	17140.85
796.203	16976.56
796.535	16892.04
796.867	16935.66
797.198	16815.66
797.53	16773.85
797.862	16700.41
798.193	16741.99
798.525	16630.58
798.856	16708.54
799.188	16468.78
799.519	16441.43
799.85	16420.64
800.182	16387.87
800.513	16496.35
800.844	16256.8
801.175	16336.58
801.506	16263.36
801.837	16232.85
802.168	16175.45
802.499	16160.08
802.83	16060.2
803.161	15909.47
803.491	16033.53
803.822	16048.22
804.153	15932.52
804.483	15776.59
804.814	15744.73
805.145	15722.13
805.475	15660.89
805.805	15641.45
806.136	15701.11
806.466	15674.67
806.796	15601.45
807.126	15469.71
807.457	15385.19
807.787	15418.41
808.117	15369.14
808.447	15306.77
808.777	15323.95
809.107	15260.9
809.436	15244.4
809.766	15244.85
810.096	15115.37
810.426	15171.18
810.755	15108.59
811.085	15057.74
811.414	14984.3
811.744	14942.94
812.073	14887.8
812.403	14877.86
812.732	14808.93
813.061	14791.08
813.39	14714.7
813.719	14716.51
814.049	14711.99
814.378	14695.94
814.707	14718.31
815.036	14647.13
815.365	14631.08
815.693	14453.91
816.022	14426.12
816.351	14441.71
816.68	14353.35
817.008	14326.23
817.337	14340.7
817.665	14204.65
817.994	14297.53
818.322	14230.19
818.651	14143.87
818.979	14116.75
819.307	14246.69
819.636	14124.43
819.964	14139.8
820.292	14133.24
820.62	14119.69
820.948	13996.98
821.276	14103.41
821.604	14066.58
821.932	14080.36
822.259	14085.56
822.587	14028.16
822.915	14009.86
823.243	14041.04
823.57	13999.91
823.898	14017.77
824.225	13929.41
824.553	14036.3
824.88	14017.54
825.207	14022.74
825.535	13978.9
825.862	14026.81
826.189	13919.01
826.516	14116.75
826.843	14143.19
827.17	14025.68
827.497	13949.29
827.824	14069.29
828.151	13984.1
828.478	13973.25
828.805	14052.12
829.131	13931.89
829.458	13967.6
829.785	13867.49
830.111	13991.78
830.438	13982.97
830.764	14002.4
831.09	14030.87
831.417	13871.1
831.743	13913.81
832.069	13919.24
832.395	13847.83
832.722	13914.04
833.048	13874.49
833.374	13900.26
833.7	13791.11
834.026	13876.75
834.351	13862.52
834.677	13777.32
835.003	13844.66
835.329	13846.25
835.654	13813.25
835.98	13735.97
836.306	13778.23
836.631	13667.49
836.956	13799.02
837.282	13770.54
837.607	13650.55
837.932	13634.05
838.258	13549.53
838.583	13581.17
838.908	13506.82
839.233	13667.27
839.558	13460.04
839.883	13502.98
840.208	13482.87
840.533	13457.56
840.858	13408.29
841.182	13455.3
841.507	13438.35
841.832	13330.78
842.156	13415.07
842.481	13299.37
842.805	13291.91
843.13	13295.07
843.454	13260.27
843.778	13164.91
844.103	13159.48
844.427	13138.92
844.751	13153.16
845.075	13064.35
845.399	13070.22
845.723	12980.96
846.047	12988.64
846.371	12805.6
846.695	12868.19
847.019	12853.5
847.343	12701.87
847.666	12709.33
847.99	12643.34
848.313	12676.11
848.637	12610.8
848.96	12441.76
849.284	12488.54
849.607	12411.03
849.931	12373.74
850.254	12260.53
850.577	12146.18
850.9	12125.61
851.223	12126.07
851.546	12016.46
851.869	12015.79
852.192	12146.63
852.515	11945.28
852.838	11953.87
853.161	11895.79
853.483	11868.67
853.806	11786.87
854.129	11762.69
854.451	11669.35
854.774	11671.61
855.096	11585.97
855.419	11563.37
855.741	11491.96
856.063	11533.99
856.385	11494.22
856.708	11430.94
857.03	11371.96
857.352	11483.14
857.674	11334.22
857.996	11240.21
858.318	11247.22
858.64	11268.69
858.961	11200.44
859.283	11174
859.605	11074.12
859.926	11123.61
860.248	11121.35
860.57	11030.73
860.891	11053.78
861.212	11010.84
861.534	10966.32
861.855	10961.35
862.176	10901.24
862.498	10951.63
862.819	10949.37
863.14	10891.3
863.461	10834.35
863.782	10866.89
864.103	10745.54
864.424	10783.05
864.745	10769.72
865.065	10706.67
865.386	10656.73
865.707	10706.89
866.027	10688.36
866.348	10674.35
866.668	10622.6
866.989	10567.24
867.309	10567.46
867.63	10541.93
867.95	10575.6
868.27	10458.54
868.59	10498.76
868.91	10474.81
869.23	10510.06
869.55	10461.7
869.87	10453.11
870.19	10399.11
870.51	10400.24
870.83	10484.75
871.15	10402.04
871.469	10374.92
871.789	10337.19
872.109	10376.96
872.428	10333.8
872.748	10328.6
873.067	10289.96
873.386	10378.77
873.706	10300.35
874.025	10294.25
874.344	10191.43
874.663	10223.06
874.982	10228.04
875.301	10211.99
875.62	10188.26
875.939	10151.43
876.258	10105.78
876.577	10106.23
876.896	10132.45
877.214	10044.99
877.533	10127.47
877.852	10092.22
878.17	10040.47
878.489	10029.85
878.807	10028.27
879.125	9957.31
879.444	10022.62
879.762	9930.42
880.08	9931.55
880.398	9906.24
880.716	9898.1
881.034	9816.75
881.352	9887.71
881.67	9850.87
881.988	9812.23
882.306	9742.63
882.624	9712.12
882.941	9707.37
883.259	9653.81
883.577	9659.01
883.894	9658.33
884.212	9629.18
884.529	9593.7
884.846	9675.06
885.164	9646.58
885.481	9520.48
885.798	9593.02
886.115	9445.46
886.432	9500.6
886.75	9445.68
887.067	9488.39
887.383	9339.02
887.7	9413.14
888.017	9302.64
888.334	9379.02
888.651	9351.68
888.967	9347.38
889.284	9275.07
889.6	9226.25
889.917	9219.93
890.233	9258.12
890.55	9232.81
890.866	9173.6
891.182	9106.26
891.498	9126.14
891.815	9110.1
892.131	9035.3
892.447	9029.65
892.763	8995.53
893.079	9012.93
893.395	8904
893.71	8892.25
894.026	8866.49
894.342	8899.71
894.657	8819.49
894.973	8800.05
895.289	8838.69
895.604	8683.44
895.92	8748.53
896.235	8704.23
896.55	8649.32
896.865	8638.25
897.181	8646.61
897.496	8604.58
897.811	8560.28
898.126	8527.52
898.441	8467.86
898.756	8456.33
899.071	8427.63
899.386	8410.23
899.7	8320.29
900.015	8344.24
900.33	8300.18
900.644	8218.6
900.959	8220.18
901.273	8201.42
901.588	8149.67
901.902	8107.19
902.216	8130.24
902.531	8070.13
902.845	8005.04
903.159	8039.62
903.473	7941.54
903.787	7937.7
904.101	7915.78
904.415	7900.19
904.729	7894.09
905.042	7846.18
905.356	7833.07
905.67	7750.59
905.984	7810.7
906.297	7769.34
906.611	7774.99
906.924	7684.83
907.237	7645.51
907.551	7606.41
907.864	7607.09
908.177	7563.7
908.491	7556.02
908.804	7506.07
909.117	7481.44
909.43	7439.63
909.743	7418.84
910.056	7404.61
910.368	7381.11
910.681	7357.83
910.994	7319.86
911.307	7300.2
911.619	7195.35
911.932	7217.72
912.244	7149.7
912.557	7161.9
912.869	7080.55
913.181	7078.97
913.494	7128.23
913.806	6989.7
914.118	6982.7
914.43	6944.73
914.742	6957.84
915.054	6942.47
915.366	6861.8
915.678	6873.1
915.99	6834.91
916.302	6793.55
916.613	6785.19
916.925	6754.91
917.236	6740.67
917.548	6721.46
917.859	6681.46
918.171	6637.4
918.482	6601.01
918.794	6583.61
919.105	6580.9
919.416	6508.13
919.727	6506.1
920.038	6477.17
920.349	6450.51
920.66	6392.88
920.971	6390.17
921.282	6374.35
921.593	6339.32
921.903	6292.09
922.214	6231.31
922.525	6295.03
922.835	6220.23
923.146	6199.44
923.456	6169.84
923.767	6193.57
924.077	6156.96
924.387	6076.51
924.697	6131.87
925.008	5997.19
925.318	6022.95
925.628	6050.52
925.938	5978.88
926.248	5884.65
926.558	5871.09
926.867	5892.78
927.177	5867.92
927.487	5845.33
927.796	5804.2
928.106	5796.97
928.416	5744.54
928.725	5737.98
929.034	5719.23
929.344	5746.57
929.653	5693.69
929.962	5636.97
930.271	5643.98
930.581	5590.64
930.89	5562.62
931.199	5560.14
931.508	5521.27
931.817	5518.1
932.125	5501.38
932.434	5466.35
932.743	5460.7
933.051	5438.33
933.36	5442.85
933.669	5374.83
933.977	5318.56
934.286	5304.1
934.594	5290.09
934.902	5220.03
935.21	5269.3
935.519	5229.3
935.827	5230.43
936.135	5159.69
936.443	5123.31
936.751	5130.54
937.059	5141.84
937.367	5102.07
937.674	5070.21
937.982	5085.12
938.29	5063.88
938.597	5024.11
938.905	4962.86
939.213	4977.55
939.52	4954.28
939.827	4948.63
940.135	4911.79
940.442	4901.85
940.749	4794.73
941.056	4883.32
941.363	4877.22
941.67	4834.05
941.977	4820.95
942.284	4742.53
942.591	4773.04
942.898	4755.64
943.205	4746.6
943.511	4715.64
943.818	4680.61
944.125	4649.2
944.431	4647.17
944.738	4607.84
945.044	4565.36
945.35	4566.04
945.657	4564
945.963	4515.42
946.269	4494.4
946.575	4506.6
946.881	4427.96
947.187	4436.32
947.493	4432.48
947.799	4409.66
948.105	4370.11
948.41	4361.3
948.716	4372.14
949.022	4345.48
949.327	4289.89
949.633	4264.8
949.938	4279.04
950.244	4270.9
950.549	4270.45
950.854	4248.53
951.16	4237.23
951.465	4149.78
951.77	4115.2
952.075	4145.03
952.38	4141.19
952.685	4125.6
952.99	4121.53
953.294	4082.44
953.599	4027.52
953.904	4007.18
954.209	4022.32
954.513	4004.02
954.818	3976.45
955.122	4024.81
955.426	3970.35
955.731	3926.28
956.035	3931.48
956.339	3890.58
956.643	3914.3
956.948	3849.22
957.252	3815.55
957.556	3873.85
957.86	3816.45
958.163	3755.66
958.467	3794.98
958.771	3752.05
959.075	3760.18
959.378	3743.91
959.682	3752.5
959.985	3700.07
960.289	3685.16
960.592	3714.99
960.896	3648.55
961.199	3620.53
961.502	3620.98
961.805	3616.68
962.108	3590.02
962.411	3582.11
962.714	3527.65
963.017	3547.99
963.32	3569.68
963.623	3527.42
963.926	3502.11
964.228	3499.63
964.531	3479.29
964.833	3481.09
965.136	3444.94
965.438	3419.63
965.741	3409.91
966.043	3429.8
966.345	3393.64
966.648	3360.65
966.95	3370.14
967.252	3319.97
967.554	3348.44
967.856	3312.29
968.158	3333.98
968.46	3279.97
968.761	3284.49
969.063	3283.81
969.365	3243.14
969.666	3240.42
969.968	3223.47
970.269	3189.58
970.571	3176.92
970.872	3158.17
971.174	3127.21
971.475	3135.34
971.776	3130.6
972.077	3122.91
972.378	3119.97
972.679	3086.53
972.98	3111.39
973.281	3059.19
973.582	3030.26
973.883	3038.39
974.183	3011.28
974.484	3012.18
974.785	2988.23
975.085	2992.97
975.386	3002.46
975.686	2938.51
975.986	2926.53
976.287	2926.99
976.587	2860.09
976.887	2931.5
977.187	2911.62
977.487	2857.83
977.787	2855.8
978.087	2847.21
978.387	2840.89
978.687	2797.72
978.987	2847.21
979.286	2779.64
979.586	2782.81
979.885	2755.24
980.185	2784.16
980.484	2718.63
980.784	2716.6
981.083	2729.7
981.382	2717.05
981.682	2711.85
981.981	2685.64
982.28	2676.37
982.579	2640.67
982.878	2659.2
983.177	2634.56
983.475	2654.22
983.774	2623.49
984.073	2623.04
984.372	2602.02
984.67	2591.63
984.969	2589.37
985.267	2550.95
985.566	2533.55
985.864	2524.28
986.162	2512.76
986.461	2502.14
986.759	2505.53
987.057	2476.6
987.355	2432.53
987.653	2460.1
987.951	2454.23
988.249	2448.81
988.547	2403.16
988.844	2420.11
989.142	2410.84
989.44	2419.43
989.737	2367.45
990.035	2383.5
990.332	2351.86
990.63	2377.85
990.927	2338.98
991.224	2336.72
991.521	2323.16
991.819	2322.48
992.116	2301.01
992.413	2270.51
992.71	2258.98
993.006	2277.51
993.303	2277.96
993.6	2251.97
993.897	2256.49
994.193	2211.07
994.49	2208.81
994.787	2201.35
995.083	2201.81
995.379	2196.16
995.676	2196.83
995.972	2203.16
996.268	2166.33
996.565	2136.5
996.861	2122.03
997.157	2101.47
997.453	2116.61
997.749	2117.06
998.044	2076.16
998.34	2079.1
998.636	2047.69
998.932	2074.58
999.227	2018.53
999.523	2043.62
999.818	2013.56
1000.114	2046.1
1000.409	2009.04
1000.704	1999.33
1001	1993.22
1001.295	2001.13
1001.59	1971.08
1001.885	1982.6
1002.18	1905.32
1002.475	1926.11
1002.77	1954.13
1003.065	1885.2
1003.359	1917.29
1003.654	1889.27
1003.949	1886.79
1004.243	1899.44
1004.538	1876.84
1004.832	1894.47
1005.127	1881.59
1005.421	1837.75
1005.715	1818.54
1006.009	1787.81
1006.304	1818.54
1006.598	1817.64
1006.892	1761.82
1007.186	1764.98
1007.48	1777.41
1007.773	1766.34
1008.067	1724.76
1008.361	1723.4
1008.655	1709.16
1008.948	1724.76
1009.242	1706
1009.535	1660.13
1009.829	1703.51
1010.122	1647.92
1010.415	1646.57
1010.708	1653.35
1011.001	1651.99
1011.295	1625.1
1011.588	1607.25
1011.881	1623.97
1012.173	1631.43
1012.466	1581.03
1012.759	1574.25
1013.052	1583.97
1013.344	1554.37
1013.637	1541.26
1013.93	1568.15
1014.222	1530.19
1014.514	1540.13
1014.807	1526.8
1015.099	1514.59
1015.391	1523.86
1015.683	1524.54
1015.976	1507.81
1016.268	1464.2
1016.56	1485.67
1016.851	1440.24
1017.143	1449.28
1017.435	1474.14
1017.727	1406.57
1018.018	1417.19
1018.31	1436.18
1018.602	1400.47
1018.893	1403.18
1019.185	1429.4
1019.476	1383.3
1019.767	1383.3
1020.058	1383.3
1020.35	1374.71
1020.641	1327.03
1020.932	1333.81
1021.223	1332.9
1021.514	1322.06
1021.804	1301.94
1022.095	1313.69
1022.386	1295.62
1022.677	1285.67
1022.967	1301.94
1023.258	1243.87
1023.548	1253.58
1023.839	1249.74
1024.129	1239.35
1024.419	1237.76
1024.709	1234.6
1025	1245.22
1025.29	1229.63
1025.58	1225.11
1025.87	1211.55
1026.16	1216.52
1026.449	1195.73
1026.739	1167.26
1027.029	1181.95
1027.319	1177.43
1027.608	1154.83
1027.898	1156.41
1028.187	1148.05
1028.477	1128.16
1028.766	1129.52
1029.055	1119.35
1029.344	1097.2
1029.634	1099.69
1029.923	1098.11
1030.212	1110.54
1030.501	1087.71
1030.79	1070.08
1031.078	1078.45
1031.367	1089.07
1031.656	1063.76
1031.945	1064.66
1032.233	1059.46
1032.522	1014.95
1032.81	1025.34
1033.099	1031.22
1033.387	1027.83
1033.675	1021.5
1033.963	990.31
1034.251	977.21
1034.54	1007.26
1034.828	971.1
1035.116	973.59
1035.403	970.43
1035.691	970.88
1035.979	961.16
1036.267	944.44
1036.554	946.47
1036.842	933.37
1037.129	934.95
1037.417	921.39
1037.704	951.22
1037.992	912.8
1038.279	896.76
1038.566	922.07
1038.853	922.07
1039.14	922.07
