Data from hue_34_FLMS001491_00063.txt Node
Date: Tue Feb 07 17:25:58 GMT 2017
User: dcchb
Spectrometer: FLMS00149
Trigger mode: 0
Integration Time (sec): 2.000000E-2
Scans to average: 10
Electric dark correction enabled: true
Nonlinearity correction enabled: false
Boxcar width: 0
XAxis mode: Wavelengths
Number of Pixels in Spectrum: 2048
>>>>>Begin Spectral Data<<<<<
341.393	-17.67
341.776	-17.67
342.16	-17.67
342.543	-56.31
342.927	-53.37
343.31	-71.23
343.693	-71.9
344.077	-91.79
344.46	-67.39
344.843	-56.31
345.226	-41.85
345.61	-18.57
345.993	-31
346.376	-13.38
346.759	23.01
347.142	13.74
347.525	34.08
347.908	65.94
348.291	100.07
348.674	100.29
349.057	126.28
349.44	128.77
349.823	150.01
350.206	166.28
350.588	187.52
350.971	211.48
351.354	212.83
351.737	236.34
352.119	261.65
352.502	288.99
352.884	267.97
353.267	287.86
353.65	304.13
354.032	298.48
354.414	311.14
354.797	326.05
355.179	316.11
355.562	346.84
355.944	346.84
356.326	340.97
356.709	305.71
357.091	335.32
357.473	357.46
357.855	347.07
358.238	342.32
358.62	357.46
359.002	339.16
359.384	347.29
359.766	350.46
360.148	343.23
360.53	338.25
360.912	352.49
361.294	345.49
361.676	340.51
362.057	346.62
362.439	331.25
362.821	334.86
363.203	338.03
363.584	336.45
363.966	331.93
364.348	338.25
364.729	336.9
365.111	320.18
365.493	331.7
365.874	329.44
366.256	324.02
366.637	325.37
367.019	327.86
367.4	321.76
367.781	306.62
368.163	314.98
368.544	325.15
368.925	330.12
369.306	326.28
369.688	324.69
370.069	321.98
370.45	318.37
370.831	309.55
371.212	321.76
371.593	314.75
371.974	334.41
372.355	310.46
372.736	294.19
373.117	335.09
373.498	288.99
373.879	313.17
374.26	310.01
374.641	330.8
375.021	340.51
375.402	332.6
375.783	322.44
376.163	339.84
376.544	325.82
376.925	315.88
377.305	342.77
377.686	373.51
378.066	347.29
378.447	325.6
378.827	332.15
379.208	348.88
379.588	329.44
379.968	334.64
380.349	332.83
380.729	320.63
381.109	374.19
381.489	376.9
381.87	351.59
382.25	340.97
382.63	356.56
383.01	351.13
383.39	365.15
383.77	348.2
384.15	350.23
384.53	349.78
384.91	373.96
385.29	355.65
385.67	331.25
386.049	378.25
386.429	361.08
386.809	331.93
387.189	374.64
387.568	352.04
387.948	343.45
388.328	342.1
388.707	387.74
389.087	368.76
389.466	340.74
389.846	370.12
390.225	372.83
390.605	361.53
390.984	375.77
391.363	382.09
391.743	374.64
392.122	359.27
392.501	376.67
392.881	383
393.26	391.13
393.639	390.23
394.018	375.31
394.397	384.13
394.776	368.54
395.155	398.14
395.534	397.01
395.913	391.59
396.292	390.46
396.671	387.07
397.05	395.65
397.429	379.83
397.808	399.27
398.186	411.47
398.565	383.45
398.944	401.08
399.323	406.73
399.701	398.59
400.08	381.64
400.458	398.59
400.837	398.37
401.215	408.99
401.594	381.42
401.972	396.56
402.351	419.16
402.729	393.62
403.107	415.99
403.486	423.45
403.864	406.73
404.242	423.68
404.62	438.14
404.999	411.92
405.377	417.35
405.755	443.34
406.133	430.91
406.511	423.22
406.889	411.02
407.267	424.13
407.645	428.87
408.023	431.13
408.401	421.42
408.779	453.96
409.156	453.28
409.534	430.23
409.912	478.82
410.29	446.27
410.667	447.4
411.045	453.51
411.422	454.86
411.8	471.81
412.178	473.84
412.555	466.61
412.933	496.67
413.31	467.29
413.687	482.88
414.065	484.92
414.442	482.43
414.819	485.59
415.197	476.33
415.574	491.02
415.951	491.24
416.328	509.32
416.705	514.07
417.082	512.49
417.46	512.26
417.837	531.92
418.214	500.51
418.591	508.42
418.967	506.38
419.344	513.16
419.721	518.59
420.098	507.74
420.475	521.3
420.852	527.63
421.228	542.09
421.605	531.47
421.982	539.83
422.358	535.31
422.735	550.45
423.111	564.24
423.488	557.46
423.864	546.16
424.241	591.13
424.617	561.07
424.994	556.55
425.37	575.08
425.746	560.85
426.123	564.46
426.499	593.84
426.875	591.13
427.251	615.53
427.627	590
428.003	609.66
428.379	589.09
428.756	598.59
429.132	614.86
429.507	613.5
429.883	627.74
430.259	619.38
430.635	627.06
431.011	641.52
431.387	650.56
431.763	654.18
432.138	658.92
432.514	662.99
432.89	671.35
433.265	649.21
433.641	662.99
434.016	664.35
434.392	677.91
434.767	696.44
435.143	688.98
435.518	701.18
435.894	707.74
436.269	738.24
436.644	698.7
437.02	737.79
437.395	720.39
437.77	733.27
438.145	742.54
438.52	709.32
438.895	732.82
439.271	733.05
439.646	765.81
440.021	762.2
440.395	754.74
440.77	765.14
441.145	771.24
441.52	789.54
441.895	778.02
442.27	761.07
442.645	777.79
443.019	795.19
443.394	775.53
443.769	809.43
444.143	792.03
444.518	806.49
444.892	795.42
445.267	820.28
445.641	838.35
446.016	826.15
446.39	825.7
446.764	817.56
447.139	833.61
447.513	837.68
447.887	853.49
448.262	836.77
448.636	844.91
449.01	861.4
449.384	866.6
449.758	863.44
450.132	874.96
450.506	862.31
450.88	894.17
451.254	922.65
451.628	904.11
452.002	914.06
452.376	931.23
452.75	904.34
453.123	933.04
453.497	925.13
453.871	957.22
454.244	965.58
454.618	953.38
454.992	984.56
455.365	985.24
455.739	998.35
456.112	988.86
456.486	1020.27
456.859	1043.32
457.232	1026.37
457.606	1044.68
457.979	1045.58
458.352	1059.14
458.725	1071.12
459.099	1073.6
459.472	1096.88
459.845	1101.4
460.218	1090.32
460.591	1106.14
460.964	1133.04
461.337	1147.72
461.71	1180.49
462.083	1166.25
462.456	1197.44
462.829	1184.56
463.201	1199.47
463.574	1234.73
463.947	1237.44
464.32	1247.83
464.692	1264.11
465.065	1258.23
465.438	1277.44
465.81	1316.31
466.183	1309.53
466.555	1321.5
466.928	1357.66
467.3	1380.03
467.672	1391.56
468.045	1432.01
468.417	1415.74
468.789	1428.62
469.161	1464.55
469.534	1455.96
469.906	1514.95
470.278	1509.07
470.65	1537.32
471.022	1579.8
471.394	1602.63
471.766	1604.44
472.138	1649.41
472.51	1686.92
472.882	1703.64
473.253	1759.69
473.625	1726.47
473.997	1770.31
474.369	1805.11
474.74	1872
475.112	1914.03
475.484	1909.29
475.855	1941.38
476.227	2002.62
476.598	2039.9
476.97	2081.48
477.341	2153.35
477.713	2180.01
478.084	2212.55
478.455	2301.37
478.827	2341.36
479.198	2415.26
479.569	2443.06
479.94	2501.59
480.311	2531.19
480.682	2601.92
481.053	2693.22
481.424	2733.67
481.795	2790.39
482.166	2849.6
482.537	2904.29
482.908	3011.18
483.279	3031.06
483.65	3123.04
484.021	3222.47
484.391	3275.13
484.762	3318.97
485.133	3394.9
485.503	3483.71
485.874	3570.71
486.244	3629.01
486.615	3742.23
486.985	3783.59
487.356	3931.15
487.726	4005.28
488.097	4083.47
488.467	4082.56
488.837	4242.56
489.207	4312.39
489.578	4352.61
489.948	4456.11
490.318	4593.96
490.688	4630.8
491.058	4680.51
491.428	4817.91
491.798	4929.77
492.168	5086.83
492.538	5138.58
492.908	5239.59
493.278	5312.81
493.648	5313.72
494.017	5443.66
494.387	5482.07
494.757	5596.87
495.126	5712.12
495.496	5736.3
495.866	5832.8
496.235	5935.62
496.605	5988.73
496.974	6103.07
497.344	6133.13
497.713	6235.27
498.082	6295.84
498.452	6367.02
498.821	6414.7
499.19	6487.02
499.559	6610.41
499.928	6630.74
500.298	6732.66
500.667	6800.23
501.036	6861.7
501.405	6946.44
501.774	6994.58
502.143	7038.42
502.512	7113.89
502.88	7169.94
503.249	7197.73
503.618	7243.61
503.987	7347.34
504.356	7420.33
504.724	7433.89
505.093	7503.72
505.462	7617.16
505.83	7638.17
506.199	7727.21
506.567	7788.23
506.936	7849.92
507.304	7915.91
507.672	8008.79
508.041	7991.39
508.409	8050.82
508.777	8146.86
509.145	8235.45
509.514	8206.97
509.882	8315.45
510.25	8298.72
510.618	8373.07
510.986	8417.14
511.354	8541.2
511.722	8557.7
512.09	8663.23
512.458	8689.45
512.826	8754.76
513.193	8724.93
513.561	8865.26
513.929	8908.42
514.297	8934.86
514.664	9033.84
515.032	9068.65
515.4	9144.12
515.767	9200.39
516.135	9210.79
516.502	9223.22
516.869	9357.45
517.237	9395.64
517.604	9331.69
517.972	9461.18
518.339	9529.88
518.706	9538.69
519.073	9542.53
519.44	9623.66
519.808	9698.69
520.175	9701.85
520.542	9853.48
520.909	9873.82
521.276	9874.5
521.643	10000.37
522.009	10060.94
522.376	10076.08
522.743	10149.07
523.11	10267.26
523.477	10340.7
523.843	10332.79
524.21	10430.42
524.577	10587.93
524.943	10560.13
525.31	10578.44
525.676	10658.43
526.043	10746.79
526.409	10822.05
526.776	10886.23
527.142	10981.59
527.508	10941.14
527.874	11114.47
528.241	11204.63
528.607	11229.04
528.973	11265.65
529.339	11279.44
529.705	11402.82
530.071	11515.81
530.437	11543.38
530.803	11610.27
531.169	11688.69
531.535	11596.04
531.901	11657.5
532.267	11772.53
532.632	11808.23
532.998	11846.65
533.364	11923.71
533.73	11949.7
534.095	12122.35
534.461	12118.28
534.826	12166.64
535.192	12147.43
535.557	12357.6
535.923	12305.85
536.288	12383.81
536.653	12361.89
537.019	12331.38
537.384	12464.26
537.749	12522.11
538.114	12593.52
538.479	12633.52
538.845	12620.42
539.21	12716.91
539.575	12761.2
539.94	12762.11
540.305	12850.24
540.67	12877.81
541.034	12955.55
541.399	13043.23
541.764	13010.01
542.129	13105.83
542.494	13127.3
542.858	13253.62
543.223	13190.57
543.587	13211.81
543.952	13284.81
544.316	13406.38
544.681	13416.1
545.045	13434.63
545.41	13518.92
545.774	13525.48
546.138	13619.26
546.503	13626.72
546.867	13685.93
547.231	13784.68
547.595	13812.48
547.959	13915.07
548.324	13882.76
548.688	13929.76
549.052	14002.98
549.416	13979.93
549.779	14080.94
550.143	14159.13
550.507	14248.85
550.871	14225.35
551.235	14278.9
551.599	14443.65
551.962	14410.2
552.326	14398.22
552.689	14570.2
553.053	14522.97
553.417	14448.62
553.78	14722.06
554.143	14686.58
554.507	14732.68
554.87	14736.52
555.234	14902.84
555.597	14828.27
555.96	14864.88
556.323	14966.57
556.686	15006.57
557.05	15093.35
557.413	15111.65
557.776	15064.42
558.139	15277.3
558.502	15271.65
558.865	15370.4
559.228	15387.35
559.59	15463.28
559.953	15487.69
560.316	15647.23
560.679	15643.61
561.041	15629.38
561.404	15749.6
561.767	15875.92
562.129	15774.23
562.492	15889.26
562.854	15972.19
563.217	15999.99
563.579	16101.23
563.941	16091.96
564.304	16134
564.666	16266.2
565.028	16317.27
565.39	16354.56
565.753	16475.23
566.115	16496.47
566.477	16604.49
566.839	16587.77
567.201	16789.57
567.563	16816.01
567.925	16844.71
568.287	16861.66
568.648	16857.59
569.01	16905.28
569.372	17093.29
569.734	17006.29
570.095	17214.42
570.457	17188.43
570.819	17322.21
571.18	17402.44
571.542	17446.96
571.903	17433.85
572.265	17583.22
572.626	17697.8
572.987	17658.25
573.349	17823.44
573.71	17865.7
574.071	17972.82
574.432	18118.13
574.794	18279.03
575.155	18167.62
575.516	18277.22
575.877	18483.09
576.238	18534.16
576.599	18632.46
576.96	18743.65
577.32	18794.04
577.681	19009.4
578.042	19028.84
578.403	19292.11
578.763	19260.24
579.124	19426.57
579.485	19634.47
579.845	19751.53
580.206	19899.32
580.566	20014.57
580.927	20155.81
581.287	20277.84
581.648	20411.62
582.008	20668.11
582.368	20764.38
582.728	20962.57
583.089	21018.39
583.449	21265.61
583.809	21465.61
584.169	21750.57
584.529	21841.42
584.889	22257
585.249	22252.71
585.609	22338.58
585.969	22733.15
586.329	22806.36
586.688	23162.51
587.048	23303.07
587.408	23497.64
587.768	23708.94
588.127	23934.92
588.487	24106.22
588.846	24390.28
589.206	24581.46
589.565	24760.89
589.925	25153.19
590.284	25310.93
590.643	25528.55
591.003	25865.27
591.362	26038.82
591.721	26339.38
592.08	26558.13
592.44	26894.39
592.799	27063.88
593.158	27333.25
593.517	27656.86
593.876	27778.21
594.235	28051.88
594.593	28248.03
594.952	28596.49
595.311	28741.8
595.67	28949.93
596.029	29428.56
596.387	29581.1
596.746	29836.91
597.104	29903.8
597.463	30101.77
597.822	30525.93
598.18	30641.19
598.538	30754.4
598.897	31288.63
599.255	31321.17
599.613	31818.1
599.972	31821.27
600.33	32092
600.688	32123.63
601.046	32597.74
601.404	33022.59
601.762	32970.84
602.12	33211.06
602.478	33499.42
602.836	33580.54
603.194	33565.18
603.552	33854.21
603.91	33889.91
604.268	34425.95
604.625	34416.23
604.983	34762.43
605.341	34811.47
605.698	35100.5
606.056	35233.83
606.413	35462.3
606.771	35588.63
607.128	35754.95
607.485	35827.72
607.843	36116.97
608.2	36408.49
608.557	36599
608.914	36722.38
609.272	36949.72
609.629	37112.65
609.986	37272.88
610.343	37215.93
610.7	37649.82
611.057	37625.18
611.414	37777.27
611.771	37946.98
612.127	38385.84
612.484	38260.19
612.841	38452.73
613.198	38493.18
613.554	38676.68
613.911	38925.26
614.267	39012.04
614.624	39053.17
614.98	39220.85
615.337	39398.7
615.693	39361.41
616.05	39491.12
616.406	39770.21
616.762	39751.23
617.118	39913.03
617.475	39994.39
617.831	40069.19
618.187	40227.37
618.543	40464.88
618.899	40488.84
619.255	40509.4
619.611	40707.59
619.967	40798.66
620.323	40950.29
620.678	40826.68
621.034	40961.14
621.39	40911.88
621.746	41110.29
622.101	41510.96
622.457	41193.22
622.812	41443.61
623.168	41496.27
623.523	41559.32
623.879	41759.99
624.234	41499.21
624.589	41716.83
624.945	41877.73
625.3	41957.05
625.655	41803.15
626.01	42064.39
626.365	41961.11
626.72	42039.98
627.075	42112.52
627.43	42205.18
627.785	42115.46
628.14	42157.49
628.495	42276.36
628.85	42224.84
629.205	42038.85
629.559	42357.26
629.914	42212.18
630.269	42174.67
630.623	42144.84
630.978	42067.55
631.332	42326.75
631.687	42425.28
632.041	42236.59
632.396	42274.1
632.75	42148.91
633.104	42350.71
633.459	42165.85
633.813	42177.15
634.167	42222.8
634.521	42290.6
634.875	42235.23
635.229	42267.55
635.583	42164.95
635.937	42203.59
636.291	42208.11
636.645	42140.09
636.999	42121.34
637.352	42270.71
637.706	42025.75
638.06	42170.15
638.413	41963.37
638.767	42056.93
639.121	42260.54
639.474	41952.3
639.828	41939.87
640.181	42065.74
640.534	42069.36
640.888	42028.23
641.241	41767
641.594	42001.11
641.947	41944.39
642.301	41785.3
642.654	41870.04
643.007	41939.87
643.36	41919.53
643.713	41773.55
644.066	41887.67
644.419	41524.52
644.771	41450.85
645.124	41250.85
645.477	41030.97
645.83	40702.84
646.182	40837.98
646.535	40629.17
646.888	40668.94
647.24	40395.73
647.593	40692
647.945	40559.12
648.298	40443.41
648.65	40332.91
649.002	40203.87
649.355	40529.74
649.707	40393.92
650.059	40633.47
650.411	40966.34
650.763	41019.22
651.115	41432.31
651.467	41257.18
651.819	41235.03
652.171	41278.19
652.523	41233.45
652.875	41136.73
653.227	41070.29
653.578	41271.87
653.93	41325.42
654.282	41023.29
654.633	40907.13
654.985	41025.32
655.337	41077.07
655.688	41040.46
656.039	41268.93
656.391	40814.25
656.742	40920.69
657.094	41021.93
657.445	41022.83
657.796	41025.77
658.147	40994.81
658.498	40911.88
658.849	41097.63
659.2	40920.46
659.551	40807.47
659.902	40975.38
660.253	40885.21
660.604	40823.74
660.955	40823.52
661.306	40960.01
661.656	40923.63
662.007	40836.62
662.358	40841.14
662.708	40899
663.059	40903.06
663.409	40581.26
663.76	40854.25
664.11	40851.31
664.461	40861.48
664.811	40974.7
665.161	40700.81
665.511	40623.97
665.862	40626.01
666.212	40805.21
666.562	40802.27
666.912	40589.62
667.262	40603.86
667.612	40593.69
667.962	40818.55
668.312	40604.77
668.662	40717.31
669.011	40633.92
669.361	40636.4
669.711	40589.85
670.06	40605.67
670.41	40457.65
670.76	40417.2
671.109	40596.18
671.459	40630.08
671.808	40447.71
672.157	40550.98
672.507	40232.57
672.856	40321.84
673.205	40385.79
673.554	40434.6
673.904	40407.26
674.253	40449.97
674.602	40477.54
674.951	39762.53
675.3	39604.79
675.649	40297.66
675.998	40255.4
676.346	40288.16
676.695	40352.79
677.044	40045.23
677.393	40207.04
677.741	40206.36
678.09	40094.72
678.438	40058.34
678.787	40139.69
679.135	40145.79
679.484	39875.07
679.832	40092.24
680.181	39790.1
680.529	39983.09
680.877	39827.16
681.225	39801.17
681.573	39982.41
681.922	39732.92
682.27	39531.8
682.618	39435.76
682.966	39511.46
683.314	39633.49
683.661	39347.17
684.009	39341.97
684.357	39285.03
684.705	39205.03
685.053	39174.52
685.4	39273.28
685.748	38983.34
686.095	38976.79
686.443	38918.71
686.79	38837.13
687.138	38909.67
687.485	38913.06
687.832	38749
688.18	38841.2
688.527	38630.81
688.874	38542.22
689.221	38542.22
689.568	38277.37
689.915	38267.2
690.262	38266.97
690.609	38200.31
690.956	38004.16
691.303	37935.01
691.65	37644.39
691.997	37868.57
692.344	37619.31
692.69	37604.39
693.037	37579.31
693.383	37333.21
693.73	37464.74
694.077	37351.74
694.423	37245.53
694.769	37146.55
695.116	37018.65
695.462	37044.18
695.808	36892.09
696.155	36963.05
696.501	36590.18
696.847	36695.94
697.193	36420.47
697.539	36691.87
697.885	36237.42
698.231	36210.98
698.577	36313.81
698.923	36238.1
699.269	35975.28
699.614	35878.11
699.96	35825.91
700.306	35891.44
700.651	35667.95
700.997	35568.51
701.342	35412.13
701.688	35359.48
702.033	35309.99
702.379	35239.48
702.724	35157.23
703.069	35171.91
703.415	34779.83
703.76	34872.49
704.105	34832.94
704.45	34759.5
704.795	34574.42
705.14	34397.02
705.485	34413.52
705.83	34355.66
706.175	34386.4
706.52	34413.52
706.865	34183.92
707.209	34214.43
707.554	34090.59
707.899	34042.9
708.243	33941.89
708.588	33883.36
708.932	33572.41
709.277	33702.57
709.621	33655.34
709.966	33451.06
710.31	33508.23
710.654	33301.68
710.998	33378.29
711.342	33371.96
711.687	33211.97
712.031	33103.04
712.375	32955.93
712.719	32868.25
713.063	32893.1
713.407	32997.73
713.75	32786.44
714.094	32646.56
714.438	32568.82
714.782	32610.63
715.125	32580.34
715.469	32507.8
715.812	32388.48
716.156	32157.3
716.499	32349.62
716.843	32297.41
717.186	32152.78
717.53	32197.08
717.873	32166.57
718.216	32078.66
718.559	31936.52
718.902	31679.12
719.246	31789.86
719.589	31556.42
719.932	31645.23
720.275	31641.16
720.617	31671.44
720.96	31506.47
721.303	31485.01
721.646	31476.19
721.989	31276.2
722.331	31347.61
722.674	31336.53
723.016	31438
723.359	31234.84
723.701	31393.26
724.044	31012.7
724.386	30918.92
724.729	30921.4
725.071	31052.7
725.413	30917.56
725.755	31093.6
726.097	30730.45
726.439	30584.92
726.782	30707.17
727.124	30877.11
727.465	30479.38
727.807	30667.85
728.149	30540.17
728.491	30595.99
728.833	30457.46
729.175	30389.89
729.516	30366.62
729.858	30205.94
730.199	30248.43
730.541	30120.97
730.882	30223.34
731.224	30213.4
731.565	29962.79
731.906	30021.09
732.248	30027.42
732.589	29891.15
732.93	29812.73
733.271	29787.42
733.612	29745.39
733.953	29857.48
734.294	29813.19
734.635	29721.21
734.976	29674.66
735.317	29744.03
735.658	29540.42
735.999	29560.99
736.339	29378.17
736.68	29538.62
737.021	29371.39
737.361	29305.85
737.702	29502.23
738.042	29359.64
738.383	29201
738.723	29323.48
739.063	29214.33
739.404	29167.55
739.744	29106.54
740.084	29075.35
740.424	28963.94
740.764	29029.48
741.104	29152.64
741.444	28882.14
741.784	28918.29
742.124	28892.76
742.464	28775.25
742.804	28794
743.143	28643.95
743.483	28703.84
743.823	28580.9
744.162	28587
744.502	28638.3
744.841	28552.2
745.181	28592.65
745.52	28448.7
745.86	28541.81
746.199	28451.64
746.538	28352.21
746.877	28423.39
747.216	28416.61
747.556	28245.54
747.895	28258.2
748.234	28046.23
748.573	27997.64
748.911	28019.33
749.25	27915.83
749.589	27920.35
749.928	27955.83
750.267	27948.38
750.605	27818.44
750.944	27755.84
751.283	27627.71
751.621	27757.19
751.96	27591.77
752.298	27551.78
752.636	27628.61
752.975	27411.67
753.313	27418.22
753.651	27479.24
753.989	27363.76
754.327	27316.98
754.666	27100.71
755.004	27229.75
755.342	27266.13
755.679	27144.1
756.017	26891.91
756.355	27094.84
756.693	26907.72
757.031	27019.13
757.368	26825.47
757.706	26771.46
758.044	26688.52
758.381	26616.21
758.719	26700.72
759.056	26589.09
759.394	26473.61
759.731	26367.85
760.068	26331.02
760.405	26171.47
760.743	25932.84
761.08	26048.09
761.417	26065.49
761.754	25895.55
762.091	25931.03
762.428	25804.02
762.765	25716.8
763.102	25787.08
763.438	25686.51
763.775	25571.49
764.112	25551.15
764.449	25505.73
764.785	25276.36
765.122	25214.66
765.458	25110.71
765.795	25032.29
766.131	25043.82
766.467	24918.4
766.804	24795.69
767.14	24709.82
767.476	24725.86
767.812	24618.07
768.148	24727.9
768.485	24483.61
768.821	24290.39
769.157	24279.09
769.492	24309.6
769.828	24303.95
770.164	24020.12
770.5	23889.5
770.836	23969.72
771.171	23826.68
771.507	23788.94
771.842	23620.81
772.178	23673.23
772.513	23484.99
772.849	23415.61
773.184	23336.97
773.519	23378.1
773.855	23293.36
774.19	23081.38
774.525	23124.55
774.86	23034.61
775.195	23018.79
775.53	22874.16
775.865	22728.17
776.2	22608.4
776.535	22370.22
776.87	22501.29
777.205	22303.33
777.539	22312.82
777.874	22195.53
778.209	22110.56
778.543	22055.65
778.878	21940.17
779.212	22002.32
779.547	21800.97
779.881	21746.28
780.215	21570.69
780.55	21707.18
780.884	21497.25
781.218	21459.73
781.552	21483.23
781.886	21336.57
782.22	21262.68
782.554	21197.59
782.888	20928.9
783.222	20908.56
783.556	20862.46
783.889	20855.23
784.223	20667.21
784.557	20627.44
784.89	20679.41
785.224	20434.22
785.557	20407.56
785.891	20335.47
786.224	20350.38
786.558	20393.09
786.891	20053.67
787.224	20067.9
787.557	20074.23
787.891	20007.57
788.224	19925.99
788.557	19862.49
788.89	19799.66
789.223	19804.18
789.556	19712.66
789.888	19524.64
790.221	19502.5
790.554	19378.88
790.887	19400.13
791.219	19217.76
791.552	19312.67
791.884	19202.39
792.217	19212.79
792.549	18998.78
792.882	18842.4
793.214	18785.68
793.546	18834.72
793.879	18772.57
794.211	18578
794.543	18710.65
794.875	18694.16
795.207	18681.27
795.539	18561.05
795.871	18429.3
796.203	18253.26
796.535	18277.9
796.867	18188.86
797.198	18164.45
797.53	18207.39
797.862	18056.88
798.193	18127.84
798.525	17971.24
798.856	18006.72
799.188	17700.28
799.519	17749.32
799.85	17615.31
800.182	17585.94
800.513	17524.69
800.844	17474.53
801.175	17590.91
801.506	17592.26
801.837	17392.04
802.168	17391.59
802.499	17336.9
802.83	17164.48
803.161	17101.2
803.491	17121.54
803.822	17134.42
804.153	17009.45
804.483	16893.07
804.814	16830.48
805.145	16838.61
805.475	16736.47
805.805	16784.15
806.136	16751.38
806.466	16811.49
806.796	16637.94
807.126	16535.79
807.457	16534.89
807.787	16500.54
808.117	16448.34
808.447	16388.91
808.777	16447.43
809.107	16311.85
809.436	16248.34
809.766	16204.05
810.096	16175.8
810.426	16094.9
810.755	16061
811.085	16061.91
811.414	15909.37
811.744	15851.74
812.073	15830.95
812.403	15798.64
812.732	15812.42
813.061	15781.69
813.39	15761.58
813.719	15650.39
814.049	15710.73
814.378	15745.31
814.707	15520.68
815.036	15584.41
815.365	15506.44
815.693	15347.58
816.022	15345.09
816.351	15336.73
816.68	15176.28
817.008	15395.71
817.337	15221.93
817.665	15151.2
817.994	15142.16
818.322	15129.73
818.651	15019.68
818.979	15035.27
819.307	15066.91
819.636	14980.58
819.964	14889.28
820.292	14972.9
820.62	14886.57
820.948	14908.49
821.276	14937.19
821.604	14838.66
821.932	14879.34
822.259	14864.65
822.587	14888.61
822.915	14857.19
823.243	14932.45
823.57	14742.62
823.898	14803.86
824.225	14690.42
824.553	14750.53
824.88	14783.75
825.207	14797.99
825.535	14792.11
825.862	14862.62
826.189	14724.54
826.516	14760.93
826.843	14869.62
827.17	14774.94
827.497	14784.88
827.824	14816.97
828.151	14864.2
828.478	14833.69
828.805	14803.41
829.131	14802.28
829.458	14866.91
829.785	14711.89
830.111	14659.69
830.438	14805.22
830.764	14732
831.09	14760.02
831.417	14634.15
831.743	14739.01
832.069	14701.04
832.395	14648.39
832.722	14686.35
833.048	14568.61
833.374	14602.06
833.7	14670.08
834.026	14584.43
834.351	14668.5
834.677	14567.94
835.003	14705.11
835.329	14478.22
835.654	14609.97
835.98	14513.25
836.306	14482.06
836.631	14435.28
836.956	14456.07
837.282	14499.01
837.607	14410.88
837.932	14296.98
838.258	14356.87
838.583	14374.72
838.908	14276.64
839.233	14245.91
839.558	14270.32
839.883	14186.7
840.208	14165.69
840.533	14228.28
840.858	14191.9
841.182	14087.5
841.507	14063.09
841.832	14069.42
842.156	14071.23
842.481	13999.82
842.805	13986.26
843.13	13978.8
843.454	13949.42
843.778	13822.42
844.103	13809.31
844.427	13741.97
844.751	13748.52
845.075	13730.44
845.399	13711.24
845.723	13699.26
846.047	13668.07
846.371	13544.46
846.695	13550.56
847.019	13433.95
847.343	13407.51
847.666	13292.49
847.99	13262.43
848.313	13252.72
848.637	13157.13
848.96	13126.17
849.284	13127.97
849.607	13039.84
849.931	12972.5
850.254	12890.01
850.577	12819.51
850.9	12818.15
851.223	12784.03
851.546	12694.99
851.869	12561.44
852.192	12702.9
852.515	12604.6
852.838	12579.74
853.161	12444.6
853.483	12434.66
853.806	12387.65
854.129	12393.08
854.451	12360.08
854.774	12274.66
855.096	12261.33
855.419	12189.92
855.741	12190.82
856.063	12040.77
856.385	12055.46
856.708	12040.32
857.03	11998.51
857.352	11966.65
857.674	11894.33
857.996	11866.76
858.318	11812.08
858.64	11803.04
858.961	11816.37
859.283	11643.04
859.605	11703.83
859.926	11712.64
860.248	11653.89
860.57	11561.46
860.891	11632.87
861.212	11547.45
861.534	11505.87
861.855	11483.72
862.176	11471.29
862.498	11388.13
862.819	11330.73
863.14	11482.37
863.461	11356.95
863.782	11346.33
864.103	11371.86
864.424	11328.02
864.745	11369.83
865.065	11219.55
865.386	11242.37
865.707	11164.64
866.027	11166.22
866.348	11152.43
866.668	11202.37
866.989	11122.38
867.309	11068.37
867.63	11061.59
867.95	11089.84
868.27	10989.05
868.59	11001.02
868.91	10987.92
869.23	10983.17
869.55	10917.64
869.87	11073.56
870.19	11030.18
870.51	10979.33
870.83	11025.2
871.15	10844.42
871.469	10911.54
871.789	10851.42
872.109	10889.84
872.428	10797.87
872.748	10865.43
873.067	10805.78
873.386	10804.87
873.706	10728.26
874.025	10761.93
874.344	10690.52
874.663	10723.29
874.982	10789.96
875.301	10672.22
875.62	10697.76
875.939	10633.8
876.258	10610.53
876.577	10570.53
876.896	10604.88
877.214	10527.82
877.533	10526.69
877.852	10521.94
878.17	10520.58
878.489	10474.94
878.807	10448.5
879.125	10444.88
879.444	10451.21
879.762	10415.28
880.08	10406.69
880.398	10309.74
880.716	10398.33
881.034	10281.04
881.352	10313.13
881.67	10267.94
881.988	10229.52
882.306	10232.91
882.624	10189.07
882.941	10129.86
883.259	10146.58
883.577	10124.89
883.894	10120.6
884.212	10137.32
884.529	10179.35
884.846	10027.72
885.164	9983.2
885.481	9983.88
885.798	10008.28
886.115	9964.44
886.432	9945.46
886.75	9975.74
887.067	9915.63
887.383	9869.3
887.7	9883.54
888.017	9825.46
888.334	9877.21
888.651	9820.72
888.967	9800.15
889.284	9736.2
889.6	9648.52
889.917	9766.48
890.233	9719.7
890.55	9641.06
890.866	9572.59
891.182	9541.85
891.498	9531.46
891.815	9499.82
892.131	9524.9
892.447	9490.78
892.763	9380.73
893.079	9406.26
893.395	9436.32
893.71	9355.42
894.026	9318.81
894.342	9377.34
894.657	9289.88
894.973	9265.7
895.289	9178.02
895.604	9238.36
895.92	9150.68
896.235	9089.21
896.55	9115.42
896.865	9055.54
897.181	8955.65
897.496	9007.63
897.811	9011.47
898.126	8967.41
898.441	8919.05
898.756	8865.49
899.071	8801.08
899.386	8790.46
899.7	8737.81
900.015	8698.94
900.33	8619.39
900.644	8691.48
900.959	8688.99
901.273	8635.66
901.588	8612.84
901.902	8571.48
902.216	8494.42
902.531	8474.99
902.845	8399.74
903.159	8369
903.473	8438.83
903.787	8323.35
904.101	8281.77
904.415	8326.07
904.729	8256.46
905.042	8236.35
905.356	8217.82
905.67	8192.51
905.984	8206.52
906.297	8141.21
906.611	8129.46
906.924	8089.46
907.237	8055.79
907.551	8011.05
907.864	7990.48
908.177	7977.83
908.491	7887.43
908.804	7910.48
909.117	7879.52
909.43	7761.79
909.743	7815.57
910.056	7731.28
910.368	7728.79
910.681	7684.95
910.994	7638.85
911.307	7660.32
911.619	7617.16
911.932	7598.4
912.244	7567.67
912.557	7580.32
912.869	7491.06
913.181	7407.67
913.494	7429.37
913.806	7321.12
914.118	7365.87
914.43	7273.21
914.742	7345.08
915.054	7305.98
915.366	7264.4
915.678	7173.33
915.99	7150.05
916.302	7108.25
916.613	7091.97
916.925	7083.84
917.236	7057.63
917.548	7071.64
917.859	7009.04
918.171	6916.84
918.482	6927.01
918.794	6897.4
919.105	6883.17
919.416	6876.16
919.727	6776.73
920.038	6772.43
920.349	6708.26
920.66	6682.04
920.971	6694.02
921.282	6676.39
921.593	6678.43
921.903	6575.6
922.214	6566.11
922.525	6587.13
922.835	6546.9
923.146	6496.51
923.456	6456.06
923.767	6414.7
924.077	6414.93
924.387	6348.04
924.697	6366.8
925.008	6300.36
925.318	6292.9
925.628	6247.25
925.938	6221.71
926.248	6182.39
926.558	6216.52
926.867	6183.52
927.177	6150.3
927.487	6172.45
927.796	6063.08
928.106	6111.89
928.416	6096.75
928.725	6005.45
929.034	5967.48
929.344	5988.73
929.653	5954.15
929.962	5901.05
930.271	5855.85
930.581	5854.27
930.89	5838.45
931.199	5800.71
931.508	5828.28
931.817	5799.13
932.125	5769.07
932.434	5776.53
932.743	5713.93
933.051	5672.12
933.36	5625.35
933.669	5602.52
933.977	5618.11
934.286	5563.2
934.594	5572.24
934.902	5501.51
935.21	5494.5
935.519	5523.88
935.827	5476.42
936.135	5419.25
936.443	5410.44
936.751	5404.34
937.059	5353.26
937.367	5291.34
937.674	5344.45
937.982	5345.58
938.29	5266.26
938.597	5277.78
938.905	5228.52
939.213	5244.11
939.52	5161.86
939.827	5135.64
940.135	5113.04
940.442	5093.16
940.749	5083.67
941.056	5094.96
941.363	5021.52
941.67	5051.35
941.977	5000.28
942.284	5020.62
942.591	4977.45
942.898	4925.03
943.205	4950.11
943.511	4923.67
943.818	4899.94
944.125	4859.49
944.431	4856.33
944.738	4828.53
945.044	4804.8
945.35	4773.62
945.657	4783.79
945.963	4751.7
946.269	4726.61
946.575	4709.89
946.881	4648.65
947.187	4672.15
947.493	4632.38
947.799	4599.38
948.105	4600.51
948.41	4551.25
948.716	4564.36
949.022	4528.43
949.327	4545.83
949.633	4488.88
949.938	4541.99
950.244	4478.71
950.549	4436.9
950.854	4411.59
951.16	4436.68
951.465	4387.41
951.77	4374.76
952.075	4316.91
952.38	4343.57
952.685	4322.56
952.99	4306.96
953.294	4259.28
953.599	4263.12
953.904	4218.6
954.209	4204.14
954.513	4195.33
954.818	4191.94
955.122	4194.65
955.426	4144.03
955.731	4137.7
956.035	4076.91
956.339	4088.66
956.643	4097.7
956.948	4057.7
957.252	4062
957.556	4033.75
957.86	4011.38
958.163	4002.56
958.467	3956.92
958.771	3966.63
959.075	3946.29
959.378	3888.67
959.682	3884.83
959.985	3897.71
960.289	3868.33
960.592	3860.65
960.896	3838.73
961.199	3800.31
961.502	3804.38
961.805	3785.39
962.108	3777.03
962.411	3759.63
962.714	3703.36
963.017	3702.46
963.32	3725.96
963.623	3690.71
963.926	3681.89
964.228	3620.2
964.531	3619.75
964.833	3645.06
965.136	3613.2
965.438	3596.47
965.741	3590.37
966.043	3563.03
966.345	3527.32
966.648	3545.18
966.95	3535.01
967.252	3480.09
967.554	3489.13
967.856	3475.12
968.158	3423.14
968.46	3432.41
968.761	3417.27
969.063	3454.1
969.365	3372.07
969.666	3417.04
969.968	3367.55
970.269	3343.37
970.571	3329.59
970.872	3347.44
971.174	3328.91
971.475	3258.63
971.776	3270.83
972.077	3286.65
972.378	3273.32
972.679	3242.58
972.98	3219.53
973.281	3211.4
973.582	3257.05
973.883	3175.92
974.183	3161.68
974.484	3184.05
974.785	3135.02
975.085	3142.93
975.386	3130.04
975.686	3104.06
975.986	3098.18
976.287	3059.76
976.587	3070.61
976.887	3024.96
977.187	3066.09
977.487	3028.58
977.787	2995.81
978.087	3027.9
978.387	2964.4
978.687	2974.34
978.987	2925.08
979.286	2940.45
979.586	2944.96
979.885	2933.89
980.185	2899.09
980.484	2884.4
980.784	2894.12
981.083	2869.49
981.382	2812.99
981.682	2828.81
981.981	2826.1
982.28	2813.44
982.579	2807.79
982.878	2792.2
983.177	2773.44
983.475	2734.57
983.774	2696.61
984.073	2758.08
984.372	2700
984.67	2706.78
984.969	2707.46
985.267	2718.98
985.566	2671.98
985.864	2639.66
986.162	2626.1
986.461	2617.29
986.759	2614.13
987.057	2609.83
987.355	2584.97
987.653	2592.88
987.951	2548.37
988.249	2545.88
988.547	2569.16
988.844	2565.99
989.142	2544.98
989.44	2530.74
989.737	2509.27
990.035	2499.1
990.332	2505.2
990.63	2463.85
990.927	2458.2
991.224	2435.6
991.521	2411.87
991.819	2444.41
992.116	2421.81
992.413	2383.4
992.71	2388.14
993.006	2373
993.303	2366
993.6	2353.12
993.897	2365.55
994.193	2367.13
994.49	2365.77
994.787	2342.49
995.083	2322.16
995.379	2288.03
995.676	2290.74
995.972	2287.13
996.268	2243.97
996.565	2257.98
996.861	2258.88
997.157	2240.8
997.453	2226.79
997.749	2178.21
998.044	2213.91
998.34	2213.68
998.636	2167.13
998.932	2152.9
999.227	2176.17
999.523	2170.07
999.818	2129.17
1000.114	2107.02
1000.409	2101.15
1000.704	2093.01
1001	2095.5
1001.295	2100.47
1001.59	2056.4
1001.885	2054.82
1002.18	2035.61
1002.475	2029.73
1002.77	2031.99
1003.065	2001.71
1003.359	1982.73
1003.654	2011.88
1003.949	1980.24
1004.243	1962.39
1004.538	1973.69
1004.832	1948.15
1005.127	1941.6
1005.421	1947.7
1005.715	1895.73
1006.009	1925.78
1006.304	1902.73
1006.598	1870.42
1006.892	1872.9
1007.186	1898.89
1007.48	1858.44
1007.773	1834.03
1008.067	1817.99
1008.361	1801.27
1008.655	1799.23
1008.948	1804.43
1009.242	1806.46
1009.535	1760.14
1009.829	1765.11
1010.122	1776.63
1010.415	1771.21
1010.708	1789.97
1011.001	1735.51
1011.295	1739.35
1011.588	1705.9
1011.881	1702.06
1012.173	1667.94
1012.466	1683.76
1012.759	1668.16
1013.052	1677.43
1013.344	1622.74
1013.637	1628.39
1013.93	1622.97
1014.222	1648.95
1014.514	1649.41
1014.807	1608.5
1015.099	1595.17
1015.391	1639.46
1015.683	1575.06
1015.976	1572.35
1016.268	1556.3
1016.56	1570.76
1016.851	1525.79
1017.143	1562.63
1017.435	1548.17
1017.727	1525.79
1018.018	1517.88
1018.31	1465.91
1018.602	1471.33
1018.893	1503.42
1019.185	1506.13
1019.476	1447.38
1019.767	1464.55
1020.058	1449.64
1020.35	1411.9
1020.641	1401.73
1020.932	1385.68
1021.223	1371
1021.514	1405.34
1021.804	1386.81
1022.095	1392.24
1022.386	1364.44
1022.677	1359.7
1022.967	1336.42
1023.258	1340.71
1023.548	1336.65
1023.839	1300.94
1024.129	1321.28
1024.419	1311.79
1024.709	1279.25
1025	1273.6
1025.29	1274.73
1025.58	1295.52
1025.87	1261.17
1026.16	1245.8
1026.449	1253.94
1026.739	1227.5
1027.029	1249.87
1027.319	1255.52
1027.608	1218
1027.898	1197.89
1028.187	1207.16
1028.477	1200.15
1028.766	1208.97
1029.055	1177.1
1029.344	1176.88
1029.634	1153.83
1029.923	1156.76
1030.212	1159.25
1030.501	1157.22
1030.79	1129.65
1031.078	1131
1031.367	1120.83
1031.656	1103.43
1031.945	1102.08
1032.233	1112.7
1032.522	1107.95
1032.81	1094.39
1033.099	1060.72
1033.387	1073.15
1033.675	1076.09
1033.963	1037.44
1034.251	1050.55
1034.54	1034.28
1034.828	1025.47
1035.116	1053.04
1035.403	1021.4
1035.691	1038.57
1035.979	1012.59
1036.267	1025.24
1036.554	1018.91
1036.842	990.67
1037.129	981.4
1037.417	981.17
1037.704	965.81
1037.992	1001.29
1038.279	963.77
1038.566	977.33
1038.853	977.33
1039.14	977.33
