Data from hue_270_FLMS001491_00008.txt Node
Date: Tue Feb 07 15:56:42 GMT 2017
User: dcchb
Spectrometer: FLMS00149
Trigger mode: 0
Integration Time (sec): 2.000000E-2
Scans to average: 10
Electric dark correction enabled: true
Nonlinearity correction enabled: false
Boxcar width: 0
XAxis mode: Wavelengths
Number of Pixels in Spectrum: 2048
>>>>>Begin Spectral Data<<<<<
341.393	0.18
341.776	0.18
342.16	0.18
342.543	-59.25
342.927	-60.38
343.31	-54.28
343.693	-54.28
344.077	-60.83
344.46	-70.77
344.843	-33.26
345.226	-49.53
345.61	-41.17
345.993	-10.44
346.376	-9.99
346.759	-11.34
347.142	36.11
347.525	58.71
347.908	41.31
348.291	70.24
348.674	79.05
349.057	110.46
349.44	142.78
349.823	137.58
350.206	178.94
350.588	180.52
350.971	201.99
351.354	219.61
351.737	228.43
352.119	248.31
352.502	248.31
352.884	267.52
353.267	269.78
353.65	279.95
354.032	279.27
354.414	307.29
354.797	311.81
355.179	326.95
355.562	314.75
355.944	330.57
356.326	327.18
356.709	335.32
357.091	326.5
357.473	320.63
357.855	341.19
358.238	339.84
358.62	332.15
359.002	305.94
359.384	347.07
359.766	326.5
360.148	317.92
360.53	347.07
360.912	340.74
361.294	334.86
361.676	329.89
362.057	321.98
362.439	324.69
362.821	335.99
363.203	328.08
363.584	334.86
363.966	322.21
364.348	330.34
364.729	314.07
365.111	313.17
365.493	299.84
365.874	307.75
366.256	299.38
366.637	309.55
367.019	292.83
367.4	322.44
367.781	317.46
368.163	298.71
368.544	305.49
368.925	308.42
369.306	315.88
369.688	325.82
370.069	306.16
370.45	302.32
370.831	317.69
371.212	291.48
371.593	305.49
371.974	291.48
372.355	301.87
372.736	319.72
373.117	313.4
373.498	328.76
373.879	304.13
374.26	316.11
374.641	307.29
375.021	316.33
375.402	321.98
375.783	321.98
376.163	319.95
376.544	327.86
376.925	330.34
377.305	323.79
377.686	324.24
378.066	326.05
378.447	339.61
378.827	309.33
379.208	330.12
379.588	305.94
379.968	330.12
380.349	312.04
380.729	328.76
381.109	337.12
381.489	338.03
381.87	312.27
382.25	345.26
382.63	351.81
383.01	340.74
383.39	350
383.77	349.55
384.15	337.58
384.53	359.04
384.91	352.26
385.29	333.06
385.67	345.71
386.049	335.99
386.429	359.27
386.809	357.69
387.189	348.65
387.568	350
387.948	345.71
388.328	350.91
388.707	350.46
389.087	367.41
389.466	369.67
389.846	363.79
390.225	374.64
390.605	371.7
390.984	385.03
391.363	375.77
391.743	380.51
392.122	387.97
392.501	391.59
392.881	354.07
393.26	378.03
393.639	379.38
394.018	377.35
394.397	383.9
394.776	380.74
395.155	392.72
395.534	385.26
395.913	397.24
396.292	413.96
396.671	378.03
397.05	378.93
397.429	411.47
397.808	396.78
398.186	402.21
398.565	388.87
398.944	413.96
399.323	430
399.701	421.19
400.08	415.77
400.458	415.77
400.837	421.87
401.215	426.16
401.594	418.7
401.972	422.77
402.351	417.12
402.729	415.09
403.107	409.21
403.486	444.01
403.864	437.23
404.242	438.36
404.62	460.74
404.999	464.35
405.377	437.91
405.755	449.66
406.133	453.28
406.511	466.39
406.889	482.43
407.267	470.23
407.645	507.51
408.023	481.3
408.401	477.46
408.779	480.4
409.156	503.45
409.534	512.71
409.912	506.16
410.29	522.2
410.667	510
411.045	526.72
411.422	545.71
411.8	550
412.178	550.68
412.555	553.16
412.933	549.32
413.31	564.24
413.687	571.47
414.065	563.56
414.442	593.84
414.819	589.55
415.197	572.15
415.574	624.57
415.951	600.85
416.328	595.2
416.705	621.64
417.082	622.54
417.46	632.48
417.837	656.89
418.214	617.57
418.591	641.3
418.967	659.6
419.344	655.76
419.721	669.54
420.098	635.87
420.475	673.61
420.852	689.66
421.228	705.48
421.605	703.89
421.982	706.38
422.358	725.36
422.735	746.6
423.111	741.41
423.488	772.59
423.864	764.91
424.241	759.49
424.617	787.06
424.994	786.83
425.37	801.52
425.746	815.76
426.123	829.09
426.499	844.46
426.875	862.31
427.251	857.11
427.627	874.51
428.003	879.48
428.379	887.62
428.756	893.49
429.132	917.9
429.507	940.72
429.883	936.2
430.259	941.18
430.635	970.55
431.011	923.78
431.387	958.12
431.763	1000.16
432.138	1034.96
432.514	1007.61
432.89	1027.05
433.265	1052.59
433.641	1065.92
434.016	1058.01
434.392	1083.32
434.767	1086.26
435.143	1113.83
435.518	1104.79
435.894	1129.87
436.269	1161.73
436.644	1169.64
437.02	1191.56
437.395	1185.69
437.77	1225.24
438.145	1247.38
438.52	1253.26
438.895	1264.78
439.271	1307.04
439.646	1324.22
440.021	1330.09
440.395	1337.55
440.77	1335.52
441.145	1338.68
441.52	1366.48
441.895	1376.42
442.27	1402.86
442.645	1404.44
443.019	1417.1
443.394	1401.5
443.769	1453.48
444.143	1439.02
444.518	1470.88
444.892	1452.57
445.267	1472.91
445.641	1489.86
446.016	1499.81
446.39	1495.51
446.764	1528.51
447.139	1518.11
447.513	1501.16
447.887	1547.71
448.262	1534.38
448.636	1558.79
449.01	1588.84
449.384	1589.29
449.758	1584.32
450.132	1588.16
450.506	1623.64
450.88	1632.68
451.254	1622.74
451.628	1652.57
452.002	1687.14
452.376	1650.54
452.75	1672.23
453.123	1697.77
453.497	1706.81
453.871	1730.76
454.244	1770.31
454.618	1747.03
454.992	1816.86
455.365	1796.97
455.739	1828.61
456.112	1815.5
456.486	1823.86
456.859	1857.08
457.232	1921.49
457.606	1906.8
457.979	1927.59
458.352	1937.08
458.725	1978.44
459.099	1967.59
459.472	2007.59
459.845	2012.79
460.218	2016.18
460.591	2059.56
460.964	2033.8
461.337	2109.28
461.71	2107.02
462.083	2170.3
462.456	2196.96
462.829	2154.7
463.201	2208.71
463.574	2202.61
463.947	2226.34
464.32	2292.1
464.692	2290.52
465.065	2306.56
465.438	2302.72
465.81	2348.82
466.183	2377.52
466.555	2440.57
466.928	2426.11
467.3	2401.25
467.672	2456.16
468.045	2498.65
468.417	2532.32
468.789	2513.56
469.161	2548.14
469.534	2577.29
469.906	2612.54
470.278	2622.94
470.65	2649.61
471.022	2684.63
471.394	2739.09
471.766	2743.39
472.138	2801.24
472.51	2836.95
472.882	2853.22
473.253	2881.69
473.625	2954.46
473.997	2929.37
474.369	2965.53
474.74	3011.18
475.112	3118.75
475.484	3128.01
475.855	3158.74
476.227	3178.63
476.598	3244.39
476.97	3277.39
477.341	3306.09
477.713	3360.77
478.084	3389.02
478.455	3466.53
478.827	3481.22
479.198	3543.82
479.569	3543.59
479.94	3613.42
480.311	3659.75
480.682	3730.93
481.053	3785.85
481.424	3828.33
481.795	3814.32
482.166	3873.75
482.537	3937.48
482.908	4011.15
483.279	4078.72
483.65	4057.7
484.021	4183.8
484.391	4224.48
484.762	4243.01
485.133	4270.13
485.503	4279.85
485.874	4348.77
486.244	4425.38
486.615	4503.57
486.985	4474.87
487.356	4625.37
487.726	4601.87
488.097	4654.75
488.467	4692.26
488.837	4778.14
489.207	4822.43
489.578	4862.88
489.948	4871.69
490.318	4915.53
490.688	4934.52
491.058	5046.15
491.428	5053.38
491.798	5135.42
492.168	5201.4
492.538	5212.48
492.908	5244.79
493.278	5336.54
493.648	5300.61
494.017	5362.75
494.387	5375.18
494.757	5471.23
495.126	5471.23
495.496	5507.16
495.866	5519.36
496.235	5540.38
496.605	5637.55
496.974	5653.82
497.344	5693.59
497.713	5659.02
498.082	5690.43
498.452	5775.4
498.821	5791.9
499.19	5763.65
499.559	5851.78
499.928	5873.25
500.298	5903.08
500.667	5929.07
501.036	5896.07
501.405	5985.11
501.774	5981.04
502.143	5988.27
502.512	6057.65
502.88	6065.33
503.249	6089.06
503.618	6101.27
503.987	6119.57
504.356	6129.74
504.724	6159.34
505.093	6172.9
505.462	6232.34
505.83	6242.05
506.199	6198.89
506.567	6349.4
506.936	6285.67
507.304	6361.6
507.672	6349.4
508.041	6395.95
508.409	6364.08
508.777	6389.17
509.145	6441.37
509.514	6508.26
509.882	6554.14
510.25	6461.03
510.618	6519.56
510.986	6519.11
511.354	6565.89
511.722	6628.94
512.09	6602.95
512.458	6583.06
512.826	6618.54
513.193	6661.7
513.561	6623.74
513.929	6737.63
514.297	6801.59
514.664	6768.37
515.032	6761.36
515.4	6827.12
515.767	6811.3
516.135	6818.99
516.502	6762.27
516.869	6856.05
517.237	6879.78
517.604	6812.21
517.972	6884.52
518.339	6921.81
518.706	6942.37
519.073	6887.46
519.44	6924.3
519.808	6986.67
520.175	6940.79
520.542	7024.63
520.909	6986.67
521.276	7052.65
521.643	7149.83
522.009	7154.57
522.376	7125.65
522.743	7168.81
523.11	7171.29
523.477	7220.56
523.843	7266.43
524.21	7313.66
524.577	7290.16
524.943	7352.76
525.31	7374.68
525.676	7453.77
526.043	7404.28
526.409	7476.6
526.776	7496.03
527.142	7513.88
527.508	7564.5
527.874	7524.96
528.241	7518.18
528.607	7568.35
528.973	7597.27
529.339	7638.63
529.705	7675.91
530.071	7636.82
530.437	7686.99
530.803	7699.42
531.169	7780.77
531.535	7726.08
531.901	7707.1
532.267	7749.13
532.632	7795.68
532.998	7789.36
533.364	7844.5
533.73	7841.79
534.095	7860.77
534.461	7882.24
534.826	7874.1
535.192	7877.72
535.557	7897.15
535.923	7935.79
536.288	7908.9
536.653	7999.75
537.019	7975.12
537.384	7997.49
537.749	8034.77
538.114	7994.32
538.479	8013.53
538.845	8023.48
539.21	7949.58
539.575	8062.57
539.94	7988.22
540.305	8069.12
540.67	8017.6
541.034	8090.82
541.399	8133.76
541.764	8061.89
542.129	8122
542.494	8156.58
542.858	8157.48
543.223	8087.88
543.587	8156.81
543.952	8135.34
544.316	8159.07
544.681	8232.28
545.045	8146.41
545.41	8184.83
545.774	8209.91
546.138	8185.51
546.503	8230.7
546.867	8186.18
547.231	8296.46
547.595	8261.44
547.959	8318.61
548.324	8248.78
548.688	8257.82
549.052	8329.46
549.416	8326.74
549.779	8265.73
550.143	8287.88
550.507	8327.87
550.871	8331.94
551.235	8373.07
551.599	8364.03
551.962	8420.3
552.326	8372.17
552.689	8494.42
553.053	8380.75
553.417	8432.05
553.78	8459.85
554.143	8505.5
554.507	8509.56
554.87	8509.56
555.234	8607.64
555.597	8458.27
555.96	8587.08
556.323	8581.88
556.686	8633.18
557.05	8599.73
557.413	8654.19
557.776	8639.28
558.139	8659.39
558.502	8671.37
558.865	8640.18
559.228	8791.14
559.59	8738.03
559.953	8731.48
560.316	8858.26
560.679	8855.32
561.041	8863
561.404	8912.27
561.767	8969.21
562.129	8896.67
562.492	8992.72
562.854	8977.12
563.217	8912.94
563.579	9012.6
563.941	9080.85
564.304	9069.78
564.666	9078.36
565.028	9125.82
565.39	9209.88
565.753	9161.75
566.115	9263.22
566.477	9219.38
566.839	9239.71
567.201	9320.84
567.563	9305.48
567.925	9381.63
568.287	9492.14
568.648	9366.49
569.01	9437.22
569.372	9484.45
569.734	9505.02
570.095	9577.56
570.457	9597.22
570.819	9576.2
571.18	9612.59
571.542	9695.3
571.903	9700.95
572.265	9728.74
572.626	9710.44
572.987	9747.5
573.349	9829.08
573.71	9808.06
574.071	9803.32
574.432	9894.61
574.794	10016.87
575.155	9955.4
575.516	9951.79
575.877	9970.99
576.238	10068.17
576.599	10043.76
576.96	10094.83
577.32	10137.77
577.681	10135.74
578.042	10242.4
578.403	10208.5
578.763	10264.55
579.124	10249.18
579.485	10342.06
579.845	10368.27
580.206	10330.76
580.566	10363.53
580.927	10388.61
581.287	10462.73
581.648	10424.77
582.008	10490.08
582.368	10477.65
582.728	10570.75
583.089	10560.13
583.449	10599.45
583.809	10611.2
584.169	10693.46
584.529	10664.54
584.889	10723.07
585.249	10664.76
585.609	10715.16
585.969	10776.62
586.329	10765.78
586.688	10742.95
587.048	10833.8
587.408	10820.01
587.768	10904.53
588.127	10914.47
588.487	10901.37
588.846	10944.98
589.206	10935.94
589.565	10912.21
589.925	10963.74
590.284	10994.24
590.643	11009.61
591.003	11122.6
591.362	11125.99
591.721	11123.73
592.08	11103.17
592.44	11190.85
592.799	11222.71
593.158	11187.91
593.517	11124.41
593.876	11262.03
594.235	11243.5
594.593	11234.46
594.952	11307.68
595.311	11346.33
595.67	11289.15
596.029	11422.03
596.387	11433.56
596.746	11397.17
597.104	11384.52
597.463	11411.86
597.822	11417.51
598.18	11420.9
598.538	11460
598.897	11521.91
599.255	11404.86
599.613	11576.6
599.972	11480.56
600.33	11549.03
600.688	11550.16
601.046	11613.66
601.404	11627.45
601.762	11576.38
602.12	11599.88
602.478	11608.24
602.836	11589.94
603.194	11583.83
603.552	11658.18
603.91	11664.96
604.268	11648.24
604.625	11643.27
604.983	11684.85
605.341	11551.97
605.698	11669.93
606.056	11755.13
606.413	11714
606.771	11704.28
607.128	11716.71
607.485	11735.92
607.843	11710.38
608.2	11782.92
608.557	11812.53
608.914	11779.99
609.272	11826.09
609.629	11850.72
609.986	11959.87
610.343	11826.09
610.7	11891.85
611.057	11982.02
611.414	11898.4
611.771	11978.17
612.127	11904.28
612.484	11935.69
612.841	11946.54
613.198	11957.84
613.554	12039.19
613.911	12046.19
614.267	12018.62
614.624	11985.41
614.98	12008
615.337	12044.84
615.693	12081
616.05	12043.93
616.406	12120.32
616.762	12097.94
617.118	12128.9
617.475	12057.95
617.831	12087.1
618.187	12111.5
618.543	12063.14
618.899	12159.41
619.255	12188.34
619.611	12170.71
619.967	12297.26
620.323	12211.16
620.678	12190.6
621.034	12231.95
621.39	12176.13
621.746	12149.24
622.101	12342.23
622.457	12227.21
622.812	12273.99
623.168	12252.06
623.523	12274.89
623.879	12311.05
624.234	12236.7
624.589	12251.39
624.945	12196.93
625.3	12298.62
625.655	12148.56
626.01	12285.74
626.365	12182.24
626.72	12193.76
627.075	12152.18
627.43	12193.31
627.785	12165.29
628.14	12261.33
628.495	12168
628.85	12181.33
629.205	12124.84
629.559	12214.78
629.914	12193.31
630.269	12158.06
630.623	12108.79
630.978	12166.42
631.332	12155.57
631.687	12162.58
632.041	12056.36
632.396	12112.41
632.75	12029.02
633.104	12070.37
633.459	12077.38
633.813	12020.43
634.167	11956.25
634.521	12016.59
634.875	12008.23
635.229	12014.56
635.583	11911.28
635.937	11993.31
636.291	11868.35
636.645	11939.08
636.999	11866.09
637.352	11879.87
637.706	11867.22
638.06	11885.29
638.413	11813.88
638.767	11786.77
639.121	11879.42
639.474	11761.23
639.828	11708.58
640.181	11694.11
640.534	11735.24
640.888	11801.91
641.241	11699.09
641.594	11658.63
641.947	11688.69
642.301	11669.26
642.654	11668.13
643.007	11777.5
643.36	11685.75
643.713	11651.4
644.066	11660.67
644.419	11568.47
644.771	11573.44
645.124	11484.85
645.477	11409.6
645.83	11392.65
646.182	11285.76
646.535	11288.93
646.888	11317.85
647.24	11246.22
647.593	11283.95
647.945	11195.37
648.298	11299.1
648.65	11151.3
649.002	11141.59
649.355	11281.02
649.707	11253.9
650.059	11279.44
650.411	11451.63
650.763	11481.69
651.115	11554.46
651.467	11464.29
651.819	11498.41
652.171	11519.2
652.523	11432.88
652.875	11481.01
653.227	11400.34
653.578	11562.37
653.93	11477.17
654.282	11432.65
654.633	11449.6
654.985	11438.3
655.337	11503.16
655.688	11478.3
656.039	11601.23
656.391	11383.16
656.742	11435.36
657.094	11328.25
657.445	11364.86
657.796	11428.58
658.147	11380
658.498	11452.54
658.849	11429.71
659.2	11411.86
659.551	11325.08
659.902	11442.59
660.253	11372.77
660.604	11452.76
660.955	11371.18
661.306	11429.26
661.656	11485.76
662.007	11460
662.358	11422.93
662.708	11417.28
663.059	11389.71
663.409	11295.48
663.76	11436.04
664.11	11443.72
664.461	11488.24
664.811	11408.7
665.161	11444.63
665.511	11465.19
665.862	11427.45
666.212	11399.66
666.562	11413.44
666.912	11467.23
667.262	11459.77
667.612	11417.06
667.962	11498.41
668.312	11474.46
668.662	11463.84
669.011	11494.57
669.361	11473.33
669.711	11425.19
670.06	11407.79
670.41	11390.84
670.76	11342.94
671.109	11356.27
671.459	11386.78
671.808	11354.24
672.157	11416.15
672.507	11275.14
672.856	11378.42
673.205	11306.55
673.554	11337.51
673.904	11276.5
674.253	11357.85
674.602	11281.24
674.951	11203.96
675.3	11132.09
675.649	11239.66
675.998	11274.24
676.346	11255.25
676.695	11255.71
677.044	11233.56
677.393	11233.56
677.741	11235.59
678.09	11123.73
678.438	11128.93
678.787	11196.27
679.135	11122.15
679.484	11045.32
679.832	11084.41
680.181	11073.34
680.529	11028.82
680.877	11009.84
681.225	11038.54
681.573	11052.77
681.922	10975.04
682.27	10958.77
682.618	10965.55
682.966	10982.72
683.314	10929.16
683.661	10943.4
684.009	10970.52
684.357	10855.72
684.705	10827.92
685.053	10855.04
685.4	10851.65
685.748	10811.2
686.095	10826.79
686.443	10704.99
686.79	10752.67
687.138	10639.9
687.485	10662.73
687.832	10617.76
688.18	10602.16
688.527	10551.32
688.874	10559
689.221	10557.19
689.568	10542.73
689.915	10476.52
690.262	10469.51
690.609	10446.01
690.956	10418.21
691.303	10387.26
691.65	10279.69
691.997	10360.36
692.344	10268.16
692.69	10228.84
693.037	10169.86
693.383	10116.08
693.73	10090.99
694.077	10161.05
694.423	10122.63
694.769	10000.6
695.116	9980.26
695.462	9961.28
695.808	9947.27
696.155	10022.29
696.501	9912.24
696.847	9888.51
697.193	9789.3
697.539	9807.16
697.885	9724.22
698.231	9705.24
698.577	9709.31
698.923	9714.73
699.269	9609.87
699.614	9620.72
699.96	9501.18
700.306	9549.09
700.651	9576.65
700.997	9519.71
701.342	9480.61
701.688	9508.86
702.033	9443.33
702.379	9430.9
702.724	9313.39
703.069	9412.82
703.415	9221.64
703.76	9214.4
704.105	9300.96
704.45	9226.61
704.795	9174.41
705.14	9154.97
705.485	9059.15
705.83	9060.74
706.175	9093.05
706.52	9011.92
706.865	9084.24
707.209	8983.9
707.554	8924.02
707.899	9016.67
708.243	8950.68
708.588	8895.77
708.932	8819.61
709.277	8822.55
709.621	8853.28
709.966	8743.46
710.31	8822.32
710.654	8722.89
710.998	8719.5
711.342	8724.02
711.687	8688.99
712.031	8672.95
712.375	8618.94
712.719	8653.97
713.063	8587.75
713.407	8618.04
713.75	8575.78
714.094	8573.29
714.438	8538.26
714.782	8486.51
715.125	8521.32
715.469	8522.67
715.812	8424.14
716.156	8408.78
716.499	8482.22
716.843	8421.88
717.186	8420.75
717.53	8453.07
717.873	8387.08
718.216	8458.94
718.559	8391.38
718.902	8289.91
719.246	8385.95
719.589	8301.43
719.932	8383.92
720.275	8345.05
720.617	8317.93
720.96	8300.98
721.303	8365.61
721.646	8267.99
721.989	8232.96
722.331	8270.47
722.674	8230.93
723.016	8206.75
723.359	8211.49
723.701	8239.97
724.044	8171.49
724.386	8153.64
724.729	8185.51
725.071	8199.97
725.413	8151.38
725.755	8143.47
726.097	8194.09
726.439	8105.28
726.782	8120.42
727.124	8144.15
727.465	8103.93
727.807	8087.43
728.149	8068.9
728.491	8072.06
728.833	8065.28
729.175	8034.55
729.516	8015.11
729.858	8054.89
730.199	8046.98
730.541	8010.37
730.882	8035
731.224	8017.15
731.565	7974.21
731.906	7990.48
732.248	7974.44
732.589	7946.64
732.93	7953.42
733.271	7984.15
733.612	8019.41
733.953	7959.3
734.294	7973.31
734.635	7884.95
734.976	7995
735.317	7947.09
735.658	7964.95
735.999	7969.01
736.339	7986.87
736.68	8005.4
737.021	7957.94
737.361	7995.45
737.702	7951.84
738.042	7957.71
738.383	7919.52
738.723	8001.33
739.063	7965.62
739.404	8009.69
739.744	7965.85
740.084	7931.73
740.424	7957.04
740.764	8030.48
741.104	8032.06
741.444	7997.26
741.784	7974.21
742.124	8016.02
742.464	8007.2
742.804	7995.91
743.143	8047.43
743.483	8070.71
743.823	8040.2
744.162	8038.16
744.502	8119.97
744.841	8098.5
745.181	8147.09
745.52	8173.3
745.86	8184.38
746.199	8180.08
746.538	8270.02
746.877	8288.55
747.216	8359.96
747.556	8359.74
747.895	8364.48
748.234	8416.69
748.573	8475.44
748.911	8516.57
749.25	8525.84
749.589	8528.09
749.928	8687.86
750.267	8746.17
750.605	8750.46
750.944	8780.74
751.283	8840.18
751.621	8970.12
751.96	8921.08
752.298	9033.17
752.636	9179.15
752.975	9213.95
753.313	9267.74
753.651	9424.57
753.989	9494.17
754.327	9493.95
754.666	9529.88
755.004	9702.75
755.342	9780.27
755.679	9926.02
756.017	9987.72
756.355	10208.5
756.693	10202.18
757.031	10407.37
757.368	10472.68
757.706	10626.12
758.044	10725.33
758.381	10855.27
758.719	10974.81
759.056	11180.45
759.394	11240.34
759.731	11373.44
760.068	11553.55
760.405	11646.43
760.743	11782.47
761.08	11943.82
761.417	11982.69
761.754	12258.17
762.091	12307.66
762.428	12454.32
762.765	12630.13
763.102	12759.4
763.438	12881.43
763.775	13081.2
764.112	13203.9
764.449	13352.83
764.785	13561.18
765.122	13560.51
765.458	13724.79
765.795	13897.9
766.131	14061.51
766.467	14252.46
766.804	14262.41
767.14	14391.22
767.476	14546.47
767.812	14736.29
768.148	14906.01
768.485	14955.5
768.821	15008.6
769.157	15156.62
769.492	15264.42
769.828	15416.5
770.164	15476.84
770.5	15535.82
770.836	15769.26
771.171	15720.45
771.507	15832.31
771.842	15912.08
772.178	15957.28
772.513	16131.28
772.849	16226.65
773.184	16247.89
773.519	16378.28
773.855	16349.81
774.19	16473.65
774.525	16521.56
774.86	16576.24
775.195	16718.16
775.53	16763.58
775.865	16766.75
776.2	16801.78
776.535	16838.38
776.87	16799.52
777.205	16953.18
777.539	16987.53
777.874	17120.41
778.209	17077.93
778.543	17166.29
778.878	17084.93
779.212	17193.4
779.547	17170.81
779.881	17237.47
780.215	17237.7
780.55	17310.01
780.884	17199.05
781.218	17345.94
781.552	17392.04
781.886	17317.24
782.22	17223.23
782.554	17322.67
782.888	17263.68
783.222	17239.28
783.556	17210.13
783.889	17198.15
784.223	17069.34
784.557	17215.1
784.89	17233.18
785.224	17104.82
785.557	17208.32
785.891	17211.26
786.224	17180.07
786.558	17198.15
786.891	17087.19
787.224	16972.17
787.557	16995.89
787.891	16989.12
788.224	17023.92
788.557	17091.03
788.89	17091.94
789.223	17138.04
789.556	17014.2
789.888	16947.31
790.221	16912.06
790.554	16851.94
790.887	16896.01
791.219	16713.87
791.552	16856.24
791.884	16754.55
792.217	16766.07
792.549	16812.17
792.882	16674.55
793.214	16655.34
793.546	16733.53
793.879	16509.81
794.211	16562.69
794.543	16663.25
794.875	16630.48
795.207	16632.06
795.539	16496.7
795.871	16534.66
796.203	16455.57
796.535	16305.97
796.867	16397.49
797.198	16277.72
797.53	16351.39
797.862	16134.45
798.193	16247.67
798.525	16139.19
798.856	16280.21
799.188	16004.28
799.519	15998.18
799.85	15922.7
800.182	15975.81
800.513	16008.35
800.844	15876.38
801.175	15918.18
801.506	15865.53
801.837	15852.2
802.168	15795.47
802.499	15725.19
802.83	15705.76
803.161	15649.04
803.491	15619.89
803.822	15688.36
804.153	15675.48
804.483	15394.81
804.814	15481.58
805.145	15497.18
805.475	15473.9
805.805	15297.18
806.136	15456.27
806.466	15367.24
806.796	15303.74
807.126	15175.38
807.457	15212.89
807.787	15241.59
808.117	15135.38
808.447	15109.62
808.777	15176.73
809.107	15107.81
809.436	15101.93
809.766	14962.28
810.096	15036.17
810.426	14992.33
810.755	14951.65
811.085	14907.59
811.414	14900.81
811.744	14777.2
812.073	14785.11
812.403	14788.72
812.732	14642.51
813.061	14687.71
813.39	14561.83
813.719	14591.44
814.049	14741.72
814.378	14613.36
814.707	14510.76
815.036	14515.28
815.365	14541.04
815.693	14448.39
816.022	14378.34
816.351	14369.52
816.68	14266.02
817.008	14334.95
817.337	14285.68
817.665	14256.76
817.994	14316.42
818.322	14249.53
818.651	14180.38
818.979	14057.22
819.307	14139.47
819.636	14223.99
819.964	14065.8
820.292	14122.98
820.62	14130.43
820.948	14017.89
821.276	14135.63
821.604	13979.93
821.932	14014.96
822.259	14128.63
822.587	14039.59
822.915	14063.54
823.243	14058.12
823.57	14078.23
823.898	14073.26
824.225	13984.9
824.553	14048.4
824.88	14041.62
825.207	14177.44
825.535	14014.73
825.862	14082.98
826.189	14063.32
826.516	14105.8
826.843	14131.11
827.17	14077.1
827.497	14119.36
827.824	14085.69
828.151	14122.75
828.478	14118.23
828.805	14144.44
829.131	14109.87
829.458	14075.97
829.785	13998.01
830.111	14075.97
830.438	14148.51
830.764	14133.37
831.09	14192.58
831.417	14007.95
831.743	14049.98
832.069	14093.37
832.395	14011.11
832.722	14011.79
833.048	14035.75
833.374	14054.28
833.7	13958.91
834.026	13988.29
834.351	13913.26
834.677	14012.47
835.003	14033.49
835.329	13947.39
835.654	13957.56
835.98	13898.12
836.306	13890.67
836.631	13859.48
836.956	13830.78
837.282	13874.62
837.607	13810.22
837.932	13805.24
838.258	13768.41
838.583	13793.27
838.908	13795.75
839.233	13693.61
839.558	13700.16
839.883	13727.96
840.208	13601.86
840.533	13616.77
840.858	13605.7
841.182	13611.13
841.507	13652.25
841.832	13529.55
842.156	13520.73
842.481	13582.88
842.805	13473.95
843.13	13376.78
843.454	13388.53
843.778	13429.89
844.103	13264.47
844.427	13263.79
844.751	13365.26
845.075	13249.33
845.399	13267.18
845.723	13067.64
846.047	13203
846.371	13013.4
846.695	12982.44
847.019	12908.77
847.343	12890.69
847.666	12837.59
847.99	12792.39
848.313	12745.39
848.637	12707.87
848.96	12633.3
849.284	12615.45
849.607	12488.22
849.931	12528.22
850.254	12438.5
850.577	12284.61
850.9	12334.1
851.223	12349.46
851.546	12232.63
851.869	12120.99
852.192	12212.97
852.515	12043.93
852.838	12068.34
853.161	12112.18
853.483	12005.07
853.806	11928.23
854.129	11931.17
854.451	11899.31
854.774	11802.13
855.096	11802.59
855.419	11716.71
855.741	11724.17
856.063	11676.71
856.385	11658.41
856.708	11570.05
857.03	11516.49
857.352	11543.16
857.674	11481.69
857.996	11497.96
858.318	11471.07
858.64	11422.26
858.961	11376.83
859.283	11320.56
859.605	11226.33
859.926	11284.63
860.248	11264.97
860.57	11269.49
860.891	11206.67
861.212	11188.82
861.534	11147.46
861.855	11139.78
862.176	11055.03
862.498	11104.98
862.819	11156.27
863.14	11013.45
863.461	10977.52
863.782	10915.6
864.103	10996.28
864.424	10913.34
864.745	10968.71
865.065	10908.82
865.386	10853.01
865.707	10830.41
866.027	10873.12
866.348	10821.59
866.668	10815.49
866.989	10789.96
867.309	10803.06
867.63	10789.73
867.95	10721.94
868.27	10740.92
868.59	10767.36
868.91	10666.12
869.23	10691.88
869.55	10652.56
869.87	10607.14
870.19	10608.27
870.51	10630.41
870.83	10579.57
871.15	10534.6
871.469	10563.97
871.789	10613.46
872.109	10563.75
872.428	10461.6
872.748	10474.48
873.067	10442.39
873.386	10537.08
873.706	10465.9
874.025	10383.19
874.344	10360.14
874.663	10436.07
874.982	10365.79
875.301	10361.72
875.62	10394.71
875.939	10369.4
876.258	10325.11
876.577	10254.38
876.896	10311.55
877.214	10253.02
877.533	10251.67
877.852	10214.15
878.17	10239.91
878.489	10221.84
878.807	10117.43
879.125	10145.68
879.444	10149.75
879.762	10168.28
880.08	10094.16
880.398	10040.15
880.716	10044.67
881.034	9984.55
881.352	10044.89
881.67	9971.9
881.988	9989.3
882.306	9963.99
882.624	9899.81
882.941	9879.25
883.259	9795.18
883.577	9821.17
883.894	9774.39
884.212	9794.95
884.529	9777.1
884.846	9694.17
885.164	9730.55
885.481	9712.02
885.798	9650.1
886.115	9629.08
886.432	9671.12
886.75	9586.15
887.067	9641.51
887.383	9541.4
887.7	9573.04
888.017	9534.17
888.334	9520.61
888.651	9407.85
888.967	9483.1
889.284	9406.94
889.6	9441.07
889.917	9338.02
890.233	9409.43
890.55	9312.93
890.866	9363.55
891.182	9315.42
891.498	9286.04
891.815	9208.76
892.131	9227.74
892.447	9184.57
892.763	9145.93
893.079	9054.18
893.395	9115.65
893.71	9035.2
894.026	9108.42
894.342	8984.81
894.657	8928.31
894.973	8980.51
895.289	8917.01
895.604	8866.17
895.92	8776.45
896.235	8795.66
896.55	8773.06
896.865	8700.97
897.181	8707.98
897.496	8701.2
897.811	8674.08
898.126	8680.18
898.441	8646.06
898.756	8535.78
899.071	8571.26
899.386	8491.03
899.7	8469.57
900.015	8468.66
900.33	8420.53
900.644	8340.76
900.959	8444.26
901.273	8283.13
901.588	8272.73
901.902	8265.28
902.216	8197.03
902.531	8277.71
902.845	8191.83
903.159	8138.95
903.473	8070.93
903.787	8084.04
904.101	7989.58
904.415	8007.2
904.729	7963.14
905.042	7921.56
905.356	7896.47
905.67	7884.72
905.984	7882.91
906.297	7817.38
906.611	7770.6
906.924	7823.71
907.237	7741.45
907.551	7713.88
907.864	7680.43
908.177	7628.46
908.491	7616.93
908.804	7572.41
909.117	7596.59
909.43	7531.74
909.743	7452.42
910.056	7426.2
910.368	7386.43
910.681	7396.83
910.994	7294.23
911.307	7360.89
911.619	7267.11
911.932	7282.48
912.244	7229.82
912.557	7260.78
912.869	7131.07
913.181	7111.41
913.494	7101.69
913.806	7072.99
914.118	7099.66
914.43	7010.85
914.742	7057.63
915.054	6975.37
915.366	6948.02
915.678	6945.54
915.99	6901.02
916.302	6852.66
916.613	6883.39
916.925	6838.42
917.236	6788.48
917.548	6766.11
917.859	6748.03
918.171	6714.81
918.482	6630.52
918.794	6649.5
919.105	6645.88
919.416	6547.81
919.727	6600.24
920.038	6583.51
920.349	6469.17
920.66	6501.48
920.971	6461.93
921.282	6492.67
921.593	6385.1
921.903	6367.47
922.214	6355.72
922.525	6301.49
922.835	6284.54
923.146	6253.13
923.456	6270.98
923.767	6206.8
924.077	6237.31
924.387	6204.54
924.697	6099.91
925.008	6179.46
925.318	6113.02
925.628	6100.36
925.938	6087.48
926.248	6010.87
926.558	5998.22
926.867	5990.08
927.177	5950.76
927.487	5906.24
927.796	5898.33
928.106	5895.17
928.416	5886.36
928.725	5859.46
929.034	5785.79
929.344	5800.26
929.653	5757.09
929.962	5707.6
930.271	5710.09
930.581	5671.45
930.89	5648.4
931.199	5645.68
931.508	5671.22
931.817	5608.17
932.125	5629.64
932.434	5574.27
932.743	5496.76
933.051	5497.44
933.36	5498.34
933.669	5469.64
933.977	5483.43
934.286	5406.82
934.594	5451.79
934.902	5412.02
935.21	5348.74
935.519	5416.09
935.827	5386.71
936.135	5288.41
936.443	5268.52
936.751	5232.59
937.059	5206.6
937.367	5200.72
937.674	5222.19
937.982	5142.87
938.29	5180.84
938.597	5137.22
938.905	5057.9
939.213	5090.45
939.52	5054.29
939.827	5073.27
940.135	5059.03
940.442	5005.25
940.749	5010.22
941.056	4972.03
941.363	4943.1
941.67	4959.6
941.977	4861.3
942.284	4838.02
942.591	4872.82
942.898	4835.99
943.205	4816.55
943.511	4791.92
943.818	4772.04
944.125	4730.45
944.431	4687.97
944.738	4724.58
945.044	4667.18
945.35	4652.26
945.657	4623.34
945.963	4594.41
946.269	4585.15
946.575	4562.32
946.881	4541.76
947.187	4543.57
947.493	4524.58
947.799	4540.4
948.105	4477.58
948.41	4478.71
948.716	4486.85
949.022	4445.94
949.327	4363.46
949.633	4366.62
949.938	4370.92
950.244	4389.22
950.549	4332.5
950.854	4272.39
951.16	4269.9
951.465	4231.94
951.77	4240.07
952.075	4225.61
952.38	4225.16
952.685	4240.52
952.99	4138.61
953.294	4166.85
953.599	4173.41
953.904	4142
954.209	4101.54
954.513	4098.15
954.818	4052.51
955.122	4045.5
955.426	4010.7
955.731	4027.65
956.035	4001.43
956.339	3978.84
956.643	4007.76
956.948	3934.09
957.252	3947.88
957.556	3923.24
957.86	3874.88
958.163	3953.75
958.467	3849.35
958.771	3873.53
959.075	3822
959.378	3796.24
959.682	3846.64
959.985	3778.62
960.289	3784.72
960.592	3734.1
960.896	3770.71
961.199	3739.07
961.502	3742.91
961.805	3694.55
962.108	3687.54
962.411	3697.26
962.714	3654.55
963.017	3589.92
963.32	3648.9
963.623	3595.12
963.926	3587.21
964.228	3575.68
964.531	3554.89
964.833	3577.04
965.136	3490.04
965.438	3530.03
965.741	3512.63
966.043	3490.94
966.345	3476.93
966.648	3459.53
966.95	3436.7
967.252	3448.68
967.554	3407.78
967.856	3368.23
968.158	3382.02
968.46	3373.43
968.761	3348.34
969.063	3347.44
969.365	3315.58
969.666	3320.32
969.968	3300.89
970.269	3249.59
970.571	3277.84
970.872	3223.15
971.174	3243.04
971.475	3236.93
971.776	3186.31
972.077	3199.65
972.378	3189.48
972.679	3164.39
972.98	3181.34
973.281	3178.18
973.582	3146.77
973.883	3106.32
974.183	3082.81
974.484	3066.09
974.785	3089.14
975.085	3059.54
975.386	3083.04
975.686	3013.66
975.986	3017.96
976.287	3001.23
976.587	2985.42
976.887	2956.49
977.187	2962.82
977.487	2949.26
977.787	2932.31
978.087	2871.29
978.387	2905.19
978.687	2910.39
978.987	2929.82
979.286	2861.35
979.586	2879.43
979.885	2855.25
980.185	2820.9
980.484	2846.66
980.784	2812.31
981.083	2781.35
981.382	2786.55
981.682	2761.92
981.981	2739.77
982.28	2764.86
982.579	2704.75
982.878	2700.68
983.177	2692.77
983.475	2678.08
983.774	2709.26
984.073	2667.23
984.372	2644.86
984.67	2658.87
984.969	2636.72
985.267	2599.21
985.566	2636.27
985.864	2591.75
986.162	2588.82
986.461	2541.59
986.759	2557.18
987.057	2527.8
987.355	2536.61
987.653	2516.95
987.951	2517.63
988.249	2506.56
988.547	2489.61
988.844	2470.63
989.142	2469.5
989.44	2471.31
989.737	2450.97
990.035	2390.18
990.332	2424.98
990.63	2391.76
990.927	2404.41
991.224	2392.66
991.521	2383.62
991.819	2344.08
992.116	2368.93
992.413	2339.33
992.71	2317.86
993.006	2342.04
993.303	2314.93
993.6	2324.64
993.897	2306.56
994.193	2269.95
994.49	2271.99
994.787	2244.87
995.083	2262.5
995.379	2241.03
995.676	2237.41
995.972	2237.19
996.268	2196.06
996.565	2221.82
996.861	2191.09
997.157	2168.71
997.453	2159
997.749	2169.39
998.044	2168.71
998.34	2129.17
998.636	2118.77
998.932	2084.2
999.227	2087.36
999.523	2085.33
999.818	2060.24
1000.114	2056.17
1000.409	2070.86
1000.704	2043.75
1001	2036.06
1001.295	2007.59
1001.59	2031.54
1001.885	1995.39
1002.18	1996.74
1002.475	1963.97
1002.77	1980.92
1003.065	1952.45
1003.359	1945.44
1003.654	1929.85
1003.949	1940.47
1004.243	1917.42
1004.538	1868.61
1004.832	1864.99
1005.127	1874.03
1005.421	1885.78
1005.715	1825.45
1006.009	1868.61
1006.304	1853.24
1006.598	1826.58
1006.892	1807.59
1007.186	1811.44
1007.48	1795.16
1007.773	1819.8
1008.067	1801.27
1008.361	1758.33
1008.655	1747.93
1008.948	1744.54
1009.242	1769.63
1009.535	1719.46
1009.829	1750.65
1010.122	1733.92
1010.415	1706.13
1010.708	1675.62
1011.001	1709.74
1011.295	1683.76
1011.588	1704.09
1011.881	1633.59
1012.173	1640.14
1012.466	1626.81
1012.759	1637.2
1013.052	1617.09
1013.344	1608.73
1013.637	1596.3
1013.93	1566.02
1014.222	1587.03
1014.514	1561.05
1014.807	1554.72
1015.099	1547.26
1015.391	1503.65
1015.683	1544.55
1015.976	1527.38
1016.268	1512.69
1016.56	1488.51
1016.851	1494.61
1017.143	1469.52
1017.435	1471.56
1017.727	1465.23
1018.018	1447.83
1018.31	1463.87
1018.602	1424.1
1018.893	1420.71
1019.185	1432.01
1019.476	1401.73
1019.767	1389.98
1020.058	1399.69
1020.35	1388.17
1020.641	1394.05
1020.932	1344.33
1021.223	1383.2
1021.514	1373.25
1021.804	1335.74
1022.095	1326.93
1022.386	1319.47
1022.677	1322.63
1022.967	1297.78
1023.258	1296.19
1023.548	1288.51
1023.839	1283.09
1024.129	1287.38
1024.419	1280.15
1024.709	1292.8
1025	1254.84
1025.29	1227.27
1025.58	1245.57
1025.87	1230.66
1026.16	1241.73
1026.449	1217.1
1026.739	1192.02
1027.029	1215.07
1027.319	1195.41
1027.608	1206.03
1027.898	1174.84
1028.187	1163.54
1028.477	1140.27
1028.766	1135.52
1029.055	1149.53
1029.344	1132.58
1029.634	1137.55
1029.923	1114.5
1030.212	1102.75
1030.501	1096.88
1030.79	1102.3
1031.078	1103.66
1031.367	1096.65
1031.656	1078.57
1031.945	1054.85
1032.233	1068.4
1032.522	1050.55
1032.81	1059.14
1033.099	1033.15
1033.387	1053.72
1033.675	1023.43
1033.963	1039.7
1034.251	1037.9
1034.54	1015.07
1034.828	1005.13
1035.116	993.15
1035.403	1006.26
1035.691	989.08
1035.979	981.17
1036.267	974.85
1036.554	966.49
1036.842	958.35
1037.129	952.47
1037.417	951.57
1037.704	970.33
1037.992	926.94
1038.279	929.42
1038.566	936.43
1038.853	936.43
1039.14	936.43
