Data from hue_22_FLMS001491_00092.txt Node
Date: Tue Feb 07 17:10:57 GMT 2017
User: dcchb
Spectrometer: FLMS00149
Trigger mode: 0
Integration Time (sec): 2.000000E-2
Scans to average: 10
Electric dark correction enabled: true
Nonlinearity correction enabled: false
Boxcar width: 0
XAxis mode: Wavelengths
Number of Pixels in Spectrum: 2048
>>>>>Begin Spectral Data<<<<<
341.393	-11.06
341.776	-11.06
342.16	-11.06
342.543	-60.1
342.927	-69.36
343.31	-69.59
343.693	-72.53
344.077	-66.88
344.46	-61
344.843	-56.48
345.226	-59.42
345.61	-18.29
345.993	-16.26
346.376	-3.83
346.759	9.05
347.142	13.35
347.525	42.95
347.908	65.1
348.291	81.82
348.674	85.44
349.057	126.56
349.44	132.67
349.823	151.65
350.206	166.34
350.588	199.56
350.971	211.53
351.354	222.16
351.737	231.65
352.119	263.51
352.502	258.99
352.884	269.16
353.267	272.55
353.65	305.09
354.032	294.7
354.414	306.22
354.797	304.41
355.179	328.14
355.562	307.8
355.944	324.07
356.326	341.93
356.709	315.49
357.091	334.69
357.473	325.66
357.855	355.26
358.238	355.71
358.62	345.99
359.002	348.25
359.384	337.63
359.766	343.51
360.148	328.82
360.53	342.83
360.912	336.28
361.294	332.43
361.676	319.33
362.057	350.06
362.439	328.14
362.821	347.58
363.203	320.91
363.584	317.97
363.966	338.99
364.348	335.82
364.729	321.81
365.111	333.79
365.493	325.88
365.874	321.14
366.256	315.71
366.637	323.62
367.019	324.75
367.4	321.36
367.781	310.74
368.163	312.32
368.544	307.12
368.925	330.85
369.306	303.96
369.688	319.33
370.069	318.42
370.45	305.54
370.831	297.41
371.212	338.99
371.593	292.89
371.974	324.53
372.355	309.38
372.736	324.75
373.117	320.46
373.498	303.28
373.879	321.14
374.26	293.34
374.641	316.62
375.021	307.58
375.402	319.33
375.783	342.15
376.163	329.5
376.544	326.33
376.925	315.49
377.305	350.74
377.686	341.7
378.066	328.82
378.447	331.76
378.827	342.15
379.208	323.62
379.588	349.84
379.968	340.57
380.349	341.47
380.729	338.08
381.109	335.37
381.489	324.75
381.87	347.12
382.25	355.03
382.63	329.72
383.01	351.19
383.39	351.87
383.77	350.29
384.15	331.76
384.53	332.21
384.91	342.6
385.29	350.51
385.67	337.86
386.049	356.39
386.429	358.87
386.809	348.25
387.189	340.57
387.568	339.44
387.948	376.73
388.328	377.86
388.707	371.98
389.087	342.38
389.466	363.39
389.846	362.72
390.225	352.77
390.605	359.78
390.984	357.29
391.363	360
391.743	354.58
392.122	366.56
392.501	383.05
392.881	366.11
393.26	377.18
393.639	359.33
394.018	369.27
394.397	377.86
394.776	372.89
395.155	381.25
395.534	348.71
395.913	377.63
396.292	360
396.671	358.42
397.05	388.48
397.429	392.55
397.808	372.21
398.186	371.53
398.565	387.12
398.944	365.88
399.323	399.78
399.701	395.26
400.08	397.29
400.458	418.53
400.837	381.7
401.215	402.72
401.594	397.29
401.972	401.81
402.351	377.63
402.729	387.8
403.107	385.31
403.486	403.62
403.864	393.68
404.242	414.92
404.62	390.74
404.999	410.4
405.377	412.88
405.755	395.71
406.133	418.99
406.511	431.19
406.889	420.57
407.267	425.99
407.645	417.63
408.023	424.18
408.401	443.39
408.779	431.64
409.156	426.9
409.534	411.08
409.912	455.37
410.29	466.89
410.667	457.86
411.045	437.29
411.422	441.13
411.8	434.35
412.178	436.84
412.555	433.9
412.933	474.58
413.31	464.41
413.687	439.78
414.065	484.75
414.442	483.39
414.819	461.47
415.197	479.32
415.574	479.55
415.951	471.19
416.328	483.84
416.705	487.68
417.082	491.07
417.46	479.78
417.837	482.71
418.214	476.39
418.591	496.27
418.967	479.55
419.344	521.36
419.721	487.46
420.098	516.38
420.475	508.25
420.852	508.25
421.228	515.03
421.605	515.48
421.982	504.63
422.358	506.22
422.735	530.4
423.111	505.09
423.488	522.26
423.864	537.85
424.241	532.88
424.617	532.2
424.994	555.25
425.37	527.23
425.746	529.49
426.123	544.41
426.499	547.8
426.875	548.25
427.251	580.56
427.627	550.96
428.003	560.9
428.379	557.29
428.756	553.45
429.132	580.11
429.507	559.77
429.883	590.51
430.259	600.45
430.635	575.37
431.011	581.47
431.387	603.61
431.763	628.7
432.138	612.88
432.514	588.47
432.89	609.49
433.265	621.47
433.641	615.14
434.016	640.68
434.392	621.69
434.767	651.3
435.143	629.15
435.518	693.1
435.894	622.6
436.269	637.06
436.644	666.66
437.02	668.47
437.395	667.57
437.77	700.56
438.145	680
438.52	658.3
438.895	697.85
439.271	707.11
439.646	705.76
440.021	721.13
440.395	696.94
440.77	701.46
441.145	716.83
441.52	717.96
441.895	736.49
442.27	698.53
442.645	739.43
443.019	729.26
443.394	740.79
443.769	745.08
444.143	741.69
444.518	736.72
444.892	730.84
445.267	749.37
445.641	750.28
446.016	743.27
446.39	766.1
446.764	780.56
447.139	766.77
447.513	786.66
447.887	787.11
448.262	778.75
448.636	771.97
449.01	781.91
449.384	799.09
449.758	804.06
450.132	797.28
450.506	812.2
450.88	825.3
451.254	834.57
451.628	829.82
452.002	843.83
452.376	880.89
452.75	842.7
453.123	841.12
453.497	863.04
453.871	862.14
454.244	853.78
454.618	879.31
454.992	906.88
455.365	912.76
455.739	902.59
456.112	903.49
456.486	895.36
456.859	912.98
457.232	937.39
457.606	923.61
457.979	948.46
458.352	971.97
458.725	999.54
459.099	969.71
459.472	983.94
459.845	1001.34
460.218	995.47
460.591	1035.92
460.964	1021.46
461.337	1048.35
461.71	1049.03
462.083	1075.01
462.456	1070.04
462.829	1072.3
463.201	1061
463.574	1102.81
463.947	1099.19
464.32	1132.19
464.692	1136.71
465.065	1130.15
465.438	1145.52
465.81	1197.27
466.183	1167.44
466.555	1189.14
466.928	1191.62
467.3	1229.13
467.672	1213.99
468.045	1257.61
468.417	1280.66
468.789	1267.1
469.161	1266.42
469.534	1305.52
469.906	1320.88
470.278	1349.13
470.65	1332.63
471.022	1372.63
471.394	1409.92
471.766	1414.21
472.138	1435.91
472.51	1436.81
472.882	1500.31
473.253	1511.39
473.625	1546.64
473.997	1546.41
474.369	1550.71
474.74	1582.35
475.112	1621.67
475.484	1618.5
475.855	1643.59
476.227	1676.13
476.598	1709.12
476.97	1728.78
477.341	1788.44
477.713	1808.55
478.084	1818.95
478.455	1889.46
478.827	1929.68
479.198	1956.12
479.569	1945.73
479.94	2018.49
480.311	2047.19
480.682	2085.38
481.053	2158.6
481.424	2202.67
481.795	2204.93
482.166	2251.93
482.537	2279.05
482.908	2335.55
483.279	2349.33
483.65	2400.18
484.021	2428.42
484.391	2510.68
484.762	2507.07
485.133	2545.94
485.503	2613.73
485.874	2661.41
486.244	2690.56
486.615	2757
486.985	2787.96
487.356	2871.8
487.726	2933.27
488.097	2974.85
488.467	3007.39
488.837	3040.61
489.207	3087.62
489.578	3170.78
489.948	3147.95
490.318	3223.43
490.688	3253.94
491.058	3310.44
491.428	3348.63
491.798	3394.5
492.168	3420.94
492.538	3502.97
492.908	3516.31
493.278	3598.34
493.648	3641.73
494.017	3650.99
494.387	3700.48
494.757	3750.2
495.126	3798.11
495.496	3809.86
495.866	3849.18
496.235	3879.23
496.605	3926.46
496.974	3958.33
497.344	4022.96
497.713	4006.69
498.082	4053.69
498.452	4065.44
498.821	4136.18
499.19	4120.13
499.559	4148.38
499.928	4224.76
500.298	4286
500.667	4266.12
501.036	4318.09
501.405	4345.66
501.774	4380.69
502.143	4400.12
502.512	4387.47
502.88	4501.36
503.249	4452.78
503.618	4476.05
503.987	4518.54
504.356	4583.4
504.724	4540.69
505.093	4618.65
505.462	4631.53
505.83	4633.11
506.199	4669.5
506.567	4728.25
506.936	4737.97
507.304	4758.99
507.672	4772.77
508.041	4796.05
508.409	4837.63
508.777	4880.79
509.145	4898.87
509.514	4915.37
509.882	4907
510.25	4929.6
510.618	4976.15
510.986	4962.37
511.354	5033.55
511.722	5097.96
512.09	5100.67
512.458	5073.55
512.826	5130.5
513.193	5150.61
513.561	5164.17
513.929	5183.15
514.297	5228.8
514.664	5262.47
515.032	5288.24
515.4	5295.02
515.767	5307.9
516.135	5330.95
516.502	5246.66
516.869	5337.95
517.237	5377.05
517.604	5330.72
517.972	5409.82
518.339	5469.47
518.706	5428.12
519.073	5485.07
519.44	5483.49
519.808	5543.82
520.175	5539.53
520.542	5630.6
520.909	5557.61
521.276	5617.95
521.643	5662.24
522.009	5660.43
522.376	5647.1
522.743	5708.34
523.11	5805.96
523.477	5812.29
523.843	5778.39
524.21	5829.47
524.577	5862.23
524.943	5903.14
525.31	5975.22
525.676	5953.98
526.043	6030.36
526.409	6005.73
526.776	6081.21
527.142	6100.64
527.508	6100.87
527.874	6196.69
528.241	6196.01
528.607	6174.32
528.973	6234.43
529.339	6219.96
529.705	6331.37
530.071	6360.52
530.437	6408.89
530.803	6372.05
531.169	6456.12
531.535	6419.73
531.901	6471.93
532.267	6509.9
532.632	6522.78
532.998	6473.74
533.364	6640.74
533.73	6645.49
534.095	6629.9
534.461	6712.15
534.826	6754.64
535.192	6741.98
535.557	6782.66
535.923	6764.58
536.288	6805.94
536.653	6866.27
537.019	6848.2
537.384	6902.66
537.749	6927.74
538.114	6900.85
538.479	6965.03
538.845	7008.87
539.21	7004.12
539.575	7057.68
539.94	7088.42
540.305	7113.73
540.67	7091.58
541.034	7136.32
541.399	7176.32
541.764	7221.52
542.129	7202.99
542.494	7248.41
542.858	7254.96
543.223	7294.06
543.587	7339.71
543.952	7322.53
544.316	7367.5
544.681	7487.05
545.045	7457.22
545.41	7497.9
545.774	7481.17
546.138	7523.88
546.503	7598.68
546.867	7628.29
547.231	7635.97
547.595	7695.41
547.959	7740.6
548.324	7635.97
548.688	7757.32
549.052	7718.46
549.416	7779.7
549.779	7780.6
550.143	7829.41
550.507	7949.18
550.871	7945.34
551.235	7880.03
551.599	7967.94
551.962	7929.3
552.326	8008.39
552.689	8034.38
553.053	8048.39
553.417	8045.45
553.78	8178.56
554.143	8069.86
554.507	8150.08
554.87	8183.3
555.234	8288.84
555.597	8212
555.96	8237.54
556.323	8307.82
556.686	8335.39
557.05	8342.62
557.413	8382.39
557.776	8437.76
558.139	8489.28
558.502	8504.88
558.865	8494.25
559.228	8514.82
559.59	8485.21
559.953	8539
560.316	8635.95
560.679	8597.08
561.041	8608.6
561.404	8648.15
561.767	8713.68
562.129	8689.5
562.492	8817.41
562.854	8776.28
563.217	8825.54
563.579	8861.93
563.941	8854.7
564.304	8933.34
564.666	8895.37
565.028	8897.41
565.39	8978.08
565.753	9024.86
566.115	9079.1
566.477	9166.1
566.839	9131.75
567.201	9170.39
567.563	9172.2
567.925	9312.54
568.287	9299.43
568.648	9241.81
569.01	9377.62
569.372	9411.97
569.734	9387.11
570.095	9463.95
570.457	9503.04
570.819	9550.05
571.18	9604.96
571.542	9668.91
571.903	9656.26
572.265	9692.87
572.626	9757.27
572.987	9844.28
573.349	9800.66
573.71	9878.17
574.071	9948.91
574.432	10010.82
574.794	10094.21
575.155	10080.88
575.516	10133.98
575.877	10286.52
576.238	10294.88
576.599	10389.57
576.96	10406.75
577.32	10591.15
577.681	10610.81
578.042	10725.83
578.403	10779.39
578.763	10947.07
579.124	11001.53
579.485	11135.77
579.845	11219.83
580.206	11374.63
580.566	11407.17
580.927	11532.14
581.287	11742.08
581.648	11817.56
582.008	12025.91
582.368	12231.33
582.728	12328.5
583.089	12462.29
583.449	12593.13
583.809	12834.03
584.169	13025.66
584.529	13183.85
584.889	13398.31
585.249	13575.25
585.609	13699.99
585.969	14095.24
586.329	14214.78
586.688	14463.59
587.048	14693.19
587.408	14928.44
587.768	15130.01
588.127	15391.7
588.487	15686.83
588.846	15940.61
589.206	16247.5
589.565	16493.37
589.925	16870.08
590.284	17112.78
590.643	17422.83
591.003	17835.03
591.362	18084.96
591.721	18372.86
592.08	18700.99
592.44	19002.23
592.799	19253.29
593.158	19631.36
593.517	19945.48
593.876	20289.88
594.235	20561.06
594.593	20854.16
594.952	21322.17
595.311	21576.62
595.67	22090.28
596.029	22568.01
596.387	22686.65
596.746	23153.76
597.104	23322.34
597.463	23699.28
597.822	24188.3
598.18	24413.38
598.538	24773.6
598.897	25202.74
599.255	25375.84
599.613	26062.83
599.972	26258.08
600.33	26582.82
600.688	26840.66
601.046	27296.47
601.404	27660.98
601.762	28055.77
602.12	28362.88
602.478	28723.33
602.836	29065.69
603.194	29180.49
603.552	29448.05
603.91	29841.04
604.268	30239.9
604.625	30441.47
604.983	30891.63
605.341	30954.23
605.698	31428.57
606.056	31829.01
606.413	32056.35
606.771	32448.43
607.128	32640.51
607.485	32842.09
607.843	33184.9
608.2	33601.84
608.557	33867.82
608.914	33984.21
609.272	34440.24
609.629	34797.29
609.986	35115.47
610.343	35136.72
610.7	35600.43
611.057	35745.29
611.414	36169.46
611.771	36285.16
612.127	36511.82
612.484	36717.92
612.841	36952.26
613.198	37124.91
613.554	37372.36
613.911	37814.39
614.267	37918.11
614.624	37991.33
614.98	38218.67
615.337	38718.09
615.693	38665.21
616.05	38795.15
616.406	39253.22
616.762	39181.36
617.118	39307.68
617.475	39512.2
617.831	39855.92
618.187	40012.3
618.543	40239.63
618.899	40593.75
619.255	40506.29
619.611	40796.91
619.967	41072.15
620.323	41071.02
620.678	41145.37
621.034	41314.18
621.39	41143.11
621.746	41386.04
622.101	41978.35
622.457	41715.08
622.812	41827.16
623.168	42022.64
623.523	42165.91
623.879	42334.72
624.234	42192.58
624.589	42496.75
624.945	42674.82
625.3	42695.16
625.655	42785.78
626.01	42842.05
626.365	43004.99
626.72	43089.5
627.075	43063.51
627.43	43140.8
627.785	43029.84
628.14	43202.49
628.495	43416.5
628.85	43337.63
629.205	43255.37
629.559	43548.7
629.914	43337.18
630.269	43490.4
630.623	43267.35
630.978	43493.79
631.332	43696.94
631.687	43823.72
632.041	43614.91
632.396	43800.67
632.75	43622.82
633.104	43735.59
633.459	43602.48
633.813	43670.05
634.167	43825.3
634.521	43860.33
634.875	43874.79
635.229	43811.29
635.583	43712.99
635.937	43735.81
636.291	43852.19
636.645	43927.22
636.999	43858.52
637.352	43871.85
637.706	43681.35
638.06	43981.46
638.413	43781.46
638.767	43666.66
639.121	43833.21
639.474	43703.95
639.828	43639.77
640.181	43714.57
640.534	43852.87
640.888	43567.91
641.241	43456.95
641.594	43499.44
641.947	43658.98
642.301	43621.01
642.654	43759.54
643.007	43751.86
643.36	43573.33
643.713	43647.68
644.066	43775.13
644.419	43530.85
644.771	43258.99
645.124	42953.91
645.477	42826.68
645.83	42645.45
646.182	42595.73
646.535	42433.25
646.888	42646.35
647.24	42224.44
647.593	42557.99
647.945	42510.99
648.298	42400.71
648.65	42326.81
649.002	42152.8
649.355	42347.6
649.707	42303.53
650.059	42583.98
650.411	42986.45
650.763	43047.92
651.115	43294.69
651.467	43374.69
651.819	43290.18
652.171	43271.42
652.523	43164.3
652.875	43018.32
653.227	42875.04
653.578	43250.4
653.93	43076.4
654.282	42943.52
654.633	42900.36
654.985	43075.04
655.337	43146.22
655.688	42964.31
656.039	43117.3
656.391	42853.58
656.742	42931.77
657.094	42844.99
657.445	43003.63
657.796	42942.84
658.147	42962.05
658.498	42853.8
658.849	42868.94
659.2	42755.73
659.551	42871.43
659.902	42992.33
660.253	42904.65
660.604	42927.25
660.955	42680.7
661.306	42915.04
661.656	42781.71
662.007	42755.5
662.358	42840.02
662.708	42795.95
663.059	42888.38
663.409	42553.47
663.76	42798.44
664.11	42863.52
664.461	42834.82
664.811	42847.7
665.161	42757.53
665.511	42626.24
665.862	42826.23
666.212	42883.41
666.562	42711.21
666.912	42851.77
667.262	42575.84
667.612	42650.42
667.962	42752.34
668.312	42649.74
668.662	42790.3
669.011	42732.68
669.361	42681.15
669.711	42558.44
670.06	42475.96
670.41	42632.57
670.76	42513.02
671.109	42652.23
671.459	42417.43
671.808	42519.8
672.157	42526.35
672.507	42353.93
672.856	42432.8
673.205	42458.11
673.554	42421.5
673.904	42247.04
674.253	42603.87
674.602	42407.94
674.951	41941.06
675.3	41784.68
675.649	42398.22
675.998	42308.05
676.346	42296.3
676.695	42324.32
677.044	42165.69
677.393	42183.99
677.741	42336.3
678.09	42166.59
678.438	42066.25
678.787	42155.52
679.135	41986.03
679.484	41883.88
679.832	41998.46
680.181	41753.49
680.529	41870.55
680.877	41721.63
681.225	41565.02
681.573	41937.22
681.922	41652.7
682.27	41487.06
682.618	41576.1
682.966	41481.86
683.314	41479.15
683.661	41407.96
684.009	41159.38
684.357	41129.33
684.705	41076.22
685.053	41051.59
685.4	41155.99
685.748	40882.33
686.095	40996.45
686.443	40835.78
686.79	40959.84
687.138	40868.54
687.485	40752.84
687.832	40667.87
688.18	40751.48
688.527	40492.96
688.874	40605.27
689.221	40429.23
689.568	40395.34
689.915	40310.82
690.262	40261.78
690.609	40135.23
690.956	39978.17
691.303	39937.27
691.65	39728.24
691.997	39761
692.344	39410.73
692.69	39510.84
693.037	39566.21
693.383	39282.82
693.73	39356.49
694.077	39078.31
694.423	39088.25
694.769	38846.68
695.116	38921.48
695.462	38875.6
695.808	38793.8
696.155	38706.57
696.501	38552.22
696.847	38549.73
697.193	38330.53
697.539	38396.29
697.885	38273.36
698.231	37949.3
698.577	37972.58
698.923	38100.03
699.269	37891
699.614	37674.05
699.96	37641.28
700.306	37513.38
700.651	37502.98
700.997	37301.41
701.342	37262.31
701.688	37368.07
702.033	37190
702.379	37187.06
702.724	36900.06
703.069	36916.11
703.415	36682.67
703.76	36627.3
704.105	36597.92
704.45	36629.79
704.795	36254.2
705.14	36239.74
705.485	36282.9
705.83	36113.87
706.175	36164.03
706.52	35990.48
706.865	35961.33
707.209	35938.05
707.554	35758.85
707.899	35764.5
708.243	35579.19
708.588	35600.66
708.932	35287.22
709.277	35350.5
709.621	35256.94
709.966	35155.7
710.31	35198.64
710.654	34959.77
710.998	35072.76
711.342	34949.6
711.687	34907.34
712.031	34726.11
712.375	34666.67
712.719	34652.66
713.063	34647.24
713.407	34760.68
713.75	34456.96
714.094	34437.3
714.438	34320.47
714.782	34430.97
715.125	34268.04
715.469	34320.92
715.812	34144.43
716.156	33867.37
716.499	33862.4
716.843	33892.68
717.186	33654.27
717.53	33870.54
717.873	33765.68
718.216	33636.19
718.559	33530.88
718.902	33370.66
719.246	33368.4
719.589	33375.18
719.932	33184
720.275	33193.27
720.617	33183.32
720.96	33124.79
721.303	33133.83
721.646	33143.55
721.989	32826.04
722.331	33080.27
722.674	32962.76
723.016	32883.44
723.359	32690
723.701	32922.99
724.044	32577.24
724.386	32541.76
724.729	32620.63
725.071	32669.66
725.413	32486.17
725.755	32422.44
726.097	32250.92
726.439	32178.38
726.782	32206.62
727.124	32381.54
727.465	32158.49
727.807	32076.46
728.149	31972.05
728.491	31957.37
728.833	32025.39
729.175	31842.11
729.516	31810.48
729.858	31773.19
730.199	31853.41
730.541	31843.47
730.882	31692.29
731.224	31774.32
731.565	31510.6
731.906	31719.18
732.248	31606.19
732.589	31418.4
732.93	31241.9
733.271	31419.75
733.612	31244.39
733.953	31368.91
734.294	31166.2
734.635	31137.5
734.976	31169.59
735.317	31066.09
735.658	30960.78
735.999	31080.1
736.339	31004.17
736.68	30891.41
737.021	30938.18
737.361	30765.98
737.702	30941.35
738.042	30845.08
738.383	30706.78
738.723	30716.72
739.063	30627.46
739.404	30685.76
739.744	30594.69
740.084	30618.19
740.424	30535.48
740.764	30459.78
741.104	30568.48
741.444	30384.98
741.784	30318.54
742.124	30448.03
742.464	30346.56
742.804	30279.44
743.143	30161.25
743.483	30102.05
743.823	30017.53
744.162	29967.59
744.502	30125.55
744.841	30023.41
745.181	30098.66
745.52	29884.65
745.86	29946.57
746.199	29866.57
746.538	29821.6
746.877	29888.95
747.216	29839.91
747.556	29738.89
747.895	29771.89
748.234	29439.24
748.573	29581.38
748.911	29520.37
749.25	29498.9
749.589	29354.27
749.928	29487.37
750.267	29375.51
750.605	29229.98
750.944	29191.34
751.283	29156.76
751.621	29218.23
751.96	29001.51
752.298	29035.41
752.636	29042.19
752.975	28903.43
753.313	28832.02
753.651	28880.16
753.989	28701.18
754.327	28754.51
754.666	28522.43
755.004	28663.89
755.342	28526.95
755.679	28550.68
756.017	28478.36
756.355	28476.55
756.693	28282.89
757.031	28346.39
757.368	28070.91
757.706	28184.36
758.044	28017.13
758.381	28118.82
758.719	27927.64
759.056	27961.99
759.394	27883.35
759.731	27642.68
760.068	27715.9
760.405	27579.18
760.743	27420.99
761.08	27560.42
761.417	27293.76
761.754	27240.88
762.091	27211.95
762.428	27127.44
762.765	26967.44
763.102	27159.53
763.438	26915.46
763.775	26821.91
764.112	26905.52
764.449	26894
764.785	26700.33
765.122	26559.09
765.458	26497.85
765.795	26423.5
766.131	26450.62
766.467	26280.68
766.804	26259.44
767.14	26055.37
767.476	26092.89
767.812	25856.28
768.148	25865.1
768.485	25798.43
768.821	25677.08
769.157	25626.91
769.492	25543.52
769.828	25531.77
770.164	25181.95
770.5	25250.2
770.836	25227.15
771.171	25009.75
771.507	24994.84
771.842	24908.74
772.178	24913.03
772.513	24807.5
772.849	24722.53
773.184	24619.48
773.519	24544.23
773.855	24429.65
774.19	24335.42
774.525	24270.56
774.86	24342.42
775.195	24228.76
775.53	23907.86
775.865	23951.02
776.2	23729.11
776.535	23577.02
776.87	23648.43
777.205	23508.1
777.539	23415.44
777.874	23473.97
778.209	23245.28
778.543	23206.41
778.878	23135.45
779.212	23111.27
779.547	22933.42
779.881	22978.84
780.215	22885.06
780.55	22909.69
780.884	22724.84
781.218	22666.31
781.552	22642.13
781.886	22509.25
782.22	22345.87
782.554	22314.68
782.888	22135.03
783.222	22068.81
783.556	21982.71
783.889	21921.92
784.223	21804.64
784.557	21747.01
784.89	21749.95
785.224	21613.23
785.557	21491.43
785.891	21444.42
786.224	21473.12
786.558	21356.74
786.891	21182.06
787.224	21135.28
787.557	21124.43
787.891	20980.25
788.224	21007.15
788.557	20985.9
788.89	20997.65
789.223	20815.51
789.556	20565.12
789.888	20521.51
790.221	20486.93
790.554	20387.5
790.887	20432.92
791.219	20282.42
791.552	20278.35
791.884	20262.08
792.217	20055.08
792.549	20072.25
792.882	19967.85
793.214	19791.81
793.546	19855.99
793.879	19772.38
794.211	19576.9
794.543	19690.8
794.875	19586.62
795.207	19647.86
795.539	19534.42
795.871	19520.4
796.203	19400.18
796.535	19104.82
796.867	19187.98
797.198	19116.8
797.53	19070.47
797.862	18973.75
798.193	18913.64
798.525	18831.16
798.856	18912.51
799.188	18759.07
799.519	18662.35
799.85	18598.17
800.182	18497.83
800.513	18479.08
800.844	18360.21
801.175	18487.66
801.506	18468.23
801.837	18361.11
802.168	18301.23
802.499	18192.76
802.83	18173.32
803.161	18072.31
803.491	18007.45
803.822	17992.76
804.153	17948.02
804.483	17752.09
804.814	17721.36
805.145	17764.29
805.475	17741.02
805.805	17566.56
806.136	17672.32
806.466	17611.53
806.796	17527.69
807.126	17471.19
807.457	17401.82
807.787	17423.28
808.117	17308.49
808.447	17241.59
808.777	17237.3
809.107	17154.14
809.436	17080.24
809.766	17057.64
810.096	17045.89
810.426	16934.71
810.755	16904.65
811.085	17068.04
811.414	16855.84
811.744	16702.17
812.073	16687.94
812.403	16774.26
812.732	16556.87
813.061	16631.89
813.39	16480.94
813.719	16454.72
814.049	16542.63
814.378	16459.02
814.707	16367.27
815.036	16324.78
815.365	16253.82
815.693	16175.41
816.022	16258.12
816.351	16064.22
816.68	15996.66
817.008	16128.86
817.337	15934.51
817.665	15828.98
817.994	15948.52
818.322	15913.04
818.651	15870.33
818.979	15802.76
819.307	15821.29
819.636	15867.62
819.964	15731.58
820.292	15822.2
820.62	15711.47
820.948	15699.26
821.276	15690
821.604	15574.29
821.932	15654.29
822.259	15718.7
822.587	15715.99
822.915	15559.38
823.243	15683.67
823.57	15582.88
823.898	15582.43
824.225	15505.37
824.553	15585.82
824.88	15521.19
825.207	15613.39
825.535	15511.92
825.862	15595.99
826.189	15614.07
826.516	15617.91
826.843	15650.9
827.17	15554.41
827.497	15644.12
827.824	15586.95
828.151	15621.3
828.478	15628.08
828.805	15610.45
829.131	15461.75
829.458	15425.15
829.785	15463.56
830.111	15469.66
830.438	15620.39
830.764	15479.38
831.09	15598.02
831.417	15394.41
831.743	15577.01
832.069	15536.33
832.395	15385.6
832.722	15521.87
833.048	15383.56
833.374	15494.75
833.7	15319.84
834.026	15402.55
834.351	15337.24
834.677	15326.84
835.003	15420.17
835.329	15390.12
835.654	15356.9
835.98	15237.81
836.306	15287.07
836.631	15215.21
836.956	15250.91
837.282	15236.68
837.607	15133.85
837.932	15108.09
838.258	15244.59
838.583	15157.81
838.908	14961.65
839.233	15060.86
839.558	15021.54
839.883	14934.99
840.208	14826.97
840.533	14931.15
840.858	14909.23
841.182	14877.59
841.507	14888.21
841.832	14789.23
842.156	14786.29
842.481	14785.39
842.805	14693.87
843.13	14669.46
843.454	14697.25
843.778	14604.38
844.103	14522.34
844.427	14511.27
844.751	14605.51
845.075	14487.54
845.399	14444.83
845.723	14350.6
846.047	14411.61
846.371	14254.55
846.695	14275.8
847.019	14150.83
847.343	14087.33
847.666	14019.31
847.99	13996.71
848.313	13932.53
848.637	13899.08
848.96	13875.36
849.284	13734.57
849.607	13676.94
849.931	13675.81
850.254	13595.14
850.577	13556.49
850.9	13511.3
851.223	13411.64
851.546	13355.6
851.869	13225.43
852.192	13275.82
852.515	13127.58
852.838	13082.38
853.161	13169.61
853.483	13091.87
853.806	13021.59
854.129	12932.33
854.451	12901.14
854.774	12927.58
855.096	12852.78
855.419	12744.54
855.741	12807.59
856.063	12690.75
856.385	12690.53
856.708	12626.12
857.03	12533.02
857.352	12655.05
857.674	12606.69
857.996	12463.19
858.318	12358.79
858.64	12513.13
858.961	12466.13
859.283	12290.76
859.605	12279.47
859.926	12283.53
860.248	12342.97
860.57	12165.8
860.891	12273.14
861.212	12196.53
861.534	12085.35
861.855	12074.05
862.176	12125.57
862.498	12033.6
862.819	12059.81
863.14	11987.04
863.461	11992.47
863.782	12005.57
864.103	11951.56
864.424	11876.31
864.745	11885.58
865.065	11883.09
865.386	11832.47
865.707	11796.54
866.027	11785.92
866.348	11811.68
866.668	11731.46
866.989	11707.05
867.309	11608.75
867.63	11639.48
867.95	11697.11
868.27	11622.08
868.59	11640.61
868.91	11562.2
869.23	11555.19
869.55	11552.25
869.87	11535.53
870.19	11540.95
870.51	11477
870.83	11596.77
871.15	11347.96
871.469	11489.2
871.789	11509.32
872.109	11475.42
872.428	11350.45
872.748	11341.41
873.067	11386.16
873.386	11411.47
873.706	11360.39
874.025	11280.62
874.344	11200.4
874.663	11318.59
874.982	11254.63
875.301	11292.82
875.62	11243.56
875.939	11211.02
876.258	11089.21
876.577	11061.42
876.896	11155.65
877.214	11139.16
877.533	11081.3
877.852	11014.41
878.17	11058.03
878.489	11049.89
878.807	10976
879.125	10998.82
879.444	10947.75
879.762	10919.05
880.08	11049.67
880.398	10919.28
880.716	10949.1
881.034	10848.99
881.352	10816.68
881.67	10896.9
881.988	10845.38
882.306	10789.33
882.624	10768.32
882.941	10709.34
883.259	10700.3
883.577	10706.4
883.894	10663.24
884.212	10674.54
884.529	10526.52
884.846	10575.56
885.164	10576.91
885.481	10512.28
885.798	10542.34
886.115	10479.96
886.432	10518.38
886.75	10464.6
887.067	10474.31
887.383	10444.26
887.7	10421.89
888.017	10406.29
888.334	10356.13
888.651	10321.1
888.967	10351.15
889.284	10283.13
889.6	10185.96
889.917	10108.9
890.233	10115.68
890.55	10071.84
890.866	10073.65
891.182	10109.8
891.498	10054.21
891.815	9970.15
892.131	9989.13
892.447	9933.76
892.763	9921.11
893.079	9908.91
893.395	9851.51
893.71	9834.11
894.026	9773.32
894.342	9777.16
894.657	9725.41
894.973	9710.04
895.289	9685.41
895.604	9700.78
895.92	9548.01
896.235	9524.28
896.55	9562.02
896.865	9553.44
897.181	9487.22
897.496	9478.63
897.811	9434.57
898.126	9455.36
898.441	9442.7
898.756	9341.92
899.071	9229.38
899.386	9326.32
899.7	9190.28
900.015	9181.69
900.33	9118.19
900.644	9115.25
900.959	9134.01
901.273	9031.19
901.588	9016.73
901.902	9039.55
902.216	8967.24
902.531	8910.06
902.845	8971.53
903.159	8854.47
903.473	8837.07
903.787	8787.35
904.101	8832.55
904.415	8788.94
904.729	8729.05
905.042	8717.07
905.356	8694.02
905.67	8591.2
905.984	8622.39
906.297	8581.94
906.611	8534.48
906.924	8507.81
907.237	8506.46
907.551	8522.5
907.864	8410.19
908.177	8362.73
908.491	8379.23
908.804	8312.79
909.117	8237.09
909.43	8199.35
909.743	8163.87
910.056	8159.8
910.368	8103.3
910.681	8131.33
910.994	8052.23
911.307	8054.94
911.619	7973.36
911.932	8000.26
912.244	7954.83
912.557	7873.03
912.869	7850.66
913.181	7804.33
913.494	7814.95
913.806	7752.13
914.118	7748.28
914.43	7742.64
914.742	7699.47
915.054	7668.74
915.366	7601.4
915.678	7547.84
915.99	7604.11
916.302	7468.52
916.613	7459.7
916.925	7444.11
917.236	7430.33
917.548	7331.12
917.859	7372.25
918.171	7281.4
918.482	7294.29
918.794	7273.27
919.105	7230.11
919.416	7195.98
919.727	7179.71
920.038	7209.54
920.349	7107.17
920.66	7108.75
920.971	7071.24
921.282	7021.52
921.593	6979.27
921.903	6957.35
922.214	6972.49
922.525	6917.35
922.835	6913.05
923.146	6866.95
923.456	6823.11
923.767	6828.08
924.077	6788.99
924.387	6738.37
924.697	6701.98
925.008	6680.06
925.318	6635.32
925.628	6598.94
925.938	6582.44
926.248	6569.78
926.558	6503.12
926.867	6475.32
927.177	6447.75
927.487	6447.53
927.796	6388.77
928.106	6378.6
928.416	6353.29
928.725	6354.88
929.034	6278.72
929.344	6333.18
929.653	6300.19
929.962	6191.49
930.271	6189.23
930.581	6155.56
930.89	6136.35
931.199	6086.63
931.508	6097.25
931.817	6080.53
932.125	6071.49
932.434	6029.91
932.743	5950.37
933.051	5977.94
933.36	5916.02
933.669	5920.54
933.977	5874.89
934.286	5946.3
934.594	5845.28
934.902	5779.07
935.21	5768.9
935.519	5777.72
935.827	5789.01
936.135	5704.27
936.443	5649.36
936.751	5685.51
937.059	5671.73
937.367	5592.41
937.674	5623.6
937.982	5565.29
938.29	5580.66
938.597	5565.97
938.905	5476.48
939.213	5450.04
939.52	5491.17
939.827	5435.58
940.135	5386.77
940.442	5399.42
940.749	5376.82
941.056	5369.14
941.363	5337.73
941.67	5259.76
941.977	5255.02
942.284	5217.5
942.591	5231.74
942.898	5203.72
943.205	5194.23
943.511	5179.76
943.818	5123.72
944.125	5110.16
944.431	5091.18
944.738	5085.08
945.044	5055.93
945.35	5001.92
945.657	4954.91
945.963	4986.32
946.269	4922.82
946.575	4899.77
946.881	4881.02
947.187	4931.64
947.493	4848.47
947.799	4866.55
948.105	4827.91
948.41	4801.02
948.716	4828.36
949.022	4778.42
949.327	4739.55
949.633	4702.72
949.938	4741.58
950.244	4688.48
950.549	4639.21
950.854	4588.59
951.16	4570.06
951.465	4601.02
951.77	4616.16
952.075	4544.08
952.38	4531.65
952.685	4518.99
952.99	4482.38
953.294	4489.61
953.599	4423.63
953.904	4452.33
954.209	4412.55
954.513	4401.93
954.818	4372.78
955.122	4378.43
955.426	4327.58
955.731	4362.39
956.035	4307.47
956.339	4254.14
956.643	4261.6
956.948	4220.69
957.252	4210.07
957.556	4183.41
957.86	4225.21
958.163	4166.23
958.467	4135.72
958.771	4160.36
959.075	4146.35
959.378	4146.12
959.682	4116.06
959.985	4073.35
960.289	4014.6
960.592	4071.77
960.896	4020.7
961.199	4001.04
961.502	3962.17
961.805	3947.48
962.108	3930.76
962.411	3926.92
962.714	3909.74
963.017	3948.38
963.32	3905.67
963.623	3854.6
963.926	3812.34
964.228	3806.24
964.531	3765.11
964.833	3775.06
965.136	3766.69
965.438	3749.07
965.741	3712.23
966.043	3744.32
966.345	3736.64
966.648	3716.53
966.95	3714.49
967.252	3632.69
967.554	3650.99
967.856	3669.3
968.158	3606.7
968.46	3601.05
968.761	3549.75
969.063	3573.03
969.365	3570.54
969.666	3520.15
969.968	3538.23
970.269	3515.18
970.571	3520.15
970.872	3496.65
971.174	3465.46
971.475	3448.51
971.776	3447.16
972.077	3411.45
972.378	3408.96
972.679	3378.46
972.98	3373.48
973.281	3346.37
973.582	3374.16
973.883	3309.53
974.183	3284.22
974.484	3286.93
974.785	3259.59
975.085	3277.67
975.386	3273.6
975.686	3278.12
975.986	3238.8
976.287	3268.18
976.587	3219.14
976.887	3186.82
977.187	3215.52
977.487	3127.39
977.787	3178.91
978.087	3132.14
978.387	3121.74
978.687	3108.18
978.987	3105.92
979.286	3068.18
979.586	3061.4
979.885	3042.19
980.185	3051.23
980.484	3031.8
980.784	2990.22
981.083	3005.36
981.382	2966.26
981.682	2953.61
981.981	2957.22
982.28	2950.22
982.579	2898.24
982.878	2917.68
983.177	2874.06
983.475	2877.9
983.774	2863.22
984.073	2880.16
984.372	2853.72
984.67	2861.86
984.969	2860.96
985.267	2803.1
985.566	2806.49
985.864	2796.78
986.162	2778.7
986.461	2756.33
986.759	2761.07
987.057	2717.68
987.355	2703.9
987.653	2756.55
987.951	2705.71
988.249	2673.62
988.547	2673.84
988.844	2669.32
989.142	2641.3
989.44	2643.11
989.737	2626.84
990.035	2594.07
990.332	2600.62
990.63	2574.86
990.927	2593.39
991.224	2577.8
991.521	2550.46
991.819	2525.37
992.116	2500.29
992.413	2499.16
992.71	2491.47
993.006	2466.16
993.303	2457.58
993.6	2485.6
993.897	2466.16
994.193	2435.43
994.49	2430.68
994.787	2440.4
995.083	2418.71
995.379	2404.02
995.676	2387.3
995.972	2391.14
996.268	2363.57
996.565	2373.29
996.861	2325.6
997.157	2355.88
997.453	2290.12
997.749	2291.48
998.044	2297.58
998.34	2293.74
998.636	2260.75
998.932	2265.27
999.227	2275.89
999.523	2284.7
999.818	2253.29
1000.114	2223.46
1000.409	2221.65
1000.704	2185.04
1001	2190.24
1001.295	2138.49
1001.59	2143.46
1001.885	2183.23
1002.18	2131.94
1002.475	2139.84
1002.77	2107.53
1003.065	2088.77
1003.359	2079.73
1003.654	2076.57
1003.949	2067.53
1004.243	2095.33
1004.538	2026.4
1004.832	2052.16
1005.127	2035.89
1005.421	2046.97
1005.715	2018.94
1006.009	1996.57
1006.304	1985.95
1006.598	2008.32
1006.892	1959.28
1007.186	1933.3
1007.48	1909.12
1007.773	1917.48
1008.067	1932.84
1008.361	1876.12
1008.655	1888.78
1008.948	1879.06
1009.242	1881.55
1009.535	1878.83
1009.829	1820.31
1010.122	1817.37
1010.415	1827.08
1010.708	1810.59
1011.001	1815.33
1011.295	1753.41
1011.588	1797.48
1011.881	1781.21
1012.173	1800.19
1012.466	1787.31
1012.759	1773.75
1013.052	1718.39
1013.344	1723.81
1013.637	1730.59
1013.93	1700.76
1014.222	1712.96
1014.514	1691.04
1014.807	1686.98
1015.099	1662.8
1015.391	1642.68
1015.683	1664.83
1015.976	1663.93
1016.268	1620.08
1016.56	1597.03
1016.851	1604.94
1017.143	1602.68
1017.435	1576.02
1017.727	1573.53
1018.018	1566.3
1018.31	1542.57
1018.602	1562.46
1018.893	1538.5
1019.185	1522.23
1019.476	1540.09
1019.767	1515.91
1020.058	1526.75
1020.35	1494.44
1020.641	1467.77
1020.932	1447.66
1021.223	1456.25
1021.514	1441.11
1021.804	1455.12
1022.095	1434.78
1022.386	1419.19
1022.677	1425.74
1022.967	1399.98
1023.258	1363.59
1023.548	1391.62
1023.839	1369.02
1024.129	1351.39
1024.419	1366.31
1024.709	1362.46
1025	1350.94
1025.29	1331.05
1025.58	1294.67
1025.87	1286.31
1026.16	1280.66
1026.449	1291.05
1026.739	1285.63
1027.029	1272.75
1027.319	1265.74
1027.608	1282.69
1027.898	1252.18
1028.187	1235.24
1028.477	1228.91
1028.766	1234.33
1029.055	1220.1
1029.344	1234.56
1029.634	1190.72
1029.923	1201.79
1030.212	1186.42
1030.501	1207.44
1030.79	1153.2
1031.078	1178.74
1031.367	1153.66
1031.656	1131.06
1031.945	1154.11
1032.233	1148.68
1032.522	1138.06
1032.81	1098.97
1033.099	1126.31
1033.387	1105.07
1033.675	1107.56
1033.963	1105.97
1034.251	1082.02
1034.54	1082.47
1034.828	1077.27
1035.116	1071.62
1035.403	1067.1
1035.691	1061.68
1035.979	1060.78
1036.267	1031.85
1036.554	1038.18
1036.842	1043.83
1037.129	1003.38
1037.417	984.62
1037.704	1012.64
1037.992	1017.61
1038.279	985.3
1038.566	981.01
1038.853	981.01
1039.14	981.01
