Data from hue_130_FLMS001491_00007.txt Node
Date: Tue Feb 07 16:57:05 GMT 2017
User: dcchb
Spectrometer: FLMS00149
Trigger mode: 0
Integration Time (sec): 2.000000E-2
Scans to average: 10
Electric dark correction enabled: true
Nonlinearity correction enabled: false
Boxcar width: 0
XAxis mode: Wavelengths
Number of Pixels in Spectrum: 2048
>>>>>Begin Spectral Data<<<<<
341.393	-12.74
341.776	-12.74
342.16	-12.74
342.543	-55.45
342.927	-69.01
343.31	-67.43
343.693	-84.15
344.077	-66.52
344.46	-51.61
344.843	-57.71
345.226	-58.16
345.61	-39.86
345.993	-27.43
346.376	21.84
346.759	16.41
347.142	28.16
347.525	52.57
347.908	73.59
348.291	74.26
348.674	87.82
349.057	98.22
349.44	139.8
349.823	147.71
350.206	149.29
350.588	204.88
350.971	214.15
351.354	212.57
351.737	239.23
352.119	241.26
352.502	263.41
352.884	267.25
353.267	293.69
353.65	313.13
354.032	310.19
354.414	307.48
354.797	321.04
355.179	336.63
355.562	350.41
355.944	326.91
356.326	328.95
356.709	322.84
357.091	330.53
357.473	350.64
357.855	360.36
358.238	354.71
358.62	342.73
359.002	352.22
359.384	346.8
359.766	359.91
360.148	332.79
360.53	333.69
360.912	338.44
361.294	341.38
361.676	334.14
362.057	329.62
362.439	343.64
362.821	347.02
363.203	346.57
363.584	331.66
363.966	346.35
364.348	326.46
364.729	335.5
365.111	330.08
365.493	327.82
365.874	311.09
366.256	304.31
366.637	321.26
367.019	321.26
367.4	298.89
367.781	323.52
368.163	326.46
368.544	317.42
368.925	310.19
369.306	306.8
369.688	311.09
370.069	314.71
370.45	324.43
370.831	323.75
371.212	317.65
371.593	316.29
371.974	330.75
372.355	320.81
372.736	342.96
373.117	335.73
373.498	342.28
373.879	315.16
374.26	317.87
374.641	325.1
375.021	339.34
375.402	320.36
375.783	322.84
376.163	346.35
376.544	339.79
376.925	325.56
377.305	332.11
377.686	344.76
378.066	356.74
378.447	333.24
378.827	331.43
379.208	347.25
379.588	315.39
379.968	355.84
380.349	347.93
380.729	355.84
381.109	348.61
381.489	352.67
381.87	342.05
382.25	342.51
382.63	361.94
383.01	352.67
383.39	351.09
383.77	355.16
384.15	337.31
384.53	366.46
384.91	364.43
385.29	363.97
385.67	356.06
386.049	363.52
386.429	364.43
386.809	387.7
387.189	372.33
387.568	363.52
387.948	372.33
388.328	377.08
388.707	380.92
389.087	373.24
389.466	393.8
389.846	364.2
390.225	377.31
390.605	383.63
390.984	366.01
391.363	366.91
391.743	381.15
392.122	383.86
392.501	388.38
392.881	383.41
393.26	383.63
393.639	391.54
394.018	392
394.397	419.11
394.776	384.31
395.155	391.09
395.534	371.88
395.913	402.84
396.292	396.51
396.671	395.39
397.05	393.58
397.429	396.97
397.808	410.53
398.186	387.93
398.565	395.16
398.944	416.63
399.323	415.05
399.701	419.57
400.08	410.3
400.458	413.92
400.837	450.98
401.215	411.88
401.594	403.52
401.972	420.02
402.351	432.22
402.729	428.83
403.107	437.64
403.486	424.99
403.864	413.46
404.242	437.64
404.62	446.68
404.999	441.71
405.377	437.42
405.755	454.37
406.133	452.78
406.511	442.39
406.889	446.68
407.267	458.21
407.645	479.22
408.023	454.82
408.401	474.25
408.779	457.76
409.156	483.97
409.534	473.12
409.912	481.03
410.29	471.77
410.667	475.61
411.045	502.73
411.422	467.02
411.8	494.14
412.178	514.48
412.555	500.47
412.933	507.25
413.31	493.01
413.687	488.49
414.065	523.52
414.442	513.8
414.819	518.55
415.197	490.07
415.574	517.19
415.951	538.66
416.328	509.51
416.705	502.05
417.082	532.78
417.46	530.52
417.837	538.66
418.214	563.06
418.591	540.69
418.967	549.96
419.344	571.43
419.721	546.34
420.098	558.32
420.475	558.77
420.852	570.52
421.228	583.63
421.605	580.69
421.982	565.32
422.358	584.53
422.735	591.31
423.111	577.53
423.488	597.19
423.864	592.89
424.241	605.1
424.617	628.83
424.994	614.14
425.37	602.16
425.746	620.46
426.123	633.8
426.499	617.53
426.875	652.55
427.251	624.76
427.627	648.94
428.003	642.61
428.379	638.99
428.756	646.9
429.132	677.41
429.507	663.63
429.883	686.45
430.259	692.78
430.635	663.17
431.011	678.77
431.387	698.88
431.763	720.57
432.138	722.61
432.514	703.4
432.89	734.13
433.265	726.9
433.641	733
434.016	725.32
434.392	760.57
434.767	746.34
435.143	750.86
435.518	757.18
435.894	781.36
436.269	788.37
436.644	778.65
437.02	796.28
437.395	809.61
437.77	817.52
438.145	807.58
438.52	833.57
438.895	842.15
439.271	839.44
439.646	843.28
440.021	842.6
440.395	863.4
440.77	836.73
441.145	857.52
441.52	873.56
441.895	876.73
442.27	879.44
442.645	890.29
443.019	900.23
443.394	893
443.769	900.68
444.143	891.64
444.518	910.85
444.892	915.15
445.267	928.03
445.641	916.28
446.016	925.77
446.39	927.12
446.764	957.4
447.139	962.15
447.513	946.33
447.887	963.51
448.262	949.27
448.636	957.86
449.01	997.4
449.384	968.25
449.758	982.49
450.132	989.27
450.506	1005.09
450.88	1021.13
451.254	1021.58
451.628	1053.67
452.002	1030.17
452.376	1055.48
452.75	1037.18
453.123	1078.98
453.497	1088.25
453.871	1064.52
454.244	1110.85
454.618	1130.96
454.992	1126.89
455.365	1126.21
455.739	1157.85
456.112	1142.48
456.486	1167.34
456.859	1172.77
457.232	1178.87
457.606	1218.64
457.979	1212.54
458.352	1254.35
458.725	1267.68
459.099	1238.3
459.472	1265.87
459.845	1306.1
460.218	1318.07
460.591	1318.98
460.964	1305.19
461.337	1353.33
461.71	1376.6
462.083	1388.35
462.456	1417.28
462.829	1409.14
463.201	1420.22
463.574	1432.42
463.947	1458.86
464.32	1495.47
464.692	1522.36
465.065	1519.65
465.438	1573.66
465.81	1598.07
466.183	1587.44
466.555	1629.93
466.928	1672.19
467.3	1669.7
467.672	1688.91
468.045	1738.85
468.417	1725.97
468.789	1741.34
469.161	1790.83
469.534	1835.57
469.906	1861.11
470.278	1893.88
470.65	1905.85
471.022	1979.3
471.394	1980.43
471.766	2029.69
472.138	2052.97
472.51	2115.11
472.882	2141.1
473.253	2177.03
473.625	2212.06
473.997	2278.73
474.369	2311.04
474.74	2335.67
475.112	2454.77
475.484	2470.58
475.855	2563.46
476.227	2573.86
476.598	2666.51
476.97	2705.15
477.341	2812.27
477.713	2850.46
478.084	2867.86
478.455	3025.15
478.827	3024.47
479.198	3174.52
479.569	3197.12
479.94	3365.93
480.311	3355.08
480.682	3517.79
481.053	3619.71
481.424	3696.54
481.795	3766.6
482.166	3905.8
482.537	3973.14
482.908	4093.82
483.279	4228.5
483.65	4306.02
484.021	4408.61
484.391	4506.46
484.762	4603.18
485.133	4741.94
485.503	4793.46
485.874	4971.31
486.244	5103.28
486.615	5223.96
486.985	5357.74
487.356	5504.86
487.726	5616.49
488.097	5777.39
488.467	5831.63
488.837	6062.13
489.207	6159.3
489.578	6337.83
489.948	6483.81
490.318	6603.36
490.688	6705.05
491.058	6823.92
491.428	7039.96
491.798	7168.09
492.168	7352.04
492.538	7412.38
492.908	7602.88
493.278	7761.07
493.648	7870.22
494.017	8057.56
494.387	8161.51
494.757	8296.65
495.126	8476.3
495.496	8536.64
495.866	8677.65
496.235	8815.5
496.605	8940.02
496.974	9074.25
497.344	9297.52
497.713	9303.4
498.082	9437.18
498.452	9605.54
498.821	9726.67
499.19	9822.48
499.559	9946.55
499.928	10011.4
500.298	10114.9
500.667	10333.88
501.036	10311.73
501.405	10450.04
501.774	10504.27
502.143	10723.93
502.512	10736.58
502.88	10872.4
503.249	10923.02
503.618	11062.45
503.987	11102.67
504.356	11261.54
504.724	11264.25
505.093	11413.4
505.462	11498.37
505.83	11606.62
506.199	11712.38
506.567	11887.06
506.936	11845.48
507.304	12024.46
507.672	12130.67
508.041	12129.54
508.409	12244.34
508.777	12323.88
509.145	12408.63
509.514	12453.83
509.882	12514.16
510.25	12579.7
510.618	12609.08
510.986	12690.66
511.354	12781.05
511.722	12859.92
512.09	12933.81
512.458	13007.71
512.826	13143.98
513.193	13139
513.561	13207.93
513.929	13252.45
514.297	13355.04
514.664	13386.46
515.032	13418.32
515.4	13525.89
515.767	13600.24
516.135	13630.74
516.502	13446.34
516.869	13752.77
517.237	13703.96
517.604	13699.89
517.972	13799.1
518.339	13845.88
518.706	13910.96
519.073	13887.46
519.44	13905.99
519.808	14015.14
520.175	13981.69
520.542	14159.54
520.909	14171.29
521.276	14206.32
521.643	14235.25
522.009	14258.3
522.376	14382.59
522.743	14377.16
523.11	14477.05
523.477	14532.19
523.843	14582.81
524.21	14661.9
524.577	14773.54
524.943	14628.23
525.31	14714.78
525.676	14862.58
526.043	14853.76
526.409	14939.41
526.776	14949.8
527.142	14908.9
527.508	15000.42
527.874	14993.42
528.241	15001.1
528.607	14971.95
528.973	15027.32
529.339	15051.04
529.705	15088.33
530.071	15159.29
530.437	15202
530.803	15189.35
531.169	15155
531.535	15187.54
531.901	15131.49
532.267	15129.69
532.632	15168.1
532.998	15173.3
533.364	15126.07
533.73	15161.78
534.095	15192.51
534.461	15084.49
534.826	15195.22
535.192	15177.6
535.557	15206.52
535.923	15111.83
536.288	15179.86
536.653	15185.73
537.019	15055.56
537.384	15117.71
537.749	15063.93
538.114	14947.54
538.479	14980.54
538.845	14921.1
539.21	14897.15
539.575	14893.31
539.94	14929.92
540.305	14837.27
540.67	14821.45
541.034	14797.27
541.399	14810.6
541.764	14709.81
542.129	14756.14
542.494	14650.15
542.858	14695.8
543.223	14577.39
543.587	14630.27
543.952	14545.07
544.316	14558.4
544.681	14380.33
545.045	14508.46
545.41	14516.14
545.774	14451.06
546.138	14390.27
546.503	14280.22
546.867	14369.93
547.231	14392.31
547.595	14360.89
547.959	14291.52
548.324	14198.86
548.688	14173.78
549.052	14136.49
549.416	14155.7
549.779	14098.3
550.143	14156.15
550.507	14115.48
550.871	14098.3
551.235	14006.33
551.599	14022.82
551.962	13913.67
552.326	13921.13
552.689	14046.78
553.053	13892.21
553.417	13856.27
553.78	13963.39
554.143	13874.8
554.507	13909.83
554.87	13854.47
555.234	13890.17
555.597	13755.49
555.96	13808.82
556.323	13790.97
556.686	13795.48
557.05	13748.93
557.413	13715.26
557.776	13717.75
558.139	13760.91
558.502	13822.6
558.865	13775.6
559.228	13835.94
559.59	13804.07
559.953	13784.41
560.316	13869.83
560.679	13846.56
561.041	13822.38
561.404	13876.16
561.767	13910.51
562.129	13744.64
562.492	13879.32
562.854	13880.91
563.217	13838.42
563.579	13832.77
563.941	13887.23
564.304	13811.98
564.666	13896.95
565.028	13876.16
565.39	13865.77
565.753	13911.64
566.115	13993.67
566.477	13973.79
566.839	14003.39
567.201	14042.26
567.563	14042.26
567.925	14018.98
568.287	14040
568.648	14068.47
569.01	14114.12
569.372	14213.55
569.734	14169.49
570.095	14173.33
570.457	14216.72
570.819	14206.55
571.18	14155.93
571.542	14218.07
571.903	14225.76
572.265	14245.42
572.626	14263.27
572.987	14288.35
573.349	14322.93
573.71	14300.1
574.071	14366.77
574.432	14343.72
574.794	14367.67
575.155	14372.42
575.516	14364.74
575.877	14385.07
576.238	14369.48
576.599	14384.85
576.96	14338.07
577.32	14358.18
577.681	14356.15
578.042	14422.81
578.403	14437.73
578.763	14404.73
579.124	14420.33
579.485	14500.1
579.845	14473.66
580.206	14453.09
580.566	14439.08
580.927	14437.5
581.287	14531.96
581.648	14412.64
582.008	14462.81
582.368	14469.82
582.728	14413.1
583.089	14498.07
583.449	14382.36
583.809	14404.51
584.169	14436.15
584.529	14348.46
584.889	14483.83
585.249	14354.57
585.609	14334.45
585.969	14402.7
586.329	14318.86
586.688	14381.46
587.048	14320.89
587.408	14207.68
587.768	14256.72
588.127	14305.53
588.487	14267.34
588.846	14358.18
589.206	14216.04
589.565	14239.54
589.925	14290.84
590.284	14257.17
590.643	14252.87
591.003	14294
591.362	14266.66
591.721	14146.21
592.08	14255.13
592.44	14287.68
592.799	14276.15
593.158	14231.41
593.517	14242.93
593.876	14292.87
594.235	14229.37
594.593	14190.5
594.952	14214.46
595.311	14183.27
595.67	14153.89
596.029	14199.09
596.387	14202.25
596.746	14257.17
597.104	14069.83
597.463	14082.71
597.822	14091.97
598.18	14088.36
598.538	14133.78
598.897	14165.64
599.255	14062.14
599.613	14245.19
599.972	14138.98
600.33	14248.13
600.688	14094.91
601.046	14144.63
601.404	14203.16
601.762	14179.66
602.12	14206.1
602.478	14206.32
602.836	14318.18
603.194	14146.21
603.552	14048.59
603.91	14111.86
604.268	14201.8
604.625	14123.84
604.983	14196.38
605.341	14005.87
605.698	14108.47
606.056	14175.59
606.413	14186.43
606.771	14210.84
607.128	14194.57
607.485	14182.59
607.843	14141.24
608.2	14195.7
608.557	14219.2
608.914	14216.49
609.272	14268.01
609.629	14242.25
609.986	14267.34
610.343	14251.97
610.7	14418.07
611.057	14362.93
611.414	14350.05
611.771	14339.43
612.127	14439.08
612.484	14393.21
612.841	14327.9
613.198	14416.71
613.554	14300.78
613.911	14397.5
614.267	14423.04
614.624	14336.71
614.98	14453.09
615.337	14454.68
615.693	14414.68
616.05	14452.87
616.406	14482.02
616.762	14483.15
617.118	14460.78
617.475	14486.99
617.831	14557.27
618.187	14564.5
618.543	14508.69
618.899	14660.77
619.255	14612.19
619.611	14553.43
619.967	14627.78
620.323	14594.79
620.678	14573.09
621.034	14595.69
621.39	14521.12
621.746	14510.04
622.101	14662.81
622.457	14520.66
622.812	14561.57
623.168	14595.01
623.523	14644.05
623.879	14687.89
624.234	14543.71
624.589	14618.74
624.945	14616.48
625.3	14585.07
625.655	14548.01
626.01	14659.87
626.365	14652.41
626.72	14644.28
627.075	14676.59
627.43	14551.17
627.785	14559.31
628.14	14617.84
628.495	14701.45
628.85	14571.96
629.205	14438.18
629.559	14550.49
629.914	14543.26
630.269	14569.25
630.623	14497.39
630.978	14410.16
631.332	14452.64
631.687	14622.81
632.041	14527.89
632.396	14484.28
632.75	14404.28
633.104	14479.53
633.459	14415.81
633.813	14430.95
634.167	14427.33
634.521	14384.85
634.875	14389.37
635.229	14396.15
635.583	14357.28
635.937	14357.28
636.291	14285.64
636.645	14232.54
636.999	14192.08
637.352	14239.77
637.706	14184.85
638.06	14238.86
638.413	14147.79
638.767	14166.77
639.121	14174.68
639.474	14088.58
639.828	14150.96
640.181	14197.28
640.534	14105.31
640.888	14070.73
641.241	13963.84
641.594	14035.03
641.947	14128.36
642.301	13997.74
642.654	14038.64
643.007	14058.53
643.36	14012.43
643.713	14018.76
644.066	14068.7
644.419	13917.97
644.771	13821.92
645.124	13764.53
645.477	13788.48
645.83	13578.32
646.182	13619.9
646.535	13494.48
646.888	13570.86
647.24	13520.24
647.593	13620.57
647.945	13569.95
648.298	13440.69
648.65	13454.48
649.002	13413.35
649.355	13550.75
649.707	13459.45
650.059	13569.95
650.411	13732.21
650.763	13698.99
651.115	13781.25
651.467	13784.64
651.819	13791.64
652.171	13792.32
652.523	13681.82
652.875	13793.22
653.227	13751.87
653.578	13904.86
653.93	13781.47
654.282	13821.02
654.633	13697.63
654.985	13825.09
655.337	13863.28
655.688	13786.45
656.039	13841.13
656.391	13652.44
656.742	13769.04
657.094	13754.58
657.445	13843.85
657.796	13801.13
658.147	13801.59
658.498	13786.45
658.849	13829.16
659.2	13823.96
659.551	13775.15
659.902	13839.55
660.253	13801.59
660.604	13807.46
660.955	13758.2
661.306	13910.96
661.656	13800.46
662.007	13795.48
662.358	13813.34
662.708	13827.35
663.059	13789.84
663.409	13726.56
663.76	13909.61
664.11	13891.98
664.461	13817.86
664.811	13837.74
665.161	13897.85
665.511	13785.54
665.862	13837.97
666.212	13850.62
666.562	13897.63
666.912	13785.32
667.262	13864.18
667.612	13793.68
667.962	13815.15
668.312	13799.33
668.662	13909.83
669.011	13837.07
669.361	13871.19
669.711	13876.61
670.06	13728.14
670.41	13852.21
670.76	13742.83
671.109	13862.38
671.459	13826.22
671.808	13774.24
672.157	13803.17
672.507	13703.74
672.856	13737.63
673.205	13702.61
673.554	13731.53
673.904	13713.45
674.253	13733.11
674.602	13627.13
674.951	13462.39
675.3	13478.66
675.649	13632.78
675.998	13680.91
676.346	13575.83
676.695	13664.19
677.044	13560.91
677.393	13604.08
677.741	13631.42
678.09	13560.01
678.438	13525.21
678.787	13529.73
679.135	13512.33
679.484	13485.66
679.832	13559.56
680.181	13428.94
680.529	13443.86
680.877	13358.66
681.225	13367.25
681.573	13426
681.922	13345.55
682.27	13300.13
682.618	13247.93
682.966	13275.27
683.314	13300.81
683.661	13201.83
684.009	13083.64
684.357	13153.02
684.705	13115.05
685.053	13125.45
685.4	13090.64
685.748	13006.35
686.095	13013.36
686.443	12998.67
686.79	12907.15
687.138	12996.18
687.485	13061.94
687.832	12936.07
688.18	12899.01
688.527	12906.24
688.874	12813.14
689.221	12838
689.568	12758.22
689.915	12746.25
690.262	12738.79
690.609	12689.3
690.956	12645.01
691.303	12573.37
691.65	12527.27
691.997	12432.36
692.344	12404.33
692.69	12366.6
693.037	12388.52
693.383	12245.02
693.73	12306.26
694.077	12220.61
694.423	12230.55
694.769	12185.58
695.116	12068.07
695.462	12063.1
695.808	12030.11
696.155	12053.84
696.501	11902.2
696.847	12002.54
697.193	11855.42
697.539	11909.43
697.885	11780.4
698.231	11758.25
698.577	11774.29
698.923	11752.6
699.269	11677.35
699.614	11563
699.96	11591.25
700.306	11579.72
700.651	11560.52
700.997	11519.16
701.342	11524.13
701.688	11467.18
702.033	11388.32
702.379	11311.93
702.724	11258.38
703.069	11337.02
703.415	11170.02
703.76	11192.84
704.105	11127.98
704.45	11108.55
704.795	11003.69
705.14	10970.7
705.485	10937.93
705.83	10925.5
706.175	10972.96
706.52	10896.8
706.865	10896.13
707.209	10847.54
707.554	10756.47
707.899	10840.08
708.243	10700.2
708.588	10720.99
708.932	10664.27
709.277	10687.09
709.621	10620.65
709.966	10625.62
710.31	10578.85
710.654	10525.29
710.998	10545.4
711.342	10464.5
711.687	10452.97
712.031	10493.42
712.375	10476.93
712.719	10403.94
713.063	10397.38
713.407	10438.74
713.75	10432.41
714.094	10297.27
714.438	10309.47
714.782	10253.66
715.125	10236.48
715.469	10285.97
715.812	10182.92
716.156	10082.81
716.499	10166.65
716.843	10160.78
717.186	10137.28
717.53	10160.1
717.873	10184.05
718.216	10124.62
718.559	10104.51
718.902	10045.07
719.246	10065.87
719.589	9967.34
719.932	10005.98
720.275	10018.63
720.617	9988.35
720.96	9921.46
721.303	9937.06
721.646	9919.65
721.989	9924.4
722.331	9965.3
722.674	9867.68
723.016	9869.71
723.359	9911.97
723.701	9838.98
724.044	9875.14
724.386	9772.54
724.729	9874.46
725.071	9804.86
725.413	9852.31
725.755	9735.93
726.097	9751.3
726.439	9733.44
726.782	9696.16
727.124	9808.02
727.465	9775.93
727.807	9713.56
728.149	9714.46
728.491	9672.2
728.833	9719.43
729.175	9633.33
729.516	9656.16
729.858	9648.02
730.199	9721.92
730.541	9711.07
730.882	9669.04
731.224	9643.5
731.565	9664.07
731.906	9709.04
732.248	9722.15
732.589	9622.71
732.93	9613.22
733.271	9654.8
733.612	9580.23
733.953	9718.76
734.294	9649.15
734.635	9627.23
734.976	9690.28
735.317	9568.93
735.658	9602.6
735.999	9639.89
736.339	9622.94
736.68	9658.42
737.021	9633.56
737.361	9618.87
737.702	9593.11
738.042	9597.85
738.383	9621.36
738.723	9742.48
739.063	9666.78
739.404	9685.99
739.744	9726.89
740.084	9695.93
740.424	9749.49
740.764	9678.98
741.104	9773.9
741.444	9711.75
741.784	9749.26
742.124	9765.76
742.464	9712.88
742.804	9815.7
743.143	9798.53
743.483	9884.85
743.823	9869.94
744.162	9930.95
744.502	9960.11
744.841	9929.37
745.181	10001.01
745.52	9999.88
745.86	10051.63
746.199	10036.26
746.538	10125.75
746.877	10153.55
747.216	10260.44
747.556	10198.52
747.895	10244.62
748.234	10254.79
748.573	10339.53
748.911	10449.81
749.25	10500.88
749.589	10524.16
749.928	10635.57
750.267	10718.5
750.605	10794.21
750.944	10847.54
751.283	10812.96
751.621	10986.97
751.96	11056.35
752.298	11123.24
752.636	11316.91
752.975	11281.2
753.313	11410.69
753.651	11523.45
753.989	11635.32
754.327	11738.82
754.666	11830.79
755.004	11973.16
755.342	12147.84
755.679	12316.43
756.017	12349.65
756.355	12531.34
756.693	12649.53
757.031	12799.13
757.368	12853.59
757.706	13110.08
758.044	13233.01
758.381	13399.56
758.719	13538.32
759.056	13732.89
759.394	13909.83
759.731	13954.8
760.068	14165.64
760.405	14239.09
760.743	14443.15
761.08	14697.61
761.417	14822.12
761.754	14908.22
762.091	15110.25
762.428	15383.92
762.765	15402.22
763.102	15627.98
763.438	15833.4
763.775	15955.65
764.112	16136.21
764.449	16366.49
764.785	16439.03
765.122	16535.75
765.458	16688.97
765.795	16808.74
766.131	17128.05
766.467	17229.52
766.804	17313.58
767.14	17396.97
767.476	17544.31
767.812	17685.78
768.148	17835.83
768.485	17898.88
768.821	18038.99
769.157	18100
769.492	18292.09
769.828	18508.58
770.164	18369.83
770.5	18513.78
770.836	18693.21
771.171	18751.51
771.507	18775.47
771.842	18897.5
772.178	19037.61
772.513	19064.5
772.849	19191.28
773.184	19240.77
773.519	19355.79
773.855	19338.39
774.19	19463.58
774.525	19529.57
774.86	19548.33
775.195	19717.81
775.53	19660.64
775.865	19688.89
776.2	19733.63
776.535	19646.86
776.87	19777.25
777.205	19726.18
777.539	19834.65
777.874	19961.88
778.209	19796.91
778.543	19898.6
778.878	19847.3
779.212	20103.57
779.547	19936.79
779.881	20165.71
780.215	19936.79
780.55	20039.16
780.884	20052.27
781.218	20058.14
781.552	20056.56
781.886	20027.41
782.22	20019.28
782.554	20051.37
782.888	19942.67
783.222	19867.19
783.556	19944.93
783.889	19892.73
784.223	19732.73
784.557	19831.26
784.89	19913.52
785.224	19831.26
785.557	19818.6
785.891	19711.49
786.224	19846.17
786.558	19749
786.891	19603.47
787.224	19719.62
787.557	19636.24
787.891	19688.89
788.224	19653.86
788.557	19657.7
788.89	19589.91
789.223	19569.34
789.556	19477.14
789.888	19424.94
790.221	19432.17
790.554	19287.54
790.887	19407.77
791.219	19379.74
791.552	19288.9
791.884	19281.67
792.217	19216.81
792.549	19116.93
792.882	19022.01
793.214	19094.33
793.546	19013.43
793.879	18923.94
794.211	18870.15
794.543	18973.2
794.875	18895.24
795.207	19044.61
795.539	18956.7
795.871	18884.84
796.203	18745.41
796.535	18614.34
796.867	18573.89
797.198	18514
797.53	18614.12
797.862	18517.85
798.193	18510.84
798.525	18452.99
798.856	18486.89
799.188	18313.78
799.519	18200.57
799.85	18131.87
800.182	18187.46
800.513	18179.1
800.844	18096.39
801.175	18081.02
801.506	18088.25
801.837	18011.42
802.168	18014.81
802.499	17931.42
802.83	17858.43
803.161	17735.72
803.491	17831.08
803.822	17845.77
804.153	17775.04
804.483	17576.18
804.814	17574.14
805.145	17573.01
805.475	17572.11
805.805	17476.97
806.136	17463.41
806.466	17490.75
806.796	17422.73
807.126	17354.04
807.457	17316.07
807.787	17324.66
808.117	17255.96
808.447	17154.27
808.777	17178.45
809.107	17126.47
809.436	17107.26
809.766	17113.82
810.096	17044.44
810.426	16996.98
810.755	17001.73
811.085	16901.39
811.414	16877.44
811.744	16832.69
812.073	16724.22
812.403	16768.51
812.732	16664.11
813.061	16604
813.39	16629.99
813.719	16507.73
814.049	16646.48
814.378	16565.13
814.707	16457.79
815.036	16529.42
815.365	16401.52
815.693	16297.57
816.022	16253.05
816.351	16260.73
816.68	16182.31
817.008	16203.56
817.337	16124.24
817.665	16115.42
817.994	16115.88
818.322	16039.72
818.651	16018.93
818.979	16022.32
819.307	16077.01
819.636	16006.95
819.964	15963.11
820.292	15976.67
820.62	15984.58
820.948	15884.47
821.276	15945.48
821.604	15941.19
821.932	15923.56
822.259	15921.98
822.587	15847.86
822.915	15846.73
823.243	15971.02
823.57	15828.65
823.898	15904.81
824.225	15880.18
824.553	15821.19
824.88	15866.84
825.207	15893.51
825.535	15837.92
825.862	15882.44
826.189	15839.27
826.516	15960.17
826.843	15976.44
827.17	15902.55
827.497	15924.24
827.824	15914.53
828.151	15948.65
828.478	16001.08
828.805	15962.66
829.131	15868.42
829.458	15964.47
829.785	15821.42
830.111	15954.52
830.438	15975.54
830.764	15858.93
831.09	15920.4
831.417	15872.27
831.743	15887.86
832.069	15981.64
832.395	15876.56
832.722	15800.4
833.048	15832.27
833.374	15863.23
833.7	15719.28
834.026	15759.27
834.351	15808.09
834.677	15864.81
835.003	15724.02
835.329	15815.32
835.654	15722.67
835.98	15673.63
836.306	15634.31
836.631	15722.21
836.956	15776.68
837.282	15720.18
837.607	15592.73
837.932	15589.34
838.258	15548.88
838.583	15567.42
838.908	15438.38
839.233	15494.65
839.558	15443.13
839.883	15354.09
840.208	15386.63
840.533	15371.71
840.858	15339.62
841.182	15275.9
841.507	15242.23
841.832	15195.67
842.156	15200.65
842.481	15257.14
842.805	15171.49
843.13	15165.17
843.454	15045.4
843.778	14966.53
844.103	15017.15
844.427	14979.18
844.751	14956.36
845.075	14936.02
845.399	14901.9
845.723	14827.77
846.047	14805.18
846.371	14765.85
846.695	14636.59
847.019	14600.66
847.343	14524.51
847.666	14529.48
847.99	14397.95
848.313	14379.88
848.637	14370.61
848.96	14330.84
849.284	14271.63
849.607	14112.31
849.931	14169.49
850.254	14084.06
850.577	13988.25
850.9	13940.79
851.223	13812.43
851.546	13804.75
851.869	13648.37
852.192	13778.54
852.515	13636.39
852.838	13568.82
853.161	13618.54
853.483	13550.52
853.806	13445.21
854.129	13429.17
854.451	13363.86
854.774	13312.79
855.096	13170.64
855.419	13224.65
855.741	13185.11
856.063	13159.8
856.385	13096.97
856.708	13073.92
857.03	13031.21
857.352	13002.29
857.674	13049.97
857.996	12912.34
858.318	12816.08
858.64	12830.99
858.961	12830.54
859.283	12829.63
859.605	12689.75
859.926	12729.3
860.248	12697.21
860.57	12623.99
860.891	12649.98
861.212	12558
861.534	12462.64
861.855	12453.15
862.176	12594.16
862.498	12528.63
862.819	12484.56
863.14	12445.46
863.461	12410.89
863.782	12385.35
864.103	12341.29
864.424	12288.41
864.745	12372.7
865.065	12190.1
865.386	12224
865.707	12166.38
866.027	12157.56
866.348	12163.89
866.668	12207.5
866.989	12210.89
867.309	12102.42
867.63	12037.56
867.95	12073.72
868.27	12018.81
868.59	12058.13
868.91	12023.1
869.23	11943.78
869.55	11971.8
869.87	12023.55
870.19	12020.62
870.51	11916.44
870.83	12011.35
871.15	11882.54
871.469	11886.38
871.789	11832.6
872.109	11829.66
872.428	11796.67
872.748	11779.49
873.067	11748.08
873.386	11701.53
873.706	11721.41
874.025	11706.95
874.344	11660.4
874.663	11655.88
874.982	11637.58
875.301	11648.2
875.62	11625.82
875.939	11616.56
876.258	11620.63
876.577	11568.65
876.896	11584.47
877.214	11523.45
877.533	11507.86
877.852	11398.26
878.17	11453.63
878.489	11469.9
878.807	11445.49
879.125	11453.85
879.444	11460.4
879.762	11404.36
880.08	11412.5
880.398	11338.37
880.716	11332.05
881.034	11272.61
881.352	11280.75
881.67	11185.84
881.988	11317.13
882.306	11221.99
882.624	11166.18
882.941	11076.69
883.259	11042.56
883.577	11044.6
883.894	11110.36
884.212	11095.89
884.529	11050.02
884.846	10947.2
885.164	10978.16
885.481	10907.88
885.798	10973.64
886.115	10833.53
886.432	10888.89
886.75	10797.6
887.067	10833.53
887.383	10810.7
887.7	10785.39
888.017	10658.62
888.334	10794.66
888.651	10699.29
888.967	10649.13
889.284	10613.2
889.6	10592.18
889.917	10560.32
890.233	10583.82
890.55	10470.37
890.866	10485.52
891.182	10469.02
891.498	10423.37
891.815	10370.04
892.131	10310.15
892.447	10270.83
892.763	10203.04
893.079	10210.04
893.395	10231.74
893.71	10200.33
894.026	10110.16
894.342	10082.59
894.657	10035.13
894.973	10105.19
895.289	10038.97
895.604	10071.51
895.92	9937.96
896.235	9916.94
896.55	9947.9
896.865	9850.96
897.181	9849.37
897.496	9847.79
897.811	9687.34
898.126	9776.16
898.441	9701.13
898.756	9671.07
899.071	9588.82
899.386	9617.74
899.7	9484.86
900.015	9513.34
900.33	9460.91
900.644	9442.15
900.959	9476.05
901.273	9372.1
901.588	9411.19
901.902	9281.71
902.216	9303.17
902.531	9299.11
902.845	9185.89
903.159	9165.55
903.473	9132.33
903.787	9143.63
904.101	9054.59
904.415	9038.77
904.729	8989.28
905.042	9010.98
905.356	8944.31
905.67	8917.87
905.984	8889.63
906.297	8861.15
906.611	8774.6
906.924	8761.49
907.237	8737.99
907.551	8704.77
907.864	8679.01
908.177	8641.95
908.491	8579.12
908.804	8554.04
909.117	8483.76
909.43	8450.54
909.743	8402.63
910.056	8377.55
910.368	8411.22
910.681	8307.49
910.994	8293.03
911.307	8265.69
911.619	8233.82
911.932	8257.33
912.244	8114.73
912.557	8177.1
912.869	8103.66
913.181	8055.97
913.494	8055.52
913.806	7930.55
914.118	8054.39
914.43	7969.88
914.742	7913.38
915.054	7900.27
915.366	7823.66
915.678	7784.57
915.99	7801.52
916.302	7798.13
916.613	7733.27
916.925	7667.74
917.236	7654.63
917.548	7573.95
917.859	7630.68
918.171	7570.56
918.482	7557.91
918.794	7535.31
919.105	7517.68
919.416	7425.71
919.727	7438.14
920.038	7349.55
920.349	7394.3
920.66	7287.18
920.971	7256.22
921.282	7275.66
921.593	7204.92
921.903	7137.13
922.214	7208.31
922.525	7062.55
922.835	7150.91
923.146	7085.38
923.456	7060.07
923.767	7032.27
924.077	7033.4
924.387	6958.38
924.697	6927.42
925.008	6888.1
925.318	6895.1
925.628	6862.79
925.938	6856.46
926.248	6773.07
926.558	6752.96
926.867	6767.42
927.177	6731.94
927.487	6707.31
927.796	6622.57
928.106	6651.94
928.416	6598.39
928.725	6579.18
929.034	6546.86
929.344	6569.91
929.653	6526.3
929.962	6495.34
930.271	6382.57
930.581	6378.96
930.89	6395.91
931.199	6336.25
931.508	6375.57
931.817	6296.7
932.125	6287.89
932.434	6242.69
932.743	6230.94
933.051	6179.87
933.36	6170.37
933.669	6049.7
933.977	6168.11
934.286	6158.62
934.594	6105.07
934.902	5982.36
935.21	6016.71
935.519	6041.11
935.827	5941.45
936.135	5981
936.443	5877.5
936.751	5930.83
937.059	5867.33
937.367	5831.85
937.674	5864.85
937.982	5834.79
938.29	5738.07
938.597	5753.89
938.905	5684.06
939.213	5679.54
939.52	5650.84
939.827	5678.64
940.135	5611.75
940.442	5538.53
940.749	5596.38
941.056	5589.6
941.363	5491.3
941.67	5491.07
941.977	5435.93
942.284	5461.92
942.591	5431.18
942.898	5425.54
943.205	5397.51
943.511	5382.82
943.818	5360.68
944.125	5352.32
944.431	5313
944.738	5284.07
945.044	5254.47
945.35	5252.21
945.657	5197.07
945.963	5213.34
946.269	5151.19
946.575	5138.99
946.881	5109.16
947.187	5075.04
947.493	5072.1
947.799	5040.46
948.105	5033
948.41	4974.47
948.716	5004.3
949.022	4943.29
949.327	4951.65
949.633	4950.52
949.938	4915.04
950.244	4868.26
950.549	4886.57
950.854	4823.07
951.16	4853.12
951.465	4790.75
951.77	4728.38
952.075	4751.43
952.38	4737.87
952.685	4769.73
952.99	4698.55
953.294	4708.04
953.599	4648.83
953.904	4616.74
954.209	4613.35
954.513	4612.45
954.818	4524.32
955.122	4563.19
955.426	4590.3
955.731	4491.1
956.035	4482.51
956.339	4476.41
956.643	4509.18
956.948	4473.02
957.252	4402.51
957.556	4365.9
957.86	4392.57
958.163	4371.55
958.467	4313.02
958.771	4346.24
959.075	4318.22
959.378	4299.01
959.682	4290.2
959.985	4257.66
960.289	4252.91
960.592	4242.74
960.896	4175.62
961.199	4173.36
961.502	4185.12
961.805	4114.84
962.108	4128.39
962.411	4108.28
962.714	4078.9
963.017	4070.09
963.32	4080.03
963.623	4008.17
963.926	4012.47
964.228	3982.41
964.531	3962.52
964.833	3999.36
965.136	3968.4
965.438	3890.89
965.741	3894.28
966.043	3838.68
966.345	3866.25
966.648	3883.88
966.95	3838.68
967.252	3818.35
967.554	3828.52
967.856	3725.69
968.158	3756.65
968.46	3730.89
968.761	3770.21
969.063	3711.23
969.365	3714.62
969.666	3692.7
969.968	3670.78
970.269	3651.34
970.571	3664
970.872	3649.31
971.174	3643.44
971.475	3616.32
971.776	3600.95
972.077	3554.62
972.378	3558.69
972.679	3533.16
972.98	3550.1
973.281	3515.98
973.582	3506.04
973.883	3509.2
974.183	3445.25
974.484	3449.09
974.785	3457.45
975.085	3406.15
975.386	3429.88
975.686	3387.85
975.986	3374.97
976.287	3375.19
976.587	3347.62
976.887	3336.1
977.187	3327.29
977.487	3295.2
977.787	3258.59
978.087	3282.09
978.387	3267.4
978.687	3226.95
978.987	3242.32
979.286	3197.8
979.586	3191.92
979.885	3209.77
980.185	3161.64
980.484	3120.74
980.784	3124.8
981.083	3113.28
981.382	3094.98
981.682	3105.37
981.981	3059.72
982.28	3092.94
982.579	3067.18
982.878	3047.74
983.177	3051.81
983.475	3007.07
983.774	2987.63
984.073	2986.73
984.372	2972.04
984.67	2965.04
984.969	2974.3
985.267	2937.47
985.566	2925.26
985.864	2925.71
986.162	2882.1
986.461	2861.08
986.759	2885.04
987.057	2856.79
987.355	2824.93
987.653	2850.69
987.951	2844.36
988.249	2810.46
988.547	2778.15
988.844	2777.7
989.142	2793.97
989.44	2744.7
989.737	2750.8
990.035	2703.8
990.332	2732.27
990.63	2706.06
990.927	2698.6
991.224	2666.29
991.521	2659.28
991.819	2636.68
992.116	2671.26
992.413	2624.48
992.71	2629
993.006	2601.2
993.303	2617.02
993.6	2568.21
993.897	2545.16
994.193	2587.19
994.49	2515.1
994.787	2525.72
995.083	2506.97
995.379	2523.24
995.676	2486.63
995.972	2493.63
996.268	2464.94
996.565	2423.35
996.861	2420.64
997.157	2413.64
997.453	2436.01
997.749	2413.19
998.044	2412.51
998.34	2373.86
998.636	2341.77
998.932	2381.1
999.227	2311.04
999.523	2333.19
999.818	2298.16
1000.114	2286.86
1000.409	2277.6
1000.704	2279.4
1001	2309.91
1001.295	2238.73
1001.59	2281.89
1001.885	2271.27
1002.18	2215
1002.475	2233.08
1002.77	2177.26
1003.065	2175.45
1003.359	2141.33
1003.654	2171.16
1003.949	2169.12
1004.243	2125.96
1004.538	2099.3
1004.832	2120.99
1005.127	2092.29
1005.421	2078.5
1005.715	2054.32
1006.009	2047.09
1006.304	2039.64
1006.598	2050.48
1006.892	2005.51
1007.186	2033.31
1007.48	1995.57
1007.773	2020.43
1008.067	1984.04
1008.361	1974.55
1008.655	1973.2
1008.948	1965.74
1009.242	1946.76
1009.535	1923.03
1009.829	1897.94
1010.122	1909.92
1010.415	1898.4
1010.708	1862.69
1011.001	1862.69
1011.295	1850.71
1011.588	1842.13
1011.881	1838.74
1012.173	1812.75
1012.466	1831.05
1012.759	1803.94
1013.052	1801
1013.344	1781.34
1013.637	1763.26
1013.93	1779.76
1014.222	1774.11
1014.514	1739.76
1014.807	1751.28
1015.099	1718.29
1015.391	1728.68
1015.683	1701.57
1015.976	1688.23
1016.268	1676.93
1016.56	1664.05
1016.851	1640.1
1017.143	1639.87
1017.435	1609.82
1017.727	1631.06
1018.018	1622.92
1018.31	1611.4
1018.602	1570.27
1018.893	1583.6
1019.185	1602.81
1019.476	1575.69
1019.767	1509.25
1020.058	1550.38
1020.35	1524.17
1020.641	1566.65
1020.932	1495.7
1021.223	1520.55
1021.514	1487.79
1021.804	1488.69
1022.095	1487.11
1022.386	1504.96
1022.677	1454.34
1022.967	1449.14
1023.258	1430.39
1023.548	1427.9
1023.839	1407.56
1024.129	1420.67
1024.419	1419.09
1024.709	1393.32
1025	1384.29
1025.29	1383.61
1025.58	1363.72
1025.87	1362.37
1026.16	1377.96
1026.449	1350.16
1026.739	1340.22
1027.029	1336.15
1027.319	1309.03
1027.608	1311.29
1027.898	1286.21
1028.187	1273.1
1028.477	1278.75
1028.766	1271.97
1029.055	1283.27
1029.344	1230.84
1029.634	1280.11
1029.923	1238.75
1030.212	1229.94
1030.501	1232.88
1030.79	1212.99
1031.078	1216.15
1031.367	1204.4
1031.656	1180
1031.945	1187.68
1032.233	1165.53
1032.522	1175.93
1032.81	1133.67
1033.099	1145.87
1033.387	1165.53
1033.675	1153.56
1033.963	1144.97
1034.251	1136.61
1034.54	1127.12
1034.828	1096.61
1035.116	1094.58
1035.403	1095.48
1035.691	1110.17
1035.979	1077.18
1036.267	1076.5
1036.554	1080.79
1036.842	1068.81
1037.129	1047.35
1037.417	1063.84
1037.704	1003.5
1037.992	1036.95
1038.279	1013.45
1038.566	1045.99
1038.853	1045.99
1039.14	1045.99
