Data from hue_230_FLMS001491_00066.txt Node
Date: Tue Feb 07 16:37:35 GMT 2017
User: dcchb
Spectrometer: FLMS00149
Trigger mode: 0
Integration Time (sec): 2.000000E-2
Scans to average: 10
Electric dark correction enabled: true
Nonlinearity correction enabled: false
Boxcar width: 0
XAxis mode: Wavelengths
Number of Pixels in Spectrum: 2048
>>>>>Begin Spectral Data<<<<<
341.393	-25.59
341.776	-25.59
342.16	-25.59
342.543	-61.07
342.927	-60.17
343.31	-76.44
343.693	-64.01
344.077	-66.04
344.46	-50.22
344.843	-50.68
345.226	-40.28
345.61	-31.92
345.993	-33.5
346.376	-19.72
346.759	5.82
347.142	31.36
347.525	66.83
347.908	46.5
348.291	76.33
348.674	92.6
349.057	113.39
349.44	113.16
349.823	128.75
350.206	157.45
350.588	198.13
350.971	203.55
351.354	207.4
351.737	221.18
352.119	226.6
352.502	247.62
352.884	299.6
353.267	279.03
353.65	293.27
354.032	294.4
354.414	304.12
354.797	290.78
355.179	308.41
355.562	313.38
355.944	322.42
356.326	328.52
356.709	306.15
357.091	335.75
357.473	333.04
357.855	345.92
358.238	338.01
358.62	343.21
359.002	329.43
359.384	311.57
359.766	319.71
360.148	327.62
360.53	348.86
360.912	326.26
361.294	329.65
361.676	333.04
362.057	326.26
362.439	332.82
362.821	319.71
363.203	321.97
363.584	329.88
363.966	301.18
364.348	313.16
364.729	314.29
365.111	308.18
365.493	307.51
365.874	300.95
366.256	309.99
366.637	289.65
367.019	301.63
367.4	311.57
367.781	317
368.163	307.28
368.544	308.18
368.925	297.56
369.306	299.37
369.688	299.37
370.069	285.13
370.45	296.43
370.831	308.18
371.212	319.71
371.593	326.94
371.974	299.37
372.355	299.6
372.736	285.36
373.117	306.6
373.498	297.11
373.879	297.56
374.26	321.97
374.641	296.88
375.021	305.7
375.402	313.38
375.783	285.36
376.163	309.77
376.544	294.4
376.925	334.17
377.305	320.39
377.686	307.05
378.066	307.05
378.447	317.45
378.827	323.78
379.208	322.87
379.588	313.38
379.968	317
380.349	317.9
380.729	322.87
381.109	323.55
381.489	300.05
381.87	314.29
382.25	344.34
382.63	326.26
383.01	333.27
383.39	334.85
383.77	329.88
384.15	317.9
384.53	350.67
384.91	333.04
385.29	333.95
385.67	342.31
386.049	323.55
386.429	349.31
386.809	333.27
387.189	351.57
387.568	353.83
387.948	348.86
388.328	350.22
388.707	348.41
389.087	350.67
389.466	359.03
389.846	359.03
390.225	371.46
390.605	355.64
390.984	355.19
391.363	355.64
391.743	362.87
392.122	356.09
392.501	362.87
392.881	383.21
393.26	355.64
393.639	384.79
394.018	365.36
394.397	367.39
394.776	381.4
395.155	378.24
395.534	376.43
395.913	366.49
396.292	389.31
396.671	390.89
397.05	375.53
397.429	375.07
397.808	380.72
398.186	367.62
398.565	380.05
398.944	389.76
399.323	402.42
399.701	390.44
400.08	402.64
400.458	385.47
400.837	395.87
401.215	388.18
401.594	388.18
401.972	406.94
402.351	422.31
402.729	413.94
403.107	396.09
403.486	427.28
403.864	425.24
404.242	404.9
404.62	413.27
404.999	419.82
405.377	421.63
405.755	437.67
406.133	450.33
406.511	430.89
406.889	420.72
407.267	437.45
407.645	463.21
408.023	453.72
408.401	465.24
408.779	483.77
409.156	463.66
409.534	473.15
409.912	474.96
410.29	480.16
410.667	489.2
411.045	494.85
411.422	484
411.8	512.02
412.178	518.8
412.555	498.69
412.933	519.25
413.31	519.7
413.687	540.04
414.065	521.96
414.442	560.61
414.819	559.7
415.197	541.17
415.574	571.45
415.951	573.71
416.328	572.13
416.705	590.89
417.082	577.33
417.46	594.73
417.837	624.33
418.214	604.9
418.591	624.33
418.967	625.69
419.344	610.55
419.721	627.95
420.098	624.33
420.475	663.43
420.852	667.72
421.228	662.98
421.605	664.78
421.982	698
422.358	644.9
422.735	697.55
423.111	707.5
423.488	712.92
423.864	721.73
424.241	726.25
424.617	760.83
424.994	765.57
425.37	754.27
425.746	787.72
426.123	790.43
426.499	797.21
426.875	812.8
427.251	815.74
427.627	836.76
428.003	834.27
428.379	846.93
428.756	876.76
429.132	855.51
429.507	852.12
429.883	893.03
430.259	902.07
430.635	885.8
431.011	878.79
431.387	911.56
431.763	932.57
432.138	959.69
432.514	954.27
432.89	973.48
433.265	984.32
433.641	1002.85
434.016	996.75
434.392	1046.7
434.767	1024.55
435.143	1055.51
435.518	1072.91
435.894	1087.15
436.269	1122.4
436.644	1123.08
437.02	1138.67
437.395	1161.49
437.77	1164.43
438.145	1180.03
438.52	1210.31
438.895	1222.28
439.271	1234.49
439.646	1274.49
440.021	1251.21
440.395	1274.49
440.77	1242.17
441.145	1297.31
441.52	1322.62
441.895	1324.43
442.27	1352.45
442.645	1348.61
443.019	1373.01
443.394	1377.99
443.769	1395.16
444.143	1381.83
444.518	1403.75
444.892	1395.61
445.267	1421.83
445.641	1461.83
446.016	1456.85
446.39	1463.18
446.764	1492.79
447.139	1499.11
447.513	1506.57
447.887	1496.85
448.262	1488.27
448.636	1531.43
449.01	1530.98
449.384	1560.13
449.758	1539.11
450.132	1579.11
450.506	1565.55
450.88	1605.55
451.254	1610.52
451.628	1604.65
452.002	1641.93
452.376	1647.58
452.75	1650.07
453.123	1663.18
453.497	1712.67
453.871	1701.82
454.244	1685.1
454.618	1751.99
454.992	1785.43
455.365	1756.51
455.739	1810.97
456.112	1817.75
456.486	1863.4
456.859	1843.51
457.232	1892.1
457.606	1888.26
457.979	1913.11
458.352	1960.8
458.725	1954.69
459.099	1950.63
459.472	2020.46
459.845	2019.1
460.218	2031.3
460.591	2045.54
460.964	2039.89
461.337	2101.13
461.71	2071.75
462.083	2133.45
462.456	2156.95
462.829	2187.91
463.201	2197.85
463.574	2234.46
463.947	2212.09
464.32	2248.25
464.692	2285.76
465.065	2313.1
465.438	2299.77
465.81	2392.2
466.183	2350.16
466.555	2474.91
466.928	2442.37
467.3	2460.44
467.672	2488.01
468.045	2553.77
468.417	2565.07
468.789	2534.79
469.161	2574.34
469.534	2600.33
469.906	2643.49
470.278	2684.62
470.65	2731.85
471.022	2787.67
471.394	2799.19
471.766	2802.36
472.138	2879.64
472.51	2882.35
472.882	2953.76
473.253	2993.54
473.625	3039.86
473.997	3051.39
474.369	3070.6
474.74	3093.87
475.112	3164.15
475.484	3204.83
475.855	3250.03
476.227	3255.23
476.598	3319.4
476.97	3377.26
477.341	3410.7
477.713	3490.93
478.084	3466.29
478.455	3562.79
478.827	3584.03
479.198	3705.16
479.569	3667.42
479.94	3770.69
480.311	3809.79
480.682	3849.79
481.053	3981.31
481.424	3998.48
481.795	4052.94
482.166	4088.88
482.537	4126.61
482.908	4188.99
483.279	4209.78
483.65	4339.26
484.021	4359.83
484.391	4374.29
484.762	4396.44
485.133	4495.42
485.503	4529.54
485.874	4593.5
486.244	4626.26
486.615	4724.11
486.985	4764.11
487.356	4841.62
487.726	4854.73
488.097	4957.55
488.467	4985.8
488.837	5061.73
489.207	5108.96
489.578	5167.94
489.948	5185.12
490.318	5240.03
490.688	5267.38
491.058	5333.14
491.428	5357.32
491.798	5438.67
492.168	5495.84
492.538	5536.52
492.908	5616.74
493.278	5645.9
493.648	5646.12
494.017	5688.38
494.387	5768.15
494.757	5761.83
495.126	5881.14
495.496	5863.07
495.866	5889.96
496.235	5963.18
496.605	6016.06
496.974	6019.67
497.344	6036.39
497.713	6108.26
498.082	6090.18
498.452	6108.71
498.821	6154.36
499.19	6152.78
499.559	6242.72
499.928	6258.76
500.298	6228.48
500.667	6298.76
501.036	6308.48
501.405	6294.92
501.774	6336.27
502.143	6366.56
502.512	6423.96
502.88	6458.53
503.249	6424.86
503.618	6447.23
503.987	6486.33
504.356	6521.13
504.724	6548.7
505.093	6574.23
505.462	6611.75
505.83	6590.96
506.199	6626.66
506.567	6664.63
506.936	6698.52
507.304	6766.55
507.672	6803.61
508.041	6767.22
508.409	6827.56
508.777	6808.35
509.145	6847.67
509.514	6871.63
509.882	6863.04
510.25	6863.27
510.618	6928.8
510.986	6885.41
511.354	6926.77
511.722	7013.77
512.09	7013.32
512.458	7018.06
512.826	6989.36
513.193	7062.58
513.561	7048.12
513.929	7058.97
514.297	7096.71
514.664	7104.84
515.032	7120.66
515.4	7190.49
515.767	7175.57
516.135	7164.95
516.502	7092.19
516.869	7263.71
517.237	7194.78
517.604	7184.61
517.972	7258.51
518.339	7270.94
518.706	7261
519.073	7313.88
519.44	7261.9
519.808	7348
520.175	7256.7
520.542	7362.46
520.909	7320.43
521.276	7311.84
521.643	7375.79
522.009	7353.87
522.376	7359.07
522.743	7465.28
523.11	7402.91
523.477	7468
523.843	7515.45
524.21	7500.31
524.577	7543.47
524.943	7488.11
525.31	7508.45
525.676	7622.57
526.043	7547.09
526.409	7640.65
526.776	7542.34
527.142	7572.4
527.508	7608.33
527.874	7646.52
528.241	7629.8
528.607	7654.21
528.973	7702.79
529.339	7658.05
529.705	7713.86
530.071	7669.35
530.437	7764.03
530.803	7721.77
531.169	7701.21
531.535	7689.68
531.901	7705.96
532.267	7656.47
532.632	7752.51
532.998	7686.3
533.364	7717.71
533.73	7698.72
534.095	7760.42
534.461	7751.83
534.826	7698.05
535.192	7682
535.557	7719.29
535.923	7693.53
536.288	7706.41
536.653	7735.56
537.019	7644.71
537.384	7656.47
537.749	7629.12
538.114	7691.94
538.479	7631.16
538.845	7628.9
539.21	7636.13
539.575	7607.65
539.94	7534.21
540.305	7571.27
540.67	7579.41
541.034	7586.41
541.399	7522.23
541.764	7544.15
542.129	7559.52
542.494	7559.74
542.858	7527.66
543.223	7555.23
543.587	7450.14
543.952	7425.28
544.316	7518.84
544.681	7512.51
545.045	7489.46
545.41	7457.6
545.774	7411.05
546.138	7398.85
546.503	7442.46
546.867	7433.65
547.231	7426.41
547.595	7434.78
547.959	7403.36
548.324	7416.92
548.688	7332.41
549.052	7361.33
549.416	7298.51
549.779	7367.43
550.143	7272.75
550.507	7332.18
550.871	7337.83
551.235	7267.32
551.599	7275.01
551.962	7271.84
552.326	7244.27
552.689	7239.98
553.053	7267.1
553.417	7229.81
553.78	7328.34
554.143	7237.95
554.507	7228.45
554.87	7263.03
555.234	7277.04
555.597	7255.35
555.96	7280.2
556.323	7261.67
556.686	7166.53
557.05	7258.51
557.413	7236.36
557.776	7236.59
558.139	7286.53
558.502	7284.95
558.865	7223.93
559.228	7266.19
559.59	7316.59
559.953	7237.27
560.316	7284.72
560.679	7303.03
561.041	7357.72
561.404	7355.23
561.767	7326.08
562.129	7342.8
562.492	7357.94
562.854	7318.4
563.217	7299.86
563.579	7326.53
563.941	7399.97
564.304	7428.9
564.666	7423.25
565.028	7438.39
565.39	7463.25
565.753	7396.36
566.115	7475
566.477	7470.71
566.839	7444.27
567.201	7528.79
567.563	7478.62
567.925	7584.15
568.287	7502.12
568.648	7539.18
569.01	7576.47
569.372	7646.3
569.734	7564.49
570.095	7615.56
570.457	7627.31
570.819	7657.6
571.18	7611.49
571.542	7679.97
571.903	7686.3
572.265	7678.16
572.626	7776.46
572.987	7818.49
573.349	7786.86
573.71	7785.73
574.071	7810.81
574.432	7763.58
574.794	7821.21
575.155	7844.26
575.516	7856.23
575.877	7881.54
576.238	7905.27
576.599	7912.96
576.96	7915.67
577.32	7919.28
577.681	7927.87
578.042	7993.63
578.403	8032.27
578.763	8001.09
579.124	7977.59
579.485	8041.54
579.845	8076.34
580.206	8027.98
580.566	8014.42
580.927	8076.34
581.287	8051.94
581.648	8065.95
582.008	8118.15
582.368	8096.68
582.728	8123.8
583.089	8119.96
583.449	8190.91
583.809	8207.86
584.169	8234.3
584.529	8111.14
584.889	8192.5
585.249	8157.92
585.609	8115.89
585.969	8168.09
586.329	8199.05
586.688	8250.12
587.048	8284.25
587.408	8253.06
587.768	8243.12
588.127	8262.55
588.487	8214.42
588.846	8304.81
589.206	8256.9
589.565	8336.45
589.925	8337.13
590.284	8345.94
590.643	8319.72
591.003	8396.11
591.362	8334.87
591.721	8384.81
592.08	8359.5
592.44	8390.46
592.799	8484.69
593.158	8406.05
593.517	8423
593.876	8421.42
594.235	8428.2
594.593	8436.78
594.952	8452.15
595.311	8444.24
595.67	8443.34
596.029	8459.38
596.387	8519.72
596.746	8531.02
597.104	8523.34
597.463	8532.6
597.822	8541.87
598.18	8510.91
598.538	8455.31
598.897	8549.1
599.255	8468.65
599.613	8561.98
599.972	8539.83
600.33	8595.42
600.688	8563.79
601.046	8542.09
601.404	8516.33
601.762	8538.02
602.12	8662.77
602.478	8623.67
602.836	8654.63
603.194	8578.48
603.552	8585.25
603.91	8555.65
604.268	8622.99
604.625	8556.55
604.983	8614.63
605.341	8507.52
605.698	8632.94
606.056	8648.98
606.413	8628.42
606.771	8645.14
607.128	8634.07
607.485	8626.16
607.843	8661.18
608.2	8723.56
608.557	8753.16
608.914	8641.07
609.272	8663.22
609.629	8681.3
609.986	8744.57
610.343	8665.25
610.7	8787.51
611.057	8714.52
611.414	8706.61
611.771	8711.58
612.127	8777.79
612.484	8748.87
612.841	8814.85
613.198	8774.63
613.554	8811.92
613.911	8778.47
614.267	8822.08
614.624	8803.78
614.98	8754.52
615.337	8850.33
615.693	8810.79
616.05	8773.95
616.406	8857.11
616.762	8834.29
617.118	8827.51
617.475	8848.07
617.831	8899.14
618.187	8874.06
618.543	8886.94
618.899	8870.44
619.255	8921.06
619.611	8922.65
619.967	8938.92
620.323	9006.94
620.678	8878.58
621.034	8941.18
621.39	8911.57
621.746	8894.4
622.101	9048.29
622.457	8928.07
622.812	8952.48
623.168	8988.41
623.523	8939.6
623.879	9015.3
624.234	8896.88
624.589	8933.04
624.945	8945.02
625.3	8955.19
625.655	8924.23
626.01	8940.73
626.365	8959.71
626.72	8909.77
627.075	8874.74
627.43	8929.43
627.785	8852.82
628.14	8976.88
628.495	8921.52
628.85	8881.07
629.205	8882.42
629.559	8947.05
629.914	8868.41
630.269	8869.99
630.623	8871.35
630.978	8845.13
631.332	8906.6
631.687	8899.14
632.041	8823.44
632.396	8813.5
632.75	8871.8
633.104	8866.6
633.459	8827.06
633.813	8843.78
634.167	8785.25
634.521	8759.49
634.875	8813.72
635.229	8760.39
635.583	8755.87
635.937	8737.34
636.291	8736.21
636.645	8641.75
636.999	8769.88
637.352	8733.95
637.706	8681.3
638.06	8714.52
638.413	8661.18
638.767	8651.69
639.121	8641.52
639.474	8619.6
639.828	8675.42
640.181	8667.74
640.534	8588.42
640.888	8638.13
641.241	8552.04
641.594	8578.7
641.947	8637.91
642.301	8525.6
642.654	8568.53
643.007	8609.43
643.36	8604.91
643.713	8547.52
644.066	8588.87
644.419	8502.09
644.771	8465.71
645.124	8401.08
645.477	8371.02
645.83	8331.25
646.182	8337.8
646.535	8228.2
646.888	8361.98
647.24	8256.45
647.593	8326.73
647.945	8237.47
648.298	8241.08
648.65	8175.77
649.002	8230.69
649.355	8207.41
649.707	8266.17
650.059	8302.32
650.411	8343.45
650.763	8340.97
651.115	8451.47
651.467	8433.39
651.819	8408.99
652.171	8428.87
652.523	8335.54
652.875	8377.8
653.227	8355.88
653.578	8497.12
653.93	8397.01
654.282	8389.33
654.633	8371.7
654.985	8356.79
655.337	8461.64
655.688	8371.02
656.039	8411.02
656.391	8378.03
656.742	8401.53
657.094	8377.8
657.445	8401.98
657.796	8375.54
658.147	8360.85
658.498	8370.57
658.849	8387.52
659.2	8378.48
659.551	8413.96
659.902	8364.47
660.253	8379.16
660.604	8346.39
660.955	8394.53
661.306	8386.84
661.656	8351.59
662.007	8339.61
662.358	8443.79
662.708	8404.69
663.059	8490.12
663.409	8312.72
663.76	8389.78
664.11	8426.39
664.461	8391.36
664.811	8379.61
665.161	8415.09
665.511	8410.34
665.862	8363.34
666.212	8457.8
666.562	8445.6
666.912	8425.03
667.262	8388.88
667.612	8440.85
667.962	8439.27
668.312	8385.03
668.662	8430.23
669.011	8371.25
669.361	8314.53
669.711	8414.86
670.06	8407.41
670.41	8318.14
670.76	8331.02
671.109	8362.66
671.459	8340.06
671.808	8365.37
672.157	8358.59
672.507	8285.15
672.856	8241.99
673.205	8273.62
673.554	8330.57
673.904	8334.41
674.253	8328.31
674.602	8331.7
674.951	8175.32
675.3	8189.33
675.649	8269.33
675.998	8241.76
676.346	8278.82
676.695	8281.53
677.044	8196.79
677.393	8257.35
677.741	8260.07
678.09	8221.65
678.438	8163.57
678.787	8226.17
679.135	8201.99
679.484	8151.14
679.832	8148.43
680.181	8095.78
680.529	8162.44
680.877	8039.96
681.225	8087.64
681.573	8123.8
681.922	8030.01
682.27	8061.43
682.618	8069.79
682.966	7999.51
683.314	8046.74
683.661	8039.96
684.009	7940.07
684.357	7954.08
684.705	8012.61
685.053	7996.8
685.4	7880.19
685.748	7895.78
686.095	7866.18
686.443	7872.73
686.79	7848.55
687.138	7835.9
687.485	7840.19
687.832	7803.13
688.18	7732.62
688.527	7760.64
688.874	7684.71
689.221	7713.41
689.568	7746.18
689.915	7635.45
690.262	7669.12
690.609	7652.85
690.956	7620.31
691.303	7592.96
691.65	7571.04
691.997	7571.72
692.344	7512.29
692.69	7518.62
693.037	7496.47
693.383	7417.38
693.73	7508.45
694.077	7364.5
694.423	7368.56
694.769	7354.33
695.116	7342.58
695.462	7336.02
695.808	7312.97
696.155	7330.37
696.501	7245.85
696.847	7289.02
697.193	7251.28
697.539	7188.91
697.885	7150.94
698.231	7145.74
698.577	7202.69
698.923	7079.31
699.269	7061.9
699.614	7042.24
699.96	6997.05
700.306	7018.06
700.651	7011.96
700.997	6947.11
701.342	6929.7
701.688	6932.19
702.033	6891.06
702.379	6895.58
702.724	6904.85
703.069	6805.19
703.415	6793.21
703.76	6762.25
704.105	6760.22
704.45	6755.02
704.795	6672.76
705.14	6725.19
705.485	6709.6
705.83	6644.51
706.175	6669.37
706.52	6653.55
706.865	6653.1
707.209	6624.4
707.554	6586.44
707.899	6577.85
708.243	6576.04
708.588	6587.11
708.932	6487.23
709.277	6480.9
709.621	6473.45
709.966	6432.99
710.31	6471.86
710.654	6420.11
710.998	6372.43
711.342	6432.09
711.687	6413.56
712.031	6360.23
712.375	6314.81
712.719	6347.12
713.063	6307.8
713.407	6357.97
713.75	6313.68
714.094	6312.55
714.438	6293.56
714.782	6319.1
715.125	6290.17
715.469	6258.54
715.812	6269.61
716.156	6214.7
716.499	6265.77
716.843	6215.15
717.186	6156.39
717.53	6230.29
717.873	6203.17
718.216	6138.54
718.559	6108.26
718.902	6129.5
719.246	6143.74
719.589	6143.96
719.932	6123.4
720.275	6109.16
720.617	6068.48
720.96	6124.3
721.303	6049.95
721.646	6059.22
721.989	6059.22
722.331	6094.7
722.674	6041.14
723.016	6012.21
723.359	6095.38
723.701	6041.37
724.044	6031.42
724.386	5983.29
724.729	6000.69
725.071	6009.5
725.413	6008.15
725.755	6011.76
726.097	5935.61
726.439	5977.19
726.782	5953.91
727.124	5923.86
727.465	5982.84
727.807	5895.16
728.149	5960.46
728.491	5959.56
728.833	5919.34
729.175	5887.92
729.516	5884.53
729.858	5873.69
730.199	5987.58
730.541	5892.67
730.882	5891.09
731.224	5963.4
731.565	5887.47
731.906	5912.1
732.248	5960.46
732.589	5905.55
732.93	5913.91
733.271	5862.16
733.612	5895.61
733.953	5863.52
734.294	5903.97
734.635	5875.04
734.976	5885.66
735.317	5903.07
735.658	5860.13
735.999	5851.32
736.339	5922.73
736.68	5868.49
737.021	5878.21
737.361	5890.86
737.702	5904.2
738.042	5868.72
738.383	5925.89
738.723	5933.57
739.063	5929.51
739.404	5960.24
739.744	5904.2
740.084	5931.54
740.424	5943.74
740.764	5925.89
741.104	5939.22
741.444	5969.28
741.784	5967.47
742.124	6016.73
742.464	5969.5
742.804	5981.26
743.143	6073
743.483	6040.91
743.823	5996.85
744.162	6026.23
744.502	6050.63
744.841	6079.11
745.181	6104.19
745.52	6108.71
745.86	6160.01
746.199	6135.83
746.538	6172.21
746.877	6246.56
747.216	6272.77
747.556	6268.03
747.895	6246.78
748.234	6345.99
748.573	6368.59
748.911	6394.13
749.25	6448.14
749.589	6427.12
749.928	6541.01
750.267	6592.99
750.605	6593.89
750.944	6622.14
751.283	6708.69
751.621	6776.04
751.96	6802.25
752.298	6925.41
752.636	6930.61
752.975	7018.29
753.313	7034.79
753.651	7140.55
753.989	7196.82
754.327	7284.95
754.666	7346.64
755.004	7417.15
755.342	7514.55
755.679	7612.4
756.017	7692.62
756.355	7805.39
756.693	7912.05
757.031	8028.88
757.368	8126.28
757.706	8178.03
758.044	8254.19
758.381	8365.6
758.719	8486.5
759.056	8583.22
759.394	8717.23
759.731	8764.23
760.068	8885.13
760.405	9078.12
760.743	9079.03
761.08	9207.16
761.417	9355.18
761.754	9501.39
762.091	9546.81
762.428	9724.66
762.765	9731.67
763.102	9972.11
763.438	10111.54
763.775	10180.69
764.112	10348.6
764.449	10400.12
764.785	10476.96
765.122	10535.49
765.458	10625.43
765.795	10775.48
766.131	10911.52
766.467	10978.19
766.804	11050.95
767.14	11156.94
767.476	11309.48
767.812	11338.63
768.148	11438.96
768.485	11531.62
768.821	11578.4
769.157	11742.23
769.492	11786.07
769.828	11887.31
770.164	11894.09
770.5	11959.4
770.836	12144.71
771.171	12124.6
771.507	12208.44
771.842	12248.44
772.178	12389
772.513	12385.38
772.849	12455.44
773.184	12526.39
773.519	12497.24
773.855	12565.26
774.19	12586.05
774.525	12658.59
774.86	12790.57
775.195	12784.01
775.53	12805.93
775.865	12794.41
776.2	12833.73
776.535	12704.69
776.87	12829.89
777.205	12900.62
777.539	12898.14
777.874	12993.73
778.209	12930
778.543	12922.99
778.878	12950.11
779.212	12882.99
779.547	12941.98
779.881	13045.25
780.215	12924.8
780.55	13023.78
780.884	12952.6
781.218	13082.54
781.552	13036.89
781.886	12983.1
782.22	13040.28
782.554	12925.25
782.888	12925.25
783.222	12921.41
783.556	12962.31
783.889	12908.08
784.223	12876.67
784.557	12781.98
784.89	12944.69
785.224	12888.87
785.557	12847.97
785.891	12823.56
786.224	12864.92
786.558	12870.57
786.891	12751.7
787.224	12732.49
787.557	12685.94
787.891	12825.37
788.224	12764.35
788.557	12827.63
788.89	12825.37
789.223	12791.25
789.556	12699.5
789.888	12600.74
790.221	12662.66
790.554	12585.38
790.887	12635.54
791.219	12603.45
791.552	12506.28
791.884	12450.24
792.217	12519.39
792.549	12573.62
792.882	12437.13
793.214	12379.73
793.546	12535.66
793.879	12362.56
794.211	12316.91
794.543	12344.48
794.875	12347.42
795.207	12313.29
795.539	12226.74
795.871	12241.66
796.203	12130.7
796.535	12108.78
796.867	12144.48
797.198	12190.36
797.53	12117.82
797.862	12108.78
798.193	12029.01
798.525	11971.61
798.856	12017.25
799.188	11942.68
799.519	11918.73
799.85	11863.59
800.182	11870.37
800.513	11844.15
800.844	11722.12
801.175	11814.77
801.506	11752.4
801.837	11685.51
802.168	11739.07
802.499	11727.54
802.83	11582.24
803.161	11596.47
803.491	11618.62
803.822	11678.28
804.153	11546.76
804.483	11486.65
804.814	11518.74
805.145	11499.3
805.475	11417.04
805.805	11449.81
806.136	11369.36
806.466	11364.16
806.796	11395.8
807.126	11318.52
807.457	11310.38
807.787	11328.91
808.117	11260.21
808.447	11222.25
808.777	11151.29
809.107	11168.46
809.436	11185.41
809.766	11099.31
810.096	11097.73
810.426	10968.92
810.755	11092.08
811.085	11031.74
811.414	11080.78
811.744	10950.62
812.073	10943.84
812.403	11012.54
812.732	10911.3
813.061	10925.53
813.39	10750.62
813.719	10849.38
814.049	10860
814.378	10826.55
814.707	10770.28
815.036	10733.22
815.365	10672.66
815.693	10653.67
816.022	10711.98
816.351	10653.67
816.68	10594.69
817.008	10600.79
817.337	10562.6
817.665	10505.88
817.994	10597.18
818.322	10565.99
818.651	10436.51
818.979	10421.36
819.307	10549.04
819.636	10516.28
819.964	10422.72
820.292	10471.76
820.62	10435.15
820.948	10327.36
821.276	10449.39
821.604	10384.3
821.932	10415.04
822.259	10460.46
822.587	10383.63
822.915	10441.7
823.243	10424.08
823.57	10336.85
823.898	10413
824.225	10321.93
824.553	10325.77
824.88	10345.66
825.207	10391.99
825.535	10317.64
825.862	10396.73
826.189	10398.31
826.516	10421.59
826.843	10438.31
827.17	10401.93
827.497	10411.42
827.824	10430.63
828.151	10438.99
828.478	10441.02
828.805	10487.13
829.131	10349.05
829.458	10423.85
829.785	10390.4
830.111	10364.42
830.438	10431.99
830.764	10438.77
831.09	10397.18
831.417	10351.31
831.743	10398.09
832.069	10345.89
832.395	10408.26
832.722	10401.03
833.048	10321.48
833.374	10312.44
833.7	10333.23
834.026	10310.18
834.351	10354.93
834.677	10322.16
835.003	10342.72
835.329	10320.58
835.654	10278.77
835.98	10250.07
836.306	10261.82
836.631	10275.38
836.956	10335.04
837.282	10191.77
837.607	10249.17
837.932	10211.65
838.258	10194.7
838.583	10204.19
838.908	10098.21
839.233	10122.39
839.558	10109.51
839.883	10144.54
840.208	10096.85
840.533	10110.86
840.858	10063.86
841.182	10097.76
841.507	10007.36
841.832	10058.66
842.156	9987.03
842.481	10031.77
842.805	9919.68
843.13	9977.99
843.454	9864.99
843.778	9876.07
844.103	9864.99
844.427	9840.59
844.751	9808.5
845.075	9748.39
845.399	9768.95
845.723	9711.1
846.047	9692.34
846.371	9606.02
846.695	9623.87
847.019	9606.24
847.343	9473.37
847.666	9512.91
847.99	9412.35
848.313	9450.99
848.637	9386.82
848.96	9381.17
849.284	9362.41
849.607	9262.07
849.931	9242.41
850.254	9146.82
850.577	9184.79
850.9	9119.93
851.223	9096.65
851.546	9063.21
851.869	9067.95
852.192	9016.2
852.515	8996.54
852.838	8964.91
853.161	8938.01
853.483	8921.06
853.806	8873.83
854.129	8846.49
854.451	8857.34
854.774	8796.77
855.096	8737.79
855.419	8703.22
855.741	8741.86
856.063	8650.56
856.385	8674.52
856.708	8638.81
857.03	8597.68
857.352	8605.37
857.674	8539.83
857.996	8569.66
858.318	8446.28
858.64	8453.96
858.961	8486.5
859.283	8417.8
859.605	8382.77
859.926	8404.24
860.248	8395.65
860.57	8378.03
860.891	8339.84
861.212	8333.96
861.534	8298.48
861.855	8267.97
862.176	8273.4
862.498	8216.22
862.819	8209.22
863.14	8222.1
863.461	8237.69
863.782	8197.69
864.103	8155.21
864.424	8126.28
864.745	8132.61
865.065	8098.26
865.386	8107.3
865.707	8060.75
866.027	8095.55
866.348	8047.19
866.668	8047.87
866.989	8045.83
867.309	7950.92
867.63	8041.09
867.95	8022.11
868.27	7963.8
868.59	7932.84
868.91	7970.81
869.23	7910.24
869.55	7867.31
869.87	7987.98
870.19	7895.1
870.51	7947.98
870.83	7905.5
871.15	7931.03
871.469	7821.88
871.789	7906.18
872.109	7874.99
872.428	7781.89
872.748	7767.87
873.067	7839.74
873.386	7773.75
873.706	7743.69
874.025	7714.09
874.344	7719.06
874.663	7710.02
874.982	7687.2
875.301	7725.62
875.62	7675.9
875.939	7722.45
876.258	7730.59
876.577	7660.76
876.896	7641.78
877.214	7629.8
877.533	7612.17
877.852	7627.99
878.17	7570.14
878.489	7593.42
878.807	7573.76
879.125	7541.89
879.444	7585.05
879.762	7498.05
880.08	7531.04
880.398	7479.52
880.716	7516.36
881.034	7420.77
881.352	7487.66
881.67	7428.22
881.988	7414.21
882.306	7424.16
882.624	7393.42
882.941	7395.91
883.259	7298.28
883.577	7358.62
883.894	7308.45
884.212	7325.85
884.529	7303.03
884.846	7272.75
885.164	7262.13
885.481	7247.89
885.798	7277.94
886.115	7176.48
886.432	7190.94
886.75	7196.82
887.067	7202.01
887.383	7127.21
887.7	7171.96
888.017	7175.35
888.334	7084.5
888.651	7097.16
888.967	7086.08
889.284	7056.26
889.6	7060.55
889.917	6944.62
890.233	6987.56
890.55	6989.59
890.866	6944.62
891.182	6907.78
891.498	6894.23
891.815	6901.91
892.131	6890.16
892.447	6843.61
892.763	6864.17
893.079	6792.76
893.395	6843.61
893.71	6798.63
894.026	6787.34
894.342	6710.28
894.657	6743.27
894.973	6704.4
895.289	6697.85
895.604	6643.61
895.92	6612.88
896.235	6567.68
896.55	6587.79
896.865	6550.28
897.181	6535.82
897.496	6547.57
897.811	6505.54
898.126	6438.87
898.441	6460.34
898.756	6424.86
899.071	6433.67
899.386	6408.36
899.7	6363.84
900.015	6378.76
900.33	6259.21
900.644	6226.22
900.959	6296.73
901.273	6231.19
901.588	6200.23
901.902	6188.93
902.216	6121.59
902.531	6170.85
902.845	6193.45
903.159	6126.34
903.473	6072.33
903.787	6026.68
904.101	6030.29
904.415	6042.27
904.729	6053.57
905.042	5942.16
905.356	5976.74
905.67	5923.18
905.984	5938.54
906.297	5945.1
906.611	5943.74
906.924	5847.7
907.237	5841.6
907.551	5879.79
907.864	5778.1
908.177	5727.25
908.491	5793.92
908.804	5706.23
909.117	5698.1
909.43	5690.64
909.743	5635.5
910.056	5626.69
910.368	5630.98
910.681	5566.8
910.994	5549.85
911.307	5541.27
911.619	5532.68
911.932	5518.44
912.244	5399.12
912.557	5501.95
912.869	5412.23
913.181	5381.04
913.494	5407.94
913.806	5372.91
914.118	5335.85
914.43	5354.15
914.742	5301.95
915.054	5268.51
915.366	5275.29
915.678	5250.43
915.99	5206.36
916.302	5168.4
916.613	5174.72
916.925	5188.51
917.236	5080.49
917.548	5106.7
917.859	5129.75
918.171	5073.48
918.482	5111.9
918.794	5049.53
919.105	4989.42
919.416	5001.85
919.727	4988.74
920.038	4991.9
920.349	4966.59
920.66	4954.39
920.971	4939.02
921.282	4944.9
921.593	4836.43
921.903	4829.65
922.214	4821.74
922.525	4841.4
922.835	4777.45
923.146	4755.75
923.456	4703.32
923.767	4726.37
924.077	4713.27
924.387	4716.43
924.697	4681.4
925.008	4690.67
925.318	4682.08
925.628	4641.4
925.938	4647.96
926.248	4595.3
926.558	4545.59
926.867	4551.01
927.177	4520.5
927.487	4543.1
927.796	4452.71
928.106	4482.54
928.416	4439.6
928.725	4451.8
929.034	4430.79
929.344	4466.72
929.653	4405.03
929.962	4365.48
930.271	4357.12
930.581	4336.1
930.89	4305.37
931.199	4264.69
931.508	4287.97
931.817	4283.67
932.125	4200.51
932.434	4242.77
932.743	4176.78
933.051	4234.41
933.36	4171.13
933.669	4150.57
933.977	4188.99
934.286	4135.2
934.594	4128.42
934.902	4030.57
935.21	4029.22
935.519	4067.18
935.827	4057.01
936.135	4026.5
936.443	3982.89
936.751	3949.44
937.059	4006.39
937.367	3899.28
937.674	3966.39
937.982	3930.91
938.29	3962.1
938.597	3885.04
938.905	3906.28
939.213	3820.86
939.52	3834.64
939.827	3843.01
940.135	3833.74
940.442	3792.84
940.749	3785.83
941.056	3821.54
941.363	3758.04
941.67	3782.67
941.977	3737.92
942.284	3707.64
942.591	3724.82
942.898	3686.17
943.205	3655.21
943.511	3664.03
943.818	3650.69
944.125	3619.28
944.431	3631.71
944.738	3584.48
945.044	3575.44
945.35	3558.72
945.657	3534.54
945.963	3525.95
946.269	3533.18
946.575	3545.16
946.881	3429.23
947.187	3490.25
947.493	3474.88
947.799	3458.84
948.105	3443.02
948.41	3382.45
948.716	3433.98
949.022	3377.26
949.327	3377.03
949.633	3361.44
949.938	3327.31
950.244	3412.51
950.549	3303.59
950.854	3307.65
951.16	3280.54
951.465	3248.45
951.77	3257.71
952.075	3268.78
952.38	3260.2
952.685	3239.86
952.99	3191.95
953.294	3219.52
953.599	3166.87
953.904	3192.18
954.209	3140.43
954.513	3174.32
954.818	3099.75
955.122	3127.32
955.426	3134.78
955.731	3090.71
956.035	3098.17
956.339	3091.61
956.643	3026.08
956.948	3046.87
957.252	3077.38
957.556	3034.67
957.86	3017.72
958.163	3008.23
958.467	3004.84
958.771	2996.02
959.075	2977.04
959.378	2965.97
959.682	2954.89
959.985	2921.9
960.289	2923.48
960.592	2923.48
960.896	2891.62
961.199	2855.69
961.502	2871.96
961.805	2849.59
962.108	2837.61
962.411	2839.64
962.714	2809.14
963.017	2824.5
963.32	2808.01
963.623	2797.84
963.926	2779.76
964.228	2686.43
964.531	2754
964.833	2769.14
965.136	2739.76
965.438	2710.83
965.741	2660.21
966.043	2688.23
966.345	2684.62
966.648	2663.83
966.95	2634
967.252	2649.14
967.554	2669.25
967.856	2636.71
968.158	2632.19
968.46	2577.5
968.761	2590.61
969.063	2566.88
969.365	2586.77
969.666	2563.49
969.968	2538.18
970.269	2530.05
970.571	2526.43
970.872	2526.43
971.174	2497.5
971.475	2492.76
971.776	2508.8
972.077	2467.9
972.378	2474
972.679	2457.28
972.98	2444.17
973.281	2447.34
973.582	2459.09
973.883	2388.36
974.183	2418.41
974.484	2403.04
974.785	2396.49
975.085	2381.35
975.386	2370.5
975.686	2391.52
975.986	2336.38
976.287	2350.16
976.587	2331.86
976.887	2297.96
977.187	2303.61
977.487	2300.9
977.787	2281.01
978.087	2277.62
978.387	2282.37
978.687	2274.46
978.987	2256.38
979.286	2250.28
979.586	2267.23
979.885	2183.39
980.185	2267
980.484	2217.51
980.784	2205.99
981.083	2190.17
981.382	2187.46
981.682	2154.46
981.981	2154.92
982.28	2144.52
982.579	2127.12
982.878	2127.35
983.177	2123.28
983.475	2113.79
983.774	2085.31
984.073	2096.84
984.372	2082.37
984.67	2067.46
984.969	2091.19
985.267	2066.56
985.566	2047.8
985.864	2018.42
986.162	2032.43
986.461	2041.25
986.759	2013.45
987.057	2008.48
987.355	1971.87
987.653	1949.72
987.951	1996.5
988.249	1995.82
988.547	1981.36
988.844	1953.79
989.142	1944.53
989.44	1946.56
989.737	1963.28
990.035	1940.46
990.332	1927.58
990.63	1886.22
990.927	1898.42
991.224	1871.76
991.521	1862.27
991.819	1884.64
992.116	1880.8
992.413	1859.78
992.71	1853.68
993.006	1821.14
993.303	1828.14
993.6	1842.61
993.897	1805.77
994.193	1833.12
994.49	1801.25
994.787	1784.3
995.083	1775.72
995.379	1775.94
995.676	1792.66
995.972	1739.11
996.268	1751.76
996.565	1780.69
996.861	1744.08
997.157	1700.46
997.453	1739.11
997.749	1751.99
998.044	1685.32
998.34	1678.32
998.636	1704.76
998.932	1688.26
999.227	1695.04
999.523	1655.04
999.818	1649.17
1000.114	1648.94
1000.409	1617.53
1000.704	1614.36
1001	1620.92
1001.295	1605.55
1001.59	1568.72
1001.885	1615.27
1002.18	1592.9
1002.475	1558.77
1002.77	1583.4
1003.065	1555.38
1003.359	1566.91
1003.654	1562.61
1003.949	1526.68
1004.243	1537.76
1004.538	1510.64
1004.832	1504.31
1005.127	1514.71
1005.421	1508.38
1005.715	1489.17
1006.009	1512.67
1006.304	1488.04
1006.598	1449.85
1006.892	1464.31
1007.186	1459.79
1007.48	1445.78
1007.773	1436.06
1008.067	1430.41
1008.361	1444.2
1008.655	1417.31
1008.948	1418.21
1009.242	1436.52
1009.535	1413.24
1009.829	1386.12
1010.122	1346.35
1010.415	1360.59
1010.708	1351.09
1011.001	1358.55
1011.295	1352.45
1011.588	1342.73
1011.881	1326.91
1012.173	1336.63
1012.466	1341.15
1012.759	1312.9
1013.052	1290.31
1013.344	1307.93
1013.637	1283.75
1013.93	1291.66
1014.222	1276.07
1014.514	1266.35
1014.807	1260.25
1015.099	1263.41
1015.391	1264.09
1015.683	1259.57
1015.976	1216.63
1016.268	1267.25
1016.56	1213.7
1016.851	1217.76
1017.143	1201.95
1017.435	1186.8
1017.727	1170.99
1018.018	1188.84
1018.31	1181.38
1018.602	1170.99
1018.893	1163.53
1019.185	1176.86
1019.476	1176.18
1019.767	1132.8
1020.058	1158.56
1020.35	1143.87
1020.641	1117.88
1020.932	1128.73
1021.223	1104.77
1021.514	1112.23
1021.804	1120.37
1022.095	1072.68
1022.386	1072.68
1022.677	1057.09
1022.967	1092.57
1023.258	1073.14
1023.548	1066.36
1023.839	1060.03
1024.129	1061.84
1024.419	1046.7
1024.709	1014.61
1025	1009.18
1025.29	1039.46
1025.58	1029.97
1025.87	1013.02
1026.16	1000.6
1026.449	1022.97
1026.739	1002.18
1027.029	996.53
1027.319	944.1
1027.608	961.05
1027.898	969.18
1028.187	990.43
1028.477	968.51
1028.766	970.99
1029.055	936.42
1029.344	958.11
1029.634	915.63
1029.923	928.51
1030.212	910.2
1030.501	938.68
1030.79	903.2
1031.078	925.79
1031.367	905.46
1031.656	905.68
1031.945	897.1
1032.233	904.55
1032.522	880.37
1032.81	881.95
1033.099	882.18
1033.387	871.78
1033.675	862.07
1033.963	863.65
1034.251	848.51
1034.54	854.38
1034.828	854.84
1035.116	827.04
1035.403	852.12
1035.691	827.94
1035.979	812.8
1036.267	812.8
1036.554	789.08
1036.842	782.3
1037.129	821.16
1037.417	819.13
1037.704	811.45
1037.992	790.21
1038.279	813.71
1038.566	810.32
1038.853	810.32
1039.14	810.32
