Data from hue_280_FLMS001491_00005.txt Node
Date: Tue Feb 07 15:54:44 GMT 2017
User: dcchb
Spectrometer: FLMS00149
Trigger mode: 0
Integration Time (sec): 2.000000E-2
Scans to average: 10
Electric dark correction enabled: true
Nonlinearity correction enabled: false
Boxcar width: 0
XAxis mode: Wavelengths
Number of Pixels in Spectrum: 2048
>>>>>Begin Spectral Data<<<<<
341.393	-2.1
341.776	-2.1
342.16	-2.1
342.543	-52.72
342.927	-79.16
343.31	-78.03
343.693	-45.95
344.077	-57.47
344.46	-64.48
344.843	-42.33
345.226	-47.53
345.61	-40.75
345.993	-3.69
346.376	2.64
346.759	4.22
347.142	18.23
347.525	49.19
347.908	47.84
348.291	71.79
348.674	65.01
349.057	121.28
349.44	133.26
349.823	137.1
350.206	147.04
350.588	177.55
350.971	210.32
351.354	216.42
351.737	238.79
352.119	233.37
352.502	262.3
352.884	269.98
353.267	285.8
353.65	280.83
354.032	293.26
354.414	280.15
354.797	295.29
355.179	319.92
355.562	317.21
355.944	322.41
356.326	331.67
356.709	339.81
357.091	323.31
357.473	345.68
357.855	335.97
358.238	331.67
358.62	348.17
359.002	321.05
359.384	334.16
359.766	357.43
360.148	332.12
360.53	337.32
360.912	332.58
361.294	330.09
361.676	321.05
362.057	321.05
362.439	329.41
362.821	341.62
363.203	326.47
363.584	329.64
363.966	334.16
364.348	333.71
364.729	323.31
365.111	313.82
365.493	308.4
365.874	313.82
366.256	320.82
366.637	303.2
367.019	321.28
367.4	328.73
367.781	316.76
368.163	324.89
368.544	315.85
368.925	302.97
369.306	318.79
369.688	312.24
370.069	314.27
370.45	310.88
370.831	310.43
371.212	318.11
371.593	313.37
371.974	304.1
372.355	330.77
372.736	317.89
373.117	311.56
373.498	337.32
373.879	313.82
374.26	315.63
374.641	332.12
375.021	308.62
375.402	319.92
375.783	326.7
376.163	345.91
376.544	319.69
376.925	326.25
377.305	342.07
377.686	316.76
378.066	318.79
378.447	339.13
378.827	338.9
379.208	340.94
379.588	316.31
379.968	347.49
380.349	331.45
380.729	321.95
381.109	339.58
381.489	321.28
381.87	338.9
382.25	323.76
382.63	317.89
383.01	352.46
383.39	344.78
383.77	346.13
384.15	345.46
384.53	352.01
384.91	348.85
385.29	354.04
385.67	369.64
386.049	361.05
386.429	329.86
386.809	344.78
387.189	357.66
387.568	365.34
387.948	356.53
388.328	345.01
388.707	367.15
389.087	382.29
389.466	361.95
389.846	385
390.225	397.21
390.605	357.21
390.984	380.94
391.363	368.06
391.743	376.42
392.122	379.13
392.501	392.69
392.881	382.52
393.26	379.35
393.639	382.97
394.018	383.42
394.397	360.37
394.776	394.5
395.155	382.97
395.534	410.77
395.913	398.56
396.292	416.42
396.671	400.6
397.05	406.92
397.429	413.25
397.808	413.48
398.186	404.89
398.565	399.24
398.944	418.9
399.323	406.92
399.701	418.45
400.08	410.77
400.458	414.16
400.837	424.78
401.215	433.36
401.594	419.35
401.972	434.27
402.351	439.92
402.729	427.71
403.107	436.08
403.486	441.27
403.864	459.58
404.242	455.28
404.62	474.72
404.999	455.06
405.377	459.58
405.755	469.75
406.133	478.11
406.511	468.62
406.889	473.36
407.267	478.79
407.645	478.11
408.023	500.71
408.401	503.19
408.779	477.88
409.156	508.62
409.534	524.44
409.912	539.58
410.29	524.89
410.667	524.66
411.045	525.57
411.422	547.49
411.8	524.89
412.178	576.19
412.555	582.96
412.933	566.02
413.31	575.06
413.687	580.25
414.065	592.68
414.442	615.73
414.819	617.54
415.197	606.24
415.574	626.81
415.951	636.07
416.328	625.45
416.705	649.18
417.082	639.46
417.46	672
417.837	684.88
418.214	672.45
418.591	673.13
418.967	692.34
419.344	681.27
419.721	686.24
420.098	708.16
420.475	722.85
420.852	722.62
421.228	712.45
421.605	768.72
421.982	759.91
422.358	758.1
422.735	773.92
423.111	782.73
423.488	789.74
423.864	811.21
424.241	812.34
424.617	791.32
424.994	816.63
425.37	859.57
425.746	863.86
426.123	847.14
426.499	863.86
426.875	870.87
427.251	888.49
427.627	918.78
428.003	915.39
428.379	930.3
428.756	904.09
429.132	939.11
429.507	975.27
429.883	974.82
430.259	988.38
430.635	965.55
431.011	1006.46
431.387	1038.09
431.763	1048.72
432.138	1020.02
432.514	1024.54
432.89	1066.12
433.265	1064.08
433.641	1071.09
434.016	1129.39
434.392	1119.9
434.767	1154.25
435.143	1160.58
435.518	1145.21
435.894	1172.33
436.269	1213
436.644	1196.73
437.02	1233.34
437.395	1227.02
437.77	1228.37
438.145	1288.03
438.52	1254.81
438.895	1311.99
439.271	1306.34
439.646	1323.06
440.021	1332.1
440.395	1365.09
440.77	1314.47
441.145	1409.16
441.52	1377.97
441.895	1399.89
442.27	1380.91
442.645	1414.13
443.019	1438.31
443.394	1445.09
443.769	1467.24
444.143	1423.39
444.518	1460.46
444.892	1457.29
445.267	1479.89
445.641	1490.29
446.016	1495.26
446.39	1515.6
446.764	1522.15
447.139	1531.41
447.513	1516.73
447.887	1552.66
448.262	1520.79
448.636	1543.17
449.01	1565.76
449.384	1557.85
449.758	1581.36
450.132	1587.91
450.506	1585.42
450.88	1607.8
451.254	1600.57
451.628	1605.08
452.002	1663.16
452.376	1647.12
452.75	1649.38
453.123	1621.36
453.497	1708.13
453.871	1703.16
454.244	1722.14
454.618	1745.19
454.992	1745.87
455.365	1757.85
455.739	1770.73
456.112	1824.97
456.486	1826.77
456.859	1819.99
457.232	1819.32
457.606	1824.29
457.979	1851.18
458.352	1908.35
458.725	1942.25
459.099	1913.1
459.472	1967.56
459.845	1962.36
460.218	2010.27
460.591	1970.27
460.964	2012.76
461.337	2032.42
461.71	2033.1
462.083	2065.64
462.456	2099.99
462.829	2071.51
463.201	2118.74
463.574	2091.85
463.947	2133.21
464.32	2208.01
464.692	2206.88
465.065	2212.07
465.438	2212.3
465.81	2278.29
466.183	2273.99
466.555	2319.19
466.928	2302.92
467.3	2321.45
467.672	2343.6
468.045	2382.69
468.417	2382.01
468.789	2394.22
469.161	2431.96
469.534	2439.41
469.906	2511.28
470.278	2541.11
470.65	2547.21
471.022	2583.59
471.394	2596.47
471.766	2625.62
472.138	2623.14
472.51	2657.49
472.882	2691.38
473.253	2747.88
473.625	2737.03
473.997	2843.92
474.369	2860.65
474.74	2857.26
475.112	2845.96
475.484	2938.84
475.855	2976.35
476.227	2966.18
476.598	3045.95
476.97	3063.13
477.341	3105.61
477.713	3186.06
478.084	3209.11
478.455	3249.56
478.827	3272.16
479.198	3365.49
479.569	3320.52
479.94	3400.97
480.311	3425.38
480.682	3480.29
481.053	3566.39
481.424	3581.08
481.795	3574.75
482.166	3644.58
482.537	3657.69
482.908	3734.29
483.279	3787.85
483.65	3831.47
484.021	3916.66
484.391	3874.86
484.762	3968.86
485.133	3987.4
485.503	3958.24
485.874	4063.33
486.244	4096.32
486.615	4137.22
486.985	4201.85
487.356	4220.16
487.726	4291.57
488.097	4324.11
488.467	4315.75
488.837	4412.92
489.207	4457.89
489.578	4461.73
489.948	4515.29
490.318	4520.71
490.688	4586.02
491.058	4684.78
491.428	4669.86
491.798	4736.98
492.168	4823.31
492.538	4828.28
492.908	4833.02
493.278	4948.05
493.648	4898.78
494.017	4931.1
494.387	4975.84
494.757	5028.72
495.126	5055.16
495.496	5049.06
495.866	5085.9
496.235	5119.34
496.605	5165.44
496.974	5194.82
497.344	5218.55
497.713	5234.37
498.082	5215.16
498.452	5303.97
498.821	5339.68
499.19	5317.08
499.559	5376.74
499.928	5410.63
500.298	5375.61
500.667	5435.72
501.036	5498.99
501.405	5494.25
501.774	5519.56
502.143	5526.79
502.512	5539.67
502.88	5549.16
503.249	5584.42
503.618	5594.13
503.987	5591.65
504.356	5625.77
504.724	5668.03
505.093	5713
505.462	5677.52
505.83	5743.06
506.199	5778.99
506.567	5780.79
506.936	5785.31
507.304	5814.01
507.672	5850.4
508.041	5877.06
508.409	5889.94
508.777	5918.42
509.145	5929.27
509.514	5967.68
509.882	5980.34
510.25	5941.47
510.618	6022.82
510.986	6047.68
511.354	6101.46
511.722	6072.99
512.09	6082.26
512.458	6105.98
512.826	6134.01
513.193	6177.39
513.561	6195.92
513.929	6241.8
514.297	6232.76
514.664	6254.68
515.032	6241.57
515.4	6278.63
515.767	6343.49
516.135	6333.55
516.502	6263.49
516.869	6382.13
517.237	6355.02
517.604	6354.34
517.972	6365.64
518.339	6458.29
518.706	6436.6
519.073	6422.13
519.44	6452.87
519.808	6536.03
520.175	6507.78
520.542	6618.74
520.909	6625.07
521.276	6510.04
521.643	6620.09
522.009	6661
522.376	6642.01
522.743	6678.4
523.11	6688.12
523.477	6744.61
523.843	6744.16
524.21	6837.26
524.577	6845.85
524.943	6924.95
525.31	6888.34
525.676	6929.69
526.043	6996.81
526.409	6953.42
526.776	6977.15
527.142	7055.79
527.508	7023.7
527.874	7115
528.241	7156.8
528.607	7114.54
528.973	7244.71
529.339	7124.04
529.705	7253.3
530.071	7246.74
530.437	7217.59
530.803	7279.96
531.169	7351.83
531.535	7301.66
531.901	7293.3
532.267	7342.79
532.632	7408.32
532.998	7386.18
533.364	7473.41
533.73	7482.67
534.095	7493.29
534.461	7575.1
534.826	7552.05
535.192	7542.33
535.557	7615.1
535.923	7602.67
536.288	7632.72
536.653	7661.42
537.019	7650.12
537.384	7667.07
537.749	7681.31
538.114	7722.66
538.479	7698.94
538.845	7722.89
539.21	7686.05
539.575	7776.67
539.94	7750.23
540.305	7759.95
540.67	7772.15
541.034	7792.27
541.399	7829.1
541.764	7820.74
542.129	7868.88
542.494	7901.87
542.858	7873.17
543.223	7870.46
543.587	7921.08
543.952	7949.78
544.316	7939.38
544.681	7980.74
545.045	7997.23
545.41	8074.52
545.774	8059.6
546.138	8053.05
546.503	8048.98
546.867	8086.27
547.231	8087.63
547.595	8116.55
547.959	8132.6
548.324	8092.82
548.688	8088.08
549.052	8157.68
549.416	8221.86
549.779	8157.46
550.143	8186.83
550.507	8250.79
550.871	8216.89
551.235	8239.26
551.599	8274.51
551.962	8330.56
552.326	8275.42
552.689	8333.5
553.053	8319.48
553.417	8327.17
553.78	8438.13
554.143	8331.01
554.507	8387.96
554.87	8385.92
555.234	8495.07
555.597	8434.06
555.96	8510.44
556.323	8485.13
556.686	8446.94
557.05	8568.29
557.413	8505.02
557.776	8639.25
558.139	8634.28
558.502	8580.27
558.865	8651.45
559.228	8658.46
559.59	8678.57
559.953	8639.25
560.316	8771
560.679	8759.93
561.041	8827.72
561.404	8815.06
561.767	8881.5
562.129	8908.62
562.492	8941.16
562.854	8943.88
563.217	8865.01
563.579	8970.77
563.941	8986.36
564.304	9054.83
564.666	9108.39
565.028	9118.56
565.39	9140.25
565.753	9187.03
566.115	9181.38
566.477	9185.68
566.839	9283.53
567.201	9241.27
567.563	9303.64
567.925	9374.37
568.287	9321.04
568.648	9417.76
569.01	9427.7
569.372	9495.27
569.734	9458.89
570.095	9533.92
570.457	9596.74
570.819	9585.44
571.18	9609.62
571.542	9645.33
571.903	9643.29
572.265	9699.34
572.626	9744.31
572.987	9806.68
573.349	9836.73
573.71	9827.24
574.071	9890.52
574.432	9925.54
574.794	9926
575.155	9971.64
575.516	10018.87
575.877	10118.31
576.238	10137.52
576.599	10118.53
576.96	10215.93
577.32	10218.87
577.681	10228.14
578.042	10264.74
578.403	10324.63
578.763	10439.65
579.124	10460.22
579.485	10485.98
579.845	10490.28
580.206	10531.63
580.566	10566.21
580.927	10615.7
581.287	10631.29
581.648	10585.87
582.008	10817.27
582.368	10771.17
582.728	10843.94
583.089	10906.31
583.449	10952.41
583.809	10964.16
584.169	11114.89
584.529	11061.79
584.889	11222.01
585.249	11180.88
585.609	11194.21
585.969	11312.85
586.329	11424.94
586.688	11460.19
587.048	11447.31
587.408	11605.73
587.768	11660.41
588.127	11655.89
588.487	11695.44
588.846	11904.7
589.206	11749.68
589.565	11953.51
589.925	12110.12
590.284	12073.28
590.643	12163
591.003	12148.54
591.362	12411.58
591.721	12341.98
592.08	12389.66
592.44	12569.77
592.799	12507.62
593.158	12697.67
593.517	12678.24
593.876	12772.25
594.235	12789.42
594.593	12833.94
594.952	12926.6
595.311	12922.3
595.67	13070.09
596.029	13210.88
596.387	13210.43
596.746	13297.66
597.104	13298.11
597.463	13294.27
597.822	13420.59
598.18	13422.63
598.538	13440.48
598.897	13614.71
599.255	13507.82
599.613	13734.94
599.972	13716.63
600.33	13827.59
600.688	13774.93
601.046	13846.8
601.404	13986.68
601.762	13963.4
602.12	14087.92
602.478	14117.07
602.836	14200.23
603.194	14180.12
603.552	14211.53
603.91	14229.39
604.268	14321.36
604.625	14262.61
604.983	14295.37
605.341	14384.18
605.698	14494.24
606.056	14497.63
606.413	14551.86
606.771	14650.84
607.128	14620.56
607.485	14649.04
607.843	14758.41
608.2	14782.82
608.557	14861.01
608.914	14833.66
609.272	14957.05
609.629	14926.32
609.986	14950.5
610.343	14873.66
610.7	14996.37
611.057	15105.75
611.414	15077.73
611.771	15101
612.127	15212.18
612.484	15204.28
612.841	15220.55
613.198	15176.71
613.554	15217.16
613.911	15339.19
614.267	15361.56
614.624	15362.69
614.98	15404.95
615.337	15469.58
615.693	15436.59
616.05	15578.5
616.406	15594.77
616.762	15459.41
617.118	15518.17
617.475	15524.94
617.831	15628.45
618.187	15657.37
618.543	15561.78
618.899	15655.11
619.255	15771.27
619.611	15748.22
619.967	15758.16
620.323	15827.08
620.678	15738.27
621.034	15699.86
621.39	15738.27
621.746	15682.68
622.101	15819.85
622.457	15806.75
622.812	15745.96
623.168	15854.2
623.523	15921.32
623.879	15927.87
624.234	15791.83
624.589	15984.14
624.945	15893.3
625.3	15974.2
625.655	15988.44
626.01	15873.64
626.365	15981.43
626.72	15882.68
627.075	15898.04
627.43	15947.98
627.785	15930.13
628.14	15965.61
628.495	15943.69
628.85	15983.92
629.205	15847.2
629.559	15932.39
629.914	15869.79
630.269	15908.21
630.623	15906.18
630.978	15812.62
631.332	15886.07
631.687	15945.72
632.041	15841.09
632.396	15890.81
632.75	15768.1
633.104	15849
633.459	15867.08
633.813	15734.2
634.167	15863.69
634.521	15761.1
634.875	15820.3
635.229	15747.54
635.583	15681.1
635.937	15717.48
636.291	15654.21
636.645	15753.41
636.999	15628.22
637.352	15676.58
637.706	15585.51
638.06	15638.61
638.413	15622.8
638.767	15561.1
639.121	15564.04
639.474	15557.94
639.828	15494.89
640.181	15622.57
640.534	15557.71
640.888	15553.87
641.241	15492.4
641.594	15558.62
641.947	15589.58
642.301	15465.74
642.654	15562.91
643.007	15479.07
643.36	15450.14
643.713	15442.69
644.066	15449.47
644.419	15403.14
644.771	15294.44
645.124	15220.32
645.477	15228
645.83	15064.62
646.182	15032.98
646.535	14972.87
646.888	14983.72
647.24	14934.23
647.593	15038.18
647.945	14986.65
648.298	14785.98
648.65	14809.48
649.002	14827.79
649.355	14879.76
649.707	14946.66
650.059	14956.6
650.411	15098.29
650.763	15120.44
651.115	15322.46
651.467	15326.76
651.819	15300.77
652.171	15302.8
652.523	15269.36
652.875	15257.61
653.227	15206.31
653.578	15296.25
653.93	15242.01
654.282	15247.44
654.633	15201.11
654.985	15309.81
655.337	15270.94
655.688	15271.84
656.039	15291.5
656.391	15193.88
656.742	15289.47
657.094	15204.5
657.445	15210.83
657.796	15325.4
658.147	15272.75
658.498	15258.74
658.849	15291.28
659.2	15274.56
659.551	15243.6
659.902	15361.79
660.253	15356.59
660.604	15299.87
660.955	15280.43
661.306	15296.25
661.656	15276.82
662.007	15351.16
662.358	15319.75
662.708	15358.85
663.059	15397.72
663.409	15288.57
663.76	15366.76
664.11	15399.3
664.461	15413.08
664.811	15319.75
665.161	15387.55
665.511	15410.6
665.862	15449.69
666.212	15517.94
666.562	15434.1
666.912	15356.14
667.262	15453.08
667.612	15338.51
667.962	15377.15
668.312	15436.36
668.662	15348
669.011	15363.59
669.361	15361.11
669.711	15336.93
670.06	15410.82
670.41	15314.33
670.76	15222.35
671.109	15346.64
671.459	15312.07
671.808	15217.61
672.157	15316.14
672.507	15183.48
672.856	15304.16
673.205	15127.67
673.554	15204.5
673.904	15221.68
674.253	15255.8
674.602	15271.17
674.951	15077.95
675.3	14946.88
675.649	15241.56
675.998	15143.26
676.346	15181.23
676.695	15211.05
677.044	15022.81
677.393	15091.06
677.741	15204.05
678.09	15060.78
678.438	15024.62
678.787	15124.73
679.135	15058.74
679.484	14971.29
679.832	14993.43
680.181	14892.65
680.529	14930.61
680.877	14953.89
681.225	14936.49
681.573	15010.61
681.922	14857.39
682.27	14695.14
682.618	14796.15
682.966	14804.96
683.314	14766.09
683.661	14754.8
684.009	14685.19
684.357	14599.77
684.705	14568.13
685.053	14601.13
685.4	14531.52
685.748	14544.86
686.095	14528.13
686.443	14472.32
686.79	14447.91
687.138	14402.04
687.485	14409.49
687.832	14375.6
688.18	14261.02
688.527	14247.69
688.874	14254.24
689.221	14186.45
689.568	14109.84
689.915	14116.39
690.262	14076.85
690.609	13938.32
690.956	14017.41
691.303	14047.02
691.65	13906.23
691.997	13899.45
692.344	13700.13
692.69	13781.94
693.037	13802.73
693.383	13616.29
693.73	13655.62
694.077	13517.99
694.423	13695.39
694.769	13531.1
695.116	13475.51
695.462	13452.01
695.808	13401.38
696.155	13421.27
696.501	13317.55
696.847	13326.81
697.193	13209.75
697.539	13263.08
697.885	13170.66
698.231	13141.73
698.577	13060.15
698.923	13052.47
699.269	12999.59
699.614	12870.78
699.96	12814.96
700.306	12962.53
700.651	12817.45
700.997	12732.25
701.342	12729.09
701.688	12722.08
702.033	12689.54
702.379	12655.42
702.724	12542.2
703.069	12562.76
703.415	12459.49
703.76	12397.57
704.105	12425.37
704.45	12294.97
704.795	12327.06
705.14	12216.56
705.485	12207.97
705.83	12132.49
706.175	12107.86
706.52	12084.13
706.865	12137.92
707.209	12078.48
707.554	12024.47
707.899	12012.04
708.243	11921.2
708.588	11993.51
708.932	11822.44
709.277	11883.23
709.621	11871.71
709.966	11725.04
710.31	11822.67
710.654	11679.17
710.998	11688.21
711.342	11660.87
711.687	11674.88
712.031	11605.27
712.375	11577.25
712.719	11569.12
713.063	11505.16
713.407	11517.37
713.75	11449.12
714.094	11440.76
714.438	11405.96
714.782	11424.94
715.125	11325.51
715.469	11384.94
715.812	11259.97
716.156	11257.03
716.499	11215
716.843	11273.98
717.186	11191.95
717.53	11257.49
717.873	11217.49
718.216	11225.62
718.559	11170.71
718.902	11066.53
719.246	11151.27
719.589	11084.84
719.932	11043.48
720.275	11090.94
720.617	11063.14
720.96	10984.95
721.303	11025.18
721.646	11037.38
721.989	11012.97
722.331	11043.25
722.674	10970.71
723.016	11036.02
723.359	10981.56
723.701	11003.48
724.044	10951.28
724.386	10831.96
724.729	10866.31
725.071	10894.78
725.413	10842.36
725.755	10849.36
726.097	10846.88
726.439	10842.36
726.782	10798.29
727.124	10867.67
727.465	10788.12
727.807	10773.43
728.149	10760.1
728.491	10774.79
728.833	10766.2
729.175	10766.43
729.516	10765.97
729.858	10753.77
730.199	10779.31
730.541	10753.32
730.882	10716.94
731.224	10740.44
731.565	10729.14
731.906	10742.92
732.248	10782.92
732.589	10686.43
732.93	10667.9
733.271	10682.59
733.612	10751.06
733.953	10679.65
734.294	10669.71
734.635	10664.73
734.976	10718.97
735.317	10678.29
735.658	10765.07
735.999	10709.7
736.339	10682.81
736.68	10676.94
737.021	10693.43
737.361	10664.06
737.702	10670.38
738.042	10695.92
738.383	10695.24
738.723	10729.82
739.063	10697.95
739.404	10790.15
739.744	10744.28
740.084	10702.92
740.424	10685.52
740.764	10818.85
741.104	10774.56
741.444	10808.91
741.784	10811.85
742.124	10793.54
742.464	10836.48
742.804	10796.26
743.143	10864.95
743.483	10944.73
743.823	10847.78
744.162	10904.28
744.502	11014.56
744.841	10891.85
745.181	11033.76
745.52	11088.45
745.86	11067.89
746.199	11130.03
746.538	11188.34
746.877	11247.77
747.216	11298.84
747.556	11306.52
747.895	11393.53
748.234	11386.97
748.573	11346.98
748.911	11516.24
749.25	11584.26
749.589	11598.95
749.928	11678.94
750.267	11759.62
750.605	11777.92
750.944	11893.85
751.283	11960.07
751.621	12122.77
751.96	12125.71
752.298	12245.03
752.636	12315.99
752.975	12404.12
753.313	12479.15
753.651	12600.05
753.989	12676.43
754.327	12810.67
754.666	12818.12
755.004	13057.67
755.342	13117.32
755.679	13336.3
756.017	13374.49
756.355	13587.37
756.693	13575.17
757.031	13857.19
757.368	13845.67
757.706	14026.45
758.044	14167.47
758.381	14338.08
758.719	14461.02
759.056	14599.55
759.394	14751.86
759.731	14819.43
760.068	15011.06
760.405	15131.51
760.743	15291.05
761.08	15450.37
761.417	15507.77
761.754	15670.03
762.091	15825.05
762.428	15974.65
762.765	16120.18
763.102	16336.22
763.438	16365.83
763.775	16451.25
764.112	16766.95
764.449	16845.81
764.785	16983.44
765.122	16976.66
765.458	17135.3
765.795	17252.81
766.131	17414.16
766.467	17486.25
766.804	17698.45
767.14	17761.95
767.476	17874.71
767.812	17971.21
768.148	18073.13
768.485	18180.02
768.821	18179.34
769.157	18307.24
769.492	18335.49
769.828	18543.85
770.164	18514.92
770.5	18532.1
770.836	18710.85
771.171	18661.59
771.507	18835.37
771.842	18804.63
772.178	18941.35
772.513	18998.53
772.849	19000.11
773.184	18974.57
773.519	19135.47
773.855	19090.95
774.19	19038.3
774.525	19125.3
774.86	19200.33
775.195	19259.08
775.53	19249.59
775.865	19366.2
776.2	19311.51
776.535	19227.22
776.87	19350.16
777.205	19308.8
777.539	19252.76
777.874	19304.96
778.209	19336.37
778.543	19385.18
778.878	19316.71
779.212	19360.78
779.547	19361.91
779.881	19361.91
780.215	19287.56
780.55	19410.04
780.884	19238.97
781.218	19352.87
781.552	19396.26
781.886	19353.09
782.22	19272.87
782.554	19274.45
782.888	19126.88
783.222	19233.55
783.556	18999.43
783.889	19192.19
784.223	19093.21
784.557	19046.43
784.89	19106.77
785.224	19052.76
785.557	18944.74
785.891	18957.4
786.224	18895.93
786.558	18952.43
786.891	18869.04
787.224	18836.72
787.557	18721.47
787.891	18716.27
788.224	18729.61
788.557	18696.84
788.89	18698.65
789.223	18710.4
789.556	18663.17
789.888	18613.23
790.221	18563.96
790.554	18380.69
790.887	18460.01
791.219	18361.48
791.552	18326.68
791.884	18249.17
792.217	18231.09
792.549	18266.12
792.882	18116.74
793.214	18079.45
793.546	18111.32
793.879	18000.13
794.211	17946.12
794.543	18001.94
794.875	17960.36
795.207	17982.96
795.539	17858.67
795.871	17814.15
796.203	17686.47
796.535	17605.79
796.867	17606.25
797.198	17545.46
797.53	17567.15
797.862	17398.12
798.193	17467.27
798.525	17349.3
798.856	17401.51
799.188	17307.95
799.519	17202.64
799.85	17177.56
800.182	17225.01
800.513	17208.97
800.844	17058.92
801.175	17217.78
801.506	17073.6
801.837	16919.03
802.168	16985.92
802.499	16943.66
802.83	16862.54
803.161	16770.56
803.491	16692.6
803.822	16775.53
804.153	16647.4
804.483	16568.76
804.814	16535.09
805.145	16570.34
805.475	16522.66
805.805	16440.85
806.136	16417.12
806.466	16494.86
806.796	16371.93
807.126	16290.57
807.457	16222.33
807.787	16279.05
808.117	16246.73
808.447	16208.54
808.777	16248.99
809.107	16071.82
809.436	16067.08
809.766	16046.06
810.096	16016.46
810.426	15972.84
810.755	15940.75
811.085	15906.86
811.414	15855.78
811.744	15766.07
812.073	15803.13
812.403	15722.91
812.732	15697.82
813.061	15629.8
813.39	15572.18
813.719	15586.86
814.049	15710.25
814.378	15500.76
814.707	15493.99
815.036	15510.03
815.365	15383.71
815.693	15300.77
816.022	15316.14
816.351	15311.39
816.68	15170.38
817.008	15255.8
817.337	15176.48
817.665	15087.44
817.994	15112.07
818.322	15151.17
818.651	15044.73
818.979	14983.49
819.307	15030.95
819.636	14938.52
819.964	14900.55
820.292	14994.34
820.62	14931.06
820.948	14854.23
821.276	14959.31
821.604	14910.05
821.932	14988.46
822.259	14929.48
822.587	14887.45
822.915	14814.46
823.243	14892.87
823.57	14844.96
823.898	14896.26
824.225	14847.45
824.553	14852.87
824.88	14880.44
825.207	14929.03
825.535	14896.94
825.862	14925.64
826.189	14794.57
826.516	14878.41
826.843	14946.2
827.17	14913.44
827.497	14944.4
827.824	14878.18
828.151	14895.81
828.478	14953.21
828.805	14911.18
829.131	14918.18
829.458	14821.01
829.785	14795.7
830.111	14834.12
830.438	14919.54
830.764	14871.18
831.09	14950.72
831.417	14828.47
831.743	14900.33
832.069	14844.96
832.395	14856.49
832.722	14851.06
833.048	14691.75
833.374	14818.52
833.7	14686.77
834.026	14781.46
834.351	14712.54
834.677	14780.78
835.003	14715.93
835.329	14741.46
835.654	14714.57
835.98	14695.36
836.306	14671.18
836.631	14640.9
836.956	14614.69
837.282	14579.21
837.607	14618.53
837.932	14519.1
838.258	14651.52
838.583	14590.28
838.908	14428.02
839.233	14501.47
839.558	14489.72
839.883	14349.16
840.208	14396.61
840.533	14333.34
840.858	14375.14
841.182	14448.36
841.507	14333.56
841.832	14213.57
842.156	14274.58
842.481	14127.24
842.805	14092.21
843.13	14140.12
843.454	14027.13
843.778	14148.48
844.103	13965.21
844.427	14036.17
844.751	13936.74
845.075	13981.93
845.399	13969.51
845.723	13830.53
846.047	13825.1
846.371	13665.33
846.695	13749.17
847.019	13500.14
847.343	13537.88
847.666	13560.93
847.99	13435.96
848.313	13367.26
848.637	13391.67
848.96	13254.72
849.284	13317.09
849.607	13185.57
849.931	13150.32
850.254	13095.63
850.577	13083.43
850.9	12894.51
851.223	12934.05
851.546	12888.4
851.869	12841.63
852.192	12868.97
852.515	12761.63
852.838	12689.99
853.161	12708.52
853.483	12642.53
853.806	12609.99
854.129	12511.01
854.451	12552.59
854.774	12483.67
855.096	12446.83
855.419	12450.68
855.741	12392.82
856.063	12277.8
856.385	12333.39
856.708	12280.96
857.03	12211.36
857.352	12149.89
857.674	12129.55
857.996	12012.49
858.318	12024.47
858.64	12051.14
858.961	11982.67
859.283	11903.57
859.605	11967.98
859.926	11845.95
860.248	11852.95
860.57	11766.4
860.891	11837.58
861.212	11750.81
861.534	11718.27
861.855	11708.55
862.176	11713.29
862.498	11714.42
862.819	11609.34
863.14	11587.65
863.461	11596.91
863.782	11545.84
864.103	11604.82
864.424	11567.76
864.745	11484.15
865.065	11482.79
865.386	11432.85
865.707	11483.47
866.027	11384.26
866.348	11427.43
866.668	11397.82
866.989	11430.14
867.309	11246.87
867.63	11290.25
867.95	11196.47
868.27	11264.49
868.59	11252.06
868.91	11205.96
869.23	11217.04
869.55	11159.41
869.87	11241.22
870.19	11187.66
870.51	11218.84
870.83	11097.04
871.15	11086.87
871.469	11082.58
871.789	11056.81
872.109	11110.82
872.428	10987.66
872.748	11017.94
873.067	11014.56
873.386	11070.15
873.706	10934.78
874.025	10921.68
874.344	10890.04
874.663	10915.12
874.982	10833.32
875.301	10873.54
875.62	10852.07
875.939	10742.92
876.258	10835.12
876.577	10776.37
876.896	10751.51
877.214	10750.16
877.533	10762.13
877.852	10757.84
878.17	10708.57
878.489	10692.53
878.807	10645.3
879.125	10625.41
879.444	10705.41
879.762	10575.24
880.08	10594.23
880.398	10547
880.716	10618.18
881.034	10608.92
881.352	10496.83
881.67	10517.62
881.988	10474.68
882.306	10412.31
882.624	10458.86
882.941	10360.11
883.259	10396.27
883.577	10311.97
883.894	10342.03
884.212	10347.45
884.529	10239.21
884.846	10259.77
885.164	10226.33
885.481	10182.94
885.798	10265.65
886.115	10135.03
886.432	10165.99
886.75	10097.07
887.067	10122.38
887.383	10105.88
887.7	10086.22
888.017	9970.29
888.334	10027.01
888.651	10027.24
888.967	10017.97
889.284	9875.15
889.6	9863.85
889.917	9808.94
890.233	9857.3
890.55	9810.07
890.866	9775.72
891.182	9734.14
891.498	9695.72
891.815	9643.74
892.131	9681.26
892.447	9640.35
892.763	9542.5
893.079	9555.61
893.395	9527.81
893.71	9485.1
894.026	9479.68
894.342	9439.46
894.657	9400.59
894.973	9441.49
895.289	9436.07
895.604	9315.39
895.92	9292.79
896.235	9275.84
896.55	9166.69
896.865	9224.09
897.181	9167.15
897.496	9270.42
897.811	9125.57
898.126	9104.32
898.441	9052.57
898.756	9021.39
899.071	8954.04
899.386	8945.68
899.7	8937.77
900.015	8804.44
900.33	8775.97
900.644	8784.56
900.959	8746.14
901.273	8748.17
901.588	8789.08
901.902	8659.59
902.216	8638.35
902.531	8638.35
902.845	8573.04
903.159	8536.65
903.473	8485.36
903.787	8497.11
904.101	8367.62
904.415	8390.67
904.729	8404
905.042	8333.5
905.356	8359.71
905.67	8318.81
905.984	8273.16
906.297	8326.94
906.611	8185.7
906.924	8183.89
907.237	8142.09
907.551	8154.07
907.864	8064.58
908.177	8110.9
908.491	8023.9
908.804	8015.54
909.117	7904.13
909.43	7908.87
909.743	7899.83
910.056	7873.85
910.368	7878.14
910.681	7778.03
910.994	7774.41
911.307	7733.51
911.619	7740.97
911.932	7659.39
912.244	7589.33
912.557	7656.68
912.869	7611.48
913.181	7559.96
913.494	7570.35
913.806	7485.38
914.118	7426.85
914.43	7374.42
914.742	7385.72
915.054	7356.8
915.366	7355.44
915.678	7300.98
915.99	7261.21
916.302	7197.48
916.613	7208.1
916.925	7199.06
917.236	7137.14
917.548	7110.7
917.859	7095.11
918.171	7084.26
918.482	7048.11
918.794	6950.26
919.105	6999.75
919.416	6916.81
919.727	6926.07
920.038	6939.18
920.349	6809.47
920.66	6826.64
920.971	6778.96
921.282	6759.98
921.593	6772.18
921.903	6693.76
922.214	6630.49
922.525	6675.46
922.835	6644.73
923.146	6566.08
923.456	6562.47
923.767	6538.51
924.077	6540.77
924.387	6498.74
924.697	6441.57
925.008	6410.83
925.318	6378.52
925.628	6392.98
925.938	6353.89
926.248	6360.89
926.558	6311.18
926.867	6291.97
927.177	6254.23
927.487	6238.64
927.796	6140.33
928.106	6237.96
928.416	6133.1
928.725	6118.64
929.034	6086.55
929.344	6107.57
929.653	6046.78
929.962	6034.57
930.271	6019.43
930.581	5947.12
930.89	5933.11
931.199	5926.78
931.508	5910.73
931.817	5881.36
932.125	5879.77
932.434	5850.17
932.743	5767.69
933.051	5782.15
933.36	5745.54
933.669	5712.55
933.977	5688.14
934.286	5696.95
934.594	5703.28
934.902	5641.14
935.21	5634.13
935.519	5621.7
935.827	5553.46
936.135	5545.55
936.443	5548.94
936.751	5468.03
937.059	5449.05
937.367	5454.7
937.674	5433.91
937.982	5442.27
938.29	5408.6
938.597	5373.35
938.905	5350.52
939.213	5286.34
939.52	5303.74
939.827	5304.87
940.135	5255.84
940.442	5240.24
940.749	5165.67
941.056	5202.05
941.363	5148.27
941.67	5209.51
941.977	5119.57
942.284	5060.14
942.591	5066.69
942.898	5020.59
943.205	5053.58
943.511	5009.29
943.818	4961.15
944.125	4973.81
944.431	4913.25
944.738	4955.51
945.044	4907.6
945.35	4836.64
945.657	4788.73
945.963	4847.26
946.269	4790.54
946.575	4798.22
946.881	4777.2
947.187	4750.99
947.493	4716.42
947.799	4658.56
948.105	4698.11
948.41	4659.02
948.716	4656.98
949.022	4661.28
949.327	4620.6
949.633	4577.21
949.938	4599.13
950.244	4581.73
950.549	4523.65
950.854	4463.09
951.16	4468.96
951.465	4446.82
951.77	4411.56
952.075	4423.77
952.38	4414.05
952.685	4382.19
952.99	4308.74
953.294	4371.11
953.599	4360.27
953.904	4318.91
954.209	4263.55
954.513	4269.65
954.818	4272.13
955.122	4202.08
955.426	4247.5
955.731	4213.6
956.035	4137
956.339	4163.89
956.643	4189.65
956.948	4117.56
957.252	4094.29
957.556	4090.44
957.86	4056.77
958.163	4048.41
958.467	4033.04
958.771	3998.24
959.075	4003.44
959.378	3973.38
959.682	4014.29
959.985	3960.73
960.289	3943.78
960.592	3912.14
960.896	3975.19
961.199	3894.52
961.502	3854.29
961.805	3877.12
962.108	3813.84
962.411	3823.56
962.714	3779.04
963.017	3813.39
963.32	3770.45
963.623	3763.22
963.926	3747.4
964.228	3707.4
964.531	3716.44
964.833	3693.39
965.136	3643
965.438	3653.17
965.741	3643.22
966.043	3596.9
966.345	3617.91
966.648	3597.12
966.95	3587.63
967.252	3534.07
967.554	3575.2
967.856	3520.06
968.158	3503.79
968.46	3496.56
968.761	3494.07
969.063	3459.5
969.365	3446.39
969.666	3459.05
969.968	3395.55
970.269	3400.29
970.571	3419.27
970.872	3386.96
971.174	3350.35
971.475	3344.93
971.776	3335.89
972.077	3350.12
972.378	3309.45
972.679	3308.54
972.98	3290.46
973.281	3229
973.582	3254.08
973.883	3242.78
974.183	3200.75
974.484	3221.09
974.785	3193.74
975.085	3195.1
975.386	3215.21
975.686	3179.28
975.986	3168.43
976.287	3151.48
976.587	3097.7
976.887	3083.01
977.187	3106.06
977.487	3103.35
977.787	3050.7
978.087	3042.11
978.387	3057.7
978.687	3029
978.987	2969.34
979.286	3016.8
979.586	2951.49
979.885	2948.33
980.185	2939.51
980.484	2944.48
980.784	2925.5
981.083	2907.2
981.382	2907.88
981.682	2904.71
981.981	2866.52
982.28	2866.97
982.579	2812.28
982.878	2813.19
983.177	2829.69
983.475	2812.74
983.774	2780.87
984.073	2797.14
984.372	2723.47
984.67	2779.07
984.969	2741.33
985.267	2750.37
985.566	2728.22
985.864	2697.26
986.162	2680.08
986.461	2691.84
986.759	2658.16
987.057	2663.81
987.355	2647.09
987.653	2616.81
987.951	2645.06
988.249	2608
988.547	2622.46
988.844	2564.38
989.142	2580.65
989.44	2569.58
989.737	2544.5
990.035	2523.93
990.332	2535.91
990.63	2530.26
990.927	2496.13
991.224	2460.2
991.521	2480.77
991.819	2482.58
992.116	2495.23
992.413	2425.18
992.71	2426.08
993.006	2424.72
993.303	2397.15
993.6	2395.12
993.897	2373.43
994.193	2373.65
994.49	2333.88
994.787	2337.95
995.083	2340.66
995.379	2294.56
995.676	2317.61
995.972	2337.27
996.268	2294.78
996.565	2326.2
996.861	2267.89
997.157	2264.73
997.453	2255.69
997.749	2243.94
998.044	2211.85
998.34	2208.46
998.636	2213.66
998.932	2213.43
999.227	2196.71
999.523	2152.42
999.818	2133.88
1000.114	2164.39
1000.409	2126.43
1000.704	2101.8
1001	2114.22
1001.295	2077.61
1001.59	2106.77
1001.885	2092.3
1002.18	2058.86
1002.475	2031.06
1002.77	2050.95
1003.065	2024.96
1003.359	1999.88
1003.654	2004.4
1003.949	1988.35
1004.243	1972.53
1004.538	1985.64
1004.832	1968.69
1005.127	1971.63
1005.421	1961.91
1005.715	1940.44
1006.009	1928.92
1006.304	1914.68
1006.598	1900.44
1006.892	1893.21
1007.186	1884.4
1007.48	1874
1007.773	1863.16
1008.067	1843.72
1008.361	1824.06
1008.655	1782.03
1008.948	1802.82
1009.242	1814.12
1009.535	1768.7
1009.829	1811.18
1010.122	1737.51
1010.415	1763.72
1010.708	1760.34
1011.001	1765.31
1011.295	1755.36
1011.588	1729.83
1011.881	1732.77
1012.173	1702.48
1012.466	1697.96
1012.759	1675.37
1013.052	1700.22
1013.344	1657.96
1013.637	1673.78
1013.93	1648.25
1014.222	1651.86
1014.514	1618.64
1014.807	1600.34
1015.099	1596.72
1015.391	1580.9
1015.683	1584.75
1015.976	1578.19
1016.268	1564.63
1016.56	1536.16
1016.851	1551.3
1017.143	1533.45
1017.435	1543.84
1017.727	1506.33
1018.018	1507.69
1018.31	1489.83
1018.602	1470.4
1018.893	1472.89
1019.185	1478.08
1019.476	1455.48
1019.767	1448.48
1020.058	1452.09
1020.35	1455.48
1020.641	1413.23
1020.932	1398.08
1021.223	1380.46
1021.514	1394.02
1021.804	1385.66
1022.095	1390.18
1022.386	1363.28
1022.677	1361.02
1022.967	1343.17
1023.258	1346.79
1023.548	1334.81
1023.839	1337.97
1024.129	1319.22
1024.419	1313.57
1024.709	1287.58
1025	1298.88
1025.29	1293.23
1025.58	1292.32
1025.87	1263.85
1026.16	1230.41
1026.449	1240.57
1026.739	1261.59
1027.029	1231.76
1027.319	1241.93
1027.608	1216.39
1027.898	1197.19
1028.187	1215.72
1028.477	1174.59
1028.766	1187.92
1029.055	1187.24
1029.344	1179.79
1029.634	1167.36
1029.923	1140.92
1030.212	1137.07
1030.501	1148.15
1030.79	1142.72
1031.078	1135.72
1031.367	1139.11
1031.656	1110.18
1031.945	1106.34
1032.233	1114.48
1032.522	1072.67
1032.81	1055.27
1033.099	1083.52
1033.387	1063.63
1033.675	1060.47
1033.963	1036.51
1034.251	1040.81
1034.54	1027.47
1034.828	1032.67
1035.116	1030.41
1035.403	1023.86
1035.691	1024.08
1035.979	1008.72
1036.267	1020.92
1036.554	1006
1036.842	964.88
1037.129	989.51
1037.417	997.64
1037.704	987.7
1037.992	953.35
1038.279	948.83
1038.566	961.26
1038.853	961.26
1039.14	961.26
