Data from hue_320_FLMS001491_39.txt Node
Date: Mon Feb 06 15:47:07 GMT 2017
User: dcchb
Spectrometer: FLMS00149
Trigger mode: 0
Integration Time (sec): 2.000000E-2
Scans to average: 10
Electric dark correction enabled: true
Nonlinearity correction enabled: false
Boxcar width: 0
XAxis mode: Wavelengths
Number of Pixels in Spectrum: 2048
>>>>>Begin Spectral Data<<<<<
341.393	-12.71
341.776	-12.71
342.16	-12.71
342.543	-92.26
342.927	-94.29
343.31	-55.42
343.693	-66.5
344.077	-81.41
344.46	-55.65
344.843	-36.67
345.226	-41.64
345.61	-33.28
345.993	-28.08
346.376	-7.74
346.759	15.99
347.142	20.51
347.525	36.55
347.908	65.25
348.291	80.85
348.674	84.24
349.057	102.99
349.44	131.47
349.823	128.3
350.206	166.72
350.588	209.66
350.971	212.59
351.354	215.31
351.737	239.71
352.119	247.85
352.502	270.22
352.884	256.66
353.267	259.6
353.65	295.3
354.032	280.61
354.414	307.96
354.797	304.79
355.179	326.94
355.562	322.65
355.944	321.52
356.326	298.01
356.709	325.81
357.091	328.52
357.473	338.47
357.855	326.49
358.238	349.76
358.62	345.47
359.002	327.39
359.384	345.7
359.766	330.78
360.148	314.96
360.53	305.7
360.912	335.75
361.294	341.63
361.676	335.98
362.057	335.3
362.439	326.94
362.821	334.17
363.203	323.78
363.584	321.29
363.966	323.55
364.348	345.92
364.729	312.03
365.111	331.01
365.493	324
365.874	309.09
366.256	321.74
366.637	293.5
367.019	299.6
367.4	324.23
367.781	302.53
368.163	321.29
368.544	313.16
368.925	340.73
369.306	320.16
369.688	294.85
370.069	289.88
370.45	317.9
370.831	314.51
371.212	305.25
371.593	314.96
371.974	320.39
372.355	311.8
372.736	304.79
373.117	328.07
373.498	300.5
373.879	328.52
374.26	306.83
374.641	290.56
375.021	331.69
375.402	307.51
375.783	319.03
376.163	319.71
376.544	332.82
376.925	332.59
377.305	357
377.686	299.6
378.066	312.7
378.447	310.9
378.827	317.9
379.208	324.45
379.588	309.77
379.968	330.33
380.349	323.78
380.729	329.88
381.109	332.14
381.489	320.16
381.87	345.47
382.25	321.29
382.63	334.62
383.01	339.6
383.39	332.82
383.77	327.62
384.15	331.01
384.53	330.33
384.91	333.27
385.29	349.54
385.67	347.96
386.049	348.41
386.429	339.14
386.809	364.45
387.189	342.99
387.568	357.67
387.948	364.23
388.328	339.37
388.707	342.53
389.087	361.06
389.466	363.1
389.846	353.15
390.225	333.04
390.605	356.32
390.984	379.37
391.363	355.41
391.743	357.45
392.122	355.19
392.501	356.32
392.881	386.37
393.26	369.2
393.639	364.45
394.018	361.29
394.397	365.13
394.776	389.76
395.155	382.76
395.534	381.18
395.913	372.14
396.292	374.17
396.671	387.5
397.05	376.88
397.429	388.41
397.808	391.35
398.186	394.96
398.565	391.57
398.944	406.49
399.323	376.66
399.701	404
400.08	394.51
400.458	404.9
400.837	408.75
401.215	392.48
401.594	397.9
401.972	418.69
402.351	404.9
402.729	424.11
403.107	389.76
403.486	419.82
403.864	417.11
404.242	417.79
404.62	424.57
404.999	421.4
405.377	422.53
405.755	427.95
406.133	444.23
406.511	453.94
406.889	439.03
407.267	443.77
407.645	439.71
408.023	456.88
408.401	443.32
408.779	479.48
409.156	449.2
409.534	452.36
409.912	463.66
410.29	491.46
410.667	484
411.045	496.88
411.422	488.29
411.8	498.69
412.178	490.78
412.555	495.52
412.933	495.75
413.31	512.02
413.687	522.42
414.065	528.29
414.442	531.91
414.819	550.44
415.197	524.22
415.574	561.96
415.951	538.23
416.328	574.39
416.705	569.19
417.082	580.04
417.46	595.41
417.837	587.27
418.214	599.93
418.591	597.89
418.967	594.5
419.344	609.19
419.721	633.37
420.098	633.15
420.475	629.53
420.852	646.93
421.228	652.13
421.605	624.33
421.982	655.29
422.358	673.6
422.735	653.26
423.111	682.64
423.488	673.6
423.864	690.09
424.241	684.9
424.617	695.74
424.994	691.68
425.37	705.91
425.746	724.44
426.123	718.79
426.499	720.15
426.875	702.75
427.251	727.83
427.627	737.1
428.003	752.01
428.379	756.08
428.756	777.55
429.132	779.36
429.507	794.27
429.883	778.23
430.259	800.37
430.635	810.77
431.011	791.56
431.387	826.59
431.763	832.24
432.138	837.44
432.514	838.57
432.89	836.76
433.265	882.63
433.641	905.68
434.016	887.15
434.392	902.74
434.767	921.95
435.143	906.81
435.518	923.99
435.894	940.94
436.269	945.23
436.644	958.11
437.02	943.2
437.395	973.93
437.77	971.67
438.145	1008.28
438.52	995.62
438.895	989.75
439.271	988.84
439.646	1028.39
440.021	1017.77
440.395	1030.88
440.77	1040.37
441.145	1034.27
441.52	1048.73
441.895	1067.49
442.27	1065.68
442.645	1084.21
443.019	1091.67
443.394	1059.35
443.769	1072.23
444.143	1069.97
444.518	1088.05
444.892	1074.72
445.267	1099.8
445.641	1103.19
446.016	1107.49
446.39	1109.74
446.764	1107.03
447.139	1102.51
447.513	1133.7
447.887	1117.2
448.262	1105.68
448.636	1115.62
449.01	1157.43
449.384	1163.3
449.758	1121.27
450.132	1173.02
450.506	1189.97
450.88	1161.04
451.254	1142.51
451.628	1164.88
452.002	1185
452.376	1207.37
452.75	1194.04
453.123	1208.05
453.497	1210.08
453.871	1214.37
454.244	1222.06
454.618	1229.97
454.992	1271.77
455.365	1255.28
455.739	1270.19
456.112	1291.21
456.486	1293.69
456.859	1283.75
457.232	1328.04
457.606	1269.97
457.979	1328.72
458.352	1336.86
458.725	1349.29
459.099	1358.33
459.472	1380.25
459.845	1377.99
460.218	1384.99
460.591	1390.64
460.964	1396.97
461.337	1441.49
461.71	1430.64
462.083	1449.62
462.456	1452.79
462.829	1456.85
463.201	1445.1
463.574	1455.72
463.947	1498.44
464.32	1543.18
464.692	1531.43
465.065	1497.08
465.438	1524.88
465.81	1590.86
466.183	1558.77
466.555	1561.48
466.928	1584.99
467.3	1581.37
467.672	1615.95
468.045	1651.88
468.417	1650.75
468.789	1622.73
469.161	1666.11
469.534	1674.7
469.906	1753.57
470.278	1729.16
470.65	1746.11
471.022	1761.03
471.394	1749.28
471.766	1787.47
472.138	1772.78
472.51	1812.55
472.882	1884.64
473.253	1872.21
473.625	1879.22
473.997	1893.23
474.369	1885.09
474.74	1945.43
475.112	1961.25
475.484	1977.97
475.855	1988.14
476.227	2030.4
476.598	2054.13
476.97	2080.57
477.341	2103.39
477.713	2156.95
478.084	2164.86
478.455	2183.39
478.827	2199.43
479.198	2236.27
479.569	2240.34
479.94	2274.69
480.311	2295.7
480.682	2353.1
481.053	2391.52
481.424	2380.22
481.795	2388.58
482.166	2425.42
482.537	2492.08
482.908	2492.99
483.279	2503.83
483.65	2529.59
484.021	2629.48
484.391	2636.03
484.762	2623.6
485.133	2636.26
485.503	2640.33
485.874	2718.97
486.244	2716.26
486.615	2799.19
486.985	2759.42
487.356	2866.53
487.726	2882.35
488.097	2874.9
488.467	2895.23
488.837	2980.66
489.207	2962.58
489.578	2999.86
489.948	3057.04
490.318	3083.03
490.688	3089.13
491.058	3123.7
491.428	3138.39
491.798	3124.61
492.168	3224.04
492.538	3228.79
492.908	3304.04
493.278	3309.91
493.648	3302
494.017	3352.4
494.387	3358.73
494.757	3355.79
495.126	3356.69
495.496	3399.63
495.866	3442.79
496.235	3509
496.605	3444.82
496.974	3489.12
497.344	3511.49
497.713	3534.77
498.082	3545.84
498.452	3631.49
498.821	3594.88
499.19	3587.19
499.559	3602.56
499.928	3623.35
500.298	3649.79
500.667	3686.4
501.036	3669.23
501.405	3674.2
501.774	3706.74
502.143	3723.01
502.512	3721.2
502.88	3761.43
503.249	3750.35
503.618	3821.76
503.987	3757.58
504.356	3812.95
504.724	3816.57
505.093	3841.65
505.462	3831.71
505.83	3901.08
506.199	3884.59
506.567	3926.62
506.936	3915.55
507.304	3938.37
507.672	3963
508.041	3950.8
508.409	3997.58
508.777	4012.04
509.145	4020.63
509.514	4035.77
509.882	4091.36
510.25	4041.65
510.618	4086.84
510.986	4099.04
511.354	4125.03
511.722	4111.02
512.09	4160.29
512.458	4122.32
512.826	4142.21
513.193	4165.03
513.561	4188.76
513.929	4231.47
514.297	4271.24
514.664	4195.31
515.032	4263.11
515.4	4286.16
515.767	4246.16
516.135	4270.34
516.502	4264.92
516.869	4287.29
517.237	4301.3
517.604	4322.54
517.972	4355.54
518.339	4358.25
518.706	4285.71
519.073	4351.69
519.44	4389.43
519.808	4416.1
520.175	4423.33
520.542	4424.46
520.909	4478.7
521.276	4459.49
521.643	4471.01
522.009	4520.95
522.376	4504.91
522.743	4540.84
523.11	4570.44
523.477	4555.98
523.843	4591.01
524.21	4678.46
524.577	4649.09
524.943	4670.78
525.31	4706.71
525.676	4698.58
526.043	4733.6
526.409	4736.77
526.776	4781.29
527.142	4754.17
527.508	4830.78
527.874	4848.63
528.241	4825.58
528.607	4894.28
528.973	4905.13
529.339	4913.49
529.705	4929.31
530.071	4981.96
530.437	5013.15
530.803	5009.98
531.169	5042.97
531.535	5012.02
531.901	5068.06
532.267	5109.19
532.632	5093.82
532.998	5145.12
533.364	5172.24
533.73	5147.83
534.095	5241.16
534.461	5283.42
534.826	5239.35
535.192	5303.31
535.557	5346.47
535.923	5359.12
536.288	5363.64
536.653	5348.96
537.019	5340.14
537.384	5429.86
537.749	5460.59
538.114	5460.36
538.479	5447.48
538.845	5463.3
539.21	5457.2
539.575	5465.56
539.94	5522.06
540.305	5582.17
540.67	5562.51
541.034	5576.75
541.399	5613.81
541.764	5596.63
542.129	5646.8
542.494	5695.39
542.858	5674.37
543.223	5720.02
543.587	5695.61
543.952	5737.87
544.316	5752.56
544.681	5744.43
545.045	5825.1
545.41	5851.09
545.774	5908.26
546.138	5939
546.503	5910.52
546.867	5956.62
547.231	6005.44
547.595	6041.14
547.959	5953.91
548.324	6076.17
548.688	6110.97
549.052	6095.83
549.416	6115.26
549.779	6081.59
550.143	6116.17
550.507	6198.2
550.871	6178.99
551.235	6155.04
551.599	6157.52
551.962	6182.83
552.326	6242.27
552.689	6301.47
553.053	6269.38
553.417	6252.66
553.78	6378.98
554.143	6323.62
554.507	6405.2
554.87	6368.36
555.234	6426.67
555.597	6381.47
555.96	6398.65
556.323	6459.43
556.686	6378.98
557.05	6473.67
557.413	6534.46
557.776	6507.57
558.139	6543.73
558.502	6568.81
558.865	6598.19
559.228	6586.66
559.59	6619.2
559.953	6701.69
560.316	6746.66
560.679	6690.39
561.041	6704.4
561.404	6770.61
561.767	6745.98
562.129	6800.44
562.492	6872.98
562.854	6801.12
563.217	6889.03
563.579	6825.53
563.941	6910.27
564.304	6932.64
564.666	6944.39
565.028	7044.96
565.39	7071.62
565.753	7006.31
566.115	7046.31
566.477	7019.65
566.839	7072.75
567.201	7138.51
567.563	7094.9
567.925	7180.09
568.287	7181
568.648	7231.84
569.01	7232.52
569.372	7290.83
569.734	7340.54
570.095	7291.96
570.457	7362.46
570.819	7374.89
571.18	7437.71
571.542	7486.07
571.903	7486.75
572.265	7534.66
572.626	7549.8
572.987	7570.59
573.349	7705.05
573.71	7674.54
574.071	7747.31
574.432	7717.48
574.794	7867.53
575.155	7920.87
575.516	7925.61
575.877	7979.85
576.238	8100.75
576.599	8143.23
576.96	8243.12
577.32	8243.12
577.681	8309.33
578.042	8410.12
578.403	8485.14
578.763	8532.37
579.124	8674.52
579.485	8707.96
579.845	8849.88
580.206	8949.31
580.566	9047.16
580.927	9173.94
581.287	9280.38
581.648	9400.15
582.008	9620.26
582.368	9594.72
582.728	9763.98
583.089	9944.77
583.449	10110.41
583.809	10240.58
584.169	10447.35
584.529	10565.54
584.889	10811.86
585.249	10933.67
585.609	11116.49
585.969	11332.07
586.329	11505.63
586.688	11748.34
587.048	11964.6
587.408	12199.62
587.768	12455.21
588.127	12586.96
588.487	12803.22
588.846	13174.51
589.206	13295.41
589.565	13531.11
589.925	13848.17
590.284	14005
590.643	14406.57
591.003	14639.78
591.362	14943.96
591.721	15200.45
592.08	15449.25
592.44	15655.35
592.799	15947.32
593.158	16244.26
593.517	16484.71
593.876	16870.23
594.235	17055.31
594.593	17505.7
594.952	17706.6
595.311	17980.04
595.67	18301.16
596.029	18653.24
596.387	18908.37
596.746	19292.09
597.104	19436.27
597.463	19795.58
597.822	20164.39
598.18	20354.44
598.538	20598.5
598.897	21064.7
599.255	21085.04
599.613	21705.14
599.972	21787.17
600.33	22297.44
600.688	22327.94
601.046	22710.08
601.404	23005.67
601.762	23224.87
602.12	23698.76
602.478	23937.62
602.836	24203.15
603.194	24273.88
603.552	24628.22
603.91	24829.12
604.268	25154.76
604.625	25327.64
604.983	25639.95
605.341	25815.08
605.698	26208.29
606.056	26542.52
606.413	26618.45
606.771	26967.6
607.128	27292.79
607.485	27248.94
607.843	27565.77
608.2	27925.99
608.557	28092.54
608.914	28292.31
609.272	28670.15
609.629	28832.63
609.986	29067.2
610.343	29122.57
610.7	29688.65
611.057	29758.26
611.414	29832.15
611.771	29991.7
612.127	30317.11
612.484	30655.41
612.841	30800.72
613.198	30939.47
613.554	31159.8
613.911	31376.07
614.267	31491.09
614.624	31691.54
614.98	31827.58
615.337	32116.39
615.693	32129.27
616.05	32317.51
616.406	32618.29
616.762	32648.12
617.118	32696.48
617.475	32957.72
617.831	33217.15
618.187	33188
618.543	33356.13
618.899	33798.6
619.255	33780.98
619.611	33779.85
619.967	34151.36
620.323	34292.38
620.678	34310.23
621.034	34138.03
621.39	34384.35
621.746	34434.07
622.101	34883.09
622.457	34707.28
622.812	34978.68
623.168	35083.77
623.523	35125.8
623.879	35234.05
624.234	35126.25
624.589	35345.68
624.945	35489.18
625.3	35670.19
625.655	35646.69
626.01	35663.64
626.365	35767.59
626.72	35830.41
627.075	35864.99
627.43	36000.35
627.785	35970.07
628.14	36040.58
628.495	36145.43
628.85	36145.89
629.205	36161.25
629.559	36346.33
629.914	36123.74
630.269	36363.28
630.623	36338.65
630.978	36281.25
631.332	36520.79
631.687	36628.36
632.041	36548.81
632.396	36618.19
632.75	36517.4
633.104	36694.57
633.459	36532.99
633.813	36472.43
634.167	36567.12
634.521	36661.13
634.875	36655.7
635.229	36626.1
635.583	36451.64
635.937	36493
636.291	36506.33
636.645	36678.98
636.999	36574.12
637.352	36788.13
637.706	36543.84
638.06	36801.01
638.413	36728.7
638.767	36656.15
639.121	36596.5
639.474	36515.82
639.828	36586.33
640.181	36669.71
640.534	36579.77
640.888	36500.23
641.241	36319.44
641.594	36565.31
641.947	36539.32
642.301	36493
642.654	36533.22
643.007	36519.21
643.36	36537.74
643.713	36421.81
644.066	36633.78
644.419	36536.16
644.771	36199.67
645.124	35883.75
645.477	35822.05
645.83	35718.1
646.182	35664.09
646.535	35544.77
646.888	35612.11
647.24	35437.88
647.593	35664.54
647.945	35650.31
648.298	35377.09
648.65	35438.11
649.002	35246.7
649.355	35440.14
649.707	35279.92
650.059	35544.55
650.411	35876.74
650.763	35942.5
651.115	36360.34
651.467	36170.29
651.819	36117.41
652.171	36155.38
652.523	36140.01
652.875	36086.23
653.227	35900.69
653.578	36269.27
653.93	36150.63
654.282	35849.85
654.633	35858.44
654.985	36037.87
655.337	35975.27
655.688	36002.16
656.039	36154.02
656.391	35693.69
656.742	35872.22
657.094	35805.56
657.445	36009.62
657.796	36013.69
658.147	35894.37
658.498	35879.9
658.849	36087.81
659.2	35973.69
659.551	35676.52
659.902	35952.44
660.253	35822.5
660.604	35999.67
660.955	35818.21
661.306	35831.54
661.656	35792.9
662.007	35881.03
662.358	35827.02
662.708	35723.3
663.059	35687.14
663.409	35566.69
663.76	35926
664.11	35910.19
664.461	35774.82
664.811	35808.49
665.161	35657.54
665.511	35750.64
665.862	35706.12
666.212	35859.57
666.562	35737.99
666.912	35970.98
667.262	35738.44
667.612	35722.39
667.962	35783.41
668.312	35823.86
668.662	35796.74
669.011	35803.97
669.361	35656.41
669.711	35545
670.06	35603.75
670.41	35641.72
670.76	35436.98
671.109	35776.4
671.459	35657.76
671.808	35481.04
672.157	35653.24
672.507	35360.6
672.856	35466.36
673.205	35545.68
673.554	35655.05
673.904	35494.38
674.253	35695.5
674.602	35528.27
674.951	35016.65
675.3	34868.63
675.649	35492.57
675.998	35418
676.346	35331.9
676.695	35395.17
677.044	35129.87
677.393	35313.59
677.741	35424.32
678.09	35251.9
678.438	35275.17
678.787	35237.66
679.135	35351.33
679.484	35150.66
679.832	35051.23
680.181	34983.43
680.529	35066.59
680.877	34920.38
681.225	34924.67
681.573	35106.59
681.922	34861.85
682.27	34745.7
682.618	34804.23
682.966	34678.35
683.314	34857.11
683.661	34890.1
684.009	34509.09
684.357	34603.78
684.705	34497.12
685.053	34368.31
685.4	34394.07
685.748	34302.09
686.095	34221.64
686.443	34124.02
686.79	34100.52
687.138	34051.03
687.485	34192.49
687.832	33912.5
688.18	33995.66
688.527	33795.67
688.874	33770.13
689.221	33779.39
689.568	33566.52
689.915	33711.83
690.262	33658.04
690.609	33525.62
690.956	33343.25
691.303	33394.55
691.65	33299.41
691.997	33328.33
692.344	33183.25
692.69	33055.8
693.037	33098.96
693.383	32844.28
693.73	32921.11
694.077	32832.98
694.423	32619.42
694.769	32580.78
695.116	32615.13
695.462	32528.58
695.808	32473.21
696.155	32418.75
696.501	32183.28
696.847	32268.47
697.193	31998.42
697.539	32165.65
697.885	31899.22
698.231	31915.04
698.577	31812.44
698.923	31686.12
699.269	31602.28
699.614	31509.85
699.96	31514.6
700.306	31490.87
700.651	31330.19
700.997	31193.93
701.342	31306.92
701.688	31149.86
702.033	31009.75
702.379	31038.45
702.724	30878.45
703.069	30981.05
703.415	30590.1
703.76	30587.61
704.105	30558.91
704.45	30545.36
704.795	30390.33
705.14	30242.99
705.485	30315.3
705.83	30161.41
706.175	30262.65
706.52	30163.22
706.865	30050.45
707.209	29944.47
707.554	29871.7
707.899	29956.67
708.243	29816.11
708.588	29737.47
708.932	29628.32
709.277	29560.97
709.621	29520.52
709.966	29450.69
710.31	29378.61
710.654	29105.62
710.998	29287.54
711.342	29125.96
711.687	29135.22
712.031	29006.41
712.375	28923.93
712.719	28892.52
713.063	28809.81
713.407	28792.41
713.75	28754.44
714.094	28814.55
714.438	28705.63
714.782	28670.15
715.125	28548.12
715.469	28551.96
715.812	28409.37
716.156	28275.13
716.499	28183.61
716.843	28350.38
717.186	28095.7
717.53	28292.31
717.873	28270.39
718.216	28204.63
718.559	27956.5
718.902	27799.21
719.246	27961.69
719.589	27800.12
719.932	27764.86
720.275	27782.04
720.617	27696.16
720.96	27620.69
721.303	27680.12
721.646	27598.31
721.989	27445.78
722.331	27608.71
722.674	27361.03
723.016	27551.08
723.359	27529.84
723.701	27379.79
724.044	27227.02
724.386	27114.71
724.729	27325.1
725.071	27107.03
725.413	27123.98
725.755	27184.09
726.097	26992
726.439	26797.43
726.782	26831.78
727.124	27016.41
727.465	26756.98
727.807	26827.71
728.149	26723.53
728.491	26703.65
728.833	26736.42
729.175	26633.82
729.516	26529.19
729.858	26606.02
730.199	26469.53
730.541	26580.71
730.882	26398.35
731.224	26543.43
731.565	26399.93
731.906	26273.15
732.248	26427.05
732.589	26292.13
732.93	26162.42
733.271	26146.37
733.612	26145.7
733.953	26265.92
734.294	26168.75
734.635	26132.36
734.976	26096.88
735.317	26009.43
735.658	25962.88
735.999	25871.58
736.339	25737.35
736.68	25925.14
737.021	25873.39
737.361	25677.01
737.702	25892.6
738.042	25717.46
738.383	25713.17
738.723	25767.4
739.063	25555.2
739.404	25688.53
739.744	25580.74
740.084	25536
740.424	25553.4
740.764	25485.6
741.104	25535.32
741.444	25226.62
741.784	25307.75
742.124	25316.34
742.464	25259.17
742.804	25249
743.143	25185.95
743.483	25141.88
743.823	24987.08
744.162	25091.71
744.502	25096.01
744.841	24966.97
745.181	24984.37
745.52	24843.36
745.86	24913.86
746.199	24894.43
746.538	24837.03
746.877	24869.8
747.216	24811.27
747.556	24694.44
747.895	24747.09
748.234	24707.54
748.573	24552.07
748.911	24544.16
749.25	24547.09
749.589	24531.73
749.928	24539.19
750.267	24594.33
750.605	24421.45
750.944	24323.82
751.283	24321.11
751.621	24369.02
751.96	24143.94
752.298	24132.19
752.636	24146.65
752.975	24055.13
753.313	23971.74
753.651	24147.78
753.989	23848.13
754.327	23881.35
754.666	23750.96
755.004	23900.78
755.342	23851.52
755.679	23677.06
756.017	23614.01
756.355	23706.66
756.693	23541.7
757.031	23567.01
757.368	23482.49
757.706	23495.37
758.044	23304.87
758.381	23386.9
758.719	23239.56
759.056	23299.44
759.394	23092.44
759.731	22977.19
760.068	23046.34
760.405	22943.97
760.743	22861.04
761.08	22974.71
761.417	22747.14
761.754	22648.61
762.091	22616.98
762.428	22554.38
762.765	22313.26
763.102	22567.03
763.438	22332.92
763.775	22287.27
764.112	22214.5
764.449	22240.49
764.785	22172.69
765.122	21929.76
765.458	21906.94
765.795	21930.21
766.131	21892.93
766.467	21804.79
766.804	21648.64
767.14	21622.88
767.476	21610
767.812	21575.87
768.148	21501.07
768.485	21405.48
768.821	21214.75
769.157	21229.44
769.492	21214.75
769.828	21213.4
770.164	20956
770.5	20909.68
770.836	20938.38
771.171	20716.69
771.507	20718.27
771.842	20522.79
772.178	20582.91
772.513	20586.29
772.849	20504.49
773.184	20369.58
773.519	20341.1
773.855	20281.22
774.19	20179.98
774.525	20165.74
774.86	20085.97
775.195	20054.33
775.53	19940.66
775.865	19841.23
776.2	19757.84
776.535	19674.23
776.87	19539.54
777.205	19516.49
777.539	19433.78
777.874	19473.1
778.209	19330.51
778.543	19342.71
778.878	19205.77
779.212	19157.86
779.547	19006.22
779.881	19088.03
780.215	18926
780.55	18979.56
780.884	18728.04
781.218	18837.19
781.552	18749.28
781.886	18688.49
782.22	18482.85
782.554	18420.93
782.888	18220.26
783.222	18285.11
783.556	18131.22
783.889	18183.42
784.223	18094.83
784.557	17973.48
784.89	17926.03
785.224	17891.68
785.557	17847.61
785.891	17732.36
786.224	17760.38
786.558	17717.67
786.891	17561.97
787.224	17444.91
787.557	17481.29
787.891	17468.18
788.224	17433.16
788.557	17302.54
788.89	17274.52
789.223	17251.47
789.556	17164.01
789.888	17067.07
790.221	16997.24
790.554	16976.22
790.887	16929.89
791.219	16767.41
791.552	16787.98
791.884	16661.43
792.217	16655.32
792.549	16711.37
792.882	16473.63
793.214	16425.73
793.546	16497.59
793.879	16259.85
794.211	16148.45
794.543	16285.84
794.875	16175.56
795.207	16301.89
795.539	16161.1
795.871	16094.44
796.203	15982.8
796.535	15823.48
796.867	15850.83
797.198	15884.5
797.53	15741.45
797.862	15742.35
798.193	15742.35
798.525	15583.26
798.856	15683.15
799.188	15425.75
799.519	15453.77
799.85	15371.74
800.182	15411.06
800.513	15435.7
800.844	15291.97
801.175	15316.83
801.506	15138.08
801.837	15078.42
802.168	15126.33
802.499	15124.52
802.83	14917.29
803.161	14911.64
803.491	14867.58
803.822	14904.64
804.153	14857.63
804.483	14763.4
804.814	14660.8
805.145	14618.09
805.475	14697.86
805.805	14520.47
806.136	14647.02
806.466	14598.43
806.796	14600.69
807.126	14377.64
807.457	14420.36
807.787	14307.59
808.117	14287.03
808.447	14235.5
808.777	14289.74
809.107	14255.39
809.436	14171.77
809.766	14134.94
810.096	14068.27
810.426	14047.71
810.755	14103.53
811.085	14017.88
811.414	13963.42
811.744	13801.61
812.073	13881.61
812.403	13889.52
812.732	13809.52
813.061	13755.06
813.39	13673.48
813.719	13703.31
814.049	13677.78
814.378	13597.1
814.707	13562.3
815.036	13549.42
815.365	13486.14
815.693	13344
816.022	13388.52
816.351	13364.34
816.68	13231.01
817.008	13327.5
817.337	13248.63
817.665	13222.19
817.994	13215.42
818.322	13208.64
818.651	13125.02
818.979	13061.07
819.307	13079.83
819.636	13018.36
819.964	12969.55
820.292	13012.26
820.62	13021.3
820.948	12930.9
821.276	12915.99
821.604	12928.64
821.932	13005.93
822.259	13011.35
822.587	12929.32
822.915	12918.7
823.243	12868.98
823.57	12925.25
823.898	12919.15
824.225	12787.63
824.553	12869.44
824.88	12912.15
825.207	12972.48
825.535	12920.73
825.862	12939.94
826.189	12820.4
826.516	12853.16
826.843	12931.35
827.17	12888.19
827.497	12961.86
827.824	12887.29
828.151	12911.69
828.478	12903.33
828.805	12932.71
829.131	12910.56
829.458	12801.19
829.785	12789.21
830.111	12813.84
830.438	12837.35
830.764	12907.85
831.09	12833.73
831.417	12733.39
831.743	12931.13
832.069	12783.79
832.395	12747.4
832.722	12864.69
833.048	12720.96
833.374	12689.33
833.7	12765.71
834.026	12805.26
834.351	12757.8
834.677	12747.18
835.003	12795.99
835.329	12719.84
835.654	12606.62
835.98	12639.61
836.306	12549.67
836.631	12542.21
836.956	12651.36
837.282	12606.39
837.607	12521.42
837.932	12404.14
838.258	12561.65
838.583	12487.52
838.908	12484.14
839.233	12419.05
839.558	12427.87
839.883	12398.49
840.208	12331.6
840.533	12326.4
840.858	12387.19
841.182	12329.56
841.507	12309.22
841.832	12208.21
842.156	12225.61
842.481	12159.85
842.805	12247.98
843.13	12243.46
843.454	12125.73
843.778	12079.63
844.103	12132.73
844.427	12070.59
844.751	12036.92
845.075	11903.59
845.399	11977.71
845.723	11880.54
846.047	11914.43
846.371	11785.4
846.695	11791.5
847.019	11599.19
847.343	11696.81
847.666	11599.19
847.99	11553.31
848.313	11527.78
848.637	11460.66
848.96	11423.6
849.284	11405.52
849.607	11378.63
849.931	11277.61
850.254	11233.09
850.577	11152.64
850.9	11106.09
851.223	11127.11
851.546	11064.29
851.869	10987.68
852.192	11004.63
852.515	10901.8
852.838	10893.44
853.161	10855.03
853.483	10805.08
853.806	10764.18
854.129	10823.16
854.451	10707.23
854.774	10677.63
855.096	10685.76
855.419	10610.06
855.741	10582.72
856.063	10558.54
856.385	10484.64
856.708	10451.65
857.03	10374.13
857.352	10403.29
857.674	10414.36
857.996	10387.92
858.318	10333.23
858.64	10350.41
858.961	10210.97
859.283	10220.01
859.605	10164.65
859.926	10148.83
860.248	10144.99
860.57	10127.81
860.891	10188.83
861.212	10116.29
861.534	10054.37
861.855	10070.64
862.176	10131.88
862.498	10031.54
862.819	10060.92
863.14	10001.94
863.461	9972.56
863.782	9866.12
864.103	9924.43
864.424	9882.85
864.745	9861.38
865.065	9814.37
865.386	9838.1
865.707	9799.01
866.027	9803.53
866.348	9813.92
866.668	9777.54
866.989	9719.46
867.309	9701.61
867.63	9704.55
867.95	9738.44
868.27	9642.18
868.59	9606.92
868.91	9632.23
869.23	9560.82
869.55	9594.27
869.87	9641.72
870.19	9645.34
870.51	9576.19
870.83	9511.78
871.15	9504.33
871.469	9514.27
871.789	9496.64
872.109	9526.47
872.428	9430.88
872.748	9469.75
873.067	9426.81
873.386	9498.45
873.706	9421.62
874.025	9372.58
874.344	9366.93
874.663	9345.69
874.982	9363.54
875.301	9329.87
875.62	9273.6
875.939	9245.12
876.258	9313.37
876.577	9200.38
876.896	9293.94
877.214	9200.38
877.533	9208.06
877.852	9171.23
878.17	9216.65
878.489	9192.7
878.807	9187.05
879.125	9159.25
879.444	9144.11
879.762	9150.44
880.08	9113.83
880.398	9111.57
880.716	9074.06
881.034	9003.32
881.352	9098.24
881.67	8986.15
881.988	8984.79
882.306	8921.06
882.624	8959.26
882.941	8881.74
883.259	8841.29
883.577	8824.8
883.894	8832.93
884.212	8835.19
884.529	8820.28
884.846	8860.73
885.164	8743.44
885.481	8753.39
885.798	8802.2
886.115	8687.85
886.432	8765.81
886.75	8681.07
887.067	8651.92
887.383	8642.2
887.7	8635.42
888.017	8622.54
888.334	8621.64
888.651	8558.36
888.967	8497.12
889.284	8532.83
889.6	8448.53
889.917	8425.71
890.233	8428.2
890.55	8413.73
890.866	8429.33
891.182	8357.24
891.498	8344.81
891.815	8374.86
892.131	8256.68
892.447	8237.24
892.763	8249.67
893.079	8245.83
893.395	8138.03
893.71	8163.57
894.026	8130.8
894.342	8117.24
894.657	8093.52
894.973	8057.36
895.289	8036.79
895.604	8072.5
895.92	7968.55
896.235	7835.67
896.55	7959.28
896.865	7894.65
897.181	7934.65
897.496	7933.07
897.811	7850.36
898.126	7801.09
898.441	7794.09
898.756	7713.19
899.071	7709.12
899.386	7710.25
899.7	7661.44
900.015	7634.32
900.33	7617.37
900.644	7544.15
900.959	7574.89
901.273	7516.81
901.588	7486.98
901.902	7484.49
902.216	7368.56
902.531	7408.11
902.845	7368.34
903.159	7326.08
903.473	7285.63
903.787	7289.7
904.101	7229.36
904.415	7251.96
904.729	7236.14
905.042	7230.94
905.356	7197.04
905.67	7132.41
905.984	7159.53
906.297	7127.89
906.611	7051.06
906.924	7052.87
907.237	7014.9
907.551	6999.99
907.864	7032.53
908.177	6977.39
908.491	6957.95
908.804	6856.94
909.117	6876.37
909.43	6825.07
909.743	6844.28
910.056	6759.77
910.368	6831.63
910.681	6717.28
910.994	6729.03
911.307	6722.03
911.619	6655.59
911.932	6617.17
912.244	6600.9
912.557	6539.88
912.869	6556.38
913.181	6472.32
913.494	6489.49
913.806	6433.9
914.118	6400.45
914.43	6414.01
914.742	6398.19
915.054	6347.12
915.366	6265.32
915.678	6301.7
915.99	6276.39
916.302	6281.59
916.613	6201.59
916.925	6216.96
917.236	6254.69
917.548	6186.67
917.859	6149.61
918.171	6088.37
918.482	6038.65
918.794	6106.9
919.105	6010.86
919.416	5998.2
919.727	5988.03
920.038	6020.58
920.349	5933.8
920.66	5897.87
920.971	5874.82
921.282	5883.4
921.593	5865.78
921.903	5809.28
922.214	5796.63
922.525	5764.76
922.835	5743.52
923.146	5687.25
923.456	5717.76
923.767	5677.08
924.077	5648.61
924.387	5626.69
924.697	5604.99
925.008	5619
925.318	5551.89
925.628	5575.84
925.938	5555.05
926.248	5426.69
926.558	5459.91
926.867	5453.81
927.177	5390.99
927.487	5427.15
927.796	5369.29
928.106	5333.59
928.416	5348.28
928.725	5289.07
929.034	5281.84
929.344	5272.57
929.653	5224.21
929.962	5234.38
930.271	5145.8
930.581	5197.32
930.89	5131.56
931.199	5099.92
931.508	5119.81
931.817	5119.36
932.125	5097.66
932.434	5091.34
932.743	4996.42
933.051	4938.34
933.36	4970.21
933.669	4935.63
933.977	4902.64
934.286	4932.7
934.594	4901.28
934.902	4874.17
935.21	4841.4
935.519	4802.98
935.827	4836.88
936.135	4808.4
936.443	4733.83
936.751	4700.16
937.059	4698.13
937.367	4685.47
937.674	4642.53
937.982	4685.92
938.29	4628.07
938.597	4622.42
938.905	4574.96
939.213	4540.62
939.52	4510.79
939.827	4524.57
940.135	4531.58
940.442	4491.12
940.749	4481.86
941.056	4471.01
941.363	4426.72
941.67	4420.84
941.977	4397.79
942.284	4384.91
942.591	4362.31
942.898	4368.42
943.205	4345.37
943.511	4314.41
943.818	4338.59
944.125	4276.22
944.431	4260.17
944.738	4235.09
945.044	4250
945.35	4193.28
945.657	4198.7
945.963	4183.34
946.269	4179.04
946.575	4107.86
946.881	4148.76
947.187	4082.55
947.493	4081.19
947.799	4059.72
948.105	4064.92
948.41	4019.05
948.716	4019.05
949.022	3986.73
949.327	3947.86
949.633	3952.16
949.938	3961.42
950.244	3918.26
950.549	3928.2
950.854	3873.06
951.16	3908.32
951.465	3855.44
951.77	3836
952.075	3858.15
952.38	3833.97
952.685	3819.5
952.99	3779.28
953.294	3760.97
953.599	3749
953.904	3729.11
954.209	3741.09
954.513	3681.88
954.818	3675.55
955.122	3697.02
955.426	3649.79
955.731	3672.84
956.035	3614.31
956.339	3618.61
956.643	3605.95
956.948	3611.15
957.252	3560.75
957.556	3545.61
957.86	3538.61
958.163	3525.5
958.467	3532.28
958.771	3485.73
959.075	3468.33
959.378	3518.04
959.682	3432.17
959.985	3401.44
960.289	3378.16
960.592	3409.35
960.896	3401.21
961.199	3360.76
961.502	3359.86
961.805	3340.42
962.108	3341.55
962.411	3309.01
962.714	3296.35
963.017	3252.97
963.32	3291.38
963.623	3298.16
963.926	3245.73
964.228	3225.17
964.531	3174.55
964.833	3205.51
965.136	3223.81
965.438	3170.26
965.741	3171.84
966.043	3134.32
966.345	3156.47
966.648	3129.58
966.95	3125.74
967.252	3056.13
967.554	3109.47
967.856	3106.3
968.158	3034.44
968.46	3038.96
968.761	3010.03
969.063	3022.24
969.365	3003.25
969.666	2987.21
969.968	2957.38
970.269	2967.78
970.571	2942.92
970.872	2952.18
971.174	2904.73
971.475	2877.83
971.776	2899.08
972.077	2892.07
972.378	2892.07
972.679	2862.92
972.98	2883.03
973.281	2831.96
973.582	2815.01
973.883	2785.63
974.183	2797.61
974.484	2771.62
974.785	2750.38
975.085	2782.92
975.386	2793.32
975.686	2761.23
975.986	2712.41
976.287	2742.47
976.587	2700.89
976.887	2701.34
977.187	2647.33
977.487	2711.74
977.787	2656.14
978.087	2673.55
978.387	2647.11
978.687	2620.67
978.987	2624.06
979.286	2608.91
979.586	2568.24
979.885	2567.33
980.185	2551.51
980.484	2545.87
980.784	2552.42
981.083	2527.56
981.382	2505.41
981.682	2541.8
981.981	2499.09
982.28	2518.97
982.579	2459.31
982.878	2523.27
983.177	2460.44
983.475	2412.99
983.774	2424.29
984.073	2432.2
984.372	2427.22
984.67	2419.09
984.969	2401.01
985.267	2406.21
985.566	2372.31
985.864	2376.38
986.162	2360.79
986.461	2306.78
986.759	2365.31
987.057	2313.55
987.355	2296.61
987.653	2302.03
987.951	2300
988.249	2300.45
988.547	2268.58
988.844	2255.03
989.142	2252.99
989.44	2208.7
989.737	2252.09
990.035	2219.55
990.332	2203.05
990.63	2204.18
990.927	2197.85
991.224	2177.06
991.521	2200.79
991.819	2133.67
992.116	2194.24
992.413	2134.12
992.71	2098.42
993.006	2169.6
993.303	2112.43
993.6	2109.72
993.897	2102.49
994.193	2092.77
994.49	2064.3
994.787	2086.22
995.083	2034.01
995.379	2052.32
995.676	2023.62
995.972	2027.91
996.268	2008.93
996.565	2010.96
996.861	2028.36
997.157	1980.68
997.453	1996.5
997.749	1964.64
998.044	1965.54
998.34	1971.19
998.636	1942.27
998.932	1954.24
999.227	1921.02
999.523	1902.27
999.818	1876.73
1000.114	1897.97
1000.409	1866.11
1000.704	1876.05
1001	1835.83
1001.295	1864.08
1001.59	1843.74
1001.885	1870.18
1002.18	1840.35
1002.475	1812.33
1002.77	1825.66
1003.065	1797.18
1003.359	1775.49
1003.654	1796.96
1003.949	1784.98
1004.243	1768.71
1004.538	1749.05
1004.832	1770.07
1005.127	1750.41
1005.421	1750.63
1005.715	1716.73
1006.009	1729.62
1006.304	1706.57
1006.598	1682.84
1006.892	1662.05
1007.186	1675.38
1007.48	1646.45
1007.773	1642.84
1008.067	1623.4
1008.361	1658.88
1008.655	1638.32
1008.948	1641.03
1009.242	1629.28
1009.535	1605.78
1009.829	1581.82
1010.122	1593.57
1010.415	1573.91
1010.708	1562.61
1011.001	1521.49
1011.295	1537.76
1011.588	1517.64
1011.881	1551.09
1012.173	1523.29
1012.466	1514.25
1012.759	1535.27
1013.052	1485.33
1013.344	1511.32
1013.637	1468.61
1013.93	1469.28
1014.222	1471.09
1014.514	1469.06
1014.807	1452.11
1015.099	1461.37
1015.391	1435.16
1015.683	1410.08
1015.976	1422.96
1016.268	1399
1016.56	1399.91
1016.851	1396.52
1017.143	1398.32
1017.435	1378.89
1017.727	1375.95
1018.018	1357.2
1018.31	1359.46
1018.602	1349.74
1018.893	1334.6
1019.185	1298.21
1019.476	1319.91
1019.767	1319.68
1020.058	1297.08
1020.35	1273.58
1020.641	1305.45
1020.932	1253.92
1021.223	1259.8
1021.514	1268.16
1021.804	1247.59
1022.095	1247.59
1022.386	1257.09
1022.677	1233.58
1022.967	1212.12
1023.258	1246.92
1023.548	1185.45
1023.839	1190.42
1024.129	1196.3
1024.419	1173.92
1024.709	1198.78
1025	1177.54
1025.29	1159.01
1025.58	1140.25
1025.87	1148.16
1026.16	1130.99
1026.449	1145.22
1026.739	1130.31
1027.029	1134.83
1027.319	1096.86
1027.608	1120.37
1027.898	1080.59
1028.187	1077.2
1028.477	1059.12
1028.766	1056.64
1029.055	1057.32
1029.344	1072.01
1029.634	1062.51
1029.923	1053.93
1030.212	1066.81
1030.501	1030.2
1030.79	997.43
1031.078	1044.44
1031.367	990.2
1031.656	987.71
1031.945	987.94
1032.233	987.26
1032.522	984.1
1032.81	977.77
1033.099	971.22
1033.387	992.46
1033.675	973.7
1033.963	961.95
1034.251	939.35
1034.54	959.01
1034.828	945.46
1035.116	935.74
1035.403	914.95
1035.691	939.13
1035.979	930.77
1036.267	917.89
1036.554	904.78
1036.842	920.6
1037.129	895.51
1037.417	889.41
1037.704	925.12
1037.992	881.28
1038.279	874.27
1038.566	875.4
1038.853	875.4
1039.14	875.4
