Data from hue_150_FLMS001491_00078.txt Node
Date: Tue Feb 07 16:54:31 GMT 2017
User: dcchb
Spectrometer: FLMS00149
Trigger mode: 0
Integration Time (sec): 2.000000E-2
Scans to average: 10
Electric dark correction enabled: true
Nonlinearity correction enabled: false
Boxcar width: 0
XAxis mode: Wavelengths
Number of Pixels in Spectrum: 2048
>>>>>Begin Spectral Data<<<<<
341.393	-17.19
341.776	-17.19
342.16	-17.19
342.543	-62.16
342.927	-78.43
343.31	-61.48
343.693	-68.26
344.077	-56.06
344.46	-62.84
344.843	-62.61
345.226	-50.63
345.61	-40.24
345.993	-9.28
346.376	3.6
346.759	14.9
347.142	20.55
347.525	38.63
347.908	42.92
348.291	68.23
348.674	98.97
349.057	123.6
349.44	116.37
349.823	140.55
350.206	148.46
350.588	194.33
350.971	208.34
351.354	240.88
351.737	243.82
352.119	226.87
352.502	276.59
352.884	275.91
353.267	279.3
353.65	286.31
354.032	279.98
354.414	320.2
354.797	311.16
355.179	324.27
355.562	317.94
355.944	318.17
356.326	319.75
356.709	333.54
357.091	332.18
357.473	331.73
357.855	345.29
358.238	335.12
358.62	337.38
359.002	330.37
359.384	331.5
359.766	341.22
360.148	340.32
360.53	308.45
360.912	334.67
361.294	323.37
361.676	336.02
362.057	324.5
362.439	324.72
362.821	329.92
363.203	320.2
363.584	321.56
363.966	312.97
364.348	326.76
364.729	324.27
365.111	310.94
365.493	306.64
365.874	346.19
366.256	285.85
366.637	312.75
367.019	292.41
367.4	325.63
367.781	312.97
368.163	317.27
368.544	312.07
368.925	311.16
369.306	296.93
369.688	303.25
370.069	310.71
370.45	315.91
370.831	318.85
371.212	309.58
371.593	316.36
371.974	310.26
372.355	313.65
372.736	321.79
373.117	330.6
373.498	305.06
373.879	308.68
374.26	315.91
374.641	307.32
375.021	326.3
375.402	308
375.783	295.8
376.163	315.46
376.544	299.86
376.925	310.71
377.305	307.1
377.686	314.78
378.066	320.43
378.447	331.05
378.827	327.43
379.208	338.51
379.588	337.6
379.968	310.26
380.349	335.12
380.729	323.82
381.109	331.05
381.489	325.63
381.87	345.97
382.25	325.63
382.63	307.77
383.01	332.41
383.39	327.89
383.77	346.64
384.15	360.65
384.53	343.25
384.91	333.31
385.29	345.51
385.67	338.51
386.049	336.47
386.429	354.33
386.809	345.97
387.189	335.57
387.568	329.69
387.948	342.12
388.328	356.81
388.707	373.31
389.087	360.65
389.466	363.14
389.846	345.51
390.225	370.82
390.605	369.02
390.984	356.59
391.363	352.29
391.743	362.69
392.122	366.3
392.501	391.39
392.881	376.25
393.26	382.8
393.639	386.42
394.018	362.91
394.397	383.93
394.776	389.58
395.155	396.36
395.534	397.94
395.913	366.08
396.292	375.12
396.671	365.4
397.05	370.15
397.429	378.06
397.808	394.33
398.186	387.77
398.565	396.36
398.944	389.81
399.323	397.26
399.701	388.45
400.08	392.07
400.458	402.69
400.837	401.78
401.215	407.88
401.594	405.85
401.972	403.37
402.351	412.18
402.729	421.67
403.107	385.74
403.486	408.79
403.864	406.08
404.242	403.82
404.62	423.7
404.999	414.66
405.377	420.09
405.755	442.01
406.133	441.78
406.511	419.18
406.889	436.58
407.267	427.32
407.645	420.99
408.023	455.57
408.401	452.18
408.779	432.74
409.156	454.21
409.534	455.34
409.912	470.71
410.29	459.18
410.667	462.35
411.045	444.04
411.422	475.68
411.8	467.77
412.178	480.43
412.555	487.43
412.933	458.96
413.31	488.33
413.687	503.25
414.065	481.33
414.442	507.77
414.819	483.81
415.197	510.03
415.574	500.99
415.951	485.62
416.328	507.77
416.705	499.18
417.082	493.31
417.46	485.62
417.837	531.72
418.214	515.45
418.591	510.03
418.967	535.57
419.344	534.89
419.721	521.1
420.098	515
420.475	535.57
420.852	540.31
421.228	529.69
421.605	541.44
421.982	523.59
422.358	539.18
422.735	564.72
423.111	566.98
423.488	553.19
423.864	568.78
424.241	593.64
424.617	571.04
424.994	586.86
425.37	580.08
425.746	609.01
426.123	603.13
426.499	604.04
426.875	596.81
427.251	625.96
427.627	621.66
428.003	632.29
428.379	627.31
428.756	619.63
429.132	618.73
429.507	634.55
429.883	642
430.259	651.49
430.635	655.56
431.011	632.74
431.387	678.61
431.763	657.82
432.138	672.74
432.514	693.07
432.89	691.04
433.265	683.58
433.641	699.85
434.016	705.28
434.392	723.36
434.767	731.49
435.143	717.03
435.518	698.27
435.894	717.93
436.269	735.79
436.644	768.55
437.02	748.44
437.395	754.99
437.77	760.87
438.145	787.76
438.52	756.58
438.895	781.89
439.271	785.95
439.646	800.19
440.021	828.21
440.395	821.66
440.77	849.91
441.145	822.56
441.52	824.6
441.895	837.25
442.27	853.75
442.645	835.9
443.019	839.96
443.394	867.08
443.769	877.25
444.143	863.01
444.518	884.48
444.892	880.87
445.267	869.57
445.641	904.82
446.016	884.71
446.39	882.9
446.764	895.78
447.139	901.66
447.513	931.26
447.887	897.14
448.262	934.2
448.636	931.71
449.01	933.52
449.384	943.69
449.758	965.84
450.132	938.04
450.506	954.31
450.88	983.24
451.254	965.61
451.628	939.62
452.002	985.72
452.376	1001.77
452.75	1002.45
453.123	1035.21
453.497	1036.79
453.871	1032.95
454.244	1042.22
454.618	1034.53
454.992	1085.83
455.365	1063.91
455.739	1107.08
456.112	1108.43
456.486	1110.24
456.859	1136.45
457.232	1136.23
457.606	1137.36
457.979	1177.36
458.352	1203.34
458.725	1192.72
459.099	1226.17
459.472	1212.38
459.845	1263.23
460.218	1272.27
460.591	1265.72
460.964	1267.52
461.337	1309.78
461.71	1348.2
462.083	1358.59
462.456	1349.55
462.829	1355.2
463.201	1392.27
463.574	1404.02
463.947	1427.29
464.32	1461.42
464.692	1448.99
465.065	1478.14
465.438	1498.25
465.81	1500.29
466.183	1512.26
466.555	1579.15
466.928	1573.73
467.3	1584.8
467.672	1610.11
468.045	1667.06
468.417	1653.95
468.789	1694.63
469.161	1754.97
469.534	1751.58
469.906	1820.5
470.278	1848.52
470.65	1843.33
471.022	1888.75
471.394	1919.94
471.766	1960.16
472.138	2015.3
472.51	2056.65
472.882	2054.17
473.253	2108.41
473.625	2171.68
473.997	2171.23
474.369	2249.42
474.74	2284.45
475.112	2327.61
475.484	2371.9
475.855	2461.84
476.227	2485.34
476.598	2579.58
476.97	2587.71
477.341	2723.53
477.713	2752.23
478.084	2791.32
478.455	2888.72
478.827	2964.65
479.198	3025.22
479.569	3106.57
479.94	3208.94
480.311	3275.15
480.682	3385.66
481.053	3467.69
481.424	3549.5
481.795	3647.8
482.166	3721.24
482.537	3803.5
482.908	3938.87
483.279	4037.17
483.65	4105.41
484.021	4234
484.391	4347.22
484.762	4430.15
485.133	4520.54
485.503	4664.95
485.874	4803.25
486.244	4842.34
486.615	5010.93
486.985	5103.35
487.356	5303.8
487.726	5364.59
488.097	5525.72
488.467	5570.23
488.837	5759.83
489.207	5913.05
489.578	6048.41
489.948	6173.61
490.318	6331.34
490.688	6369.76
491.058	6532.92
491.428	6697.44
491.798	6873.7
492.168	7053.13
492.538	7106.92
492.908	7224.2
493.278	7355.5
493.648	7474.37
494.017	7600.24
494.387	7743.74
494.757	7879.1
495.126	8044.75
495.496	8116.16
495.866	8234.35
496.235	8424.62
496.605	8499.2
496.974	8598.63
497.344	8733.99
497.713	8843.82
498.082	8930.37
498.452	9043.36
498.821	9132.63
499.19	9272.28
499.559	9321.1
499.928	9496.91
500.298	9557.47
500.667	9728.32
501.036	9722.67
501.405	9866.17
501.774	9955.2
502.143	10079.95
502.512	10082.21
502.88	10249.66
503.249	10269.09
503.618	10376.89
503.987	10451.91
504.356	10493.72
504.724	10577.33
505.093	10627.28
505.462	10735.52
505.83	10777.1
506.199	10959.47
506.567	11075.4
506.936	11059.81
507.304	11204.21
507.672	11277.88
508.041	11325.11
508.409	11300.71
508.777	11530.3
509.145	11538.21
509.514	11495.95
509.882	11635.61
510.25	11631.77
510.618	11777.53
510.986	11740.69
511.354	11886.23
511.722	11936.62
512.09	12039.9
512.458	11916.28
512.826	12092.32
513.193	12148.59
513.561	12164.86
513.929	12205.09
514.297	12362.37
514.664	12490.28
515.032	12399.66
515.4	12467.45
515.767	12525.08
516.135	12676.04
516.502	12451.64
516.869	12749.03
517.237	12730.05
517.604	12648.92
517.972	12756.03
518.339	12781.8
518.706	12784.96
519.073	12889.14
519.44	12909.7
519.808	13004.16
520.175	12946.76
520.542	13089.81
520.909	13065.86
521.276	13029.25
521.643	13087.78
522.009	13159.41
522.376	13236.47
522.743	13224.72
523.11	13389.46
523.477	13412.51
523.843	13396.47
524.21	13487.54
524.577	13500.42
524.943	13570.25
525.31	13545.39
525.676	13603.24
526.043	13643.47
526.409	13639.85
526.776	13826.29
527.142	13753.3
527.508	13754.43
527.874	13740.87
528.241	13772.28
528.607	13716.69
528.973	13817.02
529.339	13735.67
529.705	13887.53
530.071	13928.43
530.437	13958.94
530.803	13976.79
531.169	13981.31
531.535	13853.18
531.901	13874.65
532.267	13868.77
532.632	13941.77
532.998	13928.66
533.364	13896.34
533.73	13843.69
534.095	13908.55
534.461	13861.54
534.826	13898.38
535.192	13856.57
535.557	13940.86
535.923	13847.53
536.288	13773.86
536.653	13878.49
537.019	13797.59
537.384	13809.57
537.749	13782.9
538.114	13747.87
538.479	13676.24
538.845	13637.14
539.21	13617.93
539.575	13572.74
539.94	13539.29
540.305	13636.46
540.67	13550.14
541.034	13534.55
541.399	13558.73
541.764	13500.87
542.129	13520.53
542.494	13458.39
542.858	13409.58
543.223	13386.98
543.587	13336.58
543.952	13287.77
544.316	13272.18
544.681	13275.79
545.045	13314.44
545.41	13216.59
545.774	13252.07
546.138	13170.04
546.503	13050.72
546.867	13035.58
547.231	13137.27
547.595	13105.4
547.959	13002.13
548.324	12963.94
548.688	12963.94
549.052	12929.82
549.416	12888.91
549.779	12886.65
550.143	12835.13
550.507	12852.3
550.871	12791.29
551.235	12811.85
551.599	12808.69
551.962	12787.9
552.326	12677.84
552.689	12778.41
553.053	12664.29
553.417	12664.74
553.78	12680.33
554.143	12641.91
554.507	12580.67
554.87	12519.66
555.234	12699.76
555.597	12583.84
555.96	12596.94
556.323	12575.93
556.686	12492.54
557.05	12521.92
557.413	12551.75
557.776	12466.78
558.139	12451.18
558.502	12468.13
558.865	12403.05
559.228	12476.49
559.59	12439.88
559.953	12539.32
560.316	12493.22
560.679	12497.06
561.041	12512.2
561.404	12540
561.767	12548.58
562.129	12436.27
562.492	12501.58
562.854	12514.46
563.217	12497.51
563.579	12560.79
563.941	12525.08
564.304	12523.72
564.666	12591.97
565.028	12600.56
565.39	12523.5
565.753	12534.57
566.115	12556.49
566.477	12636.72
566.839	12675.58
567.201	12780.44
567.563	12720.56
567.925	12654.57
568.287	12761.01
568.648	12704.74
569.01	12816.15
569.372	12813.66
569.734	12714
570.095	12765.53
570.457	12793.1
570.819	12824.51
571.18	12756.26
571.542	12839.65
571.903	12717.39
572.265	12827.9
572.626	12884.84
572.987	12831.96
573.349	12820.89
573.71	12961.23
574.071	12988.12
574.432	12989.47
574.794	13029.02
575.155	12937.95
575.516	12897.73
575.877	12970.49
576.238	13009.59
576.599	12952.64
576.96	12909.48
577.32	12966.42
577.681	13061.34
578.042	12954.9
578.403	12940.21
578.763	13012.53
579.124	12889.14
579.485	12914.67
579.845	12956.71
580.206	12942.47
580.566	12965.29
580.927	13000.77
581.287	12988.12
581.648	12945.41
582.008	12990.83
582.368	12964.39
582.728	13050.72
583.089	12983.37
583.449	12972.98
583.809	13068.57
584.169	12961.9
584.529	12939.76
584.889	13045.74
585.249	12904.51
585.609	12893.66
585.969	12930.72
586.329	12919.19
586.688	12881.68
587.048	12868.35
587.408	12778.41
587.768	12804.62
588.127	12828.35
588.487	12783.6
588.846	12896.82
589.206	12832.87
589.565	12776.83
589.925	12766.88
590.284	12792.42
590.643	12811.17
591.003	12842.59
591.362	12872.64
591.721	12786.54
592.08	12805.98
592.44	12801.01
592.799	12768.92
593.158	12740.22
593.517	12778.18
593.876	12718.75
594.235	12744.51
594.593	12767.11
594.952	12717.62
595.311	12721.46
595.67	12747.67
596.029	12839.87
596.387	12733.66
596.746	12787.67
597.104	12735.7
597.463	12717.17
597.822	12762.14
598.18	12716.49
598.538	12704.06
598.897	12687.11
599.255	12631.52
599.613	12790.61
599.972	12757.39
600.33	12692.99
600.688	12635.36
601.046	12664.51
601.404	12727.79
601.762	12713.55
602.12	12765.75
602.478	12677.17
602.836	12737.73
603.194	12707.67
603.552	12615.02
603.91	12600.78
604.268	12695.47
604.625	12643.72
604.983	12648.69
605.341	12627.9
605.698	12637.85
606.056	12698.41
606.413	12659.31
606.771	12817.95
607.128	12639.88
607.485	12577.28
607.843	12670.39
608.2	12741.57
608.557	12798.29
608.914	12650.5
609.272	12815.24
609.629	12829.25
609.986	12790.38
610.343	12760.1
610.7	12834
611.057	12784.73
611.414	12846.2
611.771	12856.37
612.127	12791.74
612.484	12781.12
612.841	12935.01
613.198	12815.47
613.554	12859.53
613.911	12971.62
614.267	12871.96
614.624	12826.77
614.98	12927.1
615.337	12915.8
615.693	12968.68
616.05	13000.1
616.406	12998.29
616.762	12960.32
617.118	12941.79
617.475	12955.13
617.831	12957.39
618.187	12978.4
618.543	13089.36
618.899	13050.04
619.255	13022.02
619.611	13023.37
619.967	13107.89
620.323	13120.32
620.678	13035.8
621.034	13074.44
621.39	13090.72
621.746	12981.57
622.101	13170.04
622.457	13051.85
622.812	13065.41
623.168	13068.79
623.523	13087.33
623.879	13137.27
624.234	13023.37
624.589	13075.35
624.945	13118.51
625.3	13041.9
625.655	12944.73
626.01	13092.3
626.365	13105.86
626.72	13069.25
627.075	13106.08
627.43	13002.81
627.785	13010.04
628.14	13106.99
628.495	13009.36
628.85	13075.12
629.205	12989.93
629.559	12976.14
629.914	12945.63
630.269	12999.19
630.623	12911.28
630.978	12975.69
631.332	12914.9
631.687	12984.73
632.041	12912.19
632.396	12989.93
632.75	12974.11
633.104	12972.98
633.459	12938.63
633.813	12934.56
634.167	12823.15
634.521	12828.58
634.875	12891.85
635.229	12872.19
635.583	12756.03
635.937	12817.95
636.291	12793.32
636.645	12715.36
636.999	12657.05
637.352	12673.55
637.706	12669.48
638.06	12711.97
638.413	12746.32
638.767	12659.09
639.121	12633.33
639.474	12594.46
639.828	12626.55
640.181	12580.22
640.534	12608.02
640.888	12534.35
641.241	12532.54
641.594	12524.4
641.947	12602.59
642.301	12480.56
642.654	12546.55
643.007	12520.79
643.36	12504.97
643.713	12449.38
644.066	12494.57
644.419	12482.6
644.771	12376.84
645.124	12331.64
645.477	12351.75
645.83	12170.51
646.182	12080.35
646.535	12097.52
646.888	12183.39
647.24	12066.79
647.593	12092.55
647.945	12115.83
648.298	12030.63
648.65	12069.05
649.002	11916.51
649.355	12070.4
649.707	12057.3
650.059	12152.66
650.411	12395.82
650.763	12290.96
651.115	12444.18
651.467	12350.17
651.819	12368.25
652.171	12286.67
652.523	12332.77
652.875	12273.56
653.227	12293.45
653.578	12341.81
653.93	12274.24
654.282	12296.61
654.633	12230.17
654.985	12327.57
655.337	12325.76
655.688	12313.79
656.039	12366.89
656.391	12222.26
656.742	12300.91
657.094	12273.79
657.445	12349.27
657.796	12325.09
658.147	12269.27
658.498	12234.92
658.849	12300.91
659.2	12314.92
659.551	12273.34
659.902	12362.6
660.253	12370.28
660.604	12307.01
660.955	12267.46
661.306	12371.41
661.656	12331.87
662.007	12326.22
662.358	12394.46
662.708	12361.92
663.059	12391.07
663.409	12314.46
663.76	12413.44
664.11	12424.29
664.461	12393.33
664.811	12405.76
665.161	12382.71
665.511	12333.67
665.862	12328.93
666.212	12363.73
666.562	12362.6
666.912	12351.98
667.262	12367.8
667.612	12350.4
667.962	12326.89
668.312	12359.43
668.662	12490.5
669.011	12413.22
669.361	12392.2
669.711	12336.61
670.06	12369.15
670.41	12272.21
670.76	12258.19
671.109	12275.14
671.459	12304.97
671.808	12252.77
672.157	12344.07
672.507	12299.1
672.856	12272.43
673.205	12299.1
673.554	12275.6
673.904	12208.25
674.253	12316.72
674.602	12260.23
674.951	12061.82
675.3	11974.13
675.649	12186.33
675.998	12208.03
676.346	12170.29
676.695	12191.98
677.044	12078.76
677.393	12098.2
677.741	12147.01
678.09	12170.97
678.438	12061.59
678.787	12103.4
679.135	12150.63
679.484	12035.6
679.832	11994.25
680.181	12008.94
680.529	11977.07
680.877	12045.77
681.225	11929.39
681.573	11994.47
681.922	11865.66
682.27	11844.87
682.618	11877.41
682.966	11812.33
683.314	11815.72
683.661	11781.82
684.009	11705.67
684.357	11709.96
684.705	11685.33
685.053	11730.3
685.4	11693.69
685.748	11620.25
686.095	11694.82
686.443	11519.68
686.79	11543.86
687.138	11597.42
687.485	11605.56
687.832	11535.95
688.18	11550.87
688.527	11481.04
688.874	11429.97
689.221	11385.45
689.568	11375.05
689.915	11319.69
690.262	11340.93
690.609	11251.89
690.956	11224.1
691.303	11190.2
691.65	11120.37
691.997	11121.28
692.344	11060.94
692.69	11064.1
693.037	11071.56
693.383	10975.74
693.73	11002.18
694.077	10928.74
694.423	10923.77
694.769	10835.41
695.116	10879.47
695.462	10747.73
695.808	10771
696.155	10786.14
696.501	10689.87
696.847	10661.17
697.193	10590.89
697.539	10638.12
697.885	10588.63
698.231	10562.87
698.577	10519.48
698.923	10475.19
699.269	10440.16
699.614	10320.62
699.96	10333.05
700.306	10306.16
700.651	10223.22
700.997	10216.67
701.342	10160.85
701.688	10160.85
702.033	10115.2
702.379	10074.52
702.724	10042.43
703.069	10049.44
703.415	9943.23
703.76	9986.16
704.105	9969.67
704.45	9975.99
704.795	9882.89
705.14	9794.08
705.485	9803.57
705.83	9755.89
706.175	9752.5
706.52	9741.42
706.865	9668.43
707.209	9681.31
707.554	9669.34
707.899	9675.66
708.243	9522.9
708.588	9582.56
708.932	9506.18
709.277	9458.95
709.621	9515.67
709.966	9466.18
710.31	9451.26
710.654	9325.39
710.998	9318.61
711.342	9330.81
711.687	9350.7
712.031	9283.81
712.375	9222.34
712.719	9315.9
713.063	9245.84
713.407	9260.99
713.75	9202.23
714.094	9284.71
714.438	9132.85
714.782	9148.67
715.125	9154.55
715.469	9141.67
715.812	9062.8
716.156	9020.09
716.499	9104.15
716.843	9060.54
717.186	9035.45
717.53	9098.05
717.873	9080.2
718.216	9063.93
718.559	8974.67
718.902	8948.45
719.246	8959.98
719.589	8918.4
719.932	8862.35
720.275	8893.54
720.617	8898.51
720.96	8825.97
721.303	8870.26
721.646	8890.83
721.989	8808.34
722.331	8844.5
722.674	8816.7
723.016	8858.06
723.359	8787.33
723.701	8816.93
724.044	8759.3
724.386	8718.17
724.729	8774.67
725.071	8722.47
725.413	8759.08
725.755	8719.53
726.097	8662.13
726.439	8673.66
726.782	8694.22
727.124	8799.3
727.465	8664.62
727.807	8644.5
728.149	8686.99
728.491	8678.18
728.833	8705.29
729.175	8599.76
729.516	8680.66
729.858	8646.76
730.199	8569.03
730.541	8637.72
730.882	8626.2
731.224	8598.18
731.565	8668.23
731.906	8673.43
732.248	8651.51
732.589	8569.25
732.93	8555.24
733.271	8539.65
733.612	8611.74
733.953	8566.31
734.294	8565.41
734.635	8541.68
734.976	8526.09
735.317	8619.19
735.658	8595.92
735.999	8566.31
736.339	8601.34
736.68	8596.14
737.021	8622.58
737.361	8578.74
737.702	8589.36
738.042	8588.01
738.383	8581.91
738.723	8676.82
739.063	8578.74
739.404	8627.56
739.744	8647.22
740.084	8610.15
740.424	8647.89
740.764	8628.46
741.104	8698.29
741.444	8580.55
741.784	8654
742.124	8717.72
742.464	8654.9
742.804	8729.47
743.143	8720.89
743.483	8774.67
743.823	8739.64
744.162	8736.93
744.502	8823.26
744.841	8770.6
745.181	8878.17
745.52	8884.27
745.86	8943.25
746.199	8921.33
746.538	9021.22
746.877	9088.79
747.216	9120.2
747.556	9081.33
747.895	9223.92
748.234	9199.74
748.573	9274.54
748.911	9272.28
749.25	9357.48
749.589	9435.44
749.928	9451.04
750.267	9547.08
750.605	9574.2
750.944	9639.28
751.283	9617.81
751.621	9822.55
751.96	9870.91
752.298	9897.58
752.636	10091.92
752.975	10126.95
753.313	10163.56
753.651	10258.25
753.989	10396.77
754.327	10407.62
754.666	10582.53
755.004	10628.63
755.342	10880.83
755.679	10978.45
756.017	11008.51
756.355	11217.09
756.693	11294.38
757.031	11432.23
757.368	11564.43
757.706	11642.62
758.044	11823.18
758.381	11975.72
758.719	12113.11
759.056	12342.71
759.394	12442.14
759.731	12491.18
760.068	12726.66
760.405	12773.44
760.743	12987.67
761.08	13111.28
761.417	13204.38
761.754	13490.48
762.091	13576.58
762.428	13664.49
762.765	13865.16
763.102	14033.74
763.438	14172.72
763.775	14241.65
764.112	14469.89
764.449	14692.93
764.785	14775.64
765.122	14834.85
765.458	14968.41
765.795	15144.67
766.131	15336.76
766.467	15400.26
766.804	15532.01
767.14	15608.16
767.476	15768.16
767.812	15895.39
768.148	16086.34
768.485	16165.66
768.821	16152.78
769.157	16390.06
769.492	16474.13
769.828	16609.94
770.164	16634.8
770.5	16809.04
770.836	16884.97
771.171	17014.45
771.507	17057.84
771.842	17146.88
772.178	17248.8
772.513	17421.9
772.849	17338.74
773.184	17361.34
773.519	17503.71
773.855	17518.62
774.19	17564.5
774.525	17723.36
774.86	17793.19
775.195	17862.34
775.53	17842.45
775.865	17835
776.2	17906.86
776.535	17824.38
776.87	17972.85
777.205	18122.45
777.539	18012.62
777.874	18043.58
778.209	18071.83
778.543	17960.87
778.878	18075.89
779.212	18190.69
779.547	18043.35
779.881	18250.81
780.215	18149.11
780.55	18282.22
780.884	18195.44
781.218	18134.88
781.552	18236.34
781.886	18211.71
782.22	18149.57
782.554	18095.1
782.888	18113.41
783.222	18153.18
783.556	18127.87
783.889	18152.95
784.223	17963.58
784.557	17954.54
784.89	18136.46
785.224	18059.62
785.557	17983.47
785.891	18097.59
786.224	17985.5
786.558	18067.99
786.891	17923.58
787.224	17887.65
787.557	17727.2
787.891	17899.18
788.224	17807.43
788.557	17865.73
788.89	17781.67
789.223	17872.74
789.556	17751.38
789.888	17766.75
790.221	17657.37
790.554	17557.26
790.887	17674.55
791.219	17683.59
791.552	17507.77
791.884	17497.83
792.217	17453.09
792.549	17521.79
792.882	17358.4
793.214	17261.23
793.546	17379.19
793.879	17268.01
794.211	17127.9
794.543	17260.55
794.875	17252.19
795.207	17280.21
795.539	17096.94
795.871	17170.61
796.203	17103.94
796.535	16952.31
796.867	17018.52
797.198	16948.92
797.53	16856.49
797.862	16781.92
798.193	16895.13
798.525	16748.7
798.856	16790.5
799.188	16662.82
799.519	16705.76
799.85	16553.45
800.182	16582.6
800.513	16607.46
800.844	16392.32
801.175	16556.16
801.506	16564.3
801.837	16503.51
802.168	16329.73
802.499	16413.79
802.83	16292.66
803.161	16264.87
803.491	16270.97
803.822	16202.72
804.153	16116.17
804.483	16085.21
804.814	16008.83
805.145	15996.85
805.475	15953.69
805.805	15943.07
806.136	15940.58
806.466	15911.66
806.796	15947.36
807.126	15856.29
807.457	15772.23
807.787	15809.29
808.117	15741.49
808.447	15541.72
808.777	15669.18
809.107	15549.63
809.436	15536.98
809.766	15503.98
810.096	15501.95
810.426	15420.6
810.755	15461.95
811.085	15382.86
811.414	15350.32
811.744	15268.96
812.073	15215.18
812.403	15307.83
812.732	15267.61
813.061	15249.3
813.39	15129.08
813.719	15089.98
814.049	15140.38
814.378	15084.34
814.707	15000.72
815.036	14991.68
815.365	15026.26
815.693	14803.89
816.022	14849.99
816.351	14839.82
816.68	14744.91
817.008	14843.89
817.337	14721.41
817.665	14758.92
817.994	14644.35
818.322	14676.66
818.651	14614.74
818.979	14563.9
819.307	14628.08
819.636	14646.15
819.964	14461.75
820.292	14579.94
820.62	14553.73
820.948	14511.02
821.276	14554.86
821.604	14556.21
821.932	14531.58
822.259	14471.24
822.587	14490.9
822.915	14454.75
823.243	14530.68
823.57	14502.2
823.898	14547.4
824.225	14495.88
824.553	14477.12
824.88	14512.82
825.207	14527.97
825.535	14482.54
825.862	14601.41
826.189	14557.12
826.516	14549.66
826.843	14474.18
827.17	14538.59
827.497	14659.94
827.824	14528.42
828.151	14527.29
828.478	14530.23
828.805	14584.01
829.131	14555.08
829.458	14469.89
829.785	14493.62
830.111	14452.26
830.438	14546.5
830.764	14438.25
831.09	14512.82
831.417	14464.01
831.743	14525.25
832.069	14512.6
832.395	14424.24
832.722	14515.54
833.048	14477.57
833.374	14495.42
833.7	14408.19
834.026	14523.9
834.351	14400.74
834.677	14393.51
835.003	14513.73
835.329	14412.04
835.654	14299.04
835.98	14311.7
836.306	14339.5
836.631	14217.92
836.956	14382.21
837.282	14232.38
837.607	14244.58
837.932	14213.4
838.258	14123.23
838.583	14190.35
838.908	14090.91
839.233	14168.2
839.558	14110.12
839.883	14050.24
840.208	13978.38
840.533	14038.49
840.858	13921.43
841.182	14108.99
841.507	13992.84
841.832	13894.76
842.156	13961.65
842.481	13952.84
842.805	13813.18
843.13	13814.54
843.454	13845.05
843.778	13757.36
844.103	13746.74
844.427	13726.4
844.751	13746.29
845.075	13699.96
845.399	13652.51
845.723	13569.57
846.047	13602.57
846.371	13426.53
846.695	13397.15
847.019	13325.96
847.343	13283.03
847.666	13282.8
847.99	13212.52
848.313	13139.75
848.637	13048.46
848.96	13001
849.284	13023.6
849.607	12985.86
849.931	12948.35
850.254	12854.34
850.577	12691.63
850.9	12632.87
851.223	12681.46
851.546	12552.88
851.869	12514.01
852.192	12503.61
852.515	12356.27
852.838	12389.94
853.161	12331.41
853.483	12316.27
853.806	12296.16
854.129	12191.08
854.451	12181.81
854.774	12144.53
855.096	12175.26
855.419	12103.85
855.741	12071.98
856.063	12031.99
856.385	12012.55
856.708	11961.71
857.03	11866.34
857.352	11902.95
857.674	11891.88
857.996	11775.27
858.318	11686.46
858.64	11670.41
858.961	11707.93
859.283	11668.83
859.605	11612.56
859.926	11601.49
860.248	11592.68
860.57	11604.2
860.891	11551.32
861.212	11436.97
861.534	11409.4
861.855	11443.3
862.176	11387.94
862.498	11370.53
862.819	11317.2
863.14	11294.38
863.461	11329.63
863.782	11277.66
864.103	11264.32
864.424	11194.27
864.745	11276.98
865.065	11206.47
865.386	11189.52
865.707	11142.97
866.027	11129.41
866.348	11079.69
866.668	11088.73
866.989	11137.32
867.309	11054.61
867.63	11070.88
867.95	11010.54
868.27	10923.54
868.59	11043.54
868.91	10935.52
869.23	10987.72
869.55	10907.5
869.87	10953.6
870.19	10951.79
870.51	10927.16
870.83	10926.25
871.15	10891
871.469	10821.4
871.789	10906.82
872.109	10826.59
872.428	10775.3
872.748	10845.35
873.067	10754.51
873.386	10804.9
873.706	10691.46
874.025	10667.73
874.344	10613.49
874.663	10687.61
874.982	10622.98
875.301	10625.92
875.62	10571.01
875.939	10596.09
876.258	10556.32
876.577	10550.44
876.896	10567.17
877.214	10509.09
877.533	10538.92
877.852	10477.45
878.17	10486.49
878.489	10461.41
878.807	10471.35
879.125	10401.07
879.444	10397.68
879.762	10418.47
880.08	10450.78
880.398	10283.56
880.716	10418.69
881.034	10334.86
881.352	10270.45
881.67	10230.68
881.988	10267.96
882.306	10190.45
882.624	10221.86
882.941	10129.89
883.259	10068.65
883.577	10153.39
883.894	10074.98
884.212	10112.26
884.529	10042.21
884.846	10070.68
885.164	9978.25
885.481	10034.52
885.798	10015.54
886.115	9897.8
886.432	9929.44
886.75	9854.87
887.067	9920.4
887.383	9790.91
887.7	9894.87
888.017	9787.75
888.334	9826.39
888.651	9744.14
888.967	9709.34
889.284	9704.36
889.6	9718.15
889.917	9610.58
890.233	9660.75
890.55	9522.9
890.866	9588.43
891.182	9585.72
891.498	9529
891.815	9483.58
892.131	9426.18
892.447	9416.46
892.763	9412.39
893.079	9389.34
893.395	9333.98
893.71	9248.1
894.026	9287.2
894.342	9250.82
894.657	9223.7
894.973	9159.97
895.289	9174.43
895.604	9192.06
895.92	9084.04
896.235	9016.92
896.55	9048.34
896.865	8991.84
897.181	8947.1
897.496	8996.59
897.811	8961.78
898.126	8949.13
898.441	8854.89
898.756	8865.52
899.071	8794.1
899.386	8741.68
899.7	8730.15
900.015	8728.8
900.33	8622.58
900.644	8575.13
900.959	8675.69
901.273	8540.55
901.588	8497.16
901.902	8507.33
902.216	8426.66
902.531	8470.5
902.845	8455.58
903.159	8392.08
903.473	8365.64
903.787	8305.98
904.101	8286.77
904.415	8244.29
904.729	8207.68
905.042	8104.63
905.356	8146.21
905.67	8230.96
905.984	8147.79
906.297	8063.05
906.611	8027.8
906.924	8048.59
907.237	7987.57
907.551	7980.57
907.864	7912.55
908.177	7904.86
908.491	7910.29
908.804	7820.35
909.117	7798.42
909.43	7783.51
909.743	7672.55
910.056	7726.79
910.368	7642.04
910.681	7635.72
910.994	7635.72
911.307	7594.81
911.619	7447.93
911.932	7506.46
912.244	7456.74
912.557	7451.54
912.869	7372.45
913.181	7417.87
913.494	7364.76
913.806	7287.03
914.118	7280.02
914.43	7195.28
914.742	7261.04
915.054	7219.91
915.366	7140.14
915.678	7121.38
915.99	7121.15
916.302	7052
916.613	7073.02
916.925	7054.72
917.236	7011.1
917.548	6950.31
917.859	7005.45
918.171	6901.95
918.482	6877.09
918.794	6852.91
919.105	6823.31
919.416	6762.97
919.727	6786.7
920.038	6751.67
920.349	6662.18
920.66	6730.43
920.971	6729.53
921.282	6666.7
921.593	6531.34
921.903	6584.45
922.214	6541.51
922.525	6526.14
922.835	6566.59
923.146	6494.05
923.456	6438.46
923.767	6386.03
924.077	6389.42
924.387	6353.72
924.697	6315.07
925.008	6308.97
925.318	6191.69
925.628	6290.44
925.938	6258.13
926.248	6176.55
926.558	6187.85
926.867	6170.67
927.177	6112.14
927.487	6094.74
927.796	6077.79
928.106	5998.25
928.416	6044.57
928.725	6015.42
929.034	6004.57
929.344	5953.28
929.653	5902.66
929.962	5841.41
930.271	5916.44
930.581	5844.8
930.89	5869.21
931.199	5820.4
931.508	5750.57
931.817	5766.84
932.125	5725.94
932.434	5725.49
932.743	5749.44
933.051	5616.56
933.36	5620.86
933.669	5614.75
933.977	5568.2
934.286	5605.04
934.594	5516.68
934.902	5549.9
935.21	5478.49
935.519	5477.58
935.827	5459.96
936.135	5404.36
936.443	5402.33
936.751	5391.26
937.059	5386.96
937.367	5336.57
937.674	5350.81
937.982	5298.83
938.29	5287.98
938.597	5243.69
938.905	5196.91
939.213	5227.87
939.52	5193.07
939.827	5166.18
940.135	5127.08
940.442	5146.29
940.749	5102.9
941.056	5104.71
941.363	5043.7
941.67	5048.89
941.977	4994.88
942.284	5010.02
942.591	4941.55
942.898	4982.23
943.205	4964.83
943.511	4940.65
943.818	4906.98
944.125	4875.34
944.431	4873.53
944.738	4878.28
945.044	4823.36
945.35	4811.84
945.657	4765.96
945.963	4744.49
946.269	4744.04
946.575	4692.97
946.881	4681.67
947.187	4680.09
947.493	4632.41
947.799	4631.28
948.105	4631.5
948.41	4587.44
948.716	4604.84
949.022	4550.83
949.327	4591.05
949.633	4492.75
949.938	4495.91
950.244	4484.16
950.549	4438.29
950.854	4404.62
951.16	4398.51
951.465	4411.17
951.77	4365.75
952.075	4374.11
952.38	4325.3
952.685	4326.65
952.99	4269.48
953.294	4301.79
953.599	4273.09
953.904	4262.47
954.209	4242.36
954.513	4235.35
954.818	4188.8
955.122	4172.98
955.426	4152.65
955.731	4141.35
956.035	4107.67
956.339	4104.96
956.643	4122.82
956.948	4070.39
957.252	4071.74
957.556	3997.39
957.86	4043.72
958.163	4013.21
958.467	3969.82
958.771	3988.81
959.075	3972.54
959.378	3974.57
959.682	3924.4
959.985	3930.05
960.289	3881.92
960.592	3906.78
960.896	3924.4
961.199	3847.57
961.502	3855.03
961.805	3827.68
962.108	3787.23
962.411	3782.26
962.714	3757.18
963.017	3773.9
963.32	3711.75
963.623	3687.57
963.926	3698.42
964.228	3645.99
964.531	3639.44
964.833	3679.44
965.136	3620.46
965.438	3613
965.741	3586.11
966.043	3540.68
966.345	3594.92
966.648	3552.66
966.95	3561.25
967.252	3505.66
967.554	3493.23
967.856	3488.93
968.158	3479.67
968.46	3473.11
968.761	3462.49
969.063	3422.95
969.365	3384.08
969.666	3397.41
969.968	3413.91
970.269	3392.67
970.571	3343.85
970.872	3306.11
971.174	3307.92
971.475	3304.08
971.776	3293.01
972.077	3267.7
972.378	3244.65
972.679	3280.35
972.98	3253.46
973.281	3230.86
973.582	3195.38
973.883	3200.81
974.183	3180.92
974.484	3142.28
974.785	3170.07
975.085	3138.89
975.386	3139.79
975.686	3110.41
975.986	3087.14
976.287	3096.18
976.587	3105.21
976.887	3052.33
977.187	3063.41
977.487	3037.19
977.787	3007.82
978.087	2968.72
978.387	3016.18
978.687	2983.64
978.987	2953.13
979.286	2958.78
979.586	2957.65
979.885	2916.07
980.185	2883.3
980.484	2881.27
980.784	2907.48
981.083	2864.09
981.382	2886.92
981.682	2844.88
981.981	2851.89
982.28	2830.42
982.579	2796.75
982.878	2768.73
983.177	2778.67
983.475	2798.78
983.774	2724.89
984.073	2737.09
984.372	2715.39
984.67	2700.48
984.969	2742.96
985.267	2685.56
985.566	2712.23
985.864	2682.63
986.162	2676.98
986.461	2645.11
986.759	2618
987.057	2646.47
987.355	2606.25
987.653	2616.41
987.951	2581.16
988.249	2596.98
988.547	2608.05
988.844	2544.78
989.142	2532.8
989.44	2521.28
989.737	2498.45
990.035	2525.12
990.332	2493.71
990.63	2494.61
990.927	2447.83
991.224	2450.32
991.521	2461.16
991.819	2429.53
992.116	2427.72
992.413	2396.31
992.71	2384.78
993.006	2433.37
993.303	2398.34
993.6	2355.63
993.897	2371.22
994.193	2366.03
994.49	2335.29
994.787	2331.22
995.083	2310.89
995.379	2323.99
995.676	2271.34
995.972	2303.88
996.268	2293.71
996.565	2217.55
996.861	2235.18
997.157	2269.76
997.453	2213.04
997.749	2208.06
998.044	2191.34
998.34	2178.91
998.636	2194.05
998.932	2150.89
999.227	2169.19
999.523	2126.48
999.818	2114.28
1000.114	2124.68
1000.409	2100.72
1000.704	2076.32
1001	2086.48
1001.295	2068.18
1001.59	2085.58
1001.885	2055.3
1002.18	2033.38
1002.475	2041.97
1002.77	2019.14
1003.065	2043.1
1003.359	1992.48
1003.654	2006.94
1003.949	1988.86
1004.243	1964.45
1004.538	1978.69
1004.832	1944.79
1005.127	1930.56
1005.421	1949.31
1005.715	1898.69
1006.009	1950.67
1006.304	1889.43
1006.598	1887.39
1006.892	1874.06
1007.186	1870.45
1007.48	1828.64
1007.773	1853.72
1008.067	1834.51
1008.361	1821.18
1008.655	1824.34
1008.948	1800.16
1009.242	1810.79
1009.535	1789.77
1009.829	1747.28
1010.122	1767.4
1010.415	1758.36
1010.708	1720.84
1011.001	1731.01
1011.295	1734.63
1011.588	1693.73
1011.881	1708.64
1012.173	1686.04
1012.466	1688.53
1012.759	1677.68
1013.052	1651.24
1013.344	1649.21
1013.637	1644.46
1013.93	1624.58
1014.222	1637.23
1014.514	1622.09
1014.807	1609.89
1015.099	1592.94
1015.391	1592.94
1015.683	1577.12
1015.976	1563.33
1016.268	1549.1
1016.56	1560.4
1016.851	1537.12
1017.143	1572.83
1017.435	1518.14
1017.727	1548.42
1018.018	1544.13
1018.31	1509.55
1018.602	1484.69
1018.893	1465.71
1019.185	1474.75
1019.476	1435.2
1019.767	1451.93
1020.058	1429.55
1020.35	1438.82
1020.641	1435.88
1020.932	1442.21
1021.223	1383.45
1021.514	1400.4
1021.804	1378.03
1022.095	1359.5
1022.386	1365.83
1022.677	1365.6
1022.967	1352.04
1023.258	1345.26
1023.548	1342.32
1023.839	1321.53
1024.129	1310.01
1024.419	1307.97
1024.709	1306.84
1025	1317.24
1025.29	1295.32
1025.58	1282.44
1025.87	1282.21
1026.16	1289.44
1026.449	1235.89
1026.739	1216
1027.029	1226.17
1027.319	1231.82
1027.608	1218.48
1027.898	1204.47
1028.187	1190.24
1028.477	1201.54
1028.766	1193.63
1029.055	1161.99
1029.344	1167.86
1029.634	1166.51
1029.923	1166.96
1030.212	1140.75
1030.501	1147.75
1030.79	1135.1
1031.078	1119.5
1031.367	1115.21
1031.656	1112.05
1031.945	1103.01
1032.233	1111.82
1032.522	1067.75
1032.81	1100.3
1033.099	1079.28
1033.387	1079.96
1033.675	1041.54
1033.963	1067.08
1034.251	1071.82
1034.54	1049.22
1034.828	1028.66
1035.116	1022.56
1035.403	1032.73
1035.691	1025.5
1035.979	1018.94
1036.267	1011.71
1036.554	988.66
1036.842	998.83
1037.129	975.78
1037.417	975.1
1037.704	972.39
1037.992	987.76
1038.279	955.44
1038.566	947.31
1038.853	947.31
1039.14	947.31
