Data from hue_240_FLMS001491_00057.txt Node
Date: Tue Feb 07 16:35:40 GMT 2017
User: dcchb
Spectrometer: FLMS00149
Trigger mode: 0
Integration Time (sec): 2.000000E-2
Scans to average: 10
Electric dark correction enabled: true
Nonlinearity correction enabled: false
Boxcar width: 0
XAxis mode: Wavelengths
Number of Pixels in Spectrum: 2048
>>>>>Begin Spectral Data<<<<<
341.393	-5.8
341.776	-5.8
342.16	-5.8
342.543	-72.24
342.927	-56.43
343.31	-69.76
343.693	-64.56
344.077	-65.24
344.46	-25.92
344.843	-49.19
345.226	-27.27
345.61	-31.57
345.993	-10.32
346.376	-10.1
346.759	-8.97
347.142	23.35
347.525	40.3
347.908	58.15
348.291	44.14
348.674	95.89
349.057	101.08
349.44	115.32
349.823	164.81
350.206	139.05
350.588	209.56
350.971	195.55
351.354	206.62
351.737	233.74
352.119	252.04
352.502	266.28
352.884	266.96
353.267	290.01
353.65	290.46
354.032	290.23
354.414	290.46
354.797	317.12
355.179	319.84
355.562	298.37
355.944	317.8
356.326	307.86
356.709	322.55
357.091	338.82
357.473	323.9
357.855	366.61
358.238	336.33
358.62	338.37
359.002	352.15
359.384	317.12
359.766	332.27
360.148	317.8
360.53	318.48
360.912	325.71
361.294	338.14
361.676	312.15
362.057	316.9
362.439	322.77
362.821	308.54
363.203	330.68
363.584	340.4
363.966	323.23
364.348	330.01
364.729	334.07
365.111	319.16
365.493	326.39
365.874	293.4
366.256	318.25
366.637	306.05
367.019	311.7
367.4	304.02
367.781	299.27
368.163	312.83
368.544	308.54
368.925	308.09
369.306	305.6
369.688	298.14
370.069	315.77
370.45	288.88
370.831	310.8
371.212	313.96
371.593	302.89
371.974	307.18
372.355	303.34
372.736	307.41
373.117	297.24
373.498	307.63
373.879	309.44
374.26	313.51
374.641	309.44
375.021	298.14
375.402	305.15
375.783	315.54
376.163	297.69
376.544	334.07
376.925	306.73
377.305	313.28
377.686	325.71
378.066	313.06
378.447	322.1
378.827	329.78
379.208	318.03
379.588	337.46
379.968	318.93
380.349	340.63
380.729	332.72
381.109	321.64
381.489	336.56
381.87	335.43
382.25	351.7
382.63	323.45
383.01	339.72
383.39	356.9
383.77	339.5
384.15	346.73
384.53	343.79
384.91	342.89
385.29	348.54
385.67	344.47
386.049	341.76
386.429	351.02
386.809	347.63
387.189	334.3
387.568	353.73
387.948	344.24
388.328	355.54
388.707	333.85
389.087	337.24
389.466	341.53
389.846	348.31
390.225	385.37
390.605	365.71
390.984	355.99
391.363	352.15
391.743	357.58
392.122	377.01
392.501	372.04
392.881	357.8
393.26	372.04
393.639	374.52
394.018	371.59
394.397	366.61
394.776	351.25
395.155	363.68
395.534	389.21
395.913	382.66
396.292	381.98
396.671	388.08
397.05	399.83
397.429	383.79
397.808	394.41
398.186	397.12
398.565	396.9
398.944	393.28
399.323	405.26
399.701	393.73
400.08	403
400.458	401.87
400.837	398.48
401.215	420.85
401.594	407.97
401.972	405.94
402.351	413.62
402.729	412.49
403.107	415.88
403.486	428.99
403.864	434.18
404.242	414.97
404.62	417.23
404.999	402.32
405.377	414.75
405.755	447.29
406.133	412.94
406.511	417.46
406.889	453.17
407.267	446.61
407.645	464.01
408.023	444.58
408.401	449.32
408.779	489.55
409.156	481.87
409.534	502.66
409.912	474.63
410.29	488.19
410.667	489.78
411.045	474.86
411.422	485.71
411.8	511.92
412.178	528.19
412.555	506.95
412.933	529.55
413.31	507.63
413.687	530.68
414.065	545.14
414.442	542.88
414.819	544.46
415.197	561.19
415.574	560.06
415.951	577.46
416.328	568.87
416.705	572.94
417.082	580.39
417.46	590.34
417.837	597.34
418.214	594.63
418.591	606.83
418.967	605.25
419.344	612.03
419.721	619.72
420.098	616.78
420.475	622.65
420.852	640.28
421.228	670.11
421.605	657.68
421.982	648.64
422.358	677.57
422.735	703.55
423.111	686.15
423.488	688.87
423.864	707.17
424.241	717.11
424.617	737.9
424.994	739.94
425.37	730.9
425.746	735.87
426.123	763.21
426.499	770.67
426.875	773.84
427.251	761.63
427.627	782.42
428.003	802.76
428.379	791.46
428.756	823.55
429.132	819.48
429.507	857.22
429.883	857
430.259	847.51
430.635	870.1
431.011	872.82
431.387	869.88
431.763	884.34
432.138	914.62
432.514	901.29
432.89	904.91
433.265	941.06
433.641	918.01
434.016	965.92
434.392	971.34
434.767	1005.92
435.143	1000.95
435.518	1017.9
435.894	1054.28
436.269	1022.19
436.644	1059.25
437.02	1092.25
437.395	1090.44
437.77	1126.82
438.145	1108.52
438.52	1132.92
438.895	1150.32
439.271	1152.36
439.646	1169.31
440.021	1182.41
440.395	1155.29
440.77	1195.52
441.145	1215.41
441.52	1224.45
441.895	1246.82
442.27	1242.3
442.645	1251.34
443.019	1293.6
443.394	1270.09
443.769	1287.49
444.143	1276.65
444.518	1310.09
444.892	1307.61
445.267	1304.22
445.641	1331.79
446.016	1357.78
446.39	1330.43
446.764	1320.94
447.139	1354.39
447.513	1363.42
447.887	1391.22
448.262	1403.2
448.636	1423.76
449.01	1411.33
449.384	1419.47
449.758	1448.85
450.132	1449.52
450.506	1462.18
450.88	1471.67
451.254	1466.7
451.628	1502.4
452.002	1495.4
452.376	1521.39
452.75	1525.45
453.123	1531.78
453.497	1536.98
453.871	1576.3
454.244	1597.99
454.618	1642.74
454.992	1627.37
455.365	1619.46
455.739	1655.85
456.112	1657.43
456.486	1667.15
456.859	1693.59
457.232	1726.13
457.606	1702.85
457.979	1752.79
458.352	1772.23
458.725	1788.95
459.099	1809.74
459.472	1846.58
459.845	1837.08
460.218	1850.42
460.591	1883.64
460.964	1909.85
461.337	1919.57
461.71	1956.18
462.083	1999.11
462.456	1976.06
462.829	1986.69
463.201	1991.2
463.574	2026.68
463.947	2035.5
464.32	2071.88
464.692	2086.8
465.065	2114.37
465.438	2116.85
465.81	2139.45
466.183	2164.76
466.555	2237.98
466.928	2226.9
467.3	2218.09
467.672	2258.99
468.045	2295.15
468.417	2328.82
468.789	2315.26
469.161	2365.88
469.534	2400.23
469.906	2442.04
470.278	2427.58
470.65	2464.86
471.022	2513.45
471.394	2543.28
471.766	2583.73
472.138	2608.14
472.51	2650.4
472.882	2646.1
473.253	2710.96
473.625	2733.11
473.997	2797.74
474.369	2818.53
474.74	2828.24
475.112	2865.98
475.484	2882.03
475.855	2951.86
476.227	2940.33
476.598	3066.88
476.97	3058.97
477.341	3123.15
477.713	3155.02
478.084	3190.95
478.455	3236.6
478.827	3248.12
479.198	3366.08
479.569	3345.29
479.94	3433.88
480.311	3458.96
480.682	3542.35
481.053	3589.35
481.424	3616.7
481.795	3651.73
482.166	3725.17
482.537	3763.36
482.908	3831.38
483.279	3821.67
483.65	3922.68
484.021	3952.06
484.391	4023.02
484.762	4027.76
485.133	4017.82
485.503	4139.62
485.874	4212.16
486.244	4261.43
486.615	4291.26
486.985	4321.54
487.356	4399.95
487.726	4370.13
488.097	4527.64
488.467	4506.17
488.837	4583.68
489.207	4607.63
489.578	4691.7
489.948	4770.34
490.318	4780.06
490.688	4790.45
491.058	4834.75
491.428	4853.73
491.798	4949.54
492.168	5087.17
492.538	5071.58
492.908	5089.2
493.278	5195.87
493.648	5133.72
494.017	5259.82
494.387	5262.98
494.757	5284.45
495.126	5375.07
495.496	5355.86
495.866	5332.81
496.235	5440.61
496.605	5414.84
496.974	5437.67
497.344	5509.76
497.713	5529.42
498.082	5587.04
498.452	5628.85
498.821	5598.12
499.19	5644.22
499.559	5669.3
499.928	5751.56
500.298	5734.61
500.667	5748.85
501.036	5780.48
501.405	5796.53
501.774	5801.5
502.143	5879.69
502.512	5886.92
502.88	5929.41
503.249	5960.82
503.618	5965.11
503.987	5982.06
504.356	5993.81
504.724	6027.48
505.093	5971.21
505.462	6036.3
505.83	6050.08
506.199	6105.22
506.567	6209.17
506.936	6116.75
507.304	6155.84
507.672	6220.47
508.041	6260.24
508.409	6221.6
508.777	6242.84
509.145	6328.72
509.514	6329.17
509.882	6298.66
510.25	6361.49
510.618	6351.77
510.986	6406
511.354	6418.88
511.722	6453.01
512.09	6488.04
512.458	6447.58
512.826	6539.33
513.193	6528.03
513.561	6509.05
513.929	6572.33
514.297	6556.28
514.664	6611.87
515.032	6610.97
515.4	6637.86
515.767	6663.62
516.135	6717.63
516.502	6653.91
516.869	6749.72
517.237	6740.23
517.604	6678.99
517.972	6784.98
518.339	6796.28
518.706	6772.1
519.073	6765.99
519.44	6810.51
519.808	6789.72
520.175	6840.12
520.542	6862.26
520.909	6869.27
521.276	6861.36
521.643	6904.07
522.009	6936.61
522.376	6963.5
522.743	6908.82
523.11	7048.47
523.477	7050.28
523.843	7034.01
524.21	7114.69
524.577	7149.71
524.943	7128.02
525.31	7096.16
525.676	7120.79
526.043	7128.24
526.409	7203.27
526.776	7215.02
527.142	7173.44
527.508	7185.87
527.874	7295.92
528.241	7318.52
528.607	7273.1
528.973	7300.44
529.339	7281.01
529.705	7343.15
530.071	7361.91
530.437	7290.05
530.803	7377.5
531.169	7382.48
531.535	7317.62
531.901	7375.92
532.267	7308.8
532.632	7386.77
532.998	7363.72
533.364	7370.95
533.73	7417.95
534.095	7426.32
534.461	7417.05
534.826	7410.05
535.192	7426.99
535.557	7442.13
535.923	7389.93
536.288	7427.9
536.653	7422.02
537.019	7387.22
537.384	7475.35
537.749	7443.26
538.114	7406.66
538.479	7408.92
538.845	7444.62
539.21	7379.76
539.575	7339.76
539.94	7411.85
540.305	7400.33
540.67	7353.78
541.034	7370.95
541.399	7400.1
541.764	7373.21
542.129	7396.03
542.494	7392.64
542.858	7414.56
543.223	7426.77
543.587	7356.71
543.952	7383.83
544.316	7401.68
544.681	7377.5
545.045	7390.38
545.41	7356.04
545.774	7323.95
546.138	7292.31
546.503	7364.62
546.867	7260.22
547.231	7306.55
547.595	7381.35
547.959	7308.35
548.324	7258.64
548.688	7322.59
549.052	7363.04
549.416	7333.21
549.779	7344.74
550.143	7240.11
550.507	7316.04
550.871	7285.3
551.235	7323.04
551.599	7327.34
551.962	7317.17
552.326	7283.95
552.689	7331.63
553.053	7319.65
553.417	7345.19
553.78	7329.6
554.143	7312.19
554.507	7258.86
554.87	7282.82
555.234	7361.23
555.597	7306.77
555.96	7302.03
556.323	7342.93
556.686	7350.61
557.05	7347.45
557.413	7366.43
557.776	7416.15
558.139	7379.54
558.502	7370.95
558.865	7481.46
559.228	7438.07
559.59	7450.04
559.953	7408.24
560.316	7458.41
560.679	7495.01
561.041	7526.2
561.404	7518.52
561.767	7549.7
562.129	7541.57
562.492	7615.46
562.854	7582.24
563.217	7546.09
563.579	7530.04
563.941	7672.19
564.304	7592.19
564.666	7674.22
565.028	7639.19
565.39	7673.32
565.753	7748.34
566.115	7785.4
566.477	7677.83
566.839	7749.92
567.201	7721.45
567.563	7791.28
567.925	7839.19
568.287	7833.31
568.648	7859.75
569.01	7922.8
569.372	7971.16
569.734	7851.84
570.095	7912.4
570.457	7947.43
570.819	7919.64
571.18	7964.83
571.542	8067.43
571.903	8057.94
572.265	8043.47
572.626	8056.58
572.987	8087.77
573.349	8119.63
573.71	8122.12
574.071	8116.92
574.432	8164.6
574.794	8186.52
575.155	8159.86
575.516	8174.54
575.877	8240.31
576.238	8256.58
576.599	8304.49
576.96	8287.99
577.32	8278.05
577.681	8388.55
578.042	8353.07
578.403	8320.3
578.763	8307.87
579.124	8376.57
579.485	8458.15
579.845	8401.88
580.206	8401.43
580.566	8400.98
580.927	8438.49
581.287	8486.63
581.648	8465.61
582.008	8486.18
582.368	8490.24
582.728	8565.72
583.089	8545.16
583.449	8548.32
583.809	8472.39
584.169	8541.09
584.529	8526.4
584.889	8622.22
585.249	8601.43
585.609	8548.32
585.969	8619.28
586.329	8617.25
586.688	8618.15
587.048	8634.19
587.408	8570.01
587.768	8612.5
588.127	8647.3
588.487	8639.84
588.846	8773.4
589.206	8676.45
589.565	8625.61
589.925	8740.63
590.284	8749.9
590.643	8708.09
591.003	8708.54
591.362	8715.32
591.721	8737.92
592.08	8772.95
592.44	8743.34
592.799	8723.91
593.158	8779.5
593.517	8751.03
593.876	8793.51
594.235	8754.87
594.593	8789.9
594.952	8744.47
595.311	8762.33
595.67	8811.14
596.029	8886.84
596.387	8857.24
596.746	8871.48
597.104	8867.63
597.463	8830.12
597.822	8834.64
598.18	8810.23
598.538	8828.31
598.897	8916.22
599.255	8827.86
599.613	8928.42
599.972	8922.32
600.33	8905.83
600.688	8812.72
601.046	8898.82
601.404	8963.68
601.762	8912.15
602.12	8991.47
602.478	9009.33
602.836	9002.77
603.194	8972.04
603.552	8951.02
603.91	8888.65
604.268	8975.88
604.625	8878.48
604.983	8944.92
605.341	8881.87
605.698	8941.76
606.056	8969.1
606.413	9006.16
606.771	9037.12
607.128	9093.84
607.485	8983.34
607.843	9016.33
608.2	9085.93
608.557	9026.5
608.914	9099.72
609.272	9090.23
609.629	9088.87
609.986	9177
610.343	9045.93
610.7	9177.23
611.057	9155.76
611.414	9122.32
611.771	9102.2
612.127	9169.1
612.484	9212.48
612.841	9187.63
613.198	9154.86
613.554	9120.06
613.911	9188.53
614.267	9240.28
614.624	9196.44
614.98	9219.94
615.337	9284.8
615.693	9232.14
616.05	9257.23
616.406	9266.72
616.762	9268.53
617.118	9240.05
617.475	9186.5
617.831	9249.32
618.187	9309.88
618.543	9273.05
618.899	9241.64
619.255	9295.42
619.611	9288.19
619.967	9351.69
620.323	9320.05
620.678	9331.58
621.034	9240.05
621.39	9302.42
621.746	9253.84
622.101	9416.55
622.457	9353.72
622.812	9386.49
623.168	9350.33
623.523	9358.69
623.879	9356.21
624.234	9302.65
624.589	9357.56
624.945	9394.4
625.3	9284.8
625.655	9323.67
626.01	9340.39
626.365	9292.48
626.72	9340.62
627.075	9349.2
627.43	9319.6
627.785	9305.59
628.14	9292.03
628.495	9308.53
628.85	9353.27
629.205	9193.73
629.559	9252.93
629.914	9248.19
630.269	9261.75
630.623	9224.23
630.978	9214.74
631.332	9294.52
631.687	9355.08
632.041	9259.49
632.396	9261.75
632.75	9227.4
633.104	9220.62
633.459	9148.98
633.813	9165.48
634.167	9200.96
634.521	9159.15
634.875	9118.93
635.229	9168.87
635.583	9055.65
635.937	9154.63
636.291	9098.59
636.645	9126.61
636.999	9106.27
637.352	9118.7
637.706	8989.21
638.06	9078.25
638.413	9017.69
638.767	8976.33
639.121	9017.23
639.474	8990.12
639.828	9040.96
640.181	8956.22
640.534	9054.3
640.888	8999.83
641.241	8900.18
641.594	8975.88
641.947	8977.01
642.301	8887.07
642.654	8913.06
643.007	8944.69
643.36	8922.1
643.713	8847.97
644.066	8890.68
644.419	8836.22
644.771	8824.02
645.124	8744.7
645.477	8722.78
645.83	8683.01
646.182	8621.76
646.535	8601.43
646.888	8629.67
647.24	8579.96
647.593	8625.15
647.945	8613.4
648.298	8543.35
648.65	8525.27
649.002	8565.5
649.355	8558.04
649.707	8530.92
650.059	8541.54
650.411	8687.98
650.763	8731.14
651.115	8827.41
651.467	8805.04
651.819	8768.2
652.171	8782.89
652.523	8752.16
652.875	8722.33
653.227	8723.68
653.578	8728.65
653.93	8707.86
654.282	8650.24
654.633	8690.24
654.985	8734.3
655.337	8680.52
655.688	8640.07
656.039	8631.93
656.391	8647.3
656.742	8641.43
657.094	8660.18
657.445	8680.97
657.796	8675.77
658.147	8687.3
658.498	8674.42
658.849	8752.83
659.2	8703.34
659.551	8636
659.902	8672.38
660.253	8751.25
660.604	8709.9
660.955	8701.54
661.306	8711.03
661.656	8708.32
662.007	8729.33
662.358	8744.02
662.708	8696.79
663.059	8698.82
663.409	8640.07
663.76	8707.64
664.11	8699.5
664.461	8698.82
664.811	8658.37
665.161	8712.16
665.511	8701.99
665.862	8657.7
666.212	8755.09
666.562	8752.38
666.912	8710.8
667.262	8665.38
667.612	8657.24
667.962	8659.05
668.312	8666.96
668.662	8755.09
669.011	8723.68
669.361	8633.52
669.711	8640.3
670.06	8630.58
670.41	8662.89
670.76	8652.05
671.109	8702.44
671.459	8644.14
671.808	8614.99
672.157	8603.91
672.507	8632.84
672.856	8663.57
673.205	8570.01
673.554	8642.1
673.904	8570.92
674.253	8614.99
674.602	8643.01
674.951	8501.54
675.3	8490.24
675.649	8518.72
675.998	8481.66
676.346	8497.47
676.695	8599.39
677.044	8523.01
677.393	8472.84
677.741	8509.45
678.09	8498.6
678.438	8472.39
678.787	8507.19
679.135	8501.99
679.484	8353.52
679.832	8413.18
680.181	8353.07
680.529	8451.37
680.877	8423.58
681.225	8401.66
681.573	8490.02
681.922	8422.45
682.27	8364.37
682.618	8333.86
682.966	8287.08
683.314	8350.81
683.661	8313.3
684.009	8217.93
684.357	8204.6
684.705	8258.38
685.053	8244.37
685.4	8247.31
685.748	8212.06
686.095	8203.92
686.443	8153.75
686.79	8128.22
687.138	8085.51
687.485	8134.32
687.832	8141.33
688.18	8129.57
688.527	8057.49
688.874	8010.71
689.221	8030.59
689.568	7970.48
689.915	8002.12
690.262	7939.75
690.609	7932.07
690.956	7878.06
691.303	7950.6
691.65	7872.63
691.997	7888.22
692.344	7795.12
692.69	7885.96
693.037	7844.84
693.383	7805.06
693.73	7756.25
694.077	7737.95
694.423	7663.15
694.769	7629.93
695.116	7712.64
695.462	7661.56
695.808	7633.77
696.155	7572.53
696.501	7565.3
696.847	7574.33
697.193	7500.89
697.539	7523.71
697.885	7458.18
698.231	7468.57
698.577	7474.68
698.923	7471.74
699.269	7333.21
699.614	7326.43
699.96	7347.45
700.306	7339.99
700.651	7283.72
700.997	7202.82
701.342	7269.71
701.688	7238.75
702.033	7212.76
702.379	7186.77
702.724	7086.21
703.069	7128.92
703.415	7067.46
703.76	7082.6
704.105	7104.74
704.45	7096.83
704.795	7020
705.14	6995.37
705.485	6989.94
705.83	7042.6
706.175	6948.14
706.52	6969.6
706.865	6943.62
707.209	6907.23
707.554	6860.23
707.899	6870.62
708.243	6872.21
708.588	6816.84
708.932	6800.34
709.277	6808.03
709.621	6795.6
709.966	6749.27
710.31	6725.32
710.654	6698.65
710.998	6723.28
711.342	6712.44
711.687	6666.11
712.031	6649.16
712.375	6621.37
712.719	6635.6
713.063	6632.66
713.407	6662.72
713.75	6650.74
714.094	6664.98
714.438	6563.74
714.782	6597.86
715.125	6554.25
715.469	6541.82
715.812	6523.29
716.156	6553.8
716.499	6466.34
716.843	6534.36
717.186	6478.77
717.53	6466.57
717.873	6526.23
718.216	6475.83
718.559	6443.29
718.902	6431.99
719.246	6417.75
719.589	6416.4
719.932	6330.75
720.275	6400.35
720.617	6351.09
720.96	6398.09
721.303	6414.37
721.646	6361.49
721.989	6375.72
722.331	6382.95
722.674	6347.7
723.016	6298.66
723.359	6324.2
723.701	6345.44
724.044	6303.86
724.386	6294.14
724.729	6283.52
725.071	6304.54
725.413	6302.05
725.755	6306.35
726.097	6242.17
726.439	6232.22
726.782	6248.49
727.124	6255.73
727.465	6229.74
727.807	6187.93
728.149	6253.92
728.491	6255.95
728.833	6243.3
729.175	6210.3
729.516	6215.95
729.858	6213.24
730.199	6271.54
730.541	6181.15
730.882	6213.01
731.224	6211.21
731.565	6184.31
731.906	6205.56
732.248	6120.36
732.589	6161.72
732.93	6139.12
733.271	6150.87
733.612	6183.64
733.953	6137.76
734.294	6142.51
734.635	6138.44
734.976	6203.3
735.317	6147.93
735.658	6129.85
735.999	6137.99
736.339	6143.19
736.68	6206.01
737.021	6149.06
737.361	6140.47
737.702	6173.02
738.042	6141.15
738.383	6149.97
738.723	6139.57
739.063	6101.83
739.404	6155.39
739.744	6193.13
740.084	6150.19
740.424	6124.88
740.764	6180.25
741.104	6181.15
741.444	6195.39
741.784	6154.49
742.124	6262.28
742.464	6187.7
742.804	6206.24
743.143	6137.99
743.483	6237.19
743.823	6138.67
744.162	6190.19
744.502	6291.88
744.841	6279.91
745.181	6330.53
745.52	6300.47
745.86	6310.19
746.199	6338.66
746.538	6359
746.877	6367.13
747.216	6402.61
747.556	6408.26
747.895	6451.88
748.234	6428.83
748.573	6493.91
748.911	6503.63
749.25	6542.05
749.589	6518.77
749.928	6641.03
750.267	6634.47
750.605	6679.89
750.944	6760.57
751.283	6718.54
751.621	6777.75
751.96	6808.71
752.298	6919.21
752.636	6915.59
752.975	6941.58
753.313	6976.38
753.651	7082.6
753.989	7093.22
754.327	7214.12
754.666	7204.4
755.004	7322.14
755.342	7429.03
755.679	7423.83
756.017	7519.42
756.355	7615.69
756.693	7763.03
757.031	7790.83
757.368	7820.66
757.706	7941.1
758.044	7973.65
758.381	8036.02
758.719	8115.79
759.056	8158.05
759.394	8285.5
759.731	8374.77
760.068	8474.2
760.405	8540.19
760.743	8619.96
761.08	8770.46
761.417	8802.55
761.754	8984.92
762.091	9014.97
762.428	9126.16
762.765	9145.14
763.102	9324.12
763.438	9385.13
763.775	9394.4
764.112	9530.22
764.449	9678.91
764.785	9663.55
765.122	9743.32
765.458	9820.83
765.795	9995.29
766.131	10008.85
766.467	10085.91
766.804	10079.58
767.14	10184.89
767.476	10307.14
767.812	10354.6
768.148	10459
768.485	10442.73
768.821	10456.74
769.157	10604.09
769.492	10634.14
769.828	10758.88
770.164	10694.48
770.5	10771.09
770.836	10866.45
771.171	10808.37
771.507	10884.53
771.842	10908.48
772.178	10948.03
772.513	11019.44
772.849	11133.11
773.184	11027.8
773.519	11139.66
773.855	11118.42
774.19	11145.54
774.525	11211.53
774.86	11294.24
775.195	11324.52
775.53	11309.15
775.865	11207.23
776.2	11244.75
776.535	11209.04
776.87	11280.23
777.205	11323.16
777.539	11219.44
777.874	11312.99
778.209	11298.98
778.543	11331.98
778.878	11223.05
779.212	11405.65
779.547	11358.19
779.881	11429.37
780.215	11308.93
780.55	11353.9
780.884	11336.95
781.218	11360.22
781.552	11335.82
781.886	11283.62
782.22	11331.98
782.554	11301.69
782.888	11297.17
783.222	11234.58
783.556	11237.29
783.889	11239.1
784.223	11160.91
784.557	11178.99
784.89	11268.7
785.224	11128.37
785.557	11225.09
785.891	11095.6
786.224	11192.77
786.558	11143.96
786.891	11084.3
787.224	11055.15
787.557	11061.7
787.891	11022.15
788.224	11077.29
788.557	11045.2
788.89	11076.62
789.223	11056.73
789.556	10946.68
789.888	10948.94
790.221	10929.27
790.554	10778.09
790.887	10866.68
791.219	10906.9
791.552	10847.02
791.884	10749.84
792.217	10771.76
792.549	10773.35
792.882	10684.76
793.214	10669.39
793.546	10683.63
793.879	10597.31
794.211	10552.79
794.543	10606.35
794.875	10628.72
795.207	10651.54
795.539	10516.63
795.871	10547.59
796.203	10480.25
796.535	10459
796.867	10483.64
797.198	10462.62
797.53	10428.05
797.862	10294.26
798.193	10400.48
798.525	10368.16
798.856	10363.19
799.188	10219.91
799.519	10216.53
799.85	10148.73
800.182	10200.25
800.513	10239.35
800.844	10064.89
801.175	10143.08
801.506	10127.94
801.837	9999.58
802.168	10087.49
802.499	9990.32
802.83	10040.94
803.161	10017.43
803.491	9999.58
803.822	9979.02
804.153	9910.32
804.483	9860.83
804.814	9818.12
805.145	9863.99
805.475	9833.03
805.805	9736.76
806.136	9774.73
806.466	9779.25
806.796	9769.31
807.126	9692.92
807.457	9699.7
807.787	9741.74
808.117	9608.41
808.447	9700.15
808.777	9626.94
809.107	9603.89
809.436	9583.77
809.766	9553.72
810.096	9512.59
810.426	9514.17
810.755	9484.12
811.085	9503.78
811.414	9459.93
811.744	9436.88
812.073	9401.18
812.403	9413.61
812.732	9297
813.061	9322.99
813.39	9292.93
813.719	9278.7
814.049	9353.27
814.378	9314.4
814.707	9259.71
815.036	9229.88
815.365	9230.34
815.693	9165.71
816.022	9142.2
816.351	9125.48
816.68	9071.47
817.008	9166.61
817.337	9063.11
817.665	9068.08
817.994	9095.2
818.322	9005.03
818.651	8996.22
818.979	8996.9
819.307	8982.21
819.636	9013.17
819.964	8935.88
820.292	9007.52
820.62	8956.45
820.948	8916.45
821.276	8958.25
821.604	8870.8
821.932	8977.24
822.259	8943.79
822.587	8969.1
822.915	8935.2
823.243	8861.53
823.57	8894.53
823.898	8856.79
824.225	8894.07
824.553	8916.67
824.88	8904.24
825.207	8930.68
825.535	8887.97
825.862	8944.24
826.189	8885.26
826.516	8913.73
826.843	8913.28
827.17	8925.71
827.497	8970.46
827.824	8940.85
828.151	8920.74
828.478	8959.16
828.805	8985.15
829.131	8889.33
829.458	8941.53
829.785	8916.45
830.111	8897.69
830.438	8914.41
830.764	8920.29
831.09	8909.21
831.417	8888.2
831.743	8956.45
832.069	8921.64
832.395	8860.63
832.722	8891.59
833.048	8819.27
833.374	8899.27
833.7	8864.24
834.026	8837.8
834.351	8911.47
834.677	8899.72
835.003	8870.57
835.329	8875.09
835.654	8818.14
835.98	8852.95
836.306	8805.26
836.631	8829.89
836.956	8813.17
837.282	8786.73
837.607	8806.39
837.932	8744.7
838.258	8800.74
838.583	8754.42
838.908	8725.04
839.233	8712.16
839.558	8735.89
839.883	8680.07
840.208	8621.76
840.533	8652.5
840.858	8562.56
841.182	8596.23
841.507	8533.86
841.832	8604.14
842.156	8582.44
842.481	8611.82
842.805	8535.89
843.13	8494.08
843.454	8523.24
843.778	8493.18
844.103	8471.49
844.427	8471.94
844.751	8398.27
845.075	8427.42
845.399	8417.7
845.723	8356.69
846.047	8388.55
846.371	8291.15
846.695	8310.13
847.019	8205.96
847.343	8240.98
847.666	8143.59
847.99	8112.17
848.313	8083.47
848.637	8051.84
848.96	8062.46
849.284	8034.21
849.607	8006.19
849.931	7955.34
850.254	7872.41
850.577	7906.08
850.9	7825.85
851.223	7849.58
851.546	7825.85
851.869	7737.95
852.192	7744.95
852.515	7654.33
852.838	7669.25
853.161	7649.81
853.483	7633.54
853.806	7587.89
854.129	7562.58
854.451	7503.83
854.774	7547.44
855.096	7524.39
855.419	7540.66
855.741	7431.06
856.063	7418.86
856.385	7425.64
856.708	7424.28
857.03	7364.17
857.352	7398.52
857.674	7316.04
857.996	7282.59
858.318	7287.56
858.64	7258.64
858.961	7279.88
859.283	7175.48
859.605	7217.96
859.926	7199.66
860.248	7225.19
860.57	7124.63
860.891	7202.37
861.212	7064.52
861.534	7109.71
861.855	7078.75
862.176	7022.71
862.498	7066.55
862.819	7091.41
863.14	7015.48
863.461	7023.16
863.782	6967.35
864.103	6973.67
864.424	7038.76
864.745	6969.83
865.065	6985.2
865.386	6886.22
865.707	6950.62
866.027	6911.3
866.348	6947.46
866.668	6934.8
866.989	6951.3
867.309	6844.86
867.63	6869.49
867.95	6900
868.27	6857.74
868.59	6805.09
868.91	6802.6
869.23	6869.04
869.55	6805.32
869.87	6904.97
870.19	6773
870.51	6824.98
870.83	6806.22
871.15	6733
871.469	6743.4
871.789	6814.81
872.109	6686
872.428	6745.2
872.748	6739.78
873.067	6708.59
873.386	6709.95
873.706	6717.41
874.025	6663.85
874.344	6638.31
874.663	6692.32
874.982	6589.28
875.301	6632.66
875.62	6611.42
875.939	6649.39
876.258	6580.91
876.577	6627.69
876.896	6610.52
877.214	6525.1
877.533	6512.44
877.852	6577.07
878.17	6517.87
878.489	6526.9
878.807	6491.43
879.125	6477.41
879.444	6495.04
879.762	6540.69
880.08	6501.82
880.398	6455.72
880.716	6463.63
881.034	6443.52
881.352	6412.56
881.67	6428.38
881.988	6326.01
882.306	6394.03
882.624	6374.37
882.941	6332.79
883.259	6333.46
883.577	6312.45
883.894	6303.86
884.212	6330.3
884.529	6311.09
884.846	6237.42
885.164	6235.16
885.481	6227.03
885.798	6224.99
886.115	6133.24
886.432	6175.73
886.75	6186.35
887.067	6217.08
887.383	6139.34
887.7	6196.97
888.017	6131.66
888.334	6177.99
888.651	6086.46
888.967	6122.17
889.284	6080.14
889.6	6061.38
889.917	5989.74
890.233	6057.09
890.55	5959.91
890.866	6034.49
891.182	5962.63
891.498	5948.16
891.815	5960.37
892.131	5885.57
892.447	5917.88
892.763	5893.7
893.079	5922.63
893.395	5869.75
893.71	5895.06
894.026	5865.68
894.342	5845.34
894.657	5782.07
894.973	5758.79
895.289	5731.9
895.604	5771.67
895.92	5745.68
896.235	5705.68
896.55	5702.97
896.865	5659.36
897.181	5688.73
897.496	5677.66
897.811	5677.44
898.126	5635.85
898.441	5583.43
898.756	5552.69
899.071	5580.94
899.386	5545.46
899.7	5521.73
900.015	5535.52
900.33	5448.06
900.644	5380.95
900.959	5480.83
901.273	5409.42
901.588	5383.66
901.902	5406.03
902.216	5377.33
902.531	5394.05
902.845	5326.71
903.159	5309.99
903.473	5338.01
903.787	5246.71
904.101	5265.47
904.415	5200.61
904.729	5241.29
905.042	5206.04
905.356	5209.43
905.67	5192.02
905.984	5164.68
906.297	5122.87
906.611	5086.04
906.924	5107.28
907.237	5113.16
907.551	5100.5
907.864	5046.04
908.177	5058.47
908.491	5002.2
908.804	4960.84
909.117	4965.14
909.43	4949.77
909.743	4887.17
910.056	4905.03
910.368	4925.82
910.681	4860.28
910.994	4826.61
911.307	4844.91
911.619	4797.46
911.932	4802.2
912.244	4742.54
912.557	4721.53
912.869	4754.3
913.181	4710
913.494	4771.47
913.806	4663.22
914.118	4659.84
914.43	4641.08
914.742	4616.45
915.054	4632.94
915.366	4586.62
915.678	4525.15
915.99	4550.46
916.302	4517.24
916.613	4510.46
916.925	4483.34
917.236	4470.24
917.548	4460.97
917.859	4452.83
918.171	4430.91
918.482	4408.32
918.794	4347.75
919.105	4356.57
919.416	4362.22
919.727	4324.7
920.038	4327.87
920.349	4324.48
920.66	4258.04
920.971	4286.29
921.282	4296.91
921.593	4223.24
921.903	4208.32
922.214	4216
922.525	4204.03
922.835	4166.29
923.146	4142.79
923.456	4128.78
923.767	4101.21
924.077	4105.95
924.387	4078.16
924.697	4135.1
925.008	4037.7
925.318	4065.95
925.628	4001.77
925.938	4027.08
926.248	3962.68
926.558	3977.59
926.867	3971.49
927.177	3956.58
927.487	3954.32
927.796	3913.87
928.106	3907.99
928.416	3889.91
928.725	3867.09
929.034	3840.65
929.344	3886.07
929.653	3813.98
929.962	3793.64
930.271	3816.02
930.581	3758.39
930.89	3761.33
931.199	3760.2
931.508	3698.73
931.817	3748.9
932.125	3712.74
932.434	3679.75
932.743	3645.62
933.051	3676.81
933.36	3646.08
933.669	3580.77
933.977	3600.88
934.286	3594.1
934.594	3557.49
934.902	3559.3
935.21	3587.77
935.519	3588.68
935.827	3550.03
936.135	3511.84
936.443	3491.05
936.751	3496.25
937.059	3468.68
937.367	3446.08
937.674	3437.27
937.982	3423.71
938.29	3412.64
938.597	3392.98
938.905	3377.83
939.213	3342.58
939.52	3350.49
939.827	3368.57
940.135	3313.88
940.442	3352.3
940.749	3357.5
941.056	3327.67
941.363	3310.72
941.67	3285.63
941.977	3265.75
942.284	3231.85
942.591	3234.79
942.898	3219.65
943.205	3226.88
943.511	3198.4
943.818	3220.32
944.125	3152.08
944.431	3131.74
944.738	3133.1
945.044	3140.1
945.35	3113.44
945.657	3110.05
945.963	3087.22
946.269	3083.61
946.575	3072.53
946.881	3063.04
947.187	3042.02
947.493	3038.63
947.799	2992.08
948.105	3005.42
948.41	3005.42
948.716	2976.04
949.022	2958.18
949.327	2992.53
949.633	2921.8
949.938	2954.8
950.244	2924.29
950.549	2927.9
950.854	2923.38
951.16	2883.61
951.465	2877.51
951.77	2819.88
952.075	2863.27
952.38	2856.72
952.685	2838.64
952.99	2825.53
953.294	2773.56
953.599	2788.7
953.904	2750.05
954.209	2771.75
954.513	2752.31
954.818	2734.69
955.122	2757.96
955.426	2746.21
955.731	2719.55
956.035	2709.6
956.339	2689.49
956.643	2657.63
956.948	2648.36
957.252	2679.32
957.556	2647.68
957.86	2650.62
958.163	2606.56
958.467	2609.49
958.771	2613.11
959.075	2595.48
959.378	2573.56
959.682	2591.64
959.985	2552.55
960.289	2554.58
960.592	2572.88
960.896	2566.1
961.199	2525.65
961.502	2522.72
961.805	2502.6
962.108	2500.8
962.411	2495.82
962.714	2510.06
963.017	2455.6
963.32	2481.59
963.623	2444.75
963.926	2442.04
964.228	2456.73
964.531	2450.85
964.833	2416.96
965.136	2400.91
965.438	2365.43
965.741	2364.3
966.043	2360.69
966.345	2342.61
966.648	2324.76
966.95	2336.51
967.252	2300.58
967.554	2303.51
967.856	2339.22
968.158	2331.08
968.46	2287.92
968.761	2276.39
969.063	2243.18
969.365	2257.64
969.666	2223.51
969.968	2240.92
970.269	2256.73
970.571	2238.88
970.872	2242.95
971.174	2193.46
971.475	2190.3
971.776	2179.9
972.077	2201.37
972.378	2208.83
972.679	2168.83
972.98	2159.56
973.281	2139.22
973.582	2151.43
973.883	2155.27
974.183	2130.86
974.484	2110.07
974.785	2160.47
975.085	2105.33
975.386	2096.51
975.686	2097.19
975.986	2069.85
976.287	2075.27
976.587	2042.73
976.887	2041.82
977.187	2063.07
977.487	2026.23
977.787	2026.46
978.087	2027.14
978.387	2009.96
978.687	1988.27
978.987	1977.65
979.286	1988.27
979.586	1968.83
979.885	1950.53
980.185	1955.73
980.484	1961.15
980.784	1914.6
981.083	1934.03
981.382	1920.02
981.682	1908.27
981.981	1896.29
982.28	1913.92
982.579	1903.75
982.878	1884.99
983.177	1875.73
983.475	1854.26
983.774	1859.68
984.073	1837.76
984.372	1870.98
984.67	1815.62
984.969	1836.18
985.267	1845.9
985.566	1844.09
985.864	1798.22
986.162	1808.16
986.461	1791.89
986.759	1788.72
987.057	1787.82
987.355	1777.2
987.653	1766.13
987.951	1758.44
988.249	1767.48
988.547	1713.92
988.844	1747.37
989.142	1721.83
989.44	1735.39
989.737	1727.48
990.035	1696.75
990.332	1702.85
990.63	1670.76
990.927	1684.32
991.224	1699.91
991.521	1685
991.819	1660.59
992.116	1691.55
992.413	1658.56
992.71	1638.45
993.006	1626.69
993.303	1662.17
993.6	1634.6
993.897	1609.52
994.193	1622.85
994.49	1572.68
994.787	1588.73
995.083	1575.62
995.379	1568.39
995.676	1572.23
995.972	1515.96
996.268	1558.67
996.565	1552.57
996.861	1544.66
997.157	1559.8
997.453	1543.53
997.749	1553.02
998.044	1502.86
998.34	1520.93
998.636	1482.52
998.932	1512.35
999.227	1493.14
999.523	1478.45
999.818	1479.58
1000.114	1460.37
1000.409	1513.93
1000.704	1441.61
1001	1474.61
1001.295	1419.47
1001.59	1416.08
1001.885	1440.48
1002.18	1430.99
1002.475	1400.03
1002.77	1398
1003.065	1415.17
1003.359	1370.43
1003.654	1368.17
1003.949	1348.96
1004.243	1364.55
1004.538	1371.56
1004.832	1360.71
1005.127	1387.83
1005.421	1326.82
1005.715	1320.26
1006.009	1347.15
1006.304	1333.82
1006.598	1320.71
1006.892	1321.62
1007.186	1310.09
1007.48	1281.39
1007.773	1301.05
1008.067	1280.94
1008.361	1258.34
1008.655	1255.18
1008.948	1249.3
1009.242	1249.53
1009.535	1241.39
1009.829	1260.15
1010.122	1221.51
1010.415	1214.95
1010.708	1254.95
1011.001	1226.71
1011.295	1214.28
1011.588	1209.98
1011.881	1203.43
1012.173	1172.47
1012.466	1178.12
1012.759	1182.41
1013.052	1171.34
1013.344	1153.94
1013.637	1154.39
1013.93	1167.72
1014.222	1161.62
1014.514	1135.86
1014.807	1165.01
1015.099	1116.43
1015.391	1127.5
1015.683	1125.92
1015.976	1121.4
1016.268	1096.31
1016.56	1093.15
1016.851	1114.62
1017.143	1081.62
1017.435	1080.72
1017.727	1091.57
1018.018	1088.4
1018.31	1059.03
1018.602	1059.93
1018.893	1059.03
1019.185	1030.1
1019.476	1078.01
1019.767	1045.47
1020.058	1009.08
1020.35	1035.3
1020.641	1006.37
1020.932	1023.55
1021.223	1033.04
1021.514	1008.18
1021.804	1008.86
1022.095	1000.27
1022.386	972.02
1022.677	959.37
1022.967	970.89
1023.258	965.24
1023.548	965.02
1023.839	975.41
1024.129	949.42
1024.419	946.71
1024.709	930.89
1025	937.67
1025.29	955.3
1025.58	919.59
1025.87	913.72
1026.16	914.62
1026.449	905.81
1026.739	918.46
1027.029	922.98
1027.319	891.12
1027.608	875.75
1027.898	896.09
1028.187	895.87
1028.477	889.54
1028.766	856.32
1029.055	884.57
1029.344	891.12
1029.634	858.58
1029.923	870.56
1030.212	859.48
1030.501	845.02
1030.79	843.44
1031.078	833.5
1031.367	850.44
1031.656	822.42
1031.945	834.17
1032.233	798.47
1032.522	807.96
1032.81	819.03
1033.099	810.9
1033.387	808.64
1033.675	805.47
1033.963	784.23
1034.251	801.41
1034.54	791.01
1034.828	789.65
1035.116	765.47
1035.403	762.31
1035.691	781.97
1035.979	774.51
1036.267	764.57
1036.554	735.64
1036.842	738.81
1037.129	746.04
1037.417	763.89
1037.704	746.49
1037.992	711.01
1038.279	734.97
1038.566	732.03
1038.853	732.03
1039.14	732.03
