Data from hue_28_FLMS001491_00031.txt Node
Date: Tue Feb 07 17:17:11 GMT 2017
User: dcchb
Spectrometer: FLMS00149
Trigger mode: 0
Integration Time (sec): 2.000000E-2
Scans to average: 10
Electric dark correction enabled: true
Nonlinearity correction enabled: false
Boxcar width: 0
XAxis mode: Wavelengths
Number of Pixels in Spectrum: 2048
>>>>>Begin Spectral Data<<<<<
341.393	-22.12
341.776	-22.12
342.16	-22.12
342.543	-75.9
342.927	-34.1
343.31	-53.98
343.693	-83.81
344.077	-71.38
344.46	-56.02
344.843	-62.57
345.226	-27.54
345.61	-35.68
345.993	-31.84
346.376	-11.95
346.759	-4.04
347.142	36.41
347.525	32.34
347.908	56.07
348.291	81.38
348.674	94.26
349.057	138.33
349.44	136.75
349.823	125.45
350.206	165.22
350.588	196.63
350.971	197.76
351.354	204.54
351.737	230.53
352.119	226.91
352.502	260.81
352.884	249.51
353.267	267.82
353.65	295.84
354.032	279.12
354.414	303.07
354.797	311.88
355.179	318.44
355.562	328.38
355.944	335.16
356.326	325.67
356.709	332.67
357.091	322.96
357.473	337.87
357.855	337.19
358.238	349.17
358.62	334.03
359.002	343.07
359.384	346.46
359.766	368.15
360.148	339.23
360.53	339
360.912	334.93
361.294	325.67
361.676	329.06
362.057	351.66
362.439	343.07
362.821	353.24
363.203	343.07
363.584	341.49
363.966	322.96
364.348	317.31
364.729	303.98
365.111	320.47
365.493	319.34
365.874	308.04
366.256	293.13
366.637	309.4
367.019	322.28
367.4	315.27
367.781	333.35
368.163	317.31
368.544	306.01
368.925	323.18
369.306	339.91
369.688	296.29
370.069	316.18
370.45	317.08
370.831	324.99
371.212	301.04
371.593	302.17
371.974	328.16
372.355	326.12
372.736	316.63
373.117	315.27
373.498	320.92
373.879	328.16
374.26	302.62
374.641	296.97
375.021	320.25
375.402	304.65
375.783	303.07
376.163	322.96
376.544	333.35
376.925	329.96
377.305	315.5
377.686	329.74
378.066	316.4
378.447	331.77
378.827	345.33
379.208	339.45
379.588	334.93
379.968	331.54
380.349	313.47
380.729	330.42
381.109	331.54
381.489	339
381.87	328.61
382.25	335.39
382.63	346.91
383.01	341.49
383.39	356.18
383.77	357.08
384.15	345.78
384.53	341.94
384.91	352.11
385.29	342.17
385.67	332.67
386.049	350.53
386.429	354.6
386.809	332
387.189	354.37
387.568	348.72
387.948	365.44
388.328	369.74
388.707	352.56
389.087	356.86
389.466	371.32
389.846	368.38
390.225	370.87
390.605	354.37
390.984	375.16
391.363	352.56
391.743	355.5
392.122	374.71
392.501	377.87
392.881	371.54
393.26	341.04
393.639	375.84
394.018	380.13
394.397	360.24
394.776	376.52
395.155	378.32
395.534	384.2
395.913	357.76
396.292	383.07
396.671	368.61
397.05	391.43
397.429	384.42
397.808	386.01
398.186	409.28
398.565	411.09
398.944	391.43
399.323	366.35
399.701	384.65
400.08	380.58
400.458	396.63
400.837	415.61
401.215	394.59
401.594	407.7
401.972	391.88
402.351	409.28
402.729	366.12
403.107	404.99
403.486	408.38
403.864	402.5
404.242	410.41
404.62	393.24
404.999	419.9
405.377	425.33
405.755	413.35
406.133	404.09
406.511	415.38
406.889	418.32
407.267	417.87
407.645	414.71
408.023	437.08
408.401	419.23
408.779	418.77
409.156	437.08
409.534	445.44
409.912	444.76
410.29	449.28
410.667	433.01
411.045	442.28
411.422	469.85
411.8	458.1
412.178	448.83
412.555	460.36
412.933	462.84
413.31	452.45
413.687	474.37
414.065	447.93
414.442	473.91
414.819	467.13
415.197	475.72
415.574	482.73
415.951	475.5
416.328	460.58
416.705	476.17
417.082	509.17
417.46	503.74
417.837	494.25
418.214	506.68
418.591	489.28
418.967	517.08
419.344	497.64
419.721	507.59
420.098	521.6
420.475	503.97
420.852	495.16
421.228	523.86
421.605	510.52
421.982	539.45
422.358	520.92
422.735	530.18
423.111	528.6
423.488	517.53
423.864	527.92
424.241	544.19
424.617	539.68
424.994	513.46
425.37	552.78
425.746	567.7
426.123	585.1
426.499	567.7
426.875	570.18
427.251	563.63
427.627	592.33
428.003	574.02
428.379	576.96
428.756	596.4
429.132	598.88
429.507	581.93
429.883	595.72
430.259	602.72
430.635	599.79
431.011	581.26
431.387	601.82
431.763	602.5
432.138	611.31
432.514	631.42
432.89	632.55
433.265	658.32
433.641	652.89
434.016	647.92
434.392	673.91
434.767	636.17
435.143	660.35
435.518	669.39
435.894	672.55
436.269	665.77
436.644	689.28
437.02	679.56
437.395	686.79
437.77	694.47
438.145	694.7
438.52	693.8
438.895	709.61
439.271	710.29
439.646	722.95
440.021	726.11
440.395	713.23
440.77	722.27
441.145	717.75
441.52	745.55
441.895	727.24
442.27	757.3
442.645	726.34
443.019	755.94
443.394	761.59
443.769	769.95
444.143	764.3
444.518	761.36
444.892	761.82
445.267	754.36
445.641	791.87
446.016	779.22
446.39	784.64
446.764	796.39
447.139	792.32
447.513	800.01
447.887	800.01
448.262	808.59
448.636	798.2
449.01	833.9
449.384	806.33
449.758	816.28
450.132	822.83
450.506	847.46
450.88	830.29
451.254	838.88
451.628	858.76
452.002	838.88
452.376	855.15
452.75	875.49
453.123	865.77
453.497	883.39
453.871	875.03
454.244	913
454.618	932.66
454.992	910.96
455.365	922.72
455.739	925.88
456.112	933.11
456.486	944.41
456.859	921.36
457.232	954.81
457.606	949.83
457.979	957.97
458.352	997.52
458.725	1015.82
459.099	1015.37
459.472	984.41
459.845	1018.08
460.218	1020.79
460.591	1024.86
460.964	1043.84
461.337	1054.01
461.71	1069.83
462.083	1076.38
462.456	1097.4
462.829	1104.41
463.201	1106.89
463.574	1108.7
463.947	1143.73
464.32	1115.71
464.692	1162.26
465.065	1171.3
465.438	1184.4
465.81	1215.59
466.183	1172.2
466.555	1214.46
466.928	1228.7
467.3	1258.53
467.672	1276.15
468.045	1272.54
468.417	1314.57
468.789	1308.47
469.161	1307.34
469.534	1337.85
469.906	1379.43
470.278	1367.45
470.65	1403.61
471.022	1424.17
471.394	1441.35
471.766	1459.2
472.138	1479.09
472.51	1482.93
472.882	1563.83
473.253	1550.5
473.625	1561.8
473.997	1607.44
474.369	1601.57
474.74	1629.82
475.112	1638.63
475.484	1708.23
475.855	1717.5
476.227	1742.13
476.598	1804.05
476.97	1815.57
477.341	1834.33
477.713	1854.44
478.084	1905.29
478.455	1944.61
478.827	1967.89
479.198	2005.17
479.569	2031.16
479.94	2119.07
480.311	2143.25
480.682	2190.93
481.053	2232.29
481.424	2257.37
481.795	2306.41
482.166	2349.8
482.537	2369.91
482.908	2471.83
483.279	2491.04
483.65	2518.61
484.021	2587.76
484.391	2630.69
484.762	2642.9
485.133	2675.44
485.503	2734.65
485.874	2800.86
486.244	2855.09
486.615	2914.53
486.985	2971.93
487.356	3008.54
487.726	3015.09
488.097	3174.18
488.467	3155.65
488.837	3211.24
489.207	3273.16
489.578	3313.39
489.948	3387.06
490.318	3483.1
490.688	3474.06
491.058	3518.81
491.428	3606.71
491.798	3633.61
492.168	3707.5
492.538	3770.55
492.908	3823.43
493.278	3800.38
493.648	3851
494.017	3947.04
494.387	3973.26
494.757	3981.62
495.126	4065.46
495.496	4070.43
495.866	4144.55
496.235	4193.36
496.605	4221.84
496.974	4272.23
497.344	4344.55
497.713	4363.98
498.082	4424.09
498.452	4413.47
498.821	4460.02
499.19	4514.71
499.559	4526.91
499.928	4528.95
500.298	4613.69
500.667	4664.31
501.036	4666.8
501.405	4713.58
501.774	4693.92
502.143	4773.24
502.512	4771.88
502.88	4840.8
503.249	4871.09
503.618	4855.72
503.987	4912.89
504.356	4992.67
504.724	5019.78
505.093	5009.61
505.462	4990.18
505.83	5037.18
506.199	5139.55
506.567	5150.18
506.936	5180.01
507.304	5197.18
507.672	5237.18
508.041	5252.77
508.409	5326.22
508.777	5285.54
509.145	5349.72
509.514	5337.97
509.882	5410.51
510.25	5391.07
510.618	5467.68
510.986	5492.54
511.354	5512.65
511.722	5585.87
512.09	5625.64
512.458	5564.4
512.826	5655.7
513.193	5632.2
513.561	5639.65
513.929	5686.66
514.297	5744.06
514.664	5782.7
515.032	5807.11
515.4	5868.35
515.767	5836.26
516.135	5828.8
516.502	5838.07
516.869	5979.31
517.237	5963.26
517.604	5903.83
517.972	5998.06
518.339	5989.93
518.706	6032.19
519.073	6024.28
519.44	6051.17
519.808	6147.66
520.175	6158.96
520.542	6130.94
520.909	6158.06
521.276	6210.49
521.643	6229.92
522.009	6279.64
522.376	6340.2
522.743	6339.75
523.11	6406.19
523.477	6461.1
523.843	6425.62
524.21	6533.42
524.577	6578.61
524.943	6540.42
525.31	6606.86
525.676	6603.7
526.043	6681.89
526.409	6697.03
526.776	6782.45
527.142	6754.88
527.508	6791.71
527.874	6908.77
528.241	6887.76
528.607	6860.41
528.973	6963.69
529.339	6971.82
529.705	7082.1
530.071	7115.1
530.437	7101.54
530.803	7172.04
531.169	7198.71
531.535	7146.06
531.901	7183.34
532.267	7216.11
532.632	7253.4
532.998	7300.4
533.364	7410
533.73	7418.14
534.095	7428.31
534.461	7462.88
534.826	7455.65
535.192	7509.89
535.557	7552.37
535.923	7598.47
536.288	7640.73
536.653	7697.23
537.019	7611.58
537.384	7650.67
537.749	7690.22
538.114	7732.48
538.479	7736.55
538.845	7796.21
539.21	7802.99
539.575	7858.35
539.94	7838.24
540.305	7866.04
540.67	7934.73
541.034	7955.75
541.399	7998.69
541.764	7966.82
542.129	8055.18
542.494	8068.29
542.858	8122.53
543.223	8121.4
543.587	8161.4
543.952	8138.35
544.316	8261.96
544.681	8263.31
545.045	8316.87
545.41	8358.9
545.774	8432.35
546.138	8428.28
546.503	8402.29
546.867	8447.72
547.231	8590.76
547.595	8505.12
547.959	8586.24
548.324	8599.12
548.688	8571.33
549.052	8673.47
549.416	8677.77
549.779	8682.51
550.143	8719.57
550.507	8779.23
550.871	8804.77
551.235	8819.68
551.599	8906.23
551.962	8907.14
552.326	8889.96
552.689	8988.72
553.053	8927.93
553.417	8924.99
553.78	9063.07
554.143	9048.38
554.507	9049.96
554.87	9085.67
555.234	9237.75
555.597	9160.92
555.96	9136.51
556.323	9273.46
556.686	9248.15
557.05	9329.27
557.413	9355.04
557.776	9367.24
558.139	9358.65
558.502	9392.32
558.865	9403.17
559.228	9483.62
559.59	9524.98
559.953	9558.2
560.316	9611.53
560.679	9633.22
561.041	9699.89
561.404	9712.77
561.767	9759.32
562.129	9691.98
562.492	9828.02
562.854	9759.55
563.217	9850.84
563.579	9947.34
563.941	9947.79
564.304	9962.93
564.666	9967
565.028	9987.11
565.39	10047.67
565.753	10102.36
566.115	10182.59
566.477	10171.06
566.839	10208.12
567.201	10275.92
567.563	10251.06
567.925	10401.79
568.287	10343.94
568.648	10412.86
569.01	10419.19
569.372	10577.15
569.734	10458.28
570.095	10582.8
570.457	10627.77
570.819	10728.33
571.18	10679.52
571.542	10682.01
571.903	10767.65
572.265	10813.98
572.626	10918.16
572.987	10954.09
573.349	10993.64
573.71	11086.29
574.071	11075.44
574.432	11165.16
574.794	11211.26
575.155	11264.82
575.516	11319.28
575.877	11424.81
576.238	11464.59
576.599	11554.3
576.96	11605.15
577.32	11701.64
577.681	11839.26
578.042	11948.41
578.403	12029.77
578.763	12046.27
579.124	12200.61
579.485	12323.55
579.845	12445.58
580.206	12516.31
580.566	12686.7
580.927	12819.13
581.287	12859.35
581.648	13014.6
582.008	13215.5
582.368	13245.33
582.728	13481.26
583.089	13627.92
583.449	13761.25
583.809	13939.1
584.169	14090.28
584.529	14320.33
584.889	14535.92
585.249	14579.98
585.609	14806.42
585.969	15135.9
586.329	15201.66
586.688	15536.57
587.048	15810.01
587.408	15987.18
587.768	16201.64
588.127	16362.99
588.487	16553.27
588.846	16957.32
589.206	17105.79
589.565	17365.45
589.925	17733.57
590.284	17884.98
590.643	18233.22
591.003	18493.55
591.362	18835.24
591.721	19072.3
592.08	19330.82
592.44	19686.52
592.799	19832.73
593.158	20069.56
593.517	20408.98
593.876	20716.32
594.235	20940.95
594.593	21366.7
594.952	21692.57
595.311	21858.21
595.67	22184.3
596.029	22658.42
596.387	22949.03
596.746	23214.11
597.104	23334.56
597.463	23731.61
597.822	24062.22
598.18	24285.27
598.538	24471.48
598.897	25066.49
599.255	25124.34
599.613	25781.5
599.972	25874.6
600.33	26210.86
600.688	26304.42
601.046	26665.54
601.404	27157.73
601.762	27303.49
602.12	27763.59
602.478	28028.44
602.836	28326.29
603.194	28296.69
603.552	28687.41
603.91	28918.36
604.268	29284.68
604.625	29396.32
604.983	29752.69
605.341	29871.79
605.698	30285.79
606.056	30548.83
606.413	30725.77
606.771	31119.89
607.128	31248.02
607.485	31445.53
607.843	31630.61
608.2	31953.76
608.557	32266.07
608.914	32451.38
609.272	32844.14
609.629	32937.02
609.986	33346.04
610.343	33434.18
610.7	33848.4
611.057	34033.48
611.414	34032.81
611.771	34331.1
612.127	34706.23
612.484	34740.36
612.841	35023.51
613.198	35082.72
613.554	35281.13
613.911	35602.71
614.267	35762.25
614.624	35803.38
614.98	36084.73
615.337	36428.9
615.693	36507.77
616.05	36532.4
616.406	37002.45
616.762	36858.49
617.118	37144.14
617.475	37201.76
617.831	37394.3
618.187	37599.04
618.543	37706.61
618.899	37965.36
619.255	38043.77
619.611	38036.32
619.967	38514.72
620.323	38536.87
620.678	38514.04
621.034	38425.01
621.39	38636.3
621.746	38626.81
622.101	39194.48
622.457	38931.43
622.812	39207.13
623.168	39357.41
623.523	39307.47
623.879	39652.77
624.234	39417.07
624.589	39605.09
624.945	39833.11
625.3	39790.39
625.655	39897.74
626.01	39923.05
626.365	39969.82
626.72	40021.57
627.075	40156.49
627.43	40155.36
627.785	40094.79
628.14	40268.57
628.495	40384.73
628.85	40382.24
629.205	40329.59
629.559	40595.57
629.914	40496.14
630.269	40584.05
630.623	40474.22
630.978	40465.86
631.332	40784.27
631.687	40810.03
632.041	40772.97
632.396	40787.66
632.75	40788.79
633.104	40825.4
633.459	40744.72
633.813	40747.21
634.167	40897.26
634.521	40838.5
634.875	40970.25
635.229	40849.58
635.583	40893.64
635.937	40642.8
636.291	40760.54
636.645	40797.83
636.999	40845.73
637.352	40974.32
637.706	40653.2
638.06	40867.43
638.413	40799.86
638.767	40679.41
639.121	40979.06
639.474	40591.28
639.828	40672.41
640.181	40607.32
640.534	40722.35
640.888	40582.24
641.241	40464.28
641.594	40608
641.947	40757.15
642.301	40678.73
642.654	40789.46
643.007	40685.96
643.36	40632.41
643.713	40661.56
644.066	40781.1
644.419	40504.95
644.771	40277.16
645.124	39942.71
645.477	39947.23
645.83	39654.8
646.182	39540.46
646.535	39490.74
646.888	39538.65
647.24	39406.9
647.593	39688.93
647.945	39649.16
648.298	39307.7
648.65	39384.76
649.002	39189.51
649.355	39460.46
649.707	39408.94
650.059	39645.09
650.411	40022.48
650.763	40039.2
651.115	40423.37
651.467	40292.08
651.819	40319.42
652.171	40156.03
652.523	40193.77
652.875	40035.36
653.227	40038.07
653.578	40402.81
653.93	40343.6
654.282	40020.9
654.633	39834.69
654.985	40036.49
655.337	40085.75
655.688	40130.5
656.039	40186.09
656.391	39745.2
656.742	39967.56
657.094	40006.89
657.445	40097.96
657.796	39965.76
658.147	40030.16
658.498	39965.98
658.849	40065.19
659.2	39980.45
659.551	39855.48
659.902	40067.22
660.253	39903.61
660.604	40038.75
660.955	39812.99
661.306	39904.52
661.656	39972.08
662.007	39922.37
662.358	39933.67
662.708	39987.23
663.059	39847.12
663.409	39573.23
663.76	39917.4
664.11	39881.47
664.461	39904.06
664.811	39910.39
665.161	39917.62
665.511	39850.96
665.862	39836.27
666.212	39804.86
666.562	39802.6
666.912	39789.49
667.262	39790.17
667.612	39695.71
667.962	39880.79
668.312	39773.45
668.662	39909.94
669.011	39775.93
669.361	39797.4
669.711	39718.53
670.06	39751.75
670.41	39690.28
670.76	39556.5
671.109	39681.24
671.459	39561.93
671.808	39581.13
672.157	39675.14
672.507	39439.44
672.856	39359.67
673.205	39614.35
673.554	39605.99
673.904	39436.73
674.253	39628.14
674.602	39462.04
674.951	38979.79
675.3	38915.16
675.649	39494.81
675.998	39300.46
676.346	39341.14
676.695	39566.22
677.044	39286.45
677.393	39437.64
677.741	39459.78
678.09	39369.16
678.438	39284.87
678.787	39229.96
679.135	39243.97
679.484	39101.82
679.832	39183.18
680.181	39056.85
680.529	39111.54
680.877	39015.05
681.225	39016.86
681.573	39123.07
681.922	38881.27
682.27	38806.24
682.618	38828.61
682.966	38704.55
683.314	38811.66
683.661	38716.3
684.009	38481.28
684.357	38500.03
684.705	38378.45
685.053	38488.51
685.4	38297.33
685.748	38046.71
686.095	38160.61
686.443	38026.15
686.79	38052.59
687.138	38082.42
687.485	38098.46
687.832	37909.77
688.18	38007.16
688.527	37791.35
688.874	37717.45
689.221	37650.11
689.568	37555.88
689.915	37415.32
690.262	37510.45
690.609	37373.73
690.956	37238.6
691.303	37163.34
691.65	37134.65
691.997	37057.13
692.344	36813.98
692.69	36809.23
693.037	36979.85
693.383	36447.66
693.73	36722.68
694.077	36569.69
694.423	36618.95
694.769	36402.46
695.116	36366.3
695.462	36456.7
695.808	36152.75
696.155	36249.92
696.501	35976.03
696.847	35938.29
697.193	35821.69
697.539	35848.13
697.885	35553.22
698.231	35470.06
698.577	35567.68
698.923	35393.67
699.269	35376.95
699.614	35133.57
699.96	35112.55
700.306	35058.77
700.651	34950.75
700.997	34757.98
701.342	34743.07
701.688	34789.17
702.033	34668.72
702.379	34546.92
702.724	34466.69
703.069	34565.22
703.415	34172.24
703.76	34293.82
704.105	34186.7
704.45	34113.93
704.795	34012.24
705.14	33893.15
705.485	33812.25
705.83	33607.05
706.175	33647.96
706.52	33675.3
706.865	33504.46
707.209	33473.5
707.554	33311.47
707.899	33402.77
708.243	33134.52
708.588	33315.76
708.932	32923.91
709.277	33023.79
709.621	32964.13
709.966	32731.15
710.31	32842.1
710.654	32514.2
710.998	32639.4
711.342	32761.65
711.687	32478.72
712.031	32397.14
712.375	32277.37
712.719	32261.33
713.063	32301.1
713.407	32277.15
713.75	32110.37
714.094	32170.71
714.438	31947.44
714.782	31947.44
715.125	31803.71
715.469	31970.94
715.812	31761.68
716.156	31443.72
716.499	31644.39
716.843	31698.4
717.186	31478.75
717.53	31654.79
717.873	31649.14
718.216	31380.45
718.559	31363.95
718.902	31125.76
719.246	31268.36
719.589	31043.05
719.932	31079.89
720.275	31031.3
720.617	30857.07
720.96	30912.66
721.303	30977.52
721.646	30903.62
721.989	30672.22
722.331	30855.26
722.674	30711.31
723.016	30706.79
723.359	30609.62
723.701	30692.55
724.044	30460.24
724.386	30356.52
724.729	30586.79
725.071	30424.31
725.413	30419.34
725.755	30317.88
726.097	30094.15
726.439	30015.28
726.782	30159.46
727.124	30329.4
727.465	30105.9
727.807	30027.26
728.149	29903.42
728.491	29885.57
728.833	29993.59
729.175	29841.73
729.516	29798.79
729.858	29785.01
730.199	29845.57
730.541	29578.01
730.882	29591.57
731.224	29779.58
731.565	29506.15
731.906	29561.51
732.248	29572.36
732.589	29282.87
732.93	29313.83
733.271	29257.34
733.612	29376.88
733.953	29411.46
734.294	29292.82
734.635	29126.95
734.976	29280.16
735.317	29137.79
735.658	29071.35
735.999	29050.56
736.339	28937.12
736.68	29053.28
737.021	28884.01
737.361	28710.69
737.702	28933.96
738.042	28674.53
738.383	28714.08
738.723	28760.63
739.063	28675.66
739.404	28718.82
739.744	28635.66
740.084	28440.64
740.424	28566.73
740.764	28332.16
741.104	28485.38
741.444	28483.57
741.784	28270.92
742.124	28421.2
742.464	28293.52
742.804	28247.65
743.143	28159.06
743.483	28205.61
743.823	28104.83
744.162	28058.73
744.502	28034.09
744.841	28068.22
745.181	28110.7
745.52	28016.92
745.86	27936.02
746.199	27865.51
746.538	27899.41
746.877	27851.5
747.216	27774.21
747.556	27759.52
747.895	27836.13
748.234	27712.75
748.573	27706.64
748.911	27590.94
749.25	27591.62
749.589	27555.69
749.928	27599.75
750.267	27602.47
750.605	27465.29
750.944	27392.3
751.283	27247
751.621	27330.16
751.96	27291.06
752.298	27181.01
752.636	27254.68
752.975	27005.65
753.313	27000.45
753.651	27195.7
753.989	26833.9
754.327	26826.67
754.666	26743.51
755.004	26819.66
755.342	26841.58
755.679	26710.51
756.017	26607.01
756.355	26710.74
756.693	26529.73
757.031	26595.71
757.368	26361.82
757.706	26407.24
758.044	26253.12
758.381	26380.58
758.719	26289.96
759.056	26342.61
759.394	26222.39
759.731	26057.42
760.068	25979.23
760.405	25908.05
760.743	25853.36
761.08	25772.91
761.417	25816.07
761.754	25569.53
762.091	25596.19
762.428	25635.51
762.765	25399.81
763.102	25411.56
763.438	25332.7
763.775	25315.52
764.112	25264.67
764.449	25214.05
764.785	25160.72
765.122	24839.83
765.458	24764.8
765.795	24777.23
766.131	24763.22
766.467	24725.48
766.804	24513.06
767.14	24551.7
767.476	24504.02
767.812	24335.66
768.148	24315.32
768.485	24113.29
768.821	24139.05
769.157	24047.08
769.492	23957.14
769.828	23990.81
770.164	23658.62
770.5	23622.01
770.836	23687.77
771.171	23493.2
771.507	23503.37
771.842	23282.13
772.178	23380.2
772.513	23309.47
772.849	23171.17
773.184	23029.93
773.519	23108.12
773.855	22950.16
774.19	22895.7
774.525	22773.89
774.86	22755.36
775.195	22828.81
775.53	22642.82
775.865	22543.16
776.2	22432.21
776.535	22242.16
776.87	22234.92
777.205	22000.58
777.539	22046.45
777.874	22103.85
778.209	21808.27
778.543	21814.82
778.878	21764.88
779.212	21727.37
779.547	21505.68
779.881	21649.85
780.215	21481.05
780.55	21545.45
780.884	21276.76
781.218	21268.85
781.552	21279.69
781.886	21062.98
782.22	21067.27
782.554	20989.98
782.888	20785.7
783.222	20819.82
783.556	20720.84
783.889	20644.01
784.223	20448.53
784.557	20375.76
784.89	20492.82
785.224	20288.53
785.557	20215.09
785.891	20228.2
786.224	20064.36
786.558	20086.05
786.891	19939.16
787.224	19835.89
787.557	19775.55
787.891	19705.95
788.224	19755.44
788.557	19752.73
788.89	19597.03
789.223	19698.72
789.556	19428.9
789.888	19338.5
790.221	19303.02
790.554	19099.64
790.887	19166.08
791.219	19070.71
791.552	19046.76
791.884	18894.45
792.217	18943.26
792.549	18842.24
792.882	18662.59
793.214	18635.02
793.546	18682.25
793.879	18479.54
794.211	18504.85
794.543	18519.32
794.875	18384.86
795.207	18399.77
795.539	18291.3
795.871	18303.28
796.203	18139.44
796.535	18083.62
796.867	18020.35
797.198	17950.97
797.53	18018.54
797.862	17816.06
798.193	17861.71
798.525	17803.18
798.856	17788.26
799.188	17605.22
799.519	17503.97
799.85	17501.49
800.182	17462.39
800.513	17356.63
800.844	17368.39
801.175	17387.82
801.506	17300.59
801.837	17186.02
802.168	17196.86
802.499	17145.79
802.83	17095.62
803.161	17013.37
803.491	16934.5
803.822	16959.13
804.153	16898.34
804.483	16682.75
804.814	16668.29
805.145	16675.07
805.475	16652.25
805.805	16552.36
806.136	16621.51
806.466	16593.04
806.796	16419.71
807.126	16342.2
807.457	16369.54
807.787	16363.21
808.117	16329.99
808.447	16146.27
808.777	16259.71
809.107	16133.84
809.436	16085.93
809.766	16166.83
810.096	16054.52
810.426	15982.66
810.755	15898.37
811.085	15833.51
811.414	15854.53
811.744	15786.51
812.073	15760.07
812.403	15650.46
812.732	15592.39
813.061	15651.14
813.39	15529.56
813.719	15552.39
814.049	15615.89
814.378	15542.44
814.707	15409.34
815.036	15391.49
815.365	15269.46
815.693	15180.87
816.022	15230.59
816.351	15107.65
816.68	15092.06
817.008	15100.2
817.337	15060.42
817.665	14947.88
817.994	15053.87
818.322	14997.83
818.651	14887.77
818.979	14917.15
819.307	14930.26
819.636	14859.75
819.964	14749.02
820.292	14790.83
820.62	14793.31
820.948	14756.25
821.276	14809.81
821.604	14743.6
821.932	14739.98
822.259	14749.92
822.587	14721.68
822.915	14570.04
823.243	14698.17
823.57	14621.79
823.898	14688.91
824.225	14667.21
824.553	14602.58
824.88	14637.61
825.207	14720.55
825.535	14603.03
825.862	14708.57
826.189	14656.82
826.516	14703.37
826.843	14602.81
827.17	14607.78
827.497	14679.87
827.824	14594.67
828.151	14673.31
828.478	14691.39
828.805	14671.96
829.131	14576.14
829.458	14646.42
829.785	14516.26
830.111	14585.63
830.438	14628.8
830.764	14666.99
831.09	14571.62
831.417	14522.58
831.743	14585.41
832.069	14575.46
832.395	14570.27
832.722	14526.88
833.048	14562.58
833.374	14490.72
833.7	14468.57
834.026	14389.93
834.351	14523.94
834.677	14435.58
835.003	14395.36
835.329	14406.66
835.654	14464.73
835.98	14327.56
836.306	14355.58
836.631	14316.49
836.956	14286.66
837.282	14368.69
837.607	14249.82
837.932	14291.18
838.258	14220.45
838.583	14219.54
838.908	14152.42
839.233	14190.84
839.558	14095.93
839.883	14010.06
840.208	14048.02
840.533	13997.17
840.858	14066.78
841.182	14088.47
841.507	14012.77
841.832	13928.93
842.156	13916.72
842.481	13891.64
842.805	13770.51
843.13	13857.97
843.454	13858.87
843.778	13806.9
844.103	13731.64
844.427	13779.33
844.751	13690.97
845.075	13642.83
845.399	13594.02
845.723	13547.02
846.047	13540.69
846.371	13398.55
846.695	13417.98
847.019	13364.87
847.343	13250.53
847.666	13151.32
847.99	13135.95
848.313	13093.47
848.637	13024.77
848.96	13023.19
849.284	12978.44
849.607	12951.78
849.931	12833.59
850.254	12776.87
850.577	12704.78
850.9	12597.66
851.223	12622.07
851.546	12543.65
851.869	12555.18
852.192	12540.72
852.515	12428.85
852.838	12452.13
853.161	12386.37
853.483	12421.4
853.806	12279.03
854.129	12305.02
854.451	12139.82
854.774	12162.19
855.096	12144.79
855.419	12102.31
855.741	12046.94
856.063	11990.22
856.385	11948.64
856.708	11920.17
857.03	11853.73
857.352	11819.15
857.674	11794.97
857.996	11789.32
858.318	11719.49
858.64	11673.85
858.961	11739.61
859.283	11577.35
859.605	11550.68
859.926	11603.56
860.248	11597.46
860.57	11462.78
860.891	11594.07
861.212	11444.47
861.534	11394.3
861.855	11420.74
862.176	11428.43
862.498	11430.01
862.819	11314.31
863.14	11324.7
863.461	11301.65
863.782	11312.27
864.103	11313.86
864.424	11209.23
864.745	11237.92
865.065	11177.14
865.386	11085.84
865.707	11071.15
866.027	11147.53
866.348	11120.19
866.668	11036.57
866.989	11127.19
867.309	10984.15
867.63	11022.56
867.95	11039.06
868.27	10929.91
868.59	10958.38
868.91	10938.95
869.23	10947.09
869.55	10959.97
869.87	10910.02
870.19	10915
870.51	10879.52
870.83	10906.86
871.15	10825.28
871.469	10830.48
871.789	10877.93
872.109	10853.98
872.428	10762.91
872.748	10849.69
873.067	10744.6
873.386	10810.37
873.706	10712.06
874.025	10704.61
874.344	10658.96
874.663	10670.71
874.982	10625.51
875.301	10599.3
875.62	10487.66
875.939	10520.88
876.258	10508.9
876.577	10437.27
876.896	10564.5
877.214	10470.04
877.533	10437.04
877.852	10452.86
878.17	10508.68
878.489	10488.79
878.807	10440.66
879.125	10426.42
879.444	10367.21
879.762	10324.28
880.08	10286.09
880.398	10276.14
880.716	10286.31
881.034	10280.89
881.352	10239.98
881.67	10279.08
881.988	10183.49
882.306	10230.49
882.624	10136.94
882.941	10119.54
883.259	10093.55
883.577	10058.07
883.894	10001.12
884.212	10063.72
884.529	9973.1
884.846	9984.62
885.164	10006.09
885.481	10014.68
885.798	9970.16
886.115	9833.22
886.432	9872.99
886.75	9792.31
887.067	9813.56
887.383	9795.02
887.7	9796.15
888.017	9755.7
888.334	9752.77
888.651	9697.17
888.967	9745.76
889.284	9688.59
889.6	9640.45
889.917	9553.22
890.233	9650.17
890.55	9604.75
890.866	9567.91
891.182	9505.54
891.498	9473.9
891.815	9450.18
892.131	9404.98
892.447	9355.94
892.763	9355.94
893.079	9371.99
893.395	9305.09
893.71	9249.5
894.026	9317.3
894.342	9220.12
894.657	9144.65
894.973	9174.25
895.289	9148.26
895.604	9152.56
895.92	9011.99
896.235	8960.92
896.55	9060.13
896.865	8936.52
897.181	9029.17
897.496	8961.37
897.811	8842.28
898.126	8864.65
898.441	8837.31
898.756	8813.36
899.071	8719.8
899.386	8737.2
899.7	8667.37
900.015	8647.26
900.33	8596.41
900.644	8564.32
900.959	8615.17
901.273	8509.86
901.588	8477.32
901.902	8525.91
902.216	8403.65
902.531	8438.22
902.845	8450.2
903.159	8348.28
903.473	8318
903.787	8285.69
904.101	8285.69
904.415	8271
904.729	8203.2
905.042	8251.34
905.356	8144.45
905.67	8129.76
905.984	8148.06
906.297	8111.45
906.611	8073.71
906.924	7991.68
907.237	7969.99
907.551	7990.1
907.864	7947.16
908.177	7904.91
908.491	7903.1
908.804	7828.97
909.117	7732.93
909.43	7731.35
909.743	7747.62
910.056	7676.66
910.368	7701.75
910.681	7663.78
910.994	7588.98
911.307	7602.77
911.619	7539.72
911.932	7571.13
912.244	7481.19
912.557	7469.66
912.869	7389.21
913.181	7411.13
913.494	7302.21
913.806	7304.02
914.118	7360.06
914.43	7244.36
914.742	7287.07
915.054	7209.1
915.366	7201.65
915.678	7152.83
915.99	7140.63
916.302	7109.67
916.613	7046.4
916.925	7066.96
917.236	7092.72
917.548	6975.21
917.859	6949.22
918.171	6908.1
918.482	6877.14
918.794	6871.71
919.105	6856.57
919.416	6773.41
919.727	6734.31
920.038	6745.39
920.349	6716.24
920.66	6670.14
920.971	6676.24
921.282	6648.67
921.593	6603.24
921.903	6532.51
922.214	6548.1
922.525	6527.09
922.835	6447.77
923.146	6472.63
923.456	6436.92
923.767	6429.46
924.077	6402.12
924.387	6366.41
924.697	6365.96
925.008	6319.41
925.318	6283.93
925.628	6264.72
925.938	6198.06
926.248	6188.34
926.558	6172.3
926.867	6123.94
927.177	6102.47
927.487	6115.8
927.796	6017.27
928.106	6043.71
928.416	6026.31
928.725	6029.47
929.034	5965.52
929.344	5945.63
929.653	5895.92
929.962	5879.87
930.271	5827.67
930.581	5826.32
930.89	5769.14
931.199	5790.38
931.508	5759.42
931.817	5758.29
932.125	5695.7
932.434	5648.92
932.743	5615.25
933.051	5669.48
933.36	5605.76
933.669	5559.88
933.977	5545.42
934.286	5506.1
934.594	5487.57
934.902	5486.66
935.21	5469.04
935.519	5414.8
935.827	5409.38
936.135	5394.69
936.443	5358.08
936.751	5365.31
937.059	5310.85
937.367	5295.93
937.674	5250.74
937.982	5285.76
938.29	5244.86
938.597	5276.5
938.905	5184.07
939.213	5144.75
939.52	5133.45
939.827	5156.73
940.135	5111.31
940.442	5027.24
940.749	5108.14
941.056	5062.95
941.363	5022.5
941.67	4994.93
941.977	4967.81
942.284	4940.69
942.591	4895.04
942.898	4922.84
943.205	4939.11
943.511	4914.7
943.818	4822.5
944.125	4819.34
944.431	4822.05
944.738	4809.85
945.044	4773.01
945.35	4811.43
945.657	4707.48
945.963	4686.91
946.269	4686.46
946.575	4669.74
946.881	4648.27
947.187	4641.04
947.493	4597.42
947.799	4621.15
948.105	4575.28
948.41	4540.93
948.716	4539.12
949.022	4545.67
949.327	4497.31
949.633	4476.29
949.938	4476.75
950.244	4439.69
950.549	4432.68
950.854	4371.21
951.16	4379.35
951.465	4367.15
951.77	4385.45
952.075	4295.06
952.38	4255.74
952.685	4293.7
952.99	4262.97
953.294	4254.83
953.599	4194.72
953.904	4209.64
954.209	4202.63
954.513	4165.57
954.818	4126.47
955.122	4149.75
955.426	4122.86
955.731	4071.33
956.035	4065.46
956.339	4078.79
956.643	4063.65
956.948	4020.71
957.252	4020.26
957.556	3970.09
957.86	3973.71
958.163	3972.58
958.467	3964.22
958.771	3914.95
959.075	3891.45
959.378	3846.48
959.682	3893.03
959.985	3864.11
960.289	3833.37
960.592	3840.15
960.896	3795.18
961.199	3808.74
961.502	3780.49
961.805	3728.97
962.108	3731.91
962.411	3722.19
962.714	3708.41
963.017	3695.3
963.32	3731.68
963.623	3664.34
963.926	3658.69
964.228	3586.15
964.531	3615.53
964.833	3638.35
965.136	3558.58
965.438	3576.21
965.741	3529.88
966.043	3594.06
966.345	3506.38
966.648	3527.62
966.95	3485.81
967.252	3495.3
967.554	3444.01
967.856	3477.9
968.158	3408.98
968.46	3395.65
968.761	3405.81
969.063	3395.87
969.365	3387.06
969.666	3332.14
969.968	3346.15
970.269	3325.14
970.571	3348.87
970.872	3267.06
971.174	3267.06
971.475	3232.26
971.776	3229.1
972.077	3220.51
972.378	3236.78
972.679	3262.77
972.98	3190.9
973.281	3198.81
973.582	3167.4
973.883	3158.36
974.183	3106.16
974.484	3134.41
974.785	3105.26
975.085	3097.12
975.386	3116.33
975.686	3052.38
975.986	3060.51
976.287	3043.34
976.587	3019.84
976.887	3003.57
977.187	3017.58
977.487	2971.48
977.787	2961.76
978.087	2971.48
978.387	2975.09
978.687	2964.7
978.987	2913.62
979.286	2902.1
979.586	2892.16
979.885	2889.67
980.185	2899.61
980.484	2851.25
980.784	2843.57
981.083	2824.13
981.382	2820.75
981.682	2827.75
981.981	2802.44
982.28	2811.03
982.579	2734.19
982.878	2776.45
983.177	2776.68
983.475	2731.03
983.774	2712.95
984.073	2698.04
984.372	2742.56
984.67	2691.26
984.969	2684.93
985.267	2705.49
985.566	2657.81
985.864	2671.14
986.162	2640.41
986.461	2624.82
986.759	2600.64
987.057	2584.37
987.355	2585.5
987.653	2573.75
987.951	2571.26
988.249	2577.36
988.547	2586.85
988.844	2532.39
989.142	2521.77
989.44	2495.33
989.737	2497.36
990.035	2507.31
990.332	2439.74
990.63	2464.37
990.927	2479.06
991.224	2450.81
991.521	2459.85
991.819	2398.84
992.116	2404.71
992.413	2384.15
992.71	2386.63
993.006	2391.15
993.303	2366.29
993.6	2359.51
993.897	2330.59
994.193	2306.41
994.49	2331.04
994.787	2271.38
995.083	2289.46
995.379	2279.97
995.676	2275
995.972	2304.15
996.268	2265.28
996.565	2232.06
996.861	2207.65
997.157	2208.56
997.453	2188.45
997.749	2181.21
998.044	2159.29
998.34	2181.67
998.636	2161.55
998.932	2170.82
999.227	2170.14
999.523	2157.03
999.818	2126.53
1000.114	2091.5
1000.409	2109.13
1000.704	2123.81
1001	2044.95
1001.295	2075.68
1001.59	2086.3
1001.885	2066.19
1002.18	2003.37
1002.475	1999.98
1002.77	2010.82
1003.065	2009.24
1003.359	2018.05
1003.654	1979.19
1003.949	1971.05
1004.243	1950.71
1004.538	1928.79
1004.832	1936.47
1005.127	1938.51
1005.421	1892.41
1005.715	1890.15
1006.009	1898.51
1006.304	1873.65
1006.598	1883.59
1006.892	1869.13
1007.186	1845.18
1007.48	1832.07
1007.773	1837.95
1008.067	1830.71
1008.361	1787.78
1008.655	1783.71
1008.948	1785.97
1009.242	1785.29
1009.535	1777.83
1009.829	1766.08
1010.122	1754.78
1010.415	1740.1
1010.708	1756.59
1011.001	1714.33
1011.295	1712.07
1011.588	1718.18
1011.881	1695.35
1012.173	1691.28
1012.466	1685.41
1012.759	1648.8
1013.052	1635.24
1013.344	1666.2
1013.637	1618.29
1013.93	1616.48
1014.222	1624.62
1014.514	1584.85
1014.807	1573.55
1015.099	1578.97
1015.391	1564.51
1015.683	1564.28
1015.976	1541.46
1016.268	1528.8
1016.56	1525.41
1016.851	1529.03
1017.143	1502.59
1017.435	1503.72
1017.727	1512.98
1018.018	1501.68
1018.31	1470.5
1018.602	1474.11
1018.893	1451.29
1019.185	1440.67
1019.476	1463.72
1019.767	1416.04
1020.058	1419.65
1020.35	1419.2
1020.641	1410.39
1020.932	1404.51
1021.223	1379.65
1021.514	1379.65
1021.804	1358.41
1022.095	1357.28
1022.386	1374.68
1022.677	1368.81
1022.967	1349.82
1023.258	1311.63
1023.548	1326.77
1023.839	1325.87
1024.129	1316.15
1024.419	1338.07
1024.709	1281.35
1025	1281.58
1025.29	1251.52
1025.58	1249.03
1025.87	1234.12
1026.16	1235.93
1026.449	1239.32
1026.739	1247.91
1027.029	1231.18
1027.319	1247.45
1027.608	1210.39
1027.898	1210.17
1028.187	1202.48
1028.477	1195.93
1028.766	1186.66
1029.055	1171.3
1029.344	1158.42
1029.634	1138.53
1029.923	1127.91
1030.212	1164.52
1030.501	1120.68
1030.79	1122.03
1031.078	1116.38
1031.367	1079.77
1031.656	1086.1
1031.945	1097.85
1032.233	1093.11
1032.522	1086.1
1032.81	1110.51
1033.099	1067.12
1033.387	1074.8
1033.675	1060.57
1033.963	1038.87
1034.251	1034.58
1034.54	1043.16
1034.828	1021.7
1035.116	1031.19
1035.403	1023.96
1035.691	998.19
1035.979	1009.27
1036.267	1007.23
1036.554	995.71
1036.842	971.75
1037.129	989.15
1037.417	962.26
1037.704	957.74
1037.992	964.52
1038.279	961.13
1038.566	936.95
1038.853	936.95
1039.14	936.95
