Data from hue_32_FLMS001491_00085.txt Node
Date: Tue Feb 07 17:24:01 GMT 2017
User: dcchb
Spectrometer: FLMS00149
Trigger mode: 0
Integration Time (sec): 2.000000E-2
Scans to average: 10
Electric dark correction enabled: true
Nonlinearity correction enabled: false
Boxcar width: 0
XAxis mode: Wavelengths
Number of Pixels in Spectrum: 2048
>>>>>Begin Spectral Data<<<<<
341.393	-18.95
341.776	-18.95
342.16	-18.95
342.543	-69.12
342.927	-79.97
343.31	-71.38
343.693	-64.83
344.077	-57.82
344.46	-53.53
344.843	-46.52
345.226	-65.51
345.61	-45.39
345.993	-22.34
346.376	-14.66
346.759	4.55
347.142	39.58
347.525	59.91
347.908	51.78
348.291	72.57
348.674	101.04
349.057	112.57
349.44	133.81
349.823	142.4
350.206	166.35
350.588	192.34
350.971	226.46
351.354	229.17
351.737	242.73
352.119	253.35
352.502	263.98
352.884	287.25
353.267	292.22
353.65	302.85
354.032	327.7
354.414	293.13
354.797	316.18
355.179	332.9
355.562	324.99
355.944	334.93
356.326	339.68
356.709	322.28
357.091	349.85
357.473	356.86
357.855	353.69
358.238	338.78
358.62	355.27
359.002	347.36
359.384	350.3
359.766	358.89
360.148	346.01
360.53	339.23
360.912	343.52
361.294	346.01
361.676	324.99
362.057	332.22
362.439	334.26
362.821	313.24
363.203	340.58
363.584	334.26
363.966	322.96
364.348	330.64
364.729	329.51
365.111	324.09
365.493	311.43
365.874	301.94
366.256	327.48
366.637	323.86
367.019	323.41
367.4	306.91
367.781	341.49
368.163	327.25
368.544	330.42
368.925	325.22
369.306	334.03
369.688	306.46
370.069	296.74
370.45	288.38
370.831	316.4
371.212	327.7
371.593	314.37
371.974	318.66
372.355	304.88
372.736	331.77
373.117	329.74
373.498	303.07
373.879	315.27
374.26	323.18
374.641	319.34
375.021	333.35
375.402	319.79
375.783	332
376.163	329.51
376.544	337.42
376.925	343.52
377.305	324.09
377.686	342.62
378.066	324.54
378.447	305.1
378.827	319.12
379.208	338.1
379.588	326.57
379.968	345.56
380.349	314.6
380.729	336.97
381.109	342.84
381.489	332.9
381.87	335.39
382.25	350.53
382.63	349.62
383.01	338.55
383.39	337.65
383.77	352.34
384.15	360.7
384.53	351.88
384.91	350.75
385.29	341.04
385.67	363.86
386.049	366.8
386.429	354.82
386.809	346.69
387.189	358.89
387.568	365.67
387.948	352.34
388.328	352.79
388.707	369.28
389.087	365.22
389.466	374.71
389.846	376.74
390.225	379.45
390.605	377.42
390.984	366.12
391.363	380.58
391.743	376.29
392.122	390.07
392.501	376.97
392.881	407.93
393.26	378.1
393.639	400.24
394.018	381.26
394.397	379.45
394.776	379.91
395.155	393.69
395.534	415.16
395.913	400.02
396.292	398.44
396.671	413.35
397.05	395.5
397.429	390.75
397.808	405.22
398.186	393.01
398.565	397.08
398.944	419
399.323	386.23
399.701	390.3
400.08	415.16
400.458	399.57
400.837	409.96
401.215	393.69
401.594	411.99
401.972	407.93
402.351	396.4
402.729	410.41
403.107	407.7
403.486	432.79
403.864	432.56
404.242	410.19
404.62	418.77
404.999	422.16
405.377	419.9
405.755	420.81
406.133	432.11
406.511	440.47
406.889	430.75
407.267	435.05
407.645	447.93
408.023	458.77
408.401	444.54
408.779	444.99
409.156	467.13
409.534	469.39
409.912	464.42
410.29	465.33
410.667	452.9
411.045	462.61
411.422	483.41
411.8	489.73
412.178	475.5
412.555	468.94
412.933	483.18
413.31	485.89
413.687	516.85
414.065	500.58
414.442	493.57
414.819	493.35
415.197	490.86
415.574	515.04
415.951	518.66
416.328	504.42
416.705	507.13
417.082	515.49
417.46	523.63
417.837	518.88
418.214	501.26
418.591	523.86
418.967	540.35
419.344	535.16
419.721	531.54
420.098	540.8
420.475	518.21
420.852	557.3
421.228	550.3
421.605	544.65
421.982	569.05
422.358	556.62
422.735	578.54
423.111	569.05
423.488	576.06
423.864	571.09
424.241	594.36
424.617	592.1
424.994	583.29
425.37	574.02
425.746	580.58
426.123	598.43
426.499	589.62
426.875	586
427.251	587.81
427.627	606.57
428.003	617.41
428.379	622.84
428.756	617.19
429.132	644.53
429.507	638.66
429.883	662.38
430.259	654.93
430.635	667.58
431.011	646.34
431.387	656.73
431.763	655.83
432.138	664.19
432.514	675.72
432.89	686.34
433.265	696.51
433.641	693.34
434.016	696.28
434.392	702.61
434.767	717.98
435.143	708.26
435.518	732.89
435.894	722.5
436.269	740.57
436.644	727.47
437.02	744.19
437.395	748.94
437.77	755.71
438.145	762.95
438.52	786.9
438.895	786
439.271	783.96
439.646	786.9
440.021	779.67
440.395	796.62
440.77	788.26
441.145	774.92
441.52	807.01
441.895	813.11
442.27	799.1
442.645	816.5
443.019	841.81
443.394	823.74
443.769	831.19
444.143	837.07
444.518	823.74
444.892	855.15
445.267	871.42
445.641	850.85
446.016	861.7
446.39	851.31
446.764	883.17
447.139	870.51
447.513	896.5
447.887	884.52
448.262	907.12
448.636	900.8
449.01	893.56
449.384	905.99
449.758	899.89
450.132	906.22
450.506	928.59
450.88	904.86
451.254	928.59
451.628	963.39
452.002	957.07
452.376	947.12
452.75	943.73
453.123	961.81
453.497	982.15
453.871	986.67
454.244	987.8
454.618	1009.49
454.992	1008.59
455.365	1019.44
455.739	1062.6
456.112	1066.21
456.486	1066.67
456.859	1065.54
457.232	1092.88
457.606	1087.68
457.979	1083.39
458.352	1110.96
458.725	1115.48
459.099	1132.65
459.472	1150.05
459.845	1149.83
460.218	1153.22
460.591	1167.46
460.964	1175.36
461.337	1205.65
461.71	1233.22
462.083	1222.59
462.456	1240
462.829	1253.1
463.201	1280.22
463.574	1270.96
463.947	1282.93
464.32	1315.93
464.692	1306.43
465.065	1344.4
465.438	1365.42
465.81	1387.34
466.183	1399.99
466.555	1405.19
466.928	1422.14
467.3	1443.61
467.672	1460.55
468.045	1488.35
468.417	1506.2
468.789	1523.83
469.161	1515.69
469.534	1586.88
469.906	1595.24
470.278	1656.26
470.65	1628.91
471.022	1654.67
471.394	1730.83
471.766	1718.63
472.138	1753.2
472.51	1778.06
472.882	1775.12
473.253	1803.37
473.625	1853.76
473.997	1900.09
474.369	1922.24
474.74	1978.73
475.112	2016.7
475.484	2063.02
475.855	2083.82
476.227	2139.41
476.598	2177.82
476.97	2220.08
477.341	2259.63
477.713	2329.68
478.084	2343.47
478.455	2433.41
478.827	2465.95
479.198	2570.13
479.569	2536.91
479.94	2648.77
480.311	2655.78
480.682	2728.32
481.053	2811.25
481.424	2866.85
481.795	2948.43
482.166	3009.89
482.537	3059.38
482.908	3174.86
483.279	3175.54
483.65	3297.79
484.021	3340.73
484.391	3448.75
484.762	3514.96
485.133	3568.97
485.503	3626.15
485.874	3709.76
486.244	3833.6
486.615	3895.75
486.985	3970.32
487.356	4087.38
487.726	4100.71
488.097	4248.73
488.467	4317.43
488.837	4406.01
489.207	4488.72
489.578	4600.59
489.948	4690.98
490.318	4803.29
490.688	4838.77
491.058	4883.06
491.428	4993.57
491.798	5076.28
492.168	5235.6
492.538	5237.18
492.908	5380.45
493.278	5460.22
493.648	5497.96
494.017	5620.22
494.387	5691.4
494.757	5760.55
495.126	5902.92
495.496	5897.05
495.866	5991.06
496.235	6075.8
496.605	6167.1
496.974	6193.09
497.344	6288.68
497.713	6347.21
498.082	6435.79
498.452	6513.3
498.821	6553.98
499.19	6633.07
499.559	6720.76
499.928	6804.6
500.298	6905.16
500.667	6950.81
501.036	6953.52
501.405	7086.85
501.774	7120.74
502.143	7223.57
502.512	7256.11
502.88	7312.38
503.249	7371.36
503.618	7451.13
503.987	7500.85
504.356	7525.03
504.724	7598.7
505.093	7655.87
505.462	7688.41
505.83	7772.71
506.199	7886.83
506.567	7956.43
506.936	7936.32
507.304	8046.14
507.672	8071.68
508.041	8160.04
508.409	8265.57
508.777	8291.79
509.145	8326.36
509.514	8401.62
509.882	8383.54
510.25	8478.68
510.618	8473.7
510.986	8539.01
511.354	8642.51
511.722	8690.65
512.09	8838.67
512.458	8775.84
512.826	8931.09
513.193	8922.73
513.561	8980.36
513.929	9000.92
514.297	9155.04
514.664	9203.85
515.032	9207.47
515.4	9317.98
515.767	9258.54
516.135	9296.96
516.502	9344.64
516.869	9444.3
517.237	9511.64
517.604	9456.95
517.972	9619.21
518.339	9661.7
518.706	9698.08
519.073	9706.44
519.44	9815.59
519.808	9890.84
520.175	9790.96
520.542	9977.62
520.909	10015.13
521.276	10047.22
521.643	10058.75
522.009	10199.76
522.376	10253.77
522.743	10227.78
523.11	10341.9
523.477	10433.43
523.843	10502.35
524.21	10578.73
524.577	10620.77
524.943	10660.99
525.31	10710.71
525.676	10875.45
526.043	10853.98
526.409	10976.46
526.776	10981.66
527.142	11009
527.508	11089.23
527.874	11204.03
528.241	11267.98
528.607	11288.09
528.973	11515.66
529.339	11400.86
529.705	11543
530.071	11680.85
530.437	11653.96
530.803	11724.01
531.169	11797.91
531.535	11811.47
531.901	11850.79
532.267	11888.98
532.632	11970.11
532.998	12062.08
533.364	12000.16
533.73	12074.96
534.095	12246.03
534.461	12209.42
534.826	12386.6
535.192	12374.39
535.557	12400.38
535.923	12459.36
536.288	12477.44
536.653	12555.18
537.019	12560.83
537.384	12616.19
537.749	12776.19
538.114	12679.69
538.479	12794.72
538.845	12690.09
539.21	12798.79
539.575	12828.84
539.94	12962.17
540.305	12986.13
540.67	12925.34
541.034	13060.25
541.399	13096.63
541.764	13165.33
542.129	13234.48
542.494	13221.83
542.858	13433.12
543.223	13329.4
543.587	13455.72
543.952	13480.8
544.316	13526.45
544.681	13519.45
545.045	13568.71
545.41	13708.14
545.774	13794.47
546.138	13790.4
546.503	13958.98
546.867	13907.23
547.231	13995.37
547.595	14016.16
547.959	14007.8
548.324	14098.41
548.688	14086.21
549.052	14208.92
549.416	14214.12
549.779	14263.61
550.143	14301.8
550.507	14383.38
550.871	14337.05
551.235	14420.44
551.599	14517.84
551.962	14492.53
552.326	14604.84
552.689	14731.39
553.053	14554.45
553.417	14643.71
553.78	14870.82
554.143	14785.4
554.507	14888.22
554.87	14888.9
555.234	15158.27
555.597	14993.31
555.96	15038.05
556.323	15190.14
556.686	15186.07
557.05	15233.53
557.413	15263.36
557.776	15269.91
558.139	15377.93
558.502	15484.14
558.865	15415.44
559.228	15560.98
559.59	15603.91
559.953	15687.75
560.316	15698.6
560.679	15819.5
561.041	15835.09
561.404	15998.7
561.767	16015.2
562.129	15905.6
562.492	16158.25
562.854	16110.34
563.217	16152.82
563.579	16307.17
563.941	16285.25
564.304	16376.77
564.666	16440.05
565.028	16501.52
565.39	16424
565.753	16611.79
566.115	16593.26
566.477	16641.17
566.839	16781.06
567.201	16934.27
567.563	16811.79
567.925	17068.73
568.287	16980.6
568.648	17063.08
569.01	17248.39
569.372	17215.39
569.734	17304.43
570.095	17380.81
570.457	17485.67
570.819	17569.06
571.18	17517.31
571.542	17578.55
571.903	17680.47
572.265	17743.52
572.626	17886.56
572.987	17866.9
573.349	17914.36
573.71	18074.58
574.071	18166.78
574.432	18275.48
574.794	18454.91
575.155	18429.6
575.516	18531.74
575.877	18657.39
576.238	18656.49
576.599	18870.49
576.96	18885.18
577.32	19033.43
577.681	19199.98
578.042	19313.87
578.403	19447.65
578.763	19579.4
579.124	19703.46
579.485	19892.61
579.845	20029.11
580.206	20190.91
580.566	20339.61
580.927	20433.16
581.287	20629.09
581.648	20865.02
582.008	20989.53
582.368	21075.18
582.728	21346.13
583.089	21437.43
583.449	21631.1
583.809	21862.96
584.169	22074.48
584.529	22336.84
584.889	22606.89
585.249	22725.76
585.609	22864.06
585.969	23124.17
586.329	23167.55
586.688	23591.95
587.048	23692.96
587.408	23915.11
587.768	24200.07
588.127	24380.18
588.487	24506.5
588.846	25048.86
589.206	25139.48
589.565	25232.13
589.925	25703.31
590.284	25919.35
590.643	26076.86
591.003	26420.12
591.362	26646.56
591.721	26998.87
592.08	27160.67
592.44	27476.14
592.799	27778.28
593.158	27893.98
593.517	28248.1
593.876	28497.13
594.235	28754.75
594.593	28967.63
594.952	29302.53
595.311	29448.29
595.67	29728.29
596.029	30129.63
596.387	30333.92
596.746	30704.31
597.104	30810.97
597.463	30971.19
597.822	31370.95
598.18	31468.81
598.538	31529.59
598.897	32118.05
599.255	32115.34
599.613	32626.06
599.972	32648.44
600.33	32959.84
600.688	33041.19
601.046	33454.74
601.404	33757.33
601.762	33861.96
602.12	34160.26
602.478	34428.5
602.836	34637.31
603.194	34630.76
603.552	34944.65
603.91	35001.14
604.268	35421.7
604.625	35438.87
604.983	35705.53
605.341	35715.7
605.698	36227.32
606.056	36325.63
606.413	36444.04
606.771	36703.24
607.128	36890.58
607.485	36854.2
607.843	37181.2
608.2	37393.17
608.557	37601.53
608.914	37737.34
609.272	37989.76
609.629	38055.07
609.986	38462.29
610.343	38316.76
610.7	38728.28
611.057	38795.84
611.414	38881.72
611.771	39053.01
612.127	39281.26
612.484	39327.58
612.841	39629.95
613.198	39667.46
613.554	39671.98
613.911	40045.98
614.267	40217.05
614.624	40089.37
614.98	40333.88
615.337	40727.32
615.693	40575.91
616.05	40800.31
616.406	41052.28
616.762	40979.97
617.118	41018.61
617.475	41058.61
617.831	41279.85
618.187	41499.28
618.543	41501.99
618.899	41792.83
619.255	41717.35
619.611	41844.13
619.967	41936.55
620.323	42297
620.678	42177.68
621.034	42019.04
621.39	42061.75
621.746	42303.77
622.101	42802.07
622.457	42500.38
622.812	42526.37
623.168	42779.47
623.523	42674.84
623.879	43014.04
624.234	42734.27
624.589	43000.03
624.945	42894.27
625.3	43139.23
625.655	43084.32
626.01	43153.92
626.365	43369.74
626.72	43235.5
627.075	43304.43
627.43	43265.78
627.785	43263.98
628.14	43303.07
628.495	43434.82
628.85	43357.76
629.205	43246.57
629.559	43515.27
629.914	43552.56
630.269	43546.68
630.623	43383.97
630.978	43370.19
631.332	43580.8
631.687	43747.58
632.041	43492.67
632.396	43747.8
632.75	43532.89
633.104	43575.38
633.459	43571.99
633.813	43503.74
634.167	43499
634.521	43641.14
634.875	43609.73
635.229	43545.55
635.583	43344.88
635.937	43438.89
636.291	43368.38
636.645	43424.65
636.999	43413.12
637.352	43555.95
637.706	43221.04
638.06	43443.86
638.413	43390.3
638.767	43430.07
639.121	43329.74
639.474	43219.46
639.828	43238.21
640.181	43389.4
640.534	43310.08
640.888	43177.2
641.241	43110.76
641.594	43151.66
641.947	43263.52
642.301	43155.05
642.654	43158.89
643.007	43167.25
643.36	43195.95
643.713	43061.95
644.066	43291.09
644.419	43071.66
644.771	42828.73
645.124	42416.09
645.477	42377.45
645.83	42292.25
646.182	41889.77
646.535	41821.98
646.888	41966.16
647.24	41703.34
647.593	42066.94
647.945	41865.59
648.298	41716.67
648.65	41698.37
649.002	41579.27
649.355	41892.49
649.707	41735.43
650.059	41914.86
650.411	42280.95
650.763	42432.36
651.115	42739.47
651.467	42658.12
651.819	42658.34
652.171	42542.19
652.523	42473.49
652.875	42396.65
653.227	42331.12
653.578	42594.16
653.93	42465.13
654.282	42459.93
654.633	42339.93
654.985	42375.19
655.337	42399.37
655.688	42409.08
656.039	42393.26
656.391	42255.41
656.742	42346.71
657.094	42367.28
657.445	42398.46
657.796	42438.46
658.147	42209.31
658.498	42251.12
658.849	42354.85
659.2	42374.73
659.551	42134.97
659.902	42328.18
660.253	42292.93
660.604	42379.48
660.955	42139.03
661.306	42227.62
661.656	42172.25
662.007	42103.33
662.358	42311.91
662.708	42083.44
663.059	42262.42
663.409	41929.77
663.76	42147.62
664.11	42174.96
664.461	42080.28
664.811	42201.63
665.161	42146.94
665.511	42079.83
665.862	42063.78
666.212	42077.57
666.562	42119.15
666.912	41840.74
667.262	41926.61
667.612	41913.05
667.962	42102.42
668.312	41974.97
668.662	42146.49
669.011	41835.09
669.361	41848.19
669.711	41985.82
670.06	41956.21
670.41	41829.66
670.76	41799.16
671.109	41977.46
671.459	41839.38
671.808	41759.61
672.157	41880.96
672.507	41592.38
672.856	41538.37
673.205	41806.39
673.554	41870.11
673.904	41765.48
674.253	41843
674.602	41746.5
674.951	41155.56
675.3	41017.71
675.649	41581.76
675.998	41552.83
676.346	41642.55
676.695	41721.64
677.044	41430.13
677.393	41457.24
677.741	41641.42
678.09	41545.15
678.438	41332.73
678.787	41496.79
679.135	41438.26
679.484	41133.18
679.832	41226.74
680.181	41006.18
680.529	41168.89
680.877	41175.89
681.225	41044.6
681.573	41085.28
681.922	40985.17
682.27	40930.25
682.618	40916.24
682.966	40794.89
683.314	41035.11
683.661	40809.35
684.009	40546.53
684.357	40479.19
684.705	40630.6
685.053	40642.12
685.4	40484.16
685.748	40335.46
686.095	40175.92
686.443	40276.48
686.79	40049.82
687.138	40388.34
687.485	40261.79
687.832	39968.24
688.18	40099.31
688.527	39812.09
688.874	39905.42
689.221	39843.95
689.568	39667.69
689.915	39499.1
690.262	39572.32
690.609	39473.34
690.956	39388.37
691.303	39396.73
691.65	39157.19
691.997	39128.04
692.344	38983.64
692.69	38860.25
693.037	38910.64
693.383	38627.71
693.73	38680.82
694.077	38416.87
694.423	38466.81
694.769	38362.41
695.116	38320.15
695.462	38280.83
695.808	38142.08
696.155	38338
696.501	37853.5
696.847	37872.03
697.193	37628.19
697.539	37813.27
697.885	37627.06
698.231	37420.51
698.577	37522.21
698.923	37428.42
699.269	37204.25
699.614	37162.44
699.96	37030.02
700.306	37250.57
700.651	36884.03
700.997	36852.17
701.342	36659.4
701.688	36657.37
702.033	36550.03
702.379	36482.01
702.724	36502.57
703.069	36550.71
703.415	35999.76
703.76	36022.81
704.105	35982.13
704.45	35935.58
704.795	35838.86
705.14	35772.65
705.485	35701.24
705.83	35560.45
706.175	35500.11
706.52	35461.47
706.865	35322.26
707.209	35289.95
707.554	35148.71
707.899	35341.7
708.243	35070.74
708.588	35131.99
708.932	34740.36
709.277	34875.27
709.621	34865.78
709.966	34611.77
710.31	34676.86
710.654	34330.2
710.998	34446.13
711.342	34484.77
711.687	34273.93
712.031	34227.38
712.375	34146.02
712.719	34091.11
713.063	34143.54
713.407	34224.67
713.75	33882.98
714.094	33748.97
714.438	33646.6
714.782	33846.37
715.125	33576.09
715.469	33622.65
715.812	33319.38
716.156	33322.09
716.499	33403.22
716.843	33313.73
717.186	33096.11
717.53	33261.3
717.873	33330.68
718.216	33261.53
718.559	32982.44
718.902	32755.33
719.246	32860.41
719.589	32825.38
719.932	32594.2
720.275	32683.69
720.617	32638.49
720.96	32525.73
721.303	32445.95
721.646	32643.69
721.989	32476.46
722.331	32496.35
722.674	32351.95
723.016	32430.81
723.359	32326.41
723.701	32424.49
724.044	32142.69
724.386	32011.16
724.729	32185.85
725.071	32051.61
725.413	31999.86
725.755	31939.08
726.097	31861.34
726.439	31770.49
726.782	31835.8
727.124	31822.69
727.465	31726.88
727.807	31693.21
728.149	31543.38
728.491	31535.24
728.833	31678.29
729.175	31536.15
729.516	31408.02
729.858	31270.39
730.199	31352.65
730.541	31328.47
730.882	31344.74
731.224	31374.8
731.565	31041.25
731.906	30967.12
732.248	31105.65
732.589	30905.66
732.93	30773
733.271	30868.37
733.612	30834.92
733.953	30904.75
734.294	30781.82
734.635	30679.22
734.976	30811.65
735.317	30544.99
735.658	30501.37
735.999	30448.04
736.339	30466.12
736.68	30580.92
737.021	30412.11
737.361	30330.76
737.702	30443.07
738.042	30355.39
738.383	30236.75
738.723	30355.84
739.063	30140.93
739.404	30285.11
739.744	30060.03
740.084	30028.17
740.424	29980.48
740.764	30058.9
741.104	30044.21
741.444	29722.41
741.784	29796.53
742.124	29881.95
742.464	29826.14
742.804	29648.06
743.143	29633.37
743.483	29675.41
743.823	29483.77
744.162	29496.65
744.502	29487.39
744.841	29436.32
745.181	29608.29
745.52	29411.91
745.86	29497.56
746.199	29300.5
746.538	29395.19
746.877	29426.15
747.216	29322.42
747.556	29265.93
747.895	29214.63
748.234	29171.46
748.573	29044.46
748.911	29189.77
749.25	28977.57
749.589	28933.96
749.928	28918.36
750.267	29011.47
750.605	28865.71
750.944	28836.56
751.283	28761.98
751.621	28852.38
751.96	28661.87
752.298	28624.81
752.636	28494.19
752.975	28287.19
753.313	28366.51
753.651	28509.56
753.989	28265.95
754.327	28247.87
754.666	28225.5
755.004	28218.5
755.342	28202.22
755.679	28180.53
756.017	28051.27
756.355	28091.49
756.693	27935.56
757.031	28026.64
757.368	27712.52
757.706	27887.66
758.044	27625.52
758.381	27536.93
758.719	27518.4
759.056	27577.83
759.394	27316.6
759.731	27231.18
760.068	27364.51
760.405	27137.39
760.743	27075.25
761.08	27114.34
761.417	27121.58
761.754	27020.56
762.091	26873.22
762.428	26746.44
762.765	26638.42
763.102	26812.66
763.438	26558.43
763.775	26479.33
764.112	26534.02
764.449	26415.83
764.785	26354.36
765.122	26190.98
765.458	26003.19
765.795	26076.4
766.131	26028.27
766.467	25821.5
766.804	25797.09
767.14	25655.62
767.476	25656.3
767.812	25496.53
768.148	25560.94
768.485	25457.21
768.821	25170.44
769.157	25266.26
769.492	25261.96
769.828	25178.58
770.164	25003.89
770.5	24904.23
770.836	24906.94
771.171	24747.85
771.507	24702.88
771.842	24591.7
772.178	24453.4
772.513	24380.4
772.849	24388.09
773.184	24263.35
773.519	24205.49
773.855	24112.39
774.19	24059.96
774.525	23927.76
774.86	23992.39
775.195	23849.8
775.53	23743.36
775.865	23667.88
776.2	23496.59
776.535	23360.32
776.87	23302.92
777.205	23201.68
777.539	23203.26
777.874	23189.7
778.209	22963.49
778.543	22999.88
778.878	22875.58
779.212	22774.34
779.547	22665.87
779.881	22787
780.215	22491.87
780.55	22551.98
780.884	22328.48
781.218	22357.41
781.552	22328.48
781.886	22162.84
782.22	22090.97
782.554	22000.35
782.888	21720.14
783.222	21742.28
783.556	21613.25
783.889	21655.73
784.223	21455.06
784.557	21526.92
784.89	21570.76
785.224	21453.25
785.557	21174.61
785.891	21111.79
786.224	21152.01
786.558	21105.24
786.891	20844.68
787.224	20793.61
787.557	20736.21
787.891	20784.11
788.224	20651.46
788.557	20754.96
788.89	20554.74
789.223	20543.44
789.556	20473.84
789.888	20369.66
790.221	20332.83
790.554	20126.28
790.887	20149.78
791.219	20007.41
791.552	20021.42
791.884	19900.52
792.217	19829.56
792.549	19756.8
792.882	19620.53
793.214	19651.26
793.546	19574.88
793.879	19519.74
794.211	19244.72
794.543	19382.57
794.875	19399.52
795.207	19360.42
795.539	19296.47
795.871	19094.44
796.203	18971.51
796.535	18967.67
796.867	18914.33
797.198	18872.07
797.53	18828.91
797.862	18750.27
798.193	18751.85
798.525	18611.06
798.856	18652.65
799.188	18403.84
799.519	18386.66
799.85	18343.73
800.182	18243.84
800.513	18286.33
800.844	18103.73
801.175	18182.15
801.506	18229.38
801.837	18062.6
802.168	18104.86
802.499	17969.73
802.83	17876.85
803.161	17797.98
803.491	17927.01
803.822	17891.76
804.153	17726.79
804.483	17559.34
804.814	17589.62
805.145	17464.88
805.475	17436.86
805.805	17406.12
806.136	17355.5
806.466	17340.59
806.796	17296.97
807.126	17176.75
807.457	17250.65
807.787	17223.53
808.117	17124.1
808.447	16968.85
808.777	17013.37
809.107	16958.68
809.436	16870.09
809.766	16815.18
810.096	16874.61
810.426	16638.69
810.755	16759.14
811.085	16676.2
811.414	16622.64
811.744	16522.31
812.073	16482.53
812.403	16444.12
812.732	16480.05
813.061	16420.39
813.39	16255.87
813.719	16375.19
814.049	16364.12
814.378	16167.96
814.707	16210.22
815.036	16087.51
815.365	16018.82
815.693	15920.74
816.022	15959.38
816.351	15871.7
816.68	15763.91
817.008	15833.06
817.337	15706.28
817.665	15713.97
817.994	15753.74
818.322	15702.67
818.651	15608.88
818.979	15557.13
819.307	15689.33
819.636	15497.02
819.964	15472.39
820.292	15564.14
820.62	15471.49
820.948	15505.61
821.276	15584.48
821.604	15512.16
821.932	15486.63
822.259	15416.57
822.587	15516.91
822.915	15374.77
823.243	15459.73
823.57	15334.54
823.898	15333.41
824.225	15423.58
824.553	15249.8
824.88	15317.37
825.207	15359.85
825.535	15376.35
825.862	15347.2
826.189	15226.29
826.516	15378.83
826.843	15444.82
827.17	15278.95
827.497	15406.18
827.824	15297.48
828.151	15363.01
828.478	15308.55
828.805	15440.07
829.131	15326.18
829.458	15357.59
829.785	15242.79
830.111	15302.45
830.438	15358.04
830.764	15327.31
831.09	15289.34
831.417	15152.62
831.743	15278.5
832.069	15242.79
832.395	15193.75
832.722	15219.06
833.048	15266.52
833.374	15246.86
833.7	15139.29
834.026	15115.11
834.351	15211.61
834.677	15127.99
835.003	15135
835.329	15149.91
835.654	15135
835.98	15048.45
836.306	15052.97
836.631	14997.83
836.956	15003.7
837.282	15021.78
837.607	14908.56
837.932	14921.22
838.258	14925.29
838.583	14853.65
838.908	14745.86
839.233	14850.71
839.558	14778.85
839.883	14801.67
840.208	14687.78
840.533	14766.42
840.858	14670.15
841.182	14678.51
841.507	14724.61
841.832	14629.7
842.156	14597.16
842.481	14596.48
842.805	14458.63
843.13	14571.62
843.454	14417.95
843.778	14415.69
844.103	14382.47
844.427	14387.9
844.751	14350.61
845.075	14304.96
845.399	14258.41
845.723	14123.72
846.047	14187.68
846.371	14030.39
846.695	14002.6
847.019	13997.17
847.343	13905.88
847.666	13774.36
847.99	13750.18
848.313	13745.88
848.637	13689.84
848.96	13733.68
849.284	13567.13
849.607	13415.04
849.931	13440.35
850.254	13425.89
850.577	13353.8
850.9	13206.91
851.223	13260.92
851.546	13189.96
851.869	13112.45
852.192	13103.19
852.515	13095.05
852.838	12953.81
853.161	13001.95
853.483	12841.95
853.806	12857.54
854.129	12847.37
854.451	12807.15
854.774	12731.44
855.096	12634.05
855.419	12601.28
855.741	12633.82
856.063	12519.7
856.385	12488.51
856.708	12480.6
857.03	12447.16
857.352	12360.16
857.674	12414.84
857.996	12389.08
858.318	12281.29
858.64	12287.84
858.961	12161.97
859.283	12141.63
859.605	12099.15
859.926	12105.92
860.248	12142.08
860.57	12090.56
860.891	11996.1
861.212	11976.21
861.534	11976.66
861.855	11919.71
862.176	11879.94
862.498	11955.19
862.819	11857.8
863.14	11808.08
863.461	11858.47
863.782	11765.14
864.103	11739.15
864.424	11733.51
864.745	11715.2
865.065	11688.53
865.386	11681.3
865.707	11614.64
866.027	11599.95
866.348	11621.87
866.668	11651.93
866.989	11592.94
867.309	11465.49
867.63	11552.72
867.95	11477.24
868.27	11447.86
868.59	11405.38
868.91	11458.26
869.23	11416.23
869.55	11394.76
869.87	11415.77
870.19	11377.36
870.51	11387.3
870.83	11394.98
871.15	11298.49
871.469	11348.66
871.789	11377.13
872.109	11310.47
872.428	11224.37
872.748	11271.37
873.067	11227.76
873.386	11171.03
873.706	11152.5
874.025	11150.7
874.344	11056.01
874.663	11162.9
874.982	11064.6
875.301	11101.66
875.62	11064.6
875.939	11011.72
876.258	11078.16
876.577	11005.61
876.896	10943.47
877.214	10935.79
877.533	10982.56
877.852	10876.58
878.17	10966.29
878.489	10941.89
878.807	10883.13
879.125	10854.21
879.444	10850.82
879.762	10787.99
880.08	10821.44
880.398	10684.49
880.716	10801.55
881.034	10790.03
881.352	10737.15
881.67	10629.35
881.988	10623.25
882.306	10642.91
882.624	10614.21
882.941	10496.48
883.259	10514.1
883.577	10575.34
883.894	10524.5
884.212	10530.37
884.529	10463.03
884.846	10463.03
885.164	10451.96
885.481	10385.29
885.798	10408.12
886.115	10301.68
886.432	10296.03
886.75	10288.35
887.067	10318.63
887.383	10258.74
887.7	10280.89
888.017	10196.14
888.334	10251.28
888.651	10164.28
888.967	10173.32
889.284	10168.57
889.6	10080.89
889.917	9992.31
890.233	10022.36
890.55	9931.97
890.866	9956.83
891.182	9877.73
891.498	9957.96
891.815	9847
892.131	9831.41
892.447	9847.9
892.763	9724.29
893.079	9856.72
893.395	9772.2
893.71	9701.02
894.026	9656.5
894.342	9672.77
894.657	9583.28
894.973	9518.87
895.289	9531.76
895.604	9501.7
895.92	9482.94
896.235	9422.15
896.55	9464.41
896.865	9376.28
897.181	9402.49
897.496	9383.51
897.811	9302.61
898.126	9245.43
898.441	9215.38
898.756	9203.85
899.071	9171.54
899.386	9236.62
899.7	9120.01
900.015	9056.97
900.33	8990.3
900.644	9002.5
900.959	8954.37
901.273	8938.1
901.588	8950.08
901.902	8854.26
902.216	8801.15
902.531	8807.25
902.845	8734.94
903.159	8736.75
903.473	8682.51
903.787	8654.72
904.101	8651.78
904.415	8628.05
904.729	8605.45
905.042	8526.58
905.356	8517.77
905.67	8528.39
905.984	8499.47
906.297	8463.99
906.611	8417.21
906.924	8413.59
907.237	8372.24
907.551	8399.36
907.864	8298.57
908.177	8206.59
908.491	8216.76
908.804	8164.56
909.117	8141.74
909.43	8047.27
909.743	8050.44
910.056	8095.41
910.368	8038.69
910.681	7957.11
910.994	7984
911.307	7957.11
911.619	7852.93
911.932	7908.07
912.244	7813.61
912.557	7798.02
912.869	7774.29
913.181	7752.14
913.494	7695.65
913.806	7594.4
914.118	7622.43
914.43	7581.07
914.742	7596.44
915.054	7561.64
915.366	7594.86
915.678	7441.87
915.99	7433.28
916.302	7397.35
916.613	7368.2
916.925	7341.98
917.236	7325.03
917.548	7242.55
917.859	7302.66
918.171	7284.58
918.482	7220.86
918.794	7170.01
919.105	7125.94
919.416	7139.05
919.727	7059.73
920.038	7056.57
920.349	6956.91
920.66	7007.3
920.971	6963.91
921.282	6972.27
921.593	6921.2
921.903	6856.12
922.214	6833.07
922.525	6797.59
922.835	6765.95
923.146	6713.07
923.456	6756.01
923.767	6671.49
924.077	6674.66
924.387	6642.57
924.697	6614.09
925.008	6567.77
925.318	6535.45
925.628	6506.75
925.938	6483.47
926.248	6417.94
926.558	6449.58
926.867	6410.48
927.177	6382.69
927.487	6348.79
927.796	6302.69
928.106	6313.53
928.416	6300.2
928.725	6228.79
929.034	6218.62
929.344	6237.38
929.653	6168.68
929.962	6134.78
930.271	6124.61
930.581	6109.25
930.89	6048.23
931.199	6036.48
931.508	6093.43
931.817	6031.28
932.125	5956.48
932.434	5952.19
932.743	5930.95
933.051	5863.83
933.36	5894.34
933.669	5864.05
933.977	5832.19
934.286	5830.38
934.594	5779.54
934.902	5717.84
935.21	5728.47
935.519	5714
935.827	5680.33
936.135	5646.89
936.443	5599.43
936.751	5585.64
937.059	5551.75
937.367	5493.9
937.674	5500.22
937.982	5474.23
938.29	5464.74
938.597	5474.46
938.905	5350.85
939.213	5375.93
939.52	5363.5
939.827	5380.68
940.135	5334.13
940.442	5302.04
940.749	5307.01
941.056	5279.21
941.363	5247.8
941.67	5210.29
941.977	5164.41
942.284	5198.99
942.591	5150.18
942.898	5141.36
943.205	5095.71
943.511	5101.14
943.818	5053.68
944.125	5013.46
944.431	4995.15
944.738	4991.31
945.044	4965.1
945.35	4937.75
945.657	4930.97
945.963	4896.4
946.269	4897.3
946.575	4883.06
946.881	4855.72
947.187	4834.25
947.493	4806.68
947.799	4807.81
948.105	4747.93
948.41	4706.8
948.716	4743.86
949.022	4698.66
949.327	4658.44
949.633	4582.05
949.938	4627.48
950.244	4666.35
950.549	4567.59
950.854	4579.34
951.16	4573.24
951.465	4505.67
951.77	4527.37
952.075	4504.77
952.38	4487.82
952.685	4461.38
952.99	4435.84
953.294	4384.09
953.599	4420.25
953.904	4420.48
954.209	4329.41
954.513	4323.98
954.818	4318.56
955.122	4300.03
955.426	4305.23
955.731	4247.15
956.035	4295.96
956.339	4205.57
956.643	4241.05
956.948	4210.31
957.252	4192.91
957.556	4166.47
957.86	4152.24
958.163	4105.68
958.467	4116.98
958.771	4056.64
959.075	4065.23
959.378	4039.7
959.682	4068.4
959.985	4015.52
960.289	4008.51
960.592	3993.6
960.896	4003.99
961.199	3960.15
961.502	3926.03
961.805	3938.91
962.108	3890.32
962.411	3907.27
962.714	3841.28
963.017	3874.95
963.32	3870.89
963.623	3811.68
963.926	3820.49
964.228	3787.95
964.531	3754.73
964.833	3750.89
965.136	3716.31
965.438	3692.36
965.741	3695.52
966.043	3679.48
966.345	3666.82
966.648	3690.33
966.95	3633.83
967.252	3631.8
967.554	3651.23
967.856	3567.39
968.158	3562.65
968.46	3605.36
968.761	3550.9
969.063	3545.92
969.365	3502.76
969.666	3518.58
969.968	3499.37
970.269	3464.57
970.571	3467.73
970.872	3429.77
971.174	3437.68
971.475	3406.94
971.776	3371.47
972.077	3378.47
972.378	3333.05
972.679	3355.19
972.98	3347.96
973.281	3293.27
973.582	3320.62
973.883	3319.04
974.183	3282.43
974.484	3260.51
974.785	3208.08
975.085	3238.59
975.386	3243.11
975.686	3204.92
975.986	3163.33
976.287	3171.24
976.587	3133.96
976.887	3164.92
977.187	3139.61
977.487	3131.7
977.787	3096.67
978.087	3082.66
978.387	3092.38
978.687	3048.54
978.987	3060.51
979.286	3036.78
979.586	3045.15
979.885	3018.71
980.185	3003.57
980.484	2990.68
980.784	2956.79
981.083	2979.38
981.382	2958.37
981.682	2934.19
981.981	2928.54
982.28	2936.9
982.579	2858.03
982.878	2915.66
983.177	2857.35
983.475	2875.21
983.774	2844.25
984.073	2799.5
984.372	2808.99
984.67	2829.33
984.969	2808.09
985.267	2783.46
985.566	2771.48
985.864	2754.31
986.162	2731.48
986.461	2706.62
986.759	2704.82
987.057	2684.03
987.355	2699.17
987.653	2694.42
987.951	2638.83
988.249	2675.66
988.547	2642.9
988.844	2622.11
989.142	2630.69
989.44	2595.89
989.737	2578.04
990.035	2565.38
990.332	2557.7
990.63	2554.09
990.927	2541.2
991.224	2533.75
991.521	2518.38
991.819	2525.39
992.116	2522
992.413	2505.27
992.71	2446.97
993.006	2469.79
993.303	2450.81
993.6	2427.99
993.897	2444.03
994.193	2417.59
994.49	2443.81
994.787	2369.68
995.083	2392.73
995.379	2390.47
995.676	2370.36
995.972	2326.75
996.268	2314.77
996.565	2331.94
996.861	2314.32
997.157	2311.83
997.453	2300.76
997.749	2258.95
998.044	2258.05
998.34	2238.61
998.636	2225.05
998.932	2233.64
999.227	2188.67
999.523	2198.61
999.818	2229.8
1000.114	2199.29
1000.409	2197.03
1000.704	2176.47
1001	2181.21
1001.295	2138.05
1001.59	2136.47
1001.885	2127.43
1002.18	2151.61
1002.475	2076.81
1002.77	2083.36
1003.065	2060.99
1003.359	2041.78
1003.654	2093.31
1003.949	2020.31
1004.243	2006.53
1004.538	2020.31
1004.832	1986.64
1005.127	1995.46
1005.421	1984.61
1005.715	1986.19
1006.009	1984.38
1006.304	1930.15
1006.598	1944.16
1006.892	1924.27
1007.186	1933.54
1007.48	1914.1
1007.773	1911.16
1008.067	1902.13
1008.361	1901.45
1008.655	1859.41
1008.948	1874.33
1009.242	1854.67
1009.535	1842.47
1009.829	1839.3
1010.122	1816.48
1010.415	1829.58
1010.708	1794.33
1011.001	1794.56
1011.295	1765.18
1011.588	1778.74
1011.881	1732.86
1012.173	1739.19
1012.466	1729.47
1012.759	1720.89
1013.052	1717.5
1013.344	1743.26
1013.637	1710.94
1013.93	1687.44
1014.222	1651.06
1014.514	1698.29
1014.807	1656.03
1015.099	1654
1015.391	1667.56
1015.683	1655.8
1015.976	1600.66
1016.268	1612.87
1016.56	1598.86
1016.851	1589.36
1017.143	1594.34
1017.435	1589.36
1017.727	1552.76
1018.018	1556.37
1018.31	1558.18
1018.602	1545.52
1018.893	1528.12
1019.185	1506.2
1019.476	1518.18
1019.767	1497.16
1020.058	1487.45
1020.35	1486.32
1020.641	1444.51
1020.932	1458.07
1021.223	1432.98
1021.514	1419.43
1021.804	1424.62
1022.095	1434.34
1022.386	1397.96
1022.677	1428.69
1022.967	1383.95
1023.258	1390.27
1023.548	1397.96
1023.839	1363.61
1024.129	1358.64
1024.419	1352.31
1024.709	1353.21
1025	1342.82
1025.29	1293.33
1025.58	1297.62
1025.87	1285.19
1026.16	1297.4
1026.449	1273.44
1026.739	1263.5
1027.029	1256.72
1027.319	1254.68
1027.608	1256.49
1027.898	1276.6
1028.187	1233.89
1028.477	1248.81
1028.766	1200.22
1029.055	1220.79
1029.344	1207.91
1029.634	1213.1
1029.923	1183.73
1030.212	1205.87
1030.501	1171.52
1030.79	1147.57
1031.078	1166.1
1031.367	1168.36
1031.656	1145.53
1031.945	1148.92
1032.233	1139.66
1032.522	1107.34
1032.81	1103.95
1033.099	1096.04
1033.387	1112.77
1033.675	1082.71
1033.963	1083.62
1034.251	1088.81
1034.54	1076.61
1034.828	1061.7
1035.116	1043.62
1035.403	1072.99
1035.691	1044.75
1035.979	1047.46
1036.267	1007.91
1036.554	1014.92
1036.842	1037.29
1037.129	1001.58
1037.417	992.54
1037.704	1001.13
1037.992	991.87
1038.279	997.52
1038.566	980.12
1038.853	980.12
1039.14	980.12
