Data from hue_28_FLMS001491_00042.txt Node
Date: Tue Feb 07 17:17:19 GMT 2017
User: dcchb
Spectrometer: FLMS00149
Trigger mode: 0
Integration Time (sec): 2.000000E-2
Scans to average: 10
Electric dark correction enabled: true
Nonlinearity correction enabled: false
Boxcar width: 0
XAxis mode: Wavelengths
Number of Pixels in Spectrum: 2048
>>>>>Begin Spectral Data<<<<<
341.393	-20.37
341.776	-20.37
342.16	-20.37
342.543	-72.57
342.927	-60.59
343.31	-67.6
343.693	-69.63
344.077	-45.45
344.46	-63.53
344.843	-72.57
345.226	-63.76
345.61	-33.7
345.993	-24.66
346.376	-18.78
346.759	14.21
347.142	46.07
347.525	49.24
347.908	72.74
348.291	65.96
348.674	89.69
349.057	121.78
349.44	122.23
349.823	137.37
350.206	145.5
350.588	172.4
350.971	200.19
351.354	215.11
351.737	223.69
352.119	261.21
352.502	240.87
352.884	236.58
353.267	300.08
353.65	307.31
354.032	293.98
354.414	301.21
354.797	310.02
355.179	315.67
355.562	332.62
355.944	324.48
356.326	339.4
356.709	336.01
357.091	341.66
357.473	335.33
357.855	337.59
358.238	332.17
358.62	324.48
359.002	328.78
359.384	368.1
359.766	334.2
360.148	357.48
360.53	307.53
360.912	336.46
361.294	345.73
361.676	336.91
362.057	350.02
362.439	340.53
362.821	318.61
363.203	313.41
363.584	335.56
363.966	320.42
364.348	312.51
364.729	324.03
365.111	341.66
365.493	317.93
365.874	309.79
366.256	320.42
366.637	319.74
367.019	320.19
367.4	324.48
367.781	297.37
368.163	309.57
368.544	306.86
368.925	316.57
369.306	306.18
369.688	298.95
370.069	305.73
370.45	293.98
370.831	326.74
371.212	308.21
371.593	318.83
371.974	310.7
372.355	305.73
372.736	291.26
373.117	331.26
373.498	293.52
373.879	317.48
374.26	327.65
374.641	320.64
375.021	317.48
375.402	316.57
375.783	315.67
376.163	329.91
376.544	311.83
376.925	331.49
377.305	328.55
377.686	337.14
378.066	310.02
378.447	333.75
378.827	331.04
379.208	313.18
379.588	336.69
379.968	320.19
380.349	364.26
380.729	349.34
381.109	319.29
381.489	349.34
381.87	327.42
382.25	344.14
382.63	333.75
383.01	336.01
383.39	335.1
383.77	352.5
384.15	331.49
384.53	351.15
384.91	340.75
385.29	365.39
385.67	363.58
386.049	375.78
386.429	352.5
386.809	339.85
387.189	354.76
387.568	349.57
387.948	347.08
388.328	358.15
388.707	339.17
389.087	360.87
389.466	369.45
389.846	355.89
390.225	348.89
390.605	372.62
390.984	349.79
391.363	377.59
391.743	373.97
392.122	348.89
392.501	379.4
392.881	372.39
393.26	361.32
393.639	365.39
394.018	380.98
394.397	385.95
394.776	371.49
395.155	367.87
395.534	399.06
395.913	380.07
396.292	376.69
396.671	393.63
397.05	386.18
397.429	387.76
397.808	390.7
398.186	397.93
398.565	386.4
398.944	392.96
399.323	376.01
399.701	423.01
400.08	398.38
400.458	396.57
400.837	397.93
401.215	391.37
401.594	405.38
401.972	404.71
402.351	397.93
402.729	372.39
403.107	405.38
403.486	401.09
403.864	397.02
404.242	392.96
404.62	413.07
404.999	419.62
405.377	427.08
405.755	431.15
406.133	403.12
406.511	414.65
406.889	399.74
407.267	434.08
407.645	427.98
408.023	443.12
408.401	443.12
408.779	451.94
409.156	450.13
409.534	460.52
409.912	424.37
410.29	457.59
410.667	438.38
411.045	453.52
411.422	451.49
411.8	477.47
412.178	460.52
412.555	457.81
412.933	469.56
413.31	467.53
413.687	474.08
414.065	456.68
414.442	484.48
414.819	470.47
415.197	470.92
415.574	484.93
415.951	481.32
416.328	487.87
416.705	505.04
417.082	506.85
417.46	516.12
417.837	508.43
418.214	491.48
418.591	501.65
418.967	524.03
419.344	526.06
419.721	517.92
420.098	528.32
420.475	541.88
420.852	518.15
421.228	522.9
421.605	506.17
421.982	534.42
422.358	533.74
422.735	509.34
423.111	531.26
423.488	558.6
423.864	568.77
424.241	552.5
424.617	545.04
424.994	554.99
425.37	565.83
425.746	554.53
426.123	562.22
426.499	565.61
426.875	561.09
427.251	555.89
427.627	559.51
428.003	577.36
428.379	577.58
428.756	597.24
429.132	580.3
429.507	600.86
429.883	599.5
430.259	624.81
430.635	652.84
431.011	621.2
431.387	608.54
431.763	624.36
432.138	642.67
432.514	647.41
432.89	646.51
433.265	648.09
433.641	654.42
434.016	653.74
434.392	668.2
434.767	669.78
435.143	655.77
435.518	674.98
435.894	672.95
436.269	675.89
436.644	713.4
437.02	691.93
437.395	706.85
437.77	693.74
438.145	713.85
438.52	728.09
438.895	718.37
439.271	730.57
439.646	731.03
440.021	724.7
440.395	765.6
440.77	752.72
441.145	749.1
441.52	776.22
441.895	765.6
442.27	770.35
442.645	769.22
443.019	774.87
443.394	751.14
443.769	756.79
444.143	785.26
444.518	809.89
444.892	780.29
445.267	801.98
445.641	791.36
446.016	789.1
446.39	799.05
446.764	796.11
447.139	828.88
447.513	826.84
447.887	816.22
448.262	819.61
448.636	818.93
449.01	830.91
449.384	810.12
449.758	846.05
450.132	865.03
450.506	839.5
450.88	865.03
451.254	865.94
451.628	875.43
452.002	874.53
452.376	879.27
452.75	882.43
453.123	901.42
453.497	896.9
453.871	905.48
454.244	921.53
454.618	954.97
454.992	931.47
455.365	941.64
455.739	949.1
456.112	956.78
456.486	956.33
456.859	971.7
457.232	997.91
457.606	973.28
457.979	1008.53
458.352	1027.29
458.725	1025.71
459.099	1030.68
459.472	1054.18
459.845	1045.82
460.218	1095.76
460.591	1082.88
460.964	1076.1
461.337	1091.92
461.71	1108.87
462.083	1136.44
462.456	1146.61
462.829	1144.35
463.201	1164.23
463.574	1165.14
463.947	1188.42
464.32	1179.38
464.692	1209.43
465.065	1227.28
465.438	1230.9
465.81	1217.11
466.183	1264.57
466.555	1293.27
466.928	1294.63
467.3	1286.04
467.672	1319.71
468.045	1329.2
468.417	1329.88
468.789	1344.57
469.161	1358.35
469.534	1372.59
469.906	1401.97
470.278	1417.34
470.65	1438.35
471.022	1474.74
471.394	1539.37
471.766	1518.35
472.138	1514.06
472.51	1559.25
472.882	1597.9
473.253	1601.96
473.625	1628.63
473.997	1664.79
474.369	1678.57
474.74	1674.28
475.112	1693.94
475.484	1740.04
475.855	1775.74
476.227	1807.38
476.598	1869.98
476.97	1893.93
477.341	1930.32
477.713	1969.19
478.084	1940.03
478.455	2009.86
478.827	2040.6
479.198	2124.89
479.569	2128.5
479.94	2177.77
480.311	2222.51
480.682	2243.75
481.053	2296.63
481.424	2360.59
481.795	2385.45
482.166	2413.69
482.537	2452.34
482.908	2496.86
483.279	2559
483.65	2603.07
484.021	2633.12
484.391	2709.73
484.762	2733.91
485.133	2806.68
485.503	2828.15
485.874	2926.45
486.244	2965.09
486.615	3024.3
486.985	3044.64
487.356	3156.27
487.726	3181.81
488.097	3245.99
488.467	3302.26
488.837	3364.63
489.207	3398.53
489.578	3410.5
489.948	3456.6
490.318	3562.59
490.688	3563.95
491.058	3676.26
491.428	3714.68
491.798	3771.17
492.168	3833.54
492.538	3894.11
492.908	3934.33
493.278	3997.83
493.648	4012.3
494.017	4066.53
494.387	4096.59
494.757	4169.58
495.126	4243.93
495.496	4303.81
495.866	4309.91
496.235	4356.47
496.605	4411.83
496.974	4445.05
497.344	4461.78
497.713	4565.28
498.082	4583.81
498.452	4601.66
498.821	4606.86
499.19	4655.44
499.559	4722.56
499.928	4796.23
500.298	4781.99
500.667	4814.08
501.036	4860.18
501.405	4949.45
501.774	4930.46
502.143	4970.69
502.512	4976.56
502.88	5042.33
503.249	5072.38
503.618	5127.97
503.987	5151.47
504.356	5180.63
504.724	5195.09
505.093	5218.59
505.462	5253.39
505.83	5262.21
506.199	5320.74
506.567	5400.96
506.936	5372.71
507.304	5382.43
507.672	5475.53
508.041	5513.73
508.409	5516.44
508.777	5591.69
509.145	5599.82
509.514	5579.49
509.882	5648.64
510.25	5644.12
510.618	5716.66
510.986	5703.32
511.354	5832.81
511.722	5813.38
512.09	5834.85
512.458	5861.51
512.826	5904
513.193	5951
513.561	5949.87
513.929	6010.66
514.297	6041.62
514.664	6089.3
515.032	6087.95
515.4	6133.14
515.767	6127.95
516.135	6150.09
516.502	6190.09
516.869	6219.7
517.237	6248.4
517.604	6217.66
517.972	6313.25
518.339	6278.45
518.706	6299.47
519.073	6354.38
519.44	6359.58
519.808	6476.86
520.175	6444.32
520.542	6468.5
520.909	6540.36
521.276	6540.14
521.643	6568.39
522.009	6634.15
522.376	6696.74
522.743	6666.46
523.11	6714.15
523.477	6781.71
523.843	6828.72
524.21	6874.37
524.577	6948.26
524.943	6943.29
525.31	6976.06
525.676	7073.46
526.043	7026.91
526.409	7096.73
526.776	7160.24
527.142	7184.64
527.508	7228.71
527.874	7289.72
528.241	7313.45
528.607	7291.31
528.973	7366.56
529.339	7344.19
529.705	7405.65
530.071	7523.39
530.437	7533.33
530.803	7581.92
531.169	7623.05
531.535	7582.37
531.901	7590.05
532.267	7635.93
532.632	7752.08
532.998	7711.41
533.364	7870.73
533.73	7856.26
534.095	7928.58
534.461	7882.02
534.826	7946.2
535.192	8031.17
535.557	8053.77
535.923	8079.76
536.288	8029.37
536.653	8065.3
537.019	8099.42
537.384	8113.88
537.749	8156.82
538.114	8204.73
538.479	8195.46
538.845	8337.61
539.21	8328.79
539.575	8319.3
539.94	8380.54
540.305	8440.43
540.67	8441.33
541.034	8482.91
541.399	8550.71
541.764	8536.7
542.129	8553.87
542.494	8651.27
542.858	8632.74
543.223	8563.59
543.587	8743.47
543.952	8717.03
544.316	8787.31
544.681	8832.73
545.045	8808.33
545.41	8875.44
545.774	8867.54
546.138	8936.46
546.503	8976.91
546.867	8903.01
547.231	9059.62
547.595	9040.86
547.959	9108.66
548.324	9086.96
548.688	9194.98
549.052	9096.68
549.416	9302.1
549.779	9218.94
550.143	9303.91
550.507	9309.11
550.871	9413.96
551.235	9340.29
551.599	9457.58
551.962	9440.18
552.326	9450.8
552.689	9477.69
553.053	9502.32
553.417	9518.59
553.78	9604.92
554.143	9599.27
554.507	9645.82
554.87	9684.69
555.234	9752.94
555.597	9705.03
555.96	9737.79
556.323	9848.75
556.686	9892.82
557.05	9872.25
557.413	9902.31
557.776	9900.5
558.139	9993.38
558.502	9996.09
558.865	10089.2
559.228	10084.68
559.59	10142.53
559.953	10139.14
560.316	10275.41
560.679	10228.4
561.041	10268.18
561.404	10284.22
561.767	10378.46
562.129	10355.86
562.492	10488.74
562.854	10449.87
563.217	10460.04
563.579	10517.89
563.941	10560.6
564.304	10618.68
564.666	10703.87
565.028	10675.85
565.39	10671.78
565.753	10791.78
566.115	10767.82
566.477	10904.09
566.839	10899.12
567.201	10952.68
567.563	10974.82
567.925	11019.79
568.287	11020.92
568.648	11048.04
569.01	11104.31
569.372	11217.76
569.734	11202.62
570.095	11161.49
570.457	11324.42
570.819	11298.43
571.18	11358.77
571.542	11458.2
571.903	11524.41
572.265	11607.12
572.626	11607.8
572.987	11610.74
573.349	11756.95
573.71	11813.9
574.071	11885.31
574.432	11912.2
574.794	12067
575.155	12046.43
575.516	12084.63
575.877	12253.89
576.238	12277.84
576.599	12302.7
576.96	12437.84
577.32	12445.29
577.681	12645.29
578.042	12664.95
578.403	12769.58
578.763	12869.46
579.124	12960.99
579.485	13102.68
579.845	13224.71
580.206	13236.69
580.566	13437.58
580.927	13498.15
581.287	13708.99
581.648	13847.52
582.008	13941.75
582.368	14104.46
582.728	14334.28
583.089	14432.59
583.449	14529.31
583.809	14829.41
584.169	14955.74
584.529	15132.23
584.889	15258.55
585.249	15373.13
585.609	15575.38
585.969	15896.05
586.329	16098.98
586.688	16307.57
587.048	16473.44
587.408	16676.37
587.768	16992.29
588.127	17231.38
588.487	17456.01
588.846	17680.18
589.206	17862.78
589.565	18101.87
589.925	18465.93
590.284	18685.81
590.643	18862.98
591.003	19322.63
591.362	19582.06
591.721	19801.03
592.08	20049.16
592.44	20381.13
592.799	20701.35
593.158	21026.76
593.517	21170.94
593.876	21506.3
594.235	21741.55
594.593	22133.4
594.952	22424.24
595.311	22661.07
595.67	23010.21
596.029	23488.39
596.387	23684.09
596.746	23997.31
597.104	24169.05
597.463	24489.05
597.822	24871.18
598.18	25078.41
598.538	25312.53
598.897	25875
599.255	25964.26
599.613	26593.62
599.972	26580.52
600.33	27067.51
600.688	27109.99
601.046	27542.52
601.404	27974.83
601.762	28049.18
602.12	28492.78
602.478	28724.64
602.836	29055.25
603.194	29278.3
603.552	29471.51
603.91	29692.3
604.268	30042.12
604.625	30265.62
604.983	30568.89
605.341	30702.67
605.698	31066.27
606.056	31361.63
606.413	31521.18
606.771	31923.88
607.128	32134.04
607.485	32267.6
607.843	32444.09
608.2	32902.84
608.557	33196.39
608.914	33272.77
609.272	33660.1
609.629	33734
609.986	34098.06
610.343	34080.21
610.7	34548.89
611.057	34772.62
611.414	34832.95
611.771	35023.23
612.127	35402.66
612.484	35559.94
612.841	35821.85
613.198	35801.52
613.554	36038.8
613.911	36300.71
614.267	36505
614.624	36498
614.98	36908.15
615.337	37206.23
615.693	37191.08
616.05	37283.29
616.406	37677.85
616.762	37585.88
617.118	37741.8
617.475	37927.56
617.831	37995.13
618.187	38325.29
618.543	38513.99
618.899	38685.51
619.255	38733.42
619.611	38888.89
619.967	39110.13
620.323	39257.24
620.678	39129.56
621.034	39206.62
621.39	39244.59
621.746	39372.95
622.101	39849.77
622.457	39620.4
622.812	39794.41
623.168	40031.01
623.523	40143.55
623.879	40169.99
624.234	40087.51
624.589	40254.28
624.945	40310.78
625.3	40426.03
625.655	40530.43
626.01	40625.57
626.365	40622.18
626.72	40721.61
627.075	40679.81
627.43	40724.32
627.785	40754.15
628.14	40837.54
628.495	41118.89
628.85	41056.97
629.205	40991.21
629.559	41311.43
629.914	41095.16
630.269	41382.84
630.623	41152.34
630.978	41183.3
631.332	41454.7
631.687	41604.08
632.041	41374.48
632.396	41470.75
632.75	41291.54
633.104	41485.66
633.459	41219
633.813	41380.58
634.167	41256.51
634.521	41363.18
634.875	41515.49
635.229	41492.44
635.583	41081.15
635.937	41440.92
636.291	41372.22
636.645	41358.66
636.999	41521.82
637.352	41508.71
637.706	41191.21
638.06	41493.57
638.413	41520.91
638.767	41246.12
639.121	41393.91
639.474	41154.14
639.828	41270.07
640.181	41309.62
640.534	41313.69
640.888	41289.51
641.241	41214.48
641.594	41233.01
641.947	41371.77
642.301	41163.41
642.654	41214.71
643.007	41266.46
643.36	41261.94
643.713	41129.96
644.066	41330.64
644.419	41243.86
644.771	40980.82
645.124	40588.06
645.477	40556.65
645.83	40234.85
646.182	40183.55
646.535	39984.91
646.888	40134.06
647.24	39845.7
647.593	40113.49
647.945	40155.75
648.298	39923.67
648.65	39883.89
649.002	39880.51
649.355	39927.51
649.707	39943.1
650.059	40141.97
650.411	40558
650.763	40540.15
651.115	40960.02
651.467	40810.65
651.819	40721.84
652.171	40638.68
652.523	40572.24
652.875	40558.68
653.227	40619.47
653.578	40741.05
653.93	40598.9
654.282	40549.19
654.633	40451.11
654.985	40436.87
655.337	40652.91
655.688	40696.53
656.039	40699.92
656.391	40372.02
656.742	40461.96
657.094	40535.4
657.445	40632.35
657.796	40366.82
658.147	40438
658.498	40410.43
658.849	40508.51
659.2	40346.26
659.551	40366.59
659.902	40522.52
660.253	40418.34
660.604	40657.21
660.955	40253.38
661.306	40457.21
661.656	40288.4
662.007	40328.4
662.358	40419.25
662.708	40496.53
663.059	40408.85
663.409	40155.53
663.76	40467.38
664.11	40332.92
664.461	40356.65
664.811	40513.03
665.161	40447.5
665.511	40488.4
665.862	40313.49
666.212	40420.38
666.562	40436.87
666.912	40427.61
667.262	40348.52
667.612	40258.57
667.962	40381.73
668.312	40280.72
668.662	40476.2
669.011	40327.72
669.361	40095.41
669.711	40242.76
670.06	40169.99
670.41	40261.51
670.76	40037.56
671.109	40149.88
671.459	40082.53
671.808	40102.19
672.157	40143.32
672.507	39964.8
672.856	39899.94
673.205	40008.86
673.554	40063.1
673.904	39911.46
674.253	40130.67
674.602	39938.81
674.951	39464.47
675.3	39227.87
675.649	39923.44
675.998	39849.09
676.346	39889.54
676.695	39974.06
677.044	39612.26
677.393	39801.86
677.741	39868.98
678.09	39799.15
678.438	39659.72
678.787	39664.92
679.135	39835.53
679.484	39466.73
679.832	39755.76
680.181	39396
680.529	39452.49
680.877	39522.55
681.225	39560.06
681.573	39749.89
681.922	39415.88
682.27	39163.46
682.618	39442.32
682.966	39226.51
683.314	39311.71
683.661	39192.84
684.009	38987.2
684.357	38933.86
684.705	38907.65
685.053	38937.93
685.4	38853.19
685.748	38696.81
686.095	38697.26
686.443	38574.32
686.79	38497.94
687.138	38538.39
687.485	38603.48
687.832	38400.32
688.18	38516.47
688.527	38347.21
688.874	38226.09
689.221	38191.28
689.568	38038.52
689.915	37918.97
690.262	38035.13
690.609	37870.39
690.956	37780.45
691.303	37749.71
691.65	37542.49
691.997	37582.03
692.344	37313.57
692.69	37205.55
693.037	37289.84
693.383	37214.81
693.73	37161.03
694.077	37038.32
694.423	36929.85
694.769	36804.88
695.116	36736.63
695.462	36696.18
695.808	36631.32
696.155	36779.8
696.501	36407.15
696.847	36460.93
697.193	36179.13
697.539	36221.39
697.885	36094.84
698.231	35929.2
698.577	35873.83
698.923	35798.8
699.269	35587.74
699.614	35484.91
699.96	35575.76
700.306	35460.28
700.651	35359.49
700.997	35157.01
701.342	35234.3
701.688	35152.04
702.033	35000.63
702.379	35027.53
702.724	34884.03
703.069	35033.85
703.415	34500.53
703.76	34673.41
704.105	34749.34
704.45	34528.56
704.795	34354.55
705.14	34298.5
705.485	34331.95
705.83	34089.7
706.175	33977.61
706.52	33964.5
706.865	33785.3
707.209	33809.7
707.554	33722.47
707.899	33752.53
708.243	33609.94
708.588	33642.03
708.932	33362.48
709.277	33352.09
709.621	33432.99
709.966	33151.64
710.31	33174.01
710.654	32884.08
710.998	33035.71
711.342	33067.8
711.687	32825.78
712.031	32718.89
712.375	32591.21
712.719	32752.1
713.063	32626.23
713.407	32777.19
713.75	32478.44
714.094	32592.79
714.438	32407.26
714.782	32397.31
715.125	32245.9
715.469	32327.71
715.812	32166.58
716.156	32106.02
716.499	32070.31
716.843	32103.99
717.186	31945.35
717.53	32092.24
717.873	32060.82
718.216	31734.73
718.559	31728.85
718.902	31496.32
719.246	31669.42
719.589	31500.84
719.932	31276.89
720.275	31350.79
720.617	31306.49
720.96	31292.71
721.303	31278.7
721.646	31224.24
721.989	31023.79
722.331	31150.34
722.674	31158.47
723.016	31065.14
723.359	30976.78
723.701	31085.26
724.044	30879.16
724.386	30698.83
724.729	30833.51
725.071	30711.48
725.413	30775.66
725.755	30544.48
726.097	30533.18
726.439	30487.98
726.782	30340.42
727.124	30461.54
727.465	30438.95
727.807	30287.31
728.149	30360.98
728.491	30283.7
728.833	30358.95
729.175	30215.45
729.516	30080.76
729.858	30085.28
730.199	30108.56
730.541	29940.43
730.882	29809.58
731.224	30026.07
731.565	29904.72
731.906	29819.53
732.248	29795.12
732.589	29673.54
732.93	29641.9
733.271	29691.85
733.612	29661.11
733.953	29584.73
734.294	29474.9
734.635	29411.18
734.976	29403.49
735.317	29340.22
735.658	29378.63
735.999	29342.48
736.339	29276.94
736.68	29475.13
737.021	29123.95
737.361	29045.99
737.702	29135.48
738.042	29149.94
738.383	28941.36
738.723	29116.95
739.063	28991.07
739.404	29118.08
739.744	28858.2
740.084	28810.51
740.424	28930.06
740.764	28737.3
741.104	28996.72
741.444	28725.54
741.784	28560.8
742.124	28606
742.464	28556.74
742.804	28509.73
743.143	28508.83
743.483	28554.48
743.823	28321.26
744.162	28304.76
744.502	28324.65
744.841	28182.06
745.181	28368.49
745.52	28251.43
745.86	28291.66
746.199	28157.2
746.538	28216.63
746.877	28256.63
747.216	28172.79
747.556	27927.37
747.895	28053.7
748.234	27958.56
748.573	27905.45
748.911	27927.82
749.25	27854.61
749.589	27588.4
749.928	27814.83
750.267	27747.26
750.605	27628.4
750.944	27599.02
751.283	27533.03
751.621	27669.75
751.96	27392.25
752.298	27407.39
752.636	27334.17
752.975	27368.97
753.313	27251.23
753.651	27463.66
753.989	27146.6
754.327	27132.82
754.666	26950.22
755.004	26965.82
755.342	27044.01
755.679	26988.41
756.017	26805.14
756.355	26832.26
756.693	26752.49
757.031	26786.16
757.368	26603.34
757.706	26656.45
758.044	26528.99
758.381	26477.47
758.719	26425.72
759.056	26390.69
759.394	26350.01
759.731	26253.07
760.068	26265.95
760.405	25950.48
760.743	25986.18
761.08	26136.69
761.417	25894.66
761.754	25936.69
762.091	25816.92
762.428	25708.9
762.765	25555.91
763.102	25665.29
763.438	25486.76
763.775	25373.32
764.112	25347.33
764.449	25438.62
764.785	25347.1
765.122	25044.74
765.458	24891.29
765.795	24891.07
766.131	24913.21
766.467	24879.09
766.804	24715.48
767.14	24583.05
767.476	24663.5
767.812	24527.91
768.148	24501.02
768.485	24328.6
768.821	24281.37
769.157	24206.79
769.492	24196.85
769.828	24094.48
770.164	24006.57
770.5	23841.15
770.836	23986.69
771.171	23709.4
771.507	23776.52
771.842	23499.92
772.178	23457.66
772.513	23393.71
772.849	23347.38
773.184	23242.52
773.519	23277.78
773.855	23173.37
774.19	23092.25
774.525	22877.11
774.86	22930.67
775.195	22903.55
775.53	22721.18
775.865	22630.11
776.2	22509.21
776.535	22305.6
776.87	22437.8
777.205	22226.28
777.539	22189.9
777.874	22204.36
778.209	21957.81
778.543	22082.1
778.878	21933.63
779.212	21779.06
779.547	21660.65
779.881	21654.32
780.215	21607.09
780.55	21702.23
780.884	21539.74
781.218	21436.02
781.552	21414.55
781.886	21292.97
782.22	21114.22
782.554	21071.96
782.888	20973.21
783.222	20815.47
783.556	20770.05
783.889	20746.54
784.223	20613.67
784.557	20548.36
784.89	20547.45
785.224	20509.71
785.557	20324.64
785.891	20267.01
786.224	20388.36
786.558	20194.24
786.891	19968.26
787.224	19916.06
787.557	19941.14
787.891	19849.62
788.224	19883.74
788.557	19810.07
788.89	19726.46
789.223	19617.76
789.556	19522.85
789.888	19488.95
790.221	19486.47
790.554	19225
790.887	19342.06
791.219	19162.41
791.552	19105.46
791.884	18993.82
792.217	19008.74
792.549	18955.18
792.882	18866.14
793.214	18768.29
793.546	18828.86
793.879	18682.42
794.211	18537.11
794.543	18641.06
794.875	18522.2
795.207	18653.94
795.539	18461.86
795.871	18485.14
796.203	18274.29
796.535	18185.26
796.867	18217.35
797.198	18103.9
797.53	18172.6
797.862	18005.6
798.193	18005.6
798.525	17942.78
798.856	17825.94
799.188	17686.74
799.519	17637.7
799.85	17520.87
800.182	17554.76
800.513	17571.71
800.844	17455.78
801.175	17526.74
801.506	17456.69
801.837	17305.28
802.168	17342.79
802.499	17297.14
802.83	17122.69
803.161	17046.08
803.491	17088.11
803.822	17115.68
804.153	16967.21
804.483	16792.98
804.814	16788.46
805.145	16787.78
805.475	16769.7
805.805	16703.71
806.136	16679.76
806.466	16628.24
806.796	16663.71
807.126	16408.35
807.457	16465.75
807.787	16331.07
808.117	16442.7
808.447	16298.53
808.777	16268.02
809.107	16181.92
809.436	16162.94
809.766	16099.21
810.096	16088.81
810.426	16034.35
810.755	16083.62
811.085	15936.73
811.414	15936.28
811.744	15870.06
812.073	15849.72
812.403	15837.97
812.732	15700.35
813.061	15727.02
813.39	15667.58
813.719	15662.61
814.049	15714.36
814.378	15535.38
814.707	15531.77
815.036	15512.11
815.365	15408.61
815.693	15212
816.022	15240.7
816.351	15298.33
816.68	15209.74
817.008	15207.26
817.337	15117.09
817.665	15068.5
817.994	15018.79
818.322	15075.28
818.651	15041.16
818.979	14968.17
819.307	15030.54
819.636	14897.21
819.964	14797.32
820.292	14975.4
820.62	14865.34
820.948	14857.43
821.276	14943.08
821.604	14797.32
821.932	14883.65
822.259	14856.53
822.587	14772.01
822.915	14775.18
823.243	14835.74
823.57	14722.07
823.898	14718.91
824.225	14759.58
824.553	14680.94
824.88	14727.72
825.207	14896.98
825.535	14763.88
825.862	14787.38
826.189	14746.93
826.516	14751
826.843	14811.33
827.17	14724.33
827.497	14838.23
827.824	14720.94
828.151	14763.65
828.478	14703.31
828.805	14779.24
829.131	14668.29
829.458	14765.69
829.785	14634.84
830.111	14649.76
830.438	14763.2
830.764	14640.49
831.09	14717.78
831.417	14564.11
831.743	14701.28
832.069	14626.48
832.395	14565.24
832.722	14635.52
833.048	14638.91
833.374	14644.33
833.7	14514.39
834.026	14551.23
834.351	14643.43
834.677	14538.57
835.003	14635.75
835.329	14450.89
835.654	14520.27
835.98	14418.35
836.306	14502.42
836.631	14301.74
836.956	14452.02
837.282	14358.69
837.607	14241.41
837.932	14381.51
838.258	14318.69
838.583	14278.92
838.908	14217.9
839.233	14332.48
839.558	14188.98
839.883	14158.24
840.208	14107.17
840.533	14109.66
840.858	14099.26
841.182	14144.01
841.507	14023.33
841.832	14013.16
842.156	13949.66
842.481	14015.65
842.805	13991.47
843.13	13874.18
843.454	13791.47
843.778	13921.87
844.103	13854.07
844.427	13807.29
844.751	13675.54
845.075	13720.06
845.399	13698.59
845.723	13654.08
846.047	13643.23
846.371	13510.12
846.695	13556
847.019	13381.09
847.343	13357.81
847.666	13276.01
847.99	13192.39
848.313	13195.56
848.637	13116.24
848.96	13175.67
849.284	13163.69
849.607	12945.85
849.931	12951.72
850.254	12867.66
850.577	12831.95
850.9	12684.16
851.223	12712.41
851.546	12568.45
851.869	12575.23
852.192	12707.89
852.515	12483.71
852.838	12451.62
853.161	12489.36
853.483	12402.58
853.806	12353.77
854.129	12345.64
854.451	12266.99
854.774	12206.66
855.096	12254.11
855.419	12123.27
855.741	12114.46
856.063	12055.93
856.385	12049.82
856.708	11974.12
857.03	11907.91
857.352	11930.28
857.674	11887.34
857.996	11795.59
858.318	11757.4
858.64	11736.39
858.961	11716.95
859.283	11740.45
859.605	11571.19
859.926	11633.11
860.248	11554.92
860.57	11554.02
860.891	11615.49
861.212	11550.63
861.534	11472.89
861.855	11479.9
862.176	11415.72
862.498	11402.38
862.819	11394.7
863.14	11325.32
863.461	11290.52
863.782	11333.46
864.103	11355.15
864.424	11262.05
864.745	11270.41
865.065	11254.37
865.386	11178.89
865.707	11112.22
866.027	11164.2
866.348	11206.91
866.668	11099.79
866.989	11168.49
867.309	11067.25
867.63	11177.76
867.95	11125.33
868.27	10989.06
868.59	10981.83
868.91	11029.06
869.23	10974.6
869.55	10951.77
869.87	11020.25
870.19	10979.8
870.51	10881.04
870.83	10944.32
871.15	10898.89
871.469	10927.37
871.789	10891.89
872.109	10847.82
872.428	10766.47
872.748	10805.34
873.067	10787.03
873.386	10789.52
873.706	10763.98
874.025	10671.33
874.344	10667.94
874.663	10665.45
874.982	10637.43
875.301	10626.81
875.62	10578.22
875.939	10598.34
876.258	10587.94
876.577	10567.83
876.896	10578.22
877.214	10520.37
877.533	10528.96
877.852	10498.9
878.17	10538.23
878.489	10501.39
878.807	10491.22
879.125	10462.75
879.444	10432.92
879.762	10384.33
880.08	10314.73
880.398	10348.85
880.716	10376.2
881.034	10337.55
881.352	10302.75
881.67	10276.09
881.988	10263.88
882.306	10247.61
882.624	10220.49
882.941	10168.74
883.259	10154.06
883.577	10117.9
883.894	10119.48
884.212	10089.65
884.529	10087.16
884.846	10039.03
885.164	9974.4
885.481	9976.43
885.798	10009.88
886.115	9945.25
886.432	9964.91
886.75	9849.66
887.067	9949.99
887.383	9825.48
887.7	9825.02
888.017	9743.9
888.334	9874.29
888.651	9746.16
888.967	9758.59
889.284	9711.58
889.6	9731.02
889.917	9620.51
890.233	9638.81
890.55	9555.2
890.866	9562.88
891.182	9535.54
891.498	9538.93
891.815	9530.34
892.131	9510.46
892.447	9490.12
892.763	9469.55
893.079	9455.54
893.395	9298.26
893.71	9293.29
894.026	9292.38
894.342	9246.28
894.657	9246.73
894.973	9265.94
895.289	9199.05
895.604	9181.65
895.92	9141.43
896.235	9087.87
896.55	9089
896.865	9017.59
897.181	9017.81
897.496	8994.31
897.811	8894.2
898.126	8961.54
898.441	8877.25
898.756	8877.7
899.071	8806.07
899.386	8804.03
899.7	8731.04
900.015	8685.39
900.33	8660.53
900.644	8648.11
900.959	8624.6
901.273	8578.05
901.588	8531.95
901.902	8545.28
902.216	8517.71
902.531	8468.22
902.845	8405.17
903.159	8394.55
903.473	8350.26
903.787	8349.36
904.101	8271.17
904.415	8327.44
904.729	8214.22
905.042	8233.88
905.356	8198.4
905.67	8222.13
905.984	8160.89
906.297	8099.42
906.611	8045.86
906.924	8080.89
907.237	8017.84
907.551	7955.92
907.864	8049.93
908.177	7997.5
908.491	7948.46
908.804	7897.17
909.117	7843.38
909.43	7840.44
909.743	7690.84
910.056	7738.53
910.368	7670.05
910.681	7699.66
910.994	7675.02
911.307	7643.16
911.619	7531.3
911.932	7575.37
912.244	7495.82
912.557	7553.22
912.869	7483.16
913.181	7401.13
913.494	7425.99
913.806	7369.04
914.118	7342.6
914.43	7271.87
914.742	7334.02
915.054	7234.81
915.366	7230.06
915.678	7217.18
915.99	7167.47
916.302	7105.1
916.613	7101.71
916.925	7079.33
917.236	7109.16
917.548	6954.82
917.859	6965.66
918.171	6956.17
918.482	6967.92
918.794	6858.55
919.105	6852.45
919.416	6808.83
919.727	6823.97
920.038	6807.93
920.349	6689.97
920.66	6722.05
920.971	6678.21
921.282	6663.53
921.593	6589.63
921.903	6589.63
922.214	6577.88
922.525	6545.79
922.835	6466.47
923.146	6543.53
923.456	6479.8
923.767	6432.57
924.077	6452.01
924.387	6345.34
924.697	6355.51
925.008	6365.45
925.318	6294.72
925.628	6275.29
925.938	6256.98
926.248	6199.81
926.558	6182.41
926.867	6266.02
927.177	6230.09
927.487	6126.36
927.796	6103.09
928.106	6053.15
928.416	6004.56
928.725	6088.63
929.034	6009.76
929.344	6035.29
929.653	5969.08
929.962	5911.91
930.271	5877.56
930.581	5868.52
930.89	5811.34
931.199	5807.28
931.508	5750.33
931.817	5805.02
932.125	5777.67
932.434	5757.11
932.743	5643.89
933.051	5634.4
933.36	5624.68
933.669	5609.09
933.977	5603.21
934.286	5545.36
934.594	5551.01
934.902	5545.59
935.21	5513.95
935.519	5488.42
935.827	5471.69
936.135	5441.86
936.443	5385.59
936.751	5366.16
937.059	5366.38
937.367	5312.83
937.674	5338.59
937.982	5289.78
938.29	5314.18
938.597	5300.4
938.905	5212.49
939.213	5177.46
939.52	5143.79
939.827	5198.25
940.135	5134.07
940.442	5103.79
940.749	5107.86
941.056	5108.09
941.363	5039.84
941.67	5015.89
941.977	5009.56
942.284	5013.17
942.591	4942.21
942.898	4930.01
943.205	4938.6
943.511	4920.07
943.818	4926.17
944.125	4823.57
944.431	4868.77
944.738	4788.55
945.044	4815.89
945.35	4793.07
945.657	4753.52
945.963	4745.61
946.269	4664.71
946.575	4708.1
946.881	4615.67
947.187	4671.49
947.493	4606.18
947.799	4601.88
948.105	4569.8
948.41	4543.13
948.716	4536.12
949.022	4523.47
949.327	4521.21
949.633	4461.1
949.938	4483.24
950.244	4469.23
950.549	4376.81
950.854	4418.84
951.16	4418.84
951.465	4398.5
951.77	4360.31
952.075	4300.42
952.38	4338.39
952.685	4339.74
952.99	4313.76
953.294	4283.25
953.599	4284.6
953.904	4231.5
954.209	4202.8
954.513	4171.16
954.818	4177.26
955.122	4196.92
955.426	4139.07
955.731	4124.61
956.035	4114.21
956.339	4124.84
956.643	4061.11
956.948	4029.47
957.252	4036.02
957.556	4035.57
957.86	4007.55
958.163	3985.18
958.467	3976.36
958.771	3949.47
959.075	3939.98
959.378	3937.04
959.682	3938.4
959.985	3859.53
960.289	3869.47
960.592	3855.01
960.896	3837.84
961.199	3840.55
961.502	3779.08
961.805	3759.19
962.108	3735.24
962.411	3721
962.714	3733.43
963.017	3729.59
963.32	3707.44
963.623	3695.69
963.926	3681.68
964.228	3620.22
964.531	3660.44
964.833	3600.33
965.136	3605.53
965.438	3546.09
965.741	3546.32
966.043	3545.87
966.345	3553.78
966.648	3525.98
966.95	3508.13
967.252	3502.25
967.554	3503.38
967.856	3464.06
968.158	3441.46
968.46	3467.68
968.761	3435.14
969.063	3417.28
969.365	3385.87
969.666	3396.94
969.968	3339.77
970.269	3350.84
970.571	3348.36
970.872	3342.48
971.174	3327.57
971.475	3318.53
971.776	3270.39
972.077	3251.64
972.378	3274.46
972.679	3214.58
972.98	3250.73
973.281	3214.58
973.582	3217.97
973.883	3170.74
974.183	3176.61
974.484	3161.02
974.785	3109.95
975.085	3097.97
975.386	3155.37
975.686	3104.97
975.986	3085.77
976.287	3057.07
976.587	3034.92
976.887	3035.37
977.187	3040.34
977.487	3008.48
977.787	2966.67
978.087	2994.47
978.387	2933.68
978.687	2996.28
978.987	2908.82
979.286	2924.64
979.586	2906.79
979.885	2907.01
980.185	2896.17
980.484	2859.78
980.784	2879.67
981.083	2855.26
981.382	2824.76
981.682	2834.02
981.981	2817.07
982.28	2799.67
982.579	2787.02
982.878	2795.83
983.177	2784.31
983.475	2753.8
983.774	2752.67
984.073	2686
984.372	2701.14
984.67	2714.48
984.969	2695.95
985.267	2707.7
985.566	2678.77
985.864	2631.09
986.162	2641.48
986.461	2629.28
986.759	2590.41
987.057	2589.96
987.355	2579.34
987.653	2585.67
987.951	2561.71
988.249	2522.62
988.547	2560.81
988.844	2575.72
989.142	2539.79
989.44	2493.69
989.737	2491.43
990.035	2499.34
990.332	2491.66
990.63	2463.64
990.927	2428.38
991.224	2483.07
991.521	2415.95
991.819	2414.37
992.116	2423.64
992.413	2406.69
992.71	2409.4
993.006	2378.21
993.303	2401.04
993.6	2389.74
993.897	2355.16
994.193	2335.28
994.49	2301.83
994.787	2313.13
995.083	2307.03
995.379	2299.8
995.676	2302.51
995.972	2275.17
996.268	2244.88
996.565	2247.6
996.861	2259.35
997.157	2216.86
997.453	2227.03
997.749	2218.9
998.044	2189.29
998.34	2194.04
998.636	2178.9
998.932	2157.2
999.227	2152.91
999.523	2133.7
999.818	2142.74
1000.114	2095.28
1000.409	2093.7
1000.704	2093.93
1001	2067.26
1001.295	2060.26
1001.59	2069.97
1001.885	2049.64
1002.18	2031.56
1002.475	2058.67
1002.77	2028.39
1003.065	2002.63
1003.359	1977.09
1003.654	1976.19
1003.949	1994.5
1004.243	1962.41
1004.538	1988.39
1004.832	1972.12
1005.127	1941.62
1005.421	1914.72
1005.715	1901.62
1006.009	1908.4
1006.304	1921.5
1006.598	1875.63
1006.892	1880.15
1007.186	1845.57
1007.48	1856.87
1007.773	1814.39
1008.067	1846.93
1008.361	1804.9
1008.655	1790.66
1008.948	1823.88
1009.242	1785.91
1009.535	1765.12
1009.829	1762.64
1010.122	1740.49
1010.415	1756.08
1010.708	1742.75
1011.001	1772.81
1011.295	1730.55
1011.588	1705.46
1011.881	1677.44
1012.173	1675.63
1012.466	1707.05
1012.759	1681.96
1013.052	1666.82
1013.344	1660.95
1013.637	1646.26
1013.93	1617.56
1014.222	1599.03
1014.514	1604.22
1014.807	1612.81
1015.099	1579.14
1015.391	1584.79
1015.683	1549.08
1015.976	1564.22
1016.268	1583.66
1016.56	1540.72
1016.851	1535.07
1017.143	1547.73
1017.435	1491.46
1017.727	1499.59
1018.018	1494.17
1018.31	1480.38
1018.602	1476.09
1018.893	1467.05
1019.185	1445.13
1019.476	1474.28
1019.767	1419.37
1020.058	1439.26
1020.35	1444.68
1020.641	1425.25
1020.932	1394.06
1021.223	1406.94
1021.514	1363.78
1021.804	1366.49
1022.095	1330.33
1022.386	1347.51
1022.677	1359.94
1022.967	1340.05
1023.258	1332.82
1023.548	1307.96
1023.839	1319.49
1024.129	1306.6
1024.419	1296.21
1024.709	1290.33
1025	1265.25
1025.29	1282.42
1025.58	1264.35
1025.87	1267.06
1026.16	1246.04
1026.449	1263.89
1026.739	1242.88
1027.029	1205.59
1027.319	1221.86
1027.608	1222.54
1027.898	1225.48
1028.187	1190.22
1028.477	1195.87
1028.766	1181.18
1029.055	1168.75
1029.344	1140.28
1029.634	1152.94
1029.923	1151.81
1030.212	1147.96
1030.501	1156.78
1030.79	1127.85
1031.078	1121.3
1031.367	1137.12
1031.656	1094.18
1031.945	1092.37
1032.233	1081.75
1032.522	1092.37
1032.81	1084.46
1033.099	1069.32
1033.387	1058.47
1033.675	1054.18
1033.963	1054.18
1034.251	1054.18
1034.54	1016.22
1034.828	1017.12
1035.116	1031.13
1035.403	1026.39
1035.691	984.13
1035.979	994.3
1036.267	975.31
1036.554	1008.98
1036.842	987.52
1037.129	977.8
1037.417	966.95
1037.704	958.59
1037.992	940.51
1038.279	961.53
1038.566	963.56
1038.853	963.56
1039.14	963.56
