Data from hue_38_FLMS001491_00040.txt Node
Date: Tue Feb 07 17:31:26 GMT 2017
User: dcchb
Spectrometer: FLMS00149
Trigger mode: 0
Integration Time (sec): 2.000000E-2
Scans to average: 10
Electric dark correction enabled: true
Nonlinearity correction enabled: false
Boxcar width: 0
XAxis mode: Wavelengths
Number of Pixels in Spectrum: 2048
>>>>>Begin Spectral Data<<<<<
341.393	-18.26
341.776	-18.26
342.16	-18.26
342.543	-67.75
342.927	-73.4
343.31	-61.65
343.693	-63.01
344.077	-58.49
344.46	-55.78
344.843	-56.68
345.226	-34.31
345.61	-19.39
345.993	-13.74
346.376	5.47
346.759	13.6
347.142	14.96
347.525	36.88
347.908	54.05
348.291	80.72
348.674	65.13
349.057	92.24
349.44	109.87
349.823	142.19
350.206	167.5
350.588	205.91
350.971	214.5
351.354	231.22
351.737	260.37
352.119	252.01
352.502	268.06
352.884	275.74
353.267	283.88
353.65	279.13
354.032	297.66
354.414	338.11
354.797	338.56
355.179	325.91
355.562	329.3
355.944	337.43
356.326	349.19
356.709	355.06
357.091	340.6
357.473	351.45
357.855	334.72
358.238	333.37
358.62	342.86
359.002	350.09
359.384	343.99
359.766	324.1
360.148	331.11
360.53	351.67
360.912	344.21
361.294	335.85
361.676	341.95
362.057	355.51
362.439	333.82
362.821	325.01
363.203	358.68
363.584	316.19
363.966	327.94
364.348	326.14
364.729	320.26
365.111	333.59
365.493	334.5
365.874	310.09
366.256	310.99
366.637	295.63
367.019	328.62
367.4	332.24
367.781	309.41
368.163	317.1
368.544	308.73
368.925	328.17
369.306	311.67
369.688	307.6
370.069	318.45
370.45	328.62
370.831	328.4
371.212	316.64
371.593	317.32
371.974	315.06
372.355	327.04
372.736	317.32
373.117	341.28
373.498	341.95
373.879	338.79
374.26	326.14
374.641	314.16
375.021	313.25
375.402	326.81
375.783	324.55
376.163	342.86
376.544	322.52
376.925	339.92
377.305	342.41
377.686	331.79
378.066	324.78
378.447	305.8
378.827	321.62
379.208	339.47
379.588	322.75
379.968	338.11
380.349	337.89
380.729	323.65
381.109	333.14
381.489	344.44
381.87	353.93
382.25	338.79
382.63	348.73
383.01	326.14
383.39	323.88
383.77	355.06
384.15	351.67
384.53	349.64
384.91	352.35
385.29	342.18
385.67	337.21
386.049	345.57
386.429	356.42
386.809	352.58
387.189	376.3
387.568	355.51
387.948	355.06
388.328	331.56
388.707	378.56
389.087	373.37
389.466	365.68
389.846	379.92
390.225	354.84
390.605	372.69
390.984	354.61
391.363	357.32
391.743	365.23
392.122	363.42
392.501	362.74
392.881	377.43
393.26	362.97
393.639	372.01
394.018	377.66
394.397	405.91
394.776	382.18
395.155	375.63
395.534	386.47
395.913	385.57
396.292	404.78
396.671	384.21
397.05	398.68
397.429	367.72
397.808	370.43
398.186	398.68
398.565	382.86
398.944	383.99
399.323	375.17
399.701	401.16
400.08	388.51
400.458	397.09
400.837	390.99
401.215	389.64
401.594	413.14
401.972	409.75
402.351	414.72
402.729	405
403.107	424.21
403.486	388.96
403.864	393.7
404.242	438.67
404.62	398.45
404.999	411.33
405.377	404.55
405.755	409.52
406.133	428.28
406.511	405.91
406.889	431.9
407.267	436.19
407.645	438.9
408.023	448.17
408.401	434.83
408.779	448.17
409.156	437.77
409.534	453.14
409.912	448.17
410.29	442.29
410.667	465.34
411.045	446.58
411.422	448.39
411.8	458.34
412.178	435.74
412.555	440.71
412.933	475.06
413.31	469.63
413.687	481.16
414.065	494.72
414.442	470.76
414.819	508.05
415.197	484.78
415.574	488.84
415.951	505.79
416.328	475.06
416.705	474.15
417.082	496.07
417.46	502.63
417.837	524.55
418.214	508.05
418.591	497.2
418.967	506.24
419.344	507.83
419.721	533.14
420.098	515.06
420.475	515.74
420.852	516.64
421.228	531.55
421.605	523.87
421.982	546.24
422.358	534.49
422.735	535.4
423.111	529.07
423.488	546.02
423.864	567.26
424.241	569.52
424.617	532.23
424.994	573.36
425.37	549.41
425.746	550.54
426.123	596.41
426.499	560.25
426.875	593.93
427.251	566.58
427.627	584.66
428.003	594.15
428.379	593.7
428.756	600.03
429.132	605.45
429.507	597.31
429.883	604.77
430.259	584.21
430.635	633.02
431.011	647.03
431.387	640.48
431.763	643.42
432.138	628.05
432.514	614.94
432.89	636.18
433.265	659.23
433.641	631.66
434.016	663.75
434.392	698.78
434.767	700.14
435.143	671.66
435.518	694.71
435.894	691.55
436.269	701.27
436.644	692
437.02	726.35
437.395	723.64
437.77	723.64
438.145	714.37
438.52	719.12
438.895	709.18
439.271	742.85
439.646	733.36
440.021	760.7
440.395	752.11
440.77	763.64
441.145	748.5
441.52	758.89
441.895	788.27
442.27	783.3
442.645	772.68
443.019	774.94
443.394	793.47
443.769	794.6
444.143	766.12
444.518	796.18
444.892	798.67
445.267	788.27
445.641	804.77
446.016	829.85
446.39	828.72
446.764	844.31
447.139	823.07
447.513	843.86
447.887	827.82
448.262	850.64
448.636	823.75
449.01	863.3
449.384	859.23
449.758	873.69
450.132	868.04
450.506	867.36
450.88	881.15
451.254	846.35
451.628	888.38
452.002	884.31
452.376	935.39
452.75	891.77
453.123	936.06
453.497	913.01
453.871	923.86
454.244	943.29
454.618	953.92
454.992	943.52
455.365	956.85
455.739	967.02
456.112	992.33
456.486	1004.76
456.859	999.11
457.232	1000.92
457.606	1005.67
457.979	1047.92
458.352	1026.23
458.725	1049.51
459.099	1063.74
459.472	1065.78
459.845	1104.42
460.218	1085.21
460.591	1083.4
460.964	1127.92
461.337	1141.93
461.71	1174.93
462.083	1163.4
462.456	1176.06
462.829	1163.63
463.201	1191.65
463.574	1203.17
463.947	1207.69
464.32	1253.79
464.692	1268.71
465.065	1263.74
465.438	1277.3
465.81	1293.12
466.183	1302.61
466.555	1342.83
466.928	1352.78
467.3	1342.38
467.672	1364.3
468.045	1415.82
468.417	1423.51
468.789	1433.23
469.161	1455.37
469.534	1472.77
469.906	1519.78
470.278	1503.96
470.65	1541.92
471.022	1610.4
471.394	1637.29
471.766	1614.46
472.138	1667.12
472.51	1716.83
472.882	1730.17
473.253	1736.95
473.625	1783.05
473.997	1817.4
474.369	1845.42
474.74	1900.56
475.112	1915.92
475.484	1987.79
475.855	2000.67
476.227	2073.89
476.598	2095.13
476.97	2123.6
477.341	2191.85
477.713	2234.11
478.084	2265.07
478.455	2317.95
478.827	2335.8
479.198	2488.79
479.569	2510.26
479.94	2574.66
480.311	2633.42
480.682	2712.74
481.053	2786.86
481.424	2865.73
481.795	2943.47
482.166	2971.72
482.537	3035.44
482.908	3104.59
483.279	3211.26
483.65	3268.21
484.021	3361.08
484.391	3467.75
484.762	3521.53
485.133	3604.92
485.503	3679.04
485.874	3823.9
486.244	3853.05
486.615	3949.77
486.985	4049.2
487.356	4127.84
487.726	4208.52
488.097	4310.21
488.467	4435.63
488.837	4528.28
489.207	4638.34
489.578	4712.23
489.948	4817.32
490.318	4890.31
490.688	4992.23
491.058	5135.05
491.428	5249.62
491.798	5315.61
492.168	5483.06
492.538	5537.75
492.908	5669.72
493.278	5787.23
493.648	5831.08
494.017	5999.43
494.387	6042.82
494.757	6165.76
495.126	6253.66
495.496	6299.99
495.866	6366.2
496.235	6471.06
496.605	6599.64
496.974	6726.42
497.344	6818.39
497.713	6897.04
498.082	7011.16
498.452	7120.08
498.821	7133.19
499.19	7227.87
499.559	7327.31
499.928	7501.09
500.298	7514.42
500.667	7581.99
501.036	7661.54
501.405	7756.22
501.774	7780.18
502.143	7877.58
502.512	7940.85
502.88	8057.91
503.249	8123.9
503.618	8263.78
503.987	8333.16
504.356	8358.24
504.724	8441.85
505.093	8542.19
505.462	8599.82
505.83	8714.84
506.199	8784.44
506.567	8916.19
506.936	8897.66
507.304	8969.98
507.672	9050.43
508.041	9135.62
508.409	9193.02
508.777	9311.21
509.145	9428.5
509.514	9433.92
509.882	9519.11
510.25	9585.78
510.618	9651.54
510.986	9644.76
511.354	9766.11
511.722	9895.6
512.09	9914.81
512.458	9992.32
512.826	10063.05
513.193	10190.73
513.561	10138.31
513.929	10313.9
514.297	10297.62
514.664	10391.18
515.032	10462.82
515.4	10480.44
515.767	10651.97
516.135	10677.5
516.502	10576.71
516.869	10814.22
517.237	10875.24
517.604	10811.51
517.972	10999.98
518.339	10944.39
518.706	11017.38
519.073	11128.79
519.44	11146.42
519.808	11311.38
520.175	11280.42
520.542	11451.72
520.909	11488.78
521.276	11508.21
521.643	11677.93
522.009	11738.04
522.376	11820.07
522.743	11845.38
523.11	11969.22
523.477	12015.77
523.843	12101.42
524.21	12262.32
524.577	12420.96
524.943	12380.28
525.31	12402.2
525.676	12524.23
526.043	12699.82
526.409	12676.32
526.776	12752.48
527.142	12790.67
527.508	12895.97
527.874	13016.42
528.241	13119.47
528.607	13119.47
528.973	13227.94
529.339	13280.15
529.705	13370.31
530.071	13500.03
530.437	13503.87
530.803	13594.49
531.169	13712.45
531.535	13689.63
531.901	13669.51
532.267	13819.11
532.632	13859.34
532.998	13892.56
533.364	14069.05
533.73	13993.12
534.095	14197.64
534.461	14224.98
534.826	14309.72
535.192	14327.35
535.557	14487.8
535.923	14464.75
536.288	14534.58
536.653	14675.59
537.019	14668.13
537.384	14619.09
537.749	14701.12
538.114	14830.84
538.479	14876.49
538.845	14926.66
539.21	14839.88
539.575	15043.71
539.94	15080.32
540.305	15040.1
540.67	15128.46
541.034	15170.94
541.399	15378.62
541.764	15344.72
542.129	15382.69
542.494	15379.52
542.858	15499.97
543.223	15513.31
543.587	15577.71
543.952	15628.11
544.316	15777.93
544.681	15741.32
545.045	15726.18
545.41	15880.75
545.774	15992.62
546.138	15953.97
546.503	16125.49
546.867	16103.12
547.231	16228.32
547.595	16299.73
547.959	16312.83
548.324	16321.87
548.688	16326.62
549.052	16431.47
549.416	16476.9
549.779	16499.27
550.143	16590.57
550.507	16621.07
550.871	16688.64
551.235	16739.04
551.599	16828.75
551.962	16819.26
552.326	16894.29
552.689	17025.13
553.053	16969.54
553.417	17089.08
553.78	17253.37
554.143	17243.88
554.507	17334.5
554.87	17379.25
555.234	17506.47
555.597	17485.46
555.96	17504.21
556.323	17569.75
556.686	17621.05
557.05	17672.57
557.413	17878.89
557.776	17779.46
558.139	17895.62
558.502	18008.16
558.865	18038.44
559.228	18072.11
559.59	18179.23
559.953	18143.75
560.316	18404.76
560.679	18333.35
561.041	18440.46
561.404	18546.9
561.767	18715.03
562.129	18634.58
562.492	18757.06
562.854	18764.07
563.217	18788.25
563.579	18920.22
563.941	18990.05
564.304	19126.77
564.666	19153.44
565.028	19153.21
565.39	19220.78
565.753	19367.89
566.115	19458.29
566.477	19511.39
566.839	19489.7
567.201	19676.59
567.563	19719.98
567.925	19821.89
568.287	19727.89
568.648	19917.71
569.01	19920.65
569.372	20113.64
569.734	20039.06
570.095	20180.08
570.457	20293.75
570.819	20364.48
571.18	20441.54
571.542	20579.39
571.903	20547.75
572.265	20742.55
572.626	20702.77
572.987	20790.46
573.349	20965.37
573.71	20963.78
574.071	21101.86
574.432	21188.19
574.794	21299.14
575.155	21366.26
575.516	21462.75
575.877	21537.1
576.238	21621.39
576.599	21822.97
576.96	21953.14
577.32	22057.99
577.681	22111.78
578.042	22286.91
578.403	22338.21
578.763	22530.52
579.124	22631.09
579.485	22768.71
579.845	23040.11
580.206	23081.92
580.566	23267.68
580.927	23425.87
581.287	23514
581.648	23666.99
582.008	23905.85
582.368	23937.94
582.728	24200.99
583.089	24290.03
583.449	24404.6
583.809	24685.27
584.169	24830.35
584.529	24892.04
584.889	25284.58
585.249	25264.01
585.609	25419.04
585.969	25746.48
586.329	25843.43
586.688	26118
587.048	26247.71
587.408	26538.33
587.768	26640.02
588.127	26880.47
588.487	26890.63
588.846	27369.49
589.206	27373.79
589.565	27628.47
589.925	27893.09
590.284	27997.05
590.643	28309.13
591.003	28562.46
591.362	28729
591.721	28860.07
592.08	29118.15
592.44	29358.59
592.799	29550.9
593.158	29806.94
593.517	29929.65
593.876	30156.09
594.235	30325.12
594.593	30519.24
594.952	30736.86
595.311	30839.68
595.67	31084.87
596.029	31470.85
596.387	31592.21
596.746	31851.41
597.104	31835.82
597.463	32148.58
597.822	32411.62
598.18	32374.33
598.538	32555.57
598.897	32900.87
599.255	32921.44
599.613	33461.31
599.972	33430.8
600.33	33625.82
600.688	33669.44
601.046	34002.76
601.404	34271.01
601.762	34240.5
602.12	34605.91
602.478	34697.21
602.836	34954.15
603.194	34827.83
603.552	35091.78
603.91	35103.75
604.268	35475.27
604.625	35545.32
604.983	35803.62
605.341	35753.23
605.698	35946.44
606.056	36165.65
606.413	36228.47
606.771	36486.54
607.128	36664.16
607.485	36639.98
607.843	36836.36
608.2	37086.3
608.557	37196.58
608.914	37051.5
609.272	37342.11
609.629	37531.03
609.986	37642.67
610.343	37710.24
610.7	38091.7
611.057	38148.64
611.414	38110.68
611.771	38408.98
612.127	38457.56
612.484	38620.72
612.841	38830.89
613.198	38788.63
613.554	38746.82
613.911	39149.75
614.267	39138.22
614.624	39102.29
614.98	39283.98
615.337	39513.81
615.693	39533.92
616.05	39565.56
616.406	39923.29
616.762	39874.7
617.118	39856.17
617.475	40168.48
617.831	40163.96
618.187	40136.61
618.543	40319.66
618.899	40595.36
619.255	40532.76
619.611	40582.93
619.967	40725.53
620.323	40935.69
620.678	40685.3
621.034	40803.72
621.39	40851.4
621.746	40909.02
622.101	41337.03
622.457	41139.98
622.812	41136.14
623.168	41327.77
623.523	41287.54
623.879	41476.01
624.234	41175.91
624.589	41462
624.945	41483.25
625.3	41570.7
625.655	41462.91
626.01	41494.32
626.365	41718.95
626.72	41683.69
627.075	41622.68
627.43	41685.5
627.785	41639.17
628.14	41787.64
628.495	41870.81
628.85	41816.8
629.205	41745.16
629.559	41959.17
629.914	41775.67
630.269	41833.29
630.623	41810.24
630.978	41683.69
631.332	41925.49
631.687	42026.96
632.041	41792.84
632.396	41923.46
632.75	41944.25
633.104	41959.84
633.459	41813.63
633.813	41895.21
634.167	41855.21
634.521	41979.73
634.875	41969.11
635.229	41941.54
635.583	41823.8
635.937	41751.71
636.291	41810.92
636.645	41745.84
636.999	41853.86
637.352	41809.34
637.706	41610.7
638.06	41806.85
638.413	41760.98
638.767	41626.74
639.121	41700.19
639.474	41453.64
639.828	41565.28
640.181	41526.86
640.534	41532.96
640.888	41412.06
641.241	41413.64
641.594	41453.64
641.947	41546.29
642.301	41406.64
642.654	41517.37
643.007	41552.4
643.36	41428.56
643.713	41375.23
644.066	41617.93
644.419	41209.13
644.771	41053.43
645.124	40671.74
645.477	40694.11
645.83	40337.51
646.182	40189.72
646.535	40125.32
646.888	40351.07
647.24	40148.59
647.593	40215.48
647.945	40142.94
648.298	39979.78
648.65	39904.53
649.002	39936.85
649.355	40142.04
649.707	40071.76
650.059	40240.57
650.411	40677.84
650.763	40513.55
651.115	41054.56
651.467	40890.04
651.819	40968
652.171	40750.38
652.523	40856.37
652.875	40794.22
653.227	40653.21
653.578	40989.25
653.93	40902.7
654.282	40599.43
654.633	40659.31
654.985	40727.11
655.337	40690.72
655.688	40676.26
656.039	40729.14
656.391	40403.05
656.742	40458.19
657.094	40667.9
657.445	40752.87
657.796	40661.12
658.147	40485.53
658.498	40591.74
658.849	40626.32
659.2	40472.42
659.551	40574.57
659.902	40601.46
660.253	40490.05
660.604	40543.84
660.955	40313.56
661.306	40679.65
661.656	40390.39
662.007	40439.21
662.358	40503.84
662.708	40401.92
663.059	40461.35
663.409	40133.45
663.76	40447.11
664.11	40490.96
664.461	40437.17
664.811	40543.38
665.161	40438.75
665.511	40215.48
665.862	40310.17
666.212	40524.85
666.562	40364.18
666.912	40224.52
667.262	40227.69
667.612	40240.34
667.962	40295.48
668.312	40268.36
668.662	40451.86
669.011	40309.72
669.361	40304.75
669.711	40262.94
670.06	40140.46
670.41	40201.25
670.76	40079.44
671.109	40216.61
671.459	40163.05
671.808	40061.59
672.157	40139.55
672.507	39912.21
672.856	39916.96
673.205	40020.01
673.554	40142.72
673.904	39968.48
674.253	40154.47
674.602	40118.08
674.951	39484.43
675.3	39299.8
675.649	39955.15
675.998	39853.91
676.346	40003.96
676.695	40019.56
677.044	39860.01
677.393	39862.5
677.741	39939.56
678.09	39878.32
678.438	39771.65
678.787	39644.88
679.135	39892.1
679.484	39434.26
679.832	39686.46
680.181	39564.65
680.529	39612.56
680.877	39425.22
681.225	39533.01
681.573	39560.13
681.922	39292.34
682.27	39243.53
682.618	39419.57
682.966	39186.81
683.314	39257.99
683.661	39062.29
684.009	39035.85
684.357	38887.83
684.705	38781.17
685.053	38812.58
685.4	38792.69
685.748	38634.73
686.095	38640.38
686.443	38482.65
686.79	38423.66
687.138	38457.11
687.485	38547.28
687.832	38417.79
688.18	38355.87
688.527	38225.48
688.874	38185.7
689.221	38099.83
689.568	38070.45
689.915	37939.61
690.262	38021.19
690.609	37802.66
690.956	37768.54
691.303	37647.64
691.65	37484.25
691.997	37442.67
692.344	37305.73
692.69	37246.52
693.037	37344.82
693.383	36882.69
693.73	37159.29
694.077	36968.11
694.423	36954.55
694.769	36872.52
695.116	36685.63
695.462	36674.78
695.808	36619.19
696.155	36665.74
696.501	36374.91
696.847	36374
697.193	36035.25
697.539	36247.9
697.885	35977.85
698.231	35945.54
698.577	35959.55
698.923	35821.7
699.269	35648.14
699.614	35502.84
699.96	35526.57
700.306	35402.95
700.651	35329.96
700.997	35228.49
701.342	35047.26
701.688	35115.73
702.033	35024.66
702.379	34964.77
702.724	34929.29
703.069	34903.53
703.415	34484.79
703.76	34705.57
704.105	34605.01
704.45	34487.95
704.795	34313.72
705.14	34280.27
705.485	34235.75
705.83	34101.97
706.175	34067.4
706.52	34067.62
706.865	33958.47
707.209	33944.23
707.554	33729.78
707.899	33922.09
708.243	33673.06
708.588	33559.61
708.932	33282.78
709.277	33339.73
709.621	33438.26
709.966	33239.17
710.31	33326.4
710.654	33059.06
710.998	33072.62
711.342	33057.25
711.687	32919.63
712.031	32741.33
712.375	32670.82
712.719	32743.81
713.063	32581.33
713.407	32810.25
713.75	32541.11
714.094	32494.56
714.438	32368.23
714.782	32317.61
715.125	32286.43
715.469	32365.07
715.812	32101.8
716.156	32069.03
716.499	32039.65
716.843	32005.75
717.186	31855.7
717.53	32021.57
717.873	31879.66
718.216	31714.91
718.559	31688.02
718.902	31527.57
719.246	31479.67
719.589	31385.43
719.932	31427.01
720.275	31379.56
720.617	31348.37
720.96	31262.27
721.303	31183.18
721.646	31318.54
721.989	31027.02
722.331	31105.89
722.674	31106.8
723.016	31132.78
723.359	30879
723.701	31092.11
724.044	30793.81
724.386	30606.47
724.729	30870.64
725.071	30796.97
725.413	30690.76
725.755	30647.6
726.097	30507.26
726.439	30434.95
726.782	30366.48
727.124	30629.97
727.465	30431.11
727.807	30304.56
728.149	30172.36
728.491	30221.85
728.833	30317.66
729.175	30067.5
729.516	30159.02
729.858	30008.74
730.199	30059.14
730.541	29942.76
730.882	29960.38
731.224	29994.96
731.565	29823.44
731.906	29719.03
732.248	29808.52
732.589	29599.26
732.93	29515.42
733.271	29586.38
733.612	29548.64
733.953	29466.84
734.294	29413.51
734.635	29362.21
734.976	29421.42
735.317	29293.74
735.658	29243.79
735.999	29296.9
736.339	29262.1
736.68	29388.2
737.021	29122.89
737.361	29217.58
737.702	29174.64
738.042	29074.31
738.383	29068.66
738.723	29186.62
739.063	29026.62
739.404	28997.7
739.744	28949.11
740.084	28834.99
740.424	28838.38
740.764	28719.51
741.104	28816.01
741.444	28634.09
741.784	28579.86
742.124	28725.84
742.464	28461.44
742.804	28489.69
743.143	28494.21
743.483	28388.22
743.823	28411.05
744.162	28177.61
744.502	28377.6
744.841	28181.67
745.181	28240.88
745.52	28164.05
745.86	28133.77
746.199	28156.36
746.538	27957.5
746.877	28125.86
747.216	28152.3
747.556	27966.31
747.895	27996.82
748.234	27764.74
748.573	27779.65
748.911	27809.48
749.25	27728.58
749.589	27543.95
749.928	27751.63
750.267	27708.01
750.605	27510.51
750.944	27555.48
751.283	27488.59
751.621	27435.03
751.96	27254.69
752.298	27313.45
752.636	27329.49
752.975	27369.49
753.313	27229.16
753.651	27332.66
753.989	27169.95
754.327	26973.57
754.666	26858.55
755.004	26955.49
755.342	26922.5
755.679	26869.62
756.017	26740.58
756.355	26888.15
756.693	26639.79
757.031	26663.07
757.368	26585.11
757.706	26466.01
758.044	26366.81
758.381	26446.35
758.719	26296.98
759.056	26394.83
759.394	26261.72
759.731	25980.15
760.068	26055.18
760.405	25925.69
760.743	25930.89
761.08	25858.35
761.417	25727.5
761.754	25654.74
762.091	25684.79
762.428	25530.44
762.765	25463.33
763.102	25482.99
763.438	25401.18
763.775	25134.75
764.112	25152.6
764.449	25305.37
764.785	25169.32
765.122	24952.38
765.458	24849.78
765.795	24757.81
766.131	24743.35
766.467	24754.19
766.804	24527.53
767.14	24569.79
767.476	24498.61
767.812	24371.15
768.148	24433.3
768.485	24134.78
768.821	24166.86
769.157	24051.39
769.492	24035.57
769.828	23933.42
770.164	23750.6
770.5	23742.02
770.836	23674
771.171	23554.23
771.507	23462.48
771.842	23299.77
772.178	23352.87
772.513	23263.61
772.849	23182.26
773.184	23176.16
773.519	23039.66
773.855	23036.95
774.19	22857.97
774.525	22792.66
774.86	22792.44
775.195	22779.56
775.53	22539.11
775.865	22502.05
776.2	22342.05
776.535	22248.95
776.87	22182.74
777.205	22093.7
777.539	21964.89
777.874	22088.73
778.209	21883.31
778.543	21797.21
778.878	21715.4
779.212	21560.61
779.547	21457.78
779.881	21511.34
780.215	21416.88
780.55	21393.83
780.884	21300.05
781.218	21250.33
781.552	21296.66
781.886	21061.41
782.22	21071.13
782.554	20914.07
782.888	20807.18
783.222	20671.82
783.556	20654.41
783.889	20591.59
784.223	20461.65
784.557	20362.67
784.89	20388.43
785.224	20280.19
785.557	20144.82
785.891	20185.73
786.224	20035.22
786.558	19999.52
786.891	19894.21
787.224	19810.82
787.557	19708.9
787.891	19691.95
788.224	19690.15
788.557	19700.54
788.89	19622.58
789.223	19645.18
789.556	19442.02
789.888	19272.08
790.221	19359.31
790.554	19216.49
790.887	19200.22
791.219	19137.17
791.552	19099.2
791.884	18988.24
792.217	18889.72
792.549	18960.67
792.882	18768.81
793.214	18684.97
793.546	18739.44
793.879	18538.54
794.211	18429.39
794.543	18470.74
794.875	18376.06
795.207	18431.42
795.539	18323.63
795.871	18254.25
796.203	18162.05
796.535	18015.61
796.867	18057.42
797.198	17939.68
797.53	17945.56
797.862	17834.6
798.193	17897.88
798.525	17683.87
798.856	17688.84
799.188	17581.05
799.519	17608.84
799.85	17406.82
800.182	17423.99
800.513	17445.01
800.844	17278.01
801.175	17308.74
801.506	17370.21
801.837	17202.08
802.168	17237.78
802.499	17119.82
802.83	17017.22
803.161	16920.95
803.491	16954.62
803.822	16908.3
804.153	16766.83
804.483	16623.33
804.814	16607.52
805.145	16690.68
805.475	16607.74
805.805	16595.31
806.136	16535.43
806.466	16463.34
806.796	16498.59
807.126	16314.19
807.457	16205.04
807.787	16328.43
808.117	16194.42
808.447	16131.14
808.777	16172.05
809.107	16084.59
809.436	16049.79
809.766	16105.83
810.096	15962.56
810.426	15888.89
810.755	15944.71
811.085	15860.87
811.414	15920.98
811.744	15695.9
812.073	15691.61
812.403	15716.01
812.732	15606.64
813.061	15623.59
813.39	15562.8
813.719	15538.39
814.049	15527.77
814.378	15503.14
814.707	15399.19
815.036	15368.9
815.365	15292.75
815.693	15179.08
816.022	15241.68
816.351	15189.25
816.68	15077.16
817.008	15175.01
817.337	15013.88
817.665	14932.08
817.994	15030.38
818.322	14956.94
818.651	14825.42
818.979	14827
819.307	14849.14
819.636	14849.14
819.964	14749.71
820.292	14749.26
820.62	14734.57
820.948	14622.93
821.276	14774.8
821.604	14674.91
821.932	14758.52
822.259	14653.44
822.587	14664.74
822.915	14670.39
823.243	14672.88
823.57	14610.28
823.898	14627.23
824.225	14601.47
824.553	14637.85
824.88	14631.97
825.207	14706.55
825.535	14585.42
825.862	14628.36
826.189	14599.43
826.516	14652.54
826.843	14662.93
827.17	14669.04
827.497	14580.45
827.824	14575.7
828.151	14739.77
828.478	14621.35
828.805	14664.06
829.131	14683.05
829.458	14609.15
829.785	14526.44
830.111	14592.2
830.438	14595.82
830.764	14510.62
831.09	14574.8
831.417	14465.2
831.743	14579.55
832.069	14466.78
832.395	14446.44
832.722	14502.26
833.048	14443.96
833.374	14465.65
833.7	14415.26
834.026	14446.89
834.351	14422.26
834.677	14391.3
835.003	14434.01
835.329	14495.71
835.654	14337.07
835.98	14323.06
836.306	14393.11
836.631	14291.19
836.956	14320.34
837.282	14332.32
837.607	14187.47
837.932	14152.44
838.258	14194.25
838.583	14153.34
838.908	14016.17
839.233	14062.05
839.558	14140.01
839.883	14005.1
840.208	13997.19
840.533	13978.66
840.858	14030.18
841.182	14004.42
841.507	13946.34
841.832	13899.34
842.156	13886
842.481	13844.88
842.805	13838.32
843.13	13792.9
843.454	13786.35
843.778	13702.96
844.103	13622.28
844.427	13677.65
844.751	13574.6
845.075	13604.43
845.399	13571.44
845.723	13500.93
846.047	13539.35
846.371	13473.36
846.695	13442.63
847.019	13330.54
847.343	13177.77
847.666	13190.2
847.99	13086.48
848.313	13081.73
848.637	13031.34
848.96	12969.42
849.284	12955.63
849.607	12885.35
849.931	12844.45
850.254	12756.77
850.577	12670.22
850.9	12602.87
851.223	12623.21
851.546	12564.91
851.869	12430
852.192	12505.25
852.515	12387.51
852.838	12345.48
853.161	12364.91
853.483	12240.17
853.806	12203.11
854.129	12192.26
854.451	12143.45
854.774	12103.9
855.096	12079.27
855.419	12015.32
855.741	11964.7
856.063	11890.8
856.385	11855.55
856.708	11799.51
857.03	11760.86
857.352	11912.05
857.674	11788.21
857.996	11740.98
858.318	11646.52
858.64	11634.54
858.961	11611.26
859.283	11554.99
859.605	11581.88
859.926	11721.32
860.248	11548.44
860.57	11530.13
860.891	11421.66
861.212	11399.97
861.534	11362.46
861.855	11322.46
862.176	11432.06
862.498	11380.31
862.819	11310.03
863.14	11227.32
863.461	11291.72
863.782	11223.02
864.103	11246.53
864.424	11158.17
864.745	11216.92
865.065	11101.67
865.386	11149.35
865.707	11108.9
866.027	11149.13
866.348	11093.76
866.668	11069.81
866.989	11132.18
867.309	10897.16
867.63	11053.09
867.95	10961.56
868.27	10898.51
868.59	10919.53
868.91	10870.04
869.23	10945.29
869.55	10809.02
869.87	10891.73
870.19	10897.38
870.51	10833.2
870.83	10901.68
871.15	10728.12
871.469	10729.48
871.789	10805.41
872.109	10704.17
872.428	10716.82
872.748	10755.01
873.067	10736.94
873.386	10676.82
873.706	10696.94
874.025	10571.29
874.344	10578.75
874.663	10546.21
874.982	10573.55
875.301	10559.76
875.62	10496.26
875.939	10511.63
876.258	10467.79
876.577	10479.99
876.896	10454.46
877.214	10413.78
877.533	10428.02
877.852	10439.09
878.17	10395.93
878.489	10436.6
878.807	10323.39
879.125	10358.19
879.444	10340.11
879.762	10260.34
880.08	10268.92
880.398	10287
880.716	10330.39
881.034	10267.12
881.352	10294.46
881.67	10171.3
881.988	10184.18
882.306	10194.12
882.624	10132.43
882.941	10033.68
883.259	10075.03
883.577	10053.56
883.894	9980.57
884.212	10036.16
884.529	9961.81
884.846	9980.8
885.164	9942.15
885.481	9884.98
885.798	9929.27
886.115	9863.51
886.432	9864.42
886.75	9764.53
887.067	9833.68
887.383	9754.59
887.7	9793.68
888.017	9748.49
888.334	9668.26
888.651	9673.46
888.967	9648.38
889.284	9612.44
889.6	9600.69
889.917	9500.81
890.233	9576.97
890.55	9450.42
890.866	9520.92
891.182	9503.52
891.498	9442.96
891.815	9315.28
892.131	9415.39
892.447	9350.3
892.763	9301.04
893.079	9372
893.395	9230.31
893.71	9186.92
894.026	9186.69
894.342	9206.13
894.657	9106.92
894.973	9087.94
895.289	9098.11
895.604	9042.97
895.92	9088.39
896.235	8922.07
896.55	8929.07
896.865	8932.01
897.181	8934.27
897.496	8871.45
897.811	8854.72
898.126	8824.9
898.441	8785.12
898.756	8834.16
899.071	8692.24
899.386	8737.89
899.7	8681.62
900.015	8595.52
900.33	8603.88
900.644	8499.48
900.959	8557.11
901.273	8530.21
901.588	8487.5
901.902	8384.23
902.216	8435.98
902.531	8460.16
902.845	8435.07
903.159	8337.22
903.473	8274.18
903.787	8237.57
904.101	8272.82
904.415	8191.24
904.729	8195.08
905.042	8159.83
905.356	8101.98
905.67	8113.95
905.984	8157.79
906.297	8080.06
906.611	8007.29
906.924	8012.49
907.237	7959.38
907.551	7932.04
907.864	7873.28
908.177	7838.48
908.491	7833.28
908.804	7762.32
909.117	7751.48
909.43	7729.78
909.743	7675.55
910.056	7713.06
910.368	7627.19
910.681	7534.76
910.994	7539.96
911.307	7577.02
911.619	7479.17
911.932	7471.94
912.244	7433.75
912.557	7437.81
912.869	7411.6
913.181	7376.8
913.494	7330.92
913.806	7293.64
914.118	7259.96
914.43	7266.97
914.742	7213.86
915.054	7135.9
915.366	7167.54
915.678	7124.15
915.99	7102.45
916.302	7064.72
916.613	7021.78
916.925	6999.63
917.236	7006.41
917.548	6975.45
917.859	6911.5
918.171	6890.71
918.482	6863.59
918.794	6841.67
919.105	6807.1
919.416	6768
919.727	6703.37
920.038	6725.29
920.349	6671.73
920.66	6607.78
920.971	6651.84
921.282	6576.37
921.593	6593.09
921.903	6560.55
922.214	6515.58
922.525	6496.82
922.835	6431.96
923.146	6395.58
923.456	6410.95
923.767	6331.85
924.077	6345.64
924.387	6321.01
924.697	6308.58
925.008	6293.21
925.318	6229.26
925.628	6241.01
925.938	6152.2
926.248	6159.2
926.558	6147.68
926.867	6075.36
927.177	6105.19
927.487	6090.5
927.796	6035.82
928.106	5987.68
928.416	5995.59
928.725	5960.56
929.034	5911.98
929.344	5941.13
929.653	5903.84
929.962	5824.75
930.271	5845.76
930.581	5838.76
930.89	5806.67
931.199	5775.26
931.508	5756.5
931.817	5727.35
932.125	5733.22
932.434	5687.35
932.743	5622.49
933.051	5617.97
933.36	5609.16
933.669	5492.78
933.977	5490.29
934.286	5571.65
934.594	5528.26
934.902	5463.4
935.21	5418.2
935.519	5415.27
935.827	5366.91
936.135	5375.04
936.443	5308.15
936.751	5323.74
937.059	5274.03
937.367	5281.26
937.674	5290.75
937.982	5259.11
938.29	5229.28
938.597	5221.83
938.905	5123.07
939.213	5131.66
939.52	5123.98
939.827	5108.61
940.135	5097.31
940.442	5106.35
940.749	5029.74
941.056	5031.77
941.363	4969.63
941.67	4967.37
941.977	4934.83
942.284	4922.85
942.591	4903.64
942.898	4892.8
943.205	4872.68
943.511	4841.27
943.818	4779.8
944.125	4744.1
944.431	4859.58
944.738	4810.76
945.044	4739.35
945.35	4736.87
945.657	4681.95
945.963	4706.36
946.269	4675.85
946.575	4650.32
946.881	4634.95
947.187	4625.91
947.493	4601.28
947.799	4564.89
948.105	4524.9
948.41	4522.41
948.716	4551.56
949.022	4504.1
949.327	4489.42
949.633	4436.54
949.938	4412.13
950.244	4445.58
950.549	4424.78
950.854	4392.02
951.16	4345.92
951.465	4334.62
951.77	4309.76
952.075	4306.14
952.38	4289.65
952.685	4297.78
952.99	4235.86
953.294	4237.67
953.599	4199.71
953.904	4183.66
954.209	4151.57
954.513	4159.93
954.818	4114.96
955.122	4139.37
955.426	4090.56
955.731	4083.55
956.035	4079.94
956.339	4044
956.643	3973.05
956.948	4016.66
957.252	3992.25
957.556	3974.4
957.86	3950
958.163	3986.15
958.467	3912.71
958.771	3886.95
959.075	3850.56
959.378	3848.75
959.682	3849.66
959.985	3869.32
960.289	3799.72
960.592	3798.13
960.896	3768.76
961.199	3773.5
961.502	3719.72
961.805	3732.83
962.108	3720.4
962.411	3717.23
962.714	3716.33
963.017	3673.62
963.32	3677.01
963.623	3678.59
963.926	3618.25
964.228	3583.68
964.531	3601.08
964.833	3632.26
965.136	3550.01
965.438	3554.07
965.741	3524.47
966.043	3526.96
966.345	3488.99
966.648	3477.24
966.95	3495.77
967.252	3415.09
967.554	3445.15
967.856	3442.21
968.158	3422.1
968.46	3433.4
968.761	3396.34
969.063	3398.6
969.365	3354.3
969.666	3389.11
969.968	3317.02
970.269	3307.75
970.571	3294.19
970.872	3307.3
971.174	3274.31
971.475	3249.67
971.776	3210.13
972.077	3212.61
972.378	3210.58
972.679	3237.02
972.98	3159.28
973.281	3189.79
973.582	3121.77
973.883	3142.78
974.183	3114.54
974.484	3146.85
974.785	3106.18
975.085	3090.13
975.386	3098.49
975.686	3059.4
975.986	3033.18
976.287	3060.3
976.587	3023.47
976.887	3020.98
977.187	3003.35
977.487	2954.31
977.787	2986.18
978.087	2945.73
978.387	2950.47
978.687	2936.24
978.987	2919.06
979.286	2913.64
979.586	2908.89
979.885	2860.08
980.185	2874.54
980.484	2869.8
980.784	2828.67
981.083	2843.58
981.382	2825.28
981.682	2815.79
981.981	2826.63
982.28	2777.6
982.579	2742.12
982.878	2778.5
983.177	2724.72
983.475	2756.58
983.774	2746.64
984.073	2721.33
984.372	2697.37
984.67	2686.3
984.969	2670.03
985.267	2643.36
985.566	2632.74
985.864	2627.09
986.162	2607.21
986.461	2601.33
986.759	2626.19
987.057	2546.64
987.355	2590.03
987.653	2564.72
987.951	2566.53
988.249	2539.41
988.547	2532.18
988.844	2509.58
989.142	2516.13
989.44	2488.79
989.737	2478.62
990.035	2457.38
990.332	2471.62
990.63	2449.47
990.927	2462.35
991.224	2476.59
991.521	2452.63
991.819	2382.13
992.116	2403.37
992.413	2402.24
992.71	2371.96
993.006	2388.45
993.303	2374.67
993.6	2390.49
993.897	2349.36
994.193	2360.66
994.49	2282.02
994.787	2289.7
995.083	2283.37
995.379	2277.5
995.676	2263.26
995.972	2234.56
996.268	2273.2
996.565	2228.68
996.861	2222.36
997.157	2237.05
997.453	2216.48
997.749	2219.65
998.044	2155.01
998.34	2180.1
998.636	2145.97
998.932	2169.25
999.227	2132.19
999.523	2148.69
999.818	2126.99
1000.114	2109.37
1000.409	2097.84
1000.704	2075.02
1001	2058.75
1001.295	2051.97
1001.59	2041.12
1001.885	2055.58
1002.18	2035.47
1002.475	2022.14
1002.77	1988.46
1003.065	1969.93
1003.359	1984.62
1003.654	1976.49
1003.949	1953.89
1004.243	1957.51
1004.538	1958.18
1004.832	1952.76
1005.127	1933.55
1005.421	1896.72
1005.715	1940.33
1006.009	1862.14
1006.304	1879.09
1006.598	1903.95
1006.892	1864.63
1007.186	1855.81
1007.48	1839.54
1007.773	1806.32
1008.067	1824.63
1008.361	1780.33
1008.655	1820.33
1008.948	1799.32
1009.242	1741.69
1009.535	1779.88
1009.829	1729.26
1010.122	1715.48
1010.415	1729.94
1010.708	1745.08
1011.001	1722.71
1011.295	1702.37
1011.588	1684.07
1011.881	1678.19
1012.173	1674.35
1012.466	1674.57
1012.759	1666.89
1013.052	1621.92
1013.344	1626.89
1013.637	1648.59
1013.93	1620.11
1014.222	1609.94
1014.514	1608.59
1014.807	1571.53
1015.099	1602.26
1015.391	1586.44
1015.683	1597.97
1015.976	1549.61
1016.268	1532.21
1016.56	1539.44
1016.851	1533.79
1017.143	1550.28
1017.435	1509.16
1017.727	1495.14
1018.018	1484.3
1018.31	1470.51
1018.602	1465.77
1018.893	1461.25
1019.185	1472.09
1019.476	1441.36
1019.767	1448.82
1020.058	1438.87
1020.35	1421.93
1020.641	1395.94
1020.932	1394.58
1021.223	1404.53
1021.514	1369.95
1021.804	1375.83
1022.095	1353.91
1022.386	1345.32
1022.677	1371.76
1022.967	1324.98
1023.258	1340.12
1023.548	1306.67
1023.839	1308.93
1024.129	1314.58
1024.419	1287.69
1024.709	1277.97
1025	1283.17
1025.29	1272.78
1025.58	1240.46
1025.87	1255.15
1026.16	1259.9
1026.449	1238.65
1026.739	1234.36
1027.029	1218.99
1027.319	1215.38
1027.608	1197.53
1027.898	1214.25
1028.187	1198.88
1028.477	1190.97
1028.766	1167.24
1029.055	1167.02
1029.344	1160.24
1029.634	1152.78
1029.923	1143.97
1030.212	1140.13
1030.501	1118.43
1030.79	1138.54
1031.078	1118.88
1031.367	1098.09
1031.656	1095.15
1031.945	1103.74
1032.233	1106
1032.522	1077.75
1032.81	1066.23
1033.099	1063.97
1033.387	1053.8
1033.675	1042.5
1033.963	1036.17
1034.251	1039.34
1034.54	1039.34
1034.828	1022.61
1035.116	970.41
1035.403	1000.02
1035.691	1000.24
1035.979	1002.5
1036.267	983.52
1036.554	985.55
1036.842	968.6
1037.129	996.63
1037.417	990.3
1037.704	969.96
1037.992	975.84
1038.279	961.6
1038.566	937.19
1038.853	937.19
1039.14	937.19
