Data from hue_330_FLMS001491_11.txt Node
Date: Mon Feb 06 15:44:58 GMT 2017
User: dcchb
Spectrometer: FLMS00149
Trigger mode: 0
Integration Time (sec): 2.000000E-2
Scans to average: 10
Electric dark correction enabled: true
Nonlinearity correction enabled: false
Boxcar width: 0
XAxis mode: Wavelengths
Number of Pixels in Spectrum: 2048
>>>>>Begin Spectral Data<<<<<
341.393	-22.61
341.776	-22.61
342.16	-22.61
342.543	-51.54
342.927	-70.52
343.31	-61.03
343.693	-72.78
344.077	-81.82
344.46	-72.55
344.843	-48.37
345.226	-26
345.61	-35.27
345.993	-37.3
346.376	-2.5
346.759	3.6
347.142	31.85
347.525	46.76
347.908	71.62
348.291	89.93
348.674	90.38
349.057	103.49
349.44	131.28
349.823	147.78
350.206	175.8
350.588	183.48
350.971	215.12
351.354	215.57
351.737	225.74
352.119	241.79
352.502	252.63
352.884	262.8
353.267	284.27
353.65	295.8
354.032	298.96
354.414	316.59
354.797	310.03
355.179	325.4
355.562	319.98
355.944	313.2
356.326	313.88
356.709	325.18
357.091	326.98
357.473	327.43
357.855	349.58
358.238	341.67
358.62	350.26
359.002	341.45
359.384	332.18
359.766	339.41
360.148	329.24
360.53	364.72
360.912	333.08
361.294	342.58
361.676	331.73
362.057	329.24
362.439	324.95
362.821	311.16
363.203	334.21
363.584	339.64
363.966	317.94
364.348	331.28
364.729	326.08
365.111	322.01
365.493	334.21
365.874	314.1
366.256	327.21
366.637	319.3
367.019	317.04
367.4	304.61
367.781	324.05
368.163	313.65
368.544	322.24
368.925	299.64
369.306	313.2
369.688	330.6
370.069	308.68
370.45	317.49
370.831	314.1
371.212	311.62
371.593	300.99
371.974	345.51
372.355	307.32
372.736	303.48
373.117	329.47
373.498	316.36
373.879	331.05
374.26	328.79
374.641	330.15
375.021	332.18
375.402	314.78
375.783	332.18
376.163	303.93
376.544	315.23
376.925	342.12
377.305	311.84
377.686	323.59
378.066	329.69
378.447	328.11
378.827	322.46
379.208	326.98
379.588	342.35
379.968	312.52
380.349	333.31
380.729	324.27
381.109	334.21
381.489	331.95
381.87	329.02
382.25	343.48
382.63	346.87
383.01	356.81
383.39	338.28
383.77	352.97
384.15	352.74
384.53	340.54
384.91	335.8
385.29	349.36
385.67	332.41
386.049	340.99
386.429	348.68
386.809	357.94
387.189	366.3
387.568	348.45
387.948	355.46
388.328	367.43
388.707	361.11
389.087	379.18
389.466	360.2
389.846	355.23
390.225	355
390.605	359.52
390.984	371.05
391.363	370.82
391.743	361.33
392.122	361.78
392.501	363.37
392.881	377.38
393.26	380.09
393.639	371.28
394.018	374.67
394.397	386.64
394.776	370.37
395.155	387.55
395.534	356.59
395.913	360.43
396.292	367.66
396.671	366.3
397.05	370.6
397.429	389.35
397.808	379.64
398.186	371.05
398.565	391.16
398.944	374.44
399.323	374.21
399.701	379.18
400.08	395.91
400.458	387.09
400.837	403.82
401.215	404.72
401.594	404.27
401.972	397.04
402.351	404.5
402.729	415.12
403.107	414.44
403.486	407.88
403.864	401.11
404.242	418.51
404.62	416.25
404.999	411.95
405.377	409.69
405.755	431.16
406.133	432.29
406.511	456.02
406.889	430.26
407.267	451.73
407.645	444.72
408.023	429.58
408.401	466.19
408.779	436.36
409.156	462.12
409.534	457.6
409.912	475.91
410.29	470.93
410.667	483.36
411.045	503.48
411.422	492.4
411.8	470.26
412.178	488.56
412.555	495.34
412.933	498.73
413.31	513.42
413.687	533.98
414.065	526.07
414.442	538.73
414.819	527.2
415.197	530.59
415.574	546.86
415.951	548.67
416.328	564.72
416.705	564.04
417.082	555.68
417.46	566.75
417.837	573.08
418.214	566.52
418.591	581.89
418.967	587.54
419.344	608.78
419.721	592.29
420.098	620.53
420.475	611.5
420.852	612.17
421.228	611.5
421.605	639.97
421.982	634.77
422.358	630.7
422.735	634.55
423.111	690.14
423.488	678.84
423.864	686.97
424.241	685.39
424.617	688.1
424.994	665.28
425.37	703.02
425.746	688.56
426.123	707.31
426.499	712.74
426.875	706.18
427.251	706.41
427.627	736.92
428.003	721.32
428.379	717.71
428.756	764.71
429.132	764.71
429.507	745.73
429.883	755.22
430.259	767.88
430.635	794.32
431.011	768.33
431.387	797.03
431.763	806.97
432.138	811.72
432.514	829.12
432.89	830.47
433.265	850.13
433.641	859.17
434.016	856.46
434.392	872.73
434.767	877.93
435.143	892.62
435.518	900.3
435.894	911.37
436.269	906.4
436.644	934.65
437.02	936.68
437.395	925.61
437.77	935.1
438.145	950.02
438.52	975.78
438.895	982.33
439.271	993.86
439.646	979.17
440.021	979.4
440.395	1006.97
440.77	993.41
441.145	995.21
441.52	1006.97
441.895	1006.74
442.27	1033.41
442.645	1017.36
443.019	1037.47
443.394	1024.59
443.769	1032.73
444.143	1038.6
444.518	1043.8
444.892	1053.52
445.267	1055.33
445.641	1060.97
446.016	1070.24
446.39	1048.32
446.764	1096
447.139	1056
447.513	1064.36
447.887	1066.85
448.262	1071.82
448.636	1096.91
449.01	1123.8
449.384	1116.79
449.758	1127.19
450.132	1128.77
450.506	1141.88
450.88	1138.04
451.254	1133.52
451.628	1129.67
452.002	1146.17
452.376	1143.23
452.75	1139.16
453.123	1176
453.497	1168.32
453.871	1171.93
454.244	1192.72
454.618	1197.47
454.992	1208.32
455.365	1215.1
455.739	1235.43
456.112	1221.42
456.486	1250.12
456.859	1237.02
457.232	1272.72
457.606	1289.67
457.979	1278.14
458.352	1283.57
458.725	1317.24
459.099	1320.63
459.472	1313.17
459.845	1329.22
460.218	1336.9
460.591	1361.08
460.964	1387.07
461.337	1371.7
461.71	1393.17
462.083	1386.84
462.456	1386.62
462.829	1377.35
463.201	1436.11
463.574	1417.58
463.947	1446.28
464.32	1461.19
464.692	1455.99
465.065	1473.17
465.438	1495.77
465.81	1503.45
466.183	1500.51
466.555	1519.04
466.928	1560.62
467.3	1521.75
467.672	1554.07
468.045	1581.64
468.417	1601.3
468.789	1588.19
469.161	1636.55
469.534	1660.51
469.906	1666.83
470.278	1669.77
470.65	1669.09
471.022	1676.78
471.394	1735.08
471.766	1742.09
472.138	1762.43
472.51	1780.5
472.882	1809.66
473.253	1827.96
473.625	1815.31
473.997	1861.63
474.369	1849.65
474.74	1868.19
475.112	1896.21
475.484	1932.59
475.855	1953.15
476.227	1975.75
476.598	2000.84
476.97	1975.3
477.341	2041.74
477.713	2102.98
478.084	2089.87
478.455	2125.81
478.827	2137.78
479.198	2215.07
479.569	2181.85
479.94	2257.78
480.311	2207.16
480.682	2266.82
481.053	2327.38
481.424	2361.51
481.795	2364.22
482.166	2433.37
482.537	2394.5
482.908	2450.99
483.279	2504.55
483.65	2542.97
484.021	2549.07
484.391	2568.96
484.762	2612.8
485.133	2614.61
485.503	2641.72
485.874	2710.88
486.244	2732.34
486.615	2728.95
486.985	2803.08
487.356	2817.09
487.726	2857.31
488.097	2853.47
488.467	2874.71
488.837	2961.26
489.207	2944.09
489.578	3025.67
489.948	3006.69
490.318	3022.51
490.688	3072.45
491.058	3112.22
491.428	3131.88
491.798	3128.72
492.168	3232.9
492.538	3242.61
492.908	3242.61
493.278	3288.04
493.648	3288.04
494.017	3309.73
494.387	3384.08
494.757	3396.51
495.126	3389.28
495.496	3428.82
495.866	3419.11
496.235	3469.5
496.605	3511.98
496.974	3523.51
497.344	3545.88
497.713	3539.33
498.082	3614.58
498.452	3566.22
498.821	3579.78
499.19	3633.56
499.559	3655.48
499.928	3669.27
500.298	3692.09
500.667	3692.09
501.036	3727.35
501.405	3730.96
501.774	3747.91
502.143	3798.53
502.512	3765.08
502.88	3816.83
503.249	3775.71
503.618	3849.83
503.987	3829.49
504.356	3824.74
504.724	3870.62
505.093	3864.29
505.462	3864.29
505.83	3966.66
506.199	3937.74
506.567	3945.19
506.936	3973.44
507.304	4019.32
507.672	4015.02
508.041	4042.82
508.409	4034.91
508.777	4037.85
509.145	4075.13
509.514	4066.32
509.882	4083.72
510.25	4137.5
510.618	4136.15
510.986	4137.05
511.354	4167.79
511.722	4159.65
512.09	4175.24
512.458	4164.17
512.826	4215.02
513.193	4216.37
513.561	4215.69
513.929	4276.71
514.297	4235.58
514.664	4327.56
515.032	4275.58
515.4	4305.18
515.767	4323.26
516.135	4291.17
516.502	4284.84
516.869	4356.71
517.237	4342.7
517.604	4332.75
517.972	4391.51
518.339	4405.75
518.706	4396.03
519.073	4402.13
519.44	4430.6
519.808	4439.64
520.175	4427.67
520.542	4502.92
520.909	4475.57
521.276	4479.87
521.643	4517.83
522.009	4545.63
522.376	4598.96
522.743	4603.48
523.11	4637.83
523.477	4637.6
523.843	4639.64
524.21	4695.68
524.577	4709.47
524.943	4709.01
525.31	4691.84
525.676	4756.02
526.043	4767.32
526.409	4805.96
526.776	4806.64
527.142	4842.57
527.508	4846.41
527.874	4900.87
528.241	4937.48
528.607	4901.55
528.973	4899.97
529.339	4983.58
529.705	5027.2
530.071	5018.16
530.437	5041.44
530.803	5109.68
531.169	5117.14
531.535	5093.41
531.901	5127.08
532.267	5095.9
532.632	5164.14
532.998	5233.07
533.364	5233.97
533.73	5228.32
534.095	5238.27
534.461	5261.54
534.826	5251.37
535.192	5305.84
535.557	5380.41
535.923	5355.55
536.288	5372.5
536.653	5428.09
537.019	5394.19
537.384	5386.96
537.749	5436.23
538.114	5473.06
538.479	5468.77
538.845	5529.11
539.21	5508.09
539.575	5561.87
539.94	5530.46
540.305	5579.5
540.67	5614.53
541.034	5621.76
541.399	5614.08
541.764	5690.68
542.129	5706.28
542.494	5752.6
542.858	5773.39
543.223	5739.27
543.587	5768.42
543.952	5829.66
544.316	5864.92
544.681	5865.82
545.045	5874.41
545.41	5905.37
545.774	5929.32
546.138	5912.37
546.503	5993.5
546.867	5962.99
547.231	6000.05
547.595	6055.42
547.959	6077.57
548.324	6037.79
548.688	6075.98
549.052	6153.5
549.416	6131.58
549.779	6164.57
550.143	6170.22
550.507	6198.01
550.871	6174.74
551.235	6215.42
551.599	6221.29
551.962	6265.36
552.326	6279.59
552.689	6342.19
553.053	6295.87
553.417	6297.9
553.78	6352.59
554.143	6347.39
554.507	6424.68
554.87	6443.88
555.234	6438.23
555.597	6421.51
555.96	6480.04
556.323	6488.18
556.686	6543.32
557.05	6572.02
557.413	6593.94
557.776	6525.92
558.139	6605.46
558.502	6618.57
558.865	6637.33
559.228	6675.97
559.59	6690.21
559.953	6728.62
560.316	6817.43
560.679	6824.44
561.041	6799.13
561.404	6822.63
561.767	6831.9
562.129	6815.63
562.492	6881.84
562.854	6892.01
563.217	6873.03
563.579	6896.98
563.941	6956.19
564.304	6996.64
564.666	7010.2
565.028	7030.08
565.39	6981.05
565.753	7063.08
566.115	7037.99
566.477	7128.16
566.839	7152.57
567.201	7202.06
567.563	7183.75
567.925	7314.14
568.287	7243.64
568.648	7279.79
569.01	7307.82
569.372	7411.54
569.734	7396.18
570.095	7410.64
570.457	7456.51
570.819	7468.72
571.18	7507.59
571.542	7535.83
571.903	7546.91
572.265	7600.92
572.626	7630.29
572.987	7629.39
573.349	7705.77
573.71	7730.86
574.071	7772.21
574.432	7896.5
574.794	7917.52
575.155	7932.43
575.516	8070.28
575.877	8090.85
576.238	8164.74
576.599	8201.58
576.96	8235.25
577.32	8316.38
577.681	8387.79
578.042	8537.39
578.403	8509.82
578.763	8635.47
579.124	8696.03
579.485	8846.08
579.845	8930.82
580.206	9044.04
580.566	9116.58
580.927	9265.5
581.287	9418.5
581.648	9514.54
582.008	9603.35
582.368	9805.83
582.728	9890.8
583.089	10098.48
583.449	10164.01
583.809	10374.63
584.169	10600.84
584.529	10618.69
584.889	10946.36
585.249	11072.01
585.609	11281.05
585.969	11476.97
586.329	11646.69
586.688	11875.38
587.048	12044.87
587.408	12330.51
587.768	12524.63
588.127	12659.99
588.487	12979.76
588.846	13230.15
589.206	13368.45
589.565	13683.92
589.925	14024.25
590.284	14221.53
590.643	14538.59
591.003	14796.21
591.362	15037.1
591.721	15269.87
592.08	15481.84
592.44	15910.98
592.799	16159.56
593.158	16412.44
593.517	16737.4
593.876	17169.7
594.235	17319.53
594.593	17562.01
594.952	17902.57
595.311	18197.02
595.67	18562.44
596.029	18984.8
596.387	19167.62
596.746	19479.7
597.104	19770.09
597.463	20010.31
597.822	20509.28
598.18	20623.85
598.538	20974.35
598.897	21288.01
599.255	21396.71
599.613	22026.07
599.972	22170.7
600.33	22539.28
600.688	22614.76
601.046	23032.6
601.404	23472.59
601.762	23658.57
602.12	24067.6
602.478	24292.45
602.836	24491.77
603.194	24657.19
603.552	24939.67
603.91	25313.9
604.268	25600.89
604.625	25769.03
604.983	26237.26
605.341	26270.26
605.698	26517.25
606.056	26906.4
606.413	27102.1
606.771	27419.83
607.128	27619.15
607.485	27726.71
607.843	28070.21
608.2	28436.3
608.557	28676.52
608.914	28713.81
609.272	29090.29
609.629	29372.55
609.986	29704.06
610.343	29678.75
610.7	30159.42
611.057	30302.69
611.414	30368.45
611.771	30733.64
612.127	30941.55
612.484	31095.67
612.841	31455.43
613.198	31417.46
613.554	31508.54
613.911	31824.91
614.267	31964.57
614.624	32136.99
614.98	32414.5
615.337	32668.05
615.693	32841.61
616.05	32794.6
616.406	33194.37
616.762	33196.4
617.118	33386.23
617.475	33505.09
617.831	33752.77
618.187	33933.56
618.543	34034.35
618.899	34297.62
619.255	34313.21
619.611	34446.31
619.967	34601.34
620.323	34746.64
620.678	34767.89
621.034	34883.14
621.39	34912.29
621.746	35057.37
622.101	35512.05
622.457	35377.81
622.812	35462.33
623.168	35658.94
623.523	35588.2
623.879	35826.84
624.234	35657.58
624.589	35972.37
624.945	36210.11
625.3	36252.82
625.655	36165.36
626.01	36396.32
626.365	36521.51
626.72	36453.04
627.075	36548.18
627.43	36602.19
627.785	36633.15
628.14	36745.69
628.495	36860.71
628.85	36817.77
629.205	36813.26
629.559	36898.68
629.914	36850.32
630.269	37057.09
630.623	36903.42
630.978	36930.54
631.332	37158.1
631.687	37327.59
632.041	37127.6
632.396	37228.39
632.75	37167.82
633.104	37214.83
633.459	37088.73
633.813	37153.36
634.167	37275.16
634.521	37107.94
634.875	37330.08
635.229	37308.61
635.583	37126.92
635.937	37234.26
636.291	37142.51
636.645	37384.99
636.999	37210.08
637.352	37384.77
637.706	37277.65
638.06	37313.58
638.413	37364.2
638.767	37312.23
639.121	37337.08
639.474	37145.9
639.828	37239.68
640.181	37286.92
640.534	37293.24
640.888	37322.85
641.241	37150.2
641.594	37244.66
641.947	37243.07
642.301	37154.94
642.654	37250.53
643.007	37243.75
643.36	37250.98
643.713	37135.28
644.066	37248.5
644.419	37188.16
644.771	36901.39
645.124	36572.58
645.477	36477.44
645.83	36411.68
646.182	35988.87
646.535	36094.18
646.888	36265.25
647.24	35994.52
647.593	36162.88
647.945	36263.89
648.298	35973.73
648.65	35934.41
649.002	35926.05
649.355	36086.95
649.707	35899.83
650.059	36045.37
650.411	36502.98
650.763	36562.87
651.115	37013.02
651.467	36942.74
651.819	36822.75
652.171	36850.54
652.523	36726.48
652.875	36802.41
653.227	36568.74
653.578	36898.68
653.93	36809.19
654.282	36724.44
654.633	36565.35
654.985	36818.68
655.337	36637.21
655.688	36603.32
656.039	36779.13
656.391	36524.45
656.742	36658.68
657.094	36552.47
657.445	36617.55
657.796	36616.88
658.147	36490.55
658.498	36550.89
658.849	36667.04
659.2	36571.68
659.551	36436.09
659.902	36644.22
660.253	36530.32
660.604	36703.2
660.955	36431.8
661.306	36576.2
661.656	36512.02
662.007	36569.19
662.358	36495.07
662.708	36381.4
663.059	36469.08
663.409	36258.92
663.76	36481.06
664.11	36641.06
664.461	36524.45
664.811	36421.85
665.161	36578.01
665.511	36339.6
665.862	36419.37
666.212	36516.77
666.562	36555.41
666.912	36552.47
667.262	36514.28
667.612	36462.53
667.962	36510.89
668.312	36456.88
668.662	36528.74
669.011	36288.52
669.361	36291.01
669.711	36328.52
670.06	36330.1
670.41	36169.88
670.76	36277.68
671.109	36446.71
671.459	36321.06
671.808	36312.93
672.157	36490.55
672.507	36074.52
672.856	36207.17
673.205	36164.46
673.554	36307.51
673.904	36045.37
674.253	36435.86
674.602	36097.79
674.951	35724.92
675.3	35552.27
675.649	36176.21
675.998	35987.74
676.346	36019.15
676.695	36065.03
677.044	36067.74
677.393	36017.12
677.741	35968.31
678.09	36054.18
678.438	35937.35
678.787	35993.16
679.135	36015.08
679.484	35711.14
679.832	35858.48
680.181	35578.94
680.529	35815.09
680.877	35668.88
681.225	35600.63
681.573	35692.61
681.922	35629.11
682.27	35426.4
682.618	35503.23
682.966	35353.18
683.314	35539.16
683.661	35383.69
684.009	35141.66
684.357	35118.61
684.705	34950.48
685.053	35117.48
685.4	35079.29
685.748	34773.76
686.095	34954.77
686.443	34717.27
686.79	34849.47
687.138	34869.8
687.485	34723.59
687.832	34669.36
688.18	34736.25
688.527	34449.02
688.874	34520.21
689.221	34433.88
689.568	34453.77
689.915	34350.5
690.262	34271.63
690.609	34169.71
690.956	34039.09
691.303	33986.66
691.65	33926.33
691.997	33874.12
692.344	33709.61
692.69	33780.11
693.037	33752.77
693.383	33509.16
693.73	33541.7
694.077	33418.32
694.423	33302.39
694.769	33223.52
695.116	33289.51
695.462	33029.85
695.808	33085.44
696.155	33064.2
696.501	32852.46
696.847	33005.22
697.193	32644.33
697.539	32732.01
697.885	32582.63
698.231	32378.12
698.577	32381.51
698.923	32312.13
699.269	32257.89
699.614	32105.36
699.96	32176.31
700.306	32131.34
700.651	32020.61
700.997	31848.41
701.342	31866.94
701.688	31723.9
702.033	31542.43
702.379	31490.68
702.724	31461.76
703.069	31496.56
703.415	31255.89
703.76	31265.38
704.105	31294.3
704.45	31131.6
704.795	30935.22
705.14	30873.52
705.485	30914.43
705.83	30791.94
706.175	30847.76
706.52	30779.52
706.865	30628.33
707.209	30518.51
707.554	30399.41
707.899	30467.89
708.243	30295.01
708.588	30384.5
708.932	30149.7
709.277	30154
709.621	30175.46
709.966	29993.55
710.31	30031.74
710.654	29838.98
710.998	29781.12
711.342	29782.93
711.687	29723.27
712.031	29497.52
712.375	29460.68
712.719	29469.95
713.063	29418.2
713.407	29490.74
713.75	29458.19
714.094	29438.08
714.438	29258.43
714.782	29369.84
715.125	29150.41
715.469	29163.96
715.812	29037.19
716.156	28905.44
716.499	29021.14
716.843	28952.9
717.186	28799.45
717.53	28954.93
717.873	28889.85
718.216	28731.21
718.559	28716.97
718.902	28569.86
719.246	28495.06
719.589	28414.83
719.932	28446.7
720.275	28486.69
720.617	28300.03
720.96	28226.36
721.303	28247.38
721.646	28380.26
721.989	27997.89
722.331	28126.03
722.674	27999.93
723.016	28044.45
723.359	28025.46
723.701	28030.44
724.044	27740.27
724.386	27742.31
724.729	27782.08
725.071	27745.92
725.413	27714.74
725.755	27691.01
726.097	27651.91
726.439	27410.34
726.782	27530.34
727.124	27574.63
727.465	27299.83
727.807	27363.56
728.149	27295.54
728.491	27230.68
728.833	27382.09
729.175	27175.99
729.516	27099.16
729.858	27088.77
730.199	27063.46
730.541	27078.6
730.882	26917.92
731.224	27120.85
731.565	26820.07
731.906	26801.32
732.248	26911.59
732.589	26835.21
732.93	26687.65
733.271	26819.39
733.612	26740.07
733.953	26931.48
734.294	26545.5
734.635	26578.72
734.976	26560.42
735.317	26404.26
735.658	26437.48
735.999	26396.58
736.339	26378.5
736.68	26386.86
737.021	26345.96
737.361	26186.87
737.702	26399.74
738.042	26276.13
738.383	26282.23
738.723	26214.89
739.063	26220.31
739.404	26207.66
739.744	26023.26
740.084	25947.55
740.424	25921.34
740.764	25869.14
741.104	26078.62
741.444	25838.18
741.784	25843.37
742.124	25841.11
742.464	25715.47
742.804	25724.28
743.143	25623.49
743.483	25680.89
743.823	25559.09
744.162	25532.42
744.502	25625.07
744.841	25461.01
745.181	25465.3
745.52	25323.84
745.86	25365.19
746.199	25332.2
746.538	25298.53
746.877	25330.85
747.216	25336.72
747.556	25239.77
747.895	25255.14
748.234	25073.22
748.573	25170.4
748.911	25002.27
749.25	24981.48
749.589	24889.05
749.928	24894.92
750.267	24934.25
750.605	24806.34
750.944	24911.65
751.283	24724.08
751.621	24721.37
751.96	24544.2
752.298	24543.97
752.636	24675.72
752.975	24433.47
753.313	24482.51
753.651	24557.31
753.989	24313.92
754.327	24374.03
754.666	24143.53
755.004	24175.17
755.342	24157.32
755.679	24181.04
756.017	23859.47
756.355	24113.48
756.693	23932.01
757.031	24028.05
757.368	23824.67
757.706	23912.8
758.044	23770.21
758.381	23734.96
758.719	23696.09
759.056	23640.95
759.394	23606.14
759.731	23369.99
760.068	23390.56
760.405	23334.06
760.743	23250
761.08	23287.06
761.417	23194.18
761.754	23026.27
762.091	23041.87
762.428	22900.63
762.765	22907.63
763.102	22859.5
763.438	22800.97
763.775	22595.55
764.112	22609.56
764.449	22610.46
764.785	22550.35
765.122	22386.06
765.458	22324.14
765.795	22267.65
766.131	22245.5
766.467	22307.2
766.804	22002.57
767.14	21944.04
767.476	21941.1
767.812	21955.57
768.148	21860.43
768.485	21645.97
768.821	21654.78
769.157	21582.7
769.492	21583.37
769.828	21560.32
770.164	21362.36
770.5	21319.43
770.836	21317.62
771.171	21027
771.507	21140.67
771.842	20892.77
772.178	21039.88
772.513	20819.55
772.849	20796.05
773.184	20763.51
773.519	20863.17
773.855	20725.54
774.19	20518.99
774.525	20412.1
774.86	20534.14
775.195	20369.17
775.53	20222.73
775.865	20226.8
776.2	19983.87
776.535	19939.57
776.87	19911.55
777.205	19970.08
777.539	19777.77
777.874	19801.95
778.209	19697.1
778.543	19589.53
778.878	19493.03
779.212	19457.55
779.547	19347.05
779.881	19498.46
780.215	19234.73
780.55	19220.5
780.884	19149.99
781.218	19063.44
781.552	19118.13
781.886	19070.22
782.22	18881.98
782.554	18824.58
782.888	18640.85
783.222	18563.57
783.556	18472.49
783.889	18425.94
784.223	18281.77
784.557	18319.73
784.89	18282.44
785.224	18167.87
785.557	18176.68
785.891	18099.17
786.224	18017.37
786.558	17974.65
786.891	17907.99
787.224	17839.52
787.557	17791.61
787.891	17741.89
788.224	17621.22
788.557	17674.55
788.89	17559.98
789.223	17528.34
789.556	17371.51
789.888	17432.52
790.221	17269.14
790.554	17160.89
790.887	17163.38
791.219	17104.85
791.552	17083.6
791.884	16983.49
792.217	16986.88
792.549	16887.23
792.882	16811.97
793.214	16661.92
793.546	16672.99
793.879	16597.52
794.211	16564.07
794.543	16584.63
794.875	16460.12
795.207	16505.54
795.539	16369.72
795.871	16364.75
796.203	16289.95
796.535	16089.73
796.867	16209.96
797.198	16078.66
797.53	16068.04
797.862	15952.11
798.193	16033.24
798.525	15886.8
798.856	15953.92
799.188	15783.98
799.519	15767.25
799.85	15642.29
800.182	15562.74
800.513	15572.46
800.844	15474.38
801.175	15536.98
801.506	15521.61
801.837	15405
802.168	15376.3
802.499	15361.16
802.83	15258.12
803.161	15220.38
803.491	15180.6
803.822	15188.97
804.153	15121.62
804.483	15029.42
804.814	14992.59
805.145	14925.02
805.475	14969.76
805.805	14850.67
806.136	14799.6
806.466	14843.66
806.796	14751.91
807.126	14619.94
807.457	14584.69
807.787	14677.57
808.117	14502.88
808.447	14529.77
808.777	14580.62
809.107	14524.58
809.436	14497.46
809.766	14416.78
810.096	14318.25
810.426	14229.22
810.755	14306.73
811.085	14232.83
811.414	14210.01
811.744	14175.21
812.073	14137.24
812.403	14083.68
812.732	14000.97
813.061	14021.31
813.39	13989
813.719	13824.26
814.049	13994.87
814.378	13970.47
814.707	13840.07
815.036	13767.53
815.365	13768.66
815.693	13635.11
816.022	13629.23
816.351	13594.2
816.68	13549.69
817.008	13565.5
817.337	13488.67
817.665	13438.5
817.994	13411.84
818.322	13487.54
818.651	13285.74
818.979	13287.77
819.307	13344.49
819.636	13349.01
819.964	13209.81
820.292	13227.89
820.62	13227.43
820.948	13191.05
821.276	13230.6
821.604	13166.19
821.932	13242.12
822.259	13200.09
822.587	13194.44
822.915	13031.73
823.243	13151.28
823.57	13101.56
823.898	13179.3
824.225	13118.74
824.553	13132.07
824.88	13151.73
825.207	13163.93
825.535	13085.52
825.862	13171.62
826.189	13135.69
826.516	13104.5
826.843	13189.24
827.17	13165.52
827.497	13157.61
827.824	13188.34
828.151	13132.52
828.478	13095.69
828.805	13263.59
829.131	13037.38
829.458	13064.73
829.785	13004.62
830.111	13098.17
830.438	13145.4
830.764	13095.91
831.09	13048
831.417	12983.6
831.743	13079.64
832.069	13028.8
832.395	12968.23
832.722	13029.7
833.048	13067.21
833.374	13014.56
833.7	12975.46
834.026	12970.94
834.351	12948.8
834.677	12970.72
835.003	12942.02
835.329	12930.27
835.654	12847.56
835.98	12835.13
836.306	12846.43
836.631	12809.82
836.956	12912.19
837.282	12856.82
837.607	12789.93
837.932	12678.97
838.258	12695.25
838.583	12733.21
838.908	12645.98
839.233	12714
839.558	12644.63
839.883	12667
840.208	12569.6
840.533	12625.87
840.858	12553.78
841.182	12551.07
841.507	12597.85
841.832	12520.56
842.156	12501.8
842.481	12507.68
842.805	12424.29
843.13	12375.03
843.454	12413.44
843.778	12297.74
844.103	12259.32
844.427	12252.77
844.751	12296.16
845.075	12170.97
845.399	12233.11
845.723	12155.37
846.047	12127.58
846.371	11909.5
846.695	12039.9
847.019	11930.29
847.343	11848.94
847.666	11758.09
847.99	11780.69
848.313	11808.94
848.637	11758.32
848.96	11709.28
849.284	11620.02
849.607	11516.29
849.931	11577.53
850.254	11458.44
850.577	11373.92
850.9	11339.8
851.223	11259.8
851.546	11243.31
851.869	11133.93
852.192	11218
852.515	11164.21
852.838	11121.73
853.161	11108.85
853.483	11025.23
853.806	10997.89
854.129	11007.38
854.451	10982.3
854.774	10885.35
855.096	10855.75
855.419	10845.12
855.741	10832.02
856.063	10689.87
856.385	10707.95
856.708	10677.9
857.03	10620.05
857.352	10673.83
857.674	10589.99
857.996	10580.95
858.318	10480.84
858.64	10523.55
858.961	10429.77
859.283	10399.94
859.605	10337.34
859.926	10401.97
860.248	10349.32
860.57	10262.54
860.891	10313.84
861.212	10290.11
861.534	10263.22
861.855	10216.67
862.176	10214.18
862.498	10301.86
862.819	10174.63
863.14	10173.28
863.461	10135.54
863.782	10049.44
864.103	9997.24
864.424	10042.89
864.745	10051.47
865.065	10068.65
865.386	10073.85
865.707	10038.14
866.027	9979.61
866.348	9931.93
866.668	9950.46
866.989	9874.3
867.309	9873.62
867.63	9870.69
867.95	9837.47
868.27	9826.17
868.59	9865.72
868.91	9809.45
869.23	9776
869.55	9762.67
869.87	9808.54
870.19	9724.25
870.51	9767.41
870.83	9749.79
871.15	9709.79
871.469	9711.37
871.789	9656.91
872.109	9646.74
872.428	9660.52
872.748	9699.39
873.067	9645.83
873.386	9659.39
873.706	9614.65
874.025	9539.62
874.344	9506.18
874.663	9500.08
874.982	9516.8
875.301	9512.05
875.62	9470.02
875.939	9501.66
876.258	9494.88
876.577	9399.51
876.896	9385.95
877.214	9422.34
877.533	9402.45
877.852	9389.57
878.17	9341.66
878.489	9364.71
878.807	9390.25
879.125	9328.33
879.444	9290.36
879.762	9288.33
880.08	9263.92
880.398	9266.86
880.716	9276.8
881.034	9178.5
881.352	9184.38
881.67	9162.91
881.988	9156.13
882.306	9175.34
882.624	9120.88
882.941	9080.65
883.259	9036.58
883.577	9052.4
883.894	8924.05
884.212	9051.27
884.529	8934.21
884.846	8933.99
885.164	8931.05
885.481	8946.87
885.798	8903.93
886.115	8907.55
886.432	8831.17
886.75	8810.83
887.067	8812.18
887.383	8739.64
887.7	8738.97
888.017	8703.03
888.334	8744.39
888.651	8694.9
888.967	8724.95
889.284	8608.57
889.6	8610.38
889.917	8586.88
890.233	8576.03
890.55	8588.46
890.866	8561.34
891.182	8509.37
891.498	8466.43
891.815	8454.9
892.131	8468.92
892.447	8406.09
892.763	8385.98
893.079	8350.5
893.395	8307.11
893.71	8283.16
894.026	8289.03
894.342	8285.19
894.657	8230.73
894.973	8205.19
895.289	8221.92
895.604	8156.83
895.92	8127
896.235	8085.87
896.55	8110.51
896.865	8091.3
897.181	8018.31
897.496	8042.94
897.811	7971.08
898.126	8006.78
898.441	7943.73
898.756	7934.47
899.071	7861.7
899.386	7959.78
899.7	7806.11
900.015	7804.53
900.33	7681.59
900.644	7760.91
900.959	7742.61
901.273	7707.13
901.588	7671.2
901.902	7644.76
902.216	7608.83
902.531	7568.37
902.845	7546
903.159	7542.84
903.473	7481.6
903.787	7404.99
904.101	7439.11
904.415	7397.98
904.729	7335.84
905.042	7316.63
905.356	7308.49
905.67	7277.08
905.984	7248.61
906.297	7259.68
906.611	7238.67
906.924	7219.01
907.237	7164.77
907.551	7118.89
907.864	7099.01
908.177	7066.69
908.491	7127.71
908.804	7036.86
909.117	6971.78
909.43	6949.18
909.743	6945.57
910.056	6899.69
910.368	6900.14
910.681	6887.04
910.994	6830.77
911.307	6808.85
911.619	6745.12
911.932	6797.1
912.244	6706.25
912.557	6688.17
912.869	6618.79
913.181	6654.27
913.494	6641.62
913.806	6593.48
914.118	6587.84
914.43	6533.15
914.742	6524.33
915.054	6433.72
915.366	6386.94
915.678	6454.28
915.99	6438.69
916.302	6355.07
916.613	6336.09
916.925	6336.77
917.236	6277.56
917.548	6236.88
917.859	6285.24
918.171	6169.32
918.482	6203.21
918.794	6153.27
919.105	6121.86
919.416	6112.37
919.727	6142.42
920.038	6046.83
920.349	6050
920.66	6040.96
920.971	5991.24
921.282	6013.84
921.593	5943.33
921.903	5922.09
922.214	5914.63
922.525	5857.01
922.835	5852.94
923.146	5800.29
923.456	5795.77
923.767	5805.71
924.077	5745.6
924.387	5712.15
924.697	5735.88
925.008	5679.16
925.318	5672.83
925.628	5620.18
925.938	5546.05
926.248	5597.58
926.558	5523.91
926.867	5494.98
927.177	5504.02
927.487	5492.04
927.796	5465.15
928.106	5423.12
928.416	5419.05
928.725	5400.97
929.034	5387.19
929.344	5340.86
929.653	5348.55
929.962	5281.65
930.271	5267.87
930.581	5271.94
930.89	5226.52
931.199	5270.81
931.508	5189.68
931.817	5213.86
932.125	5183.58
932.434	5156.01
932.743	5120.98
933.051	5087.54
933.36	5011.83
933.669	5016.35
933.977	5007.31
934.286	4983.58
934.594	4949.91
934.902	4910.59
935.21	4920.31
935.519	4911.95
935.827	4889.57
936.135	4884.38
936.443	4807.09
936.751	4844.83
937.059	4764.83
937.367	4799.63
937.674	4781.33
937.982	4728.22
938.29	4703.14
938.597	4746.08
938.905	4692.74
939.213	4664.95
939.52	4641.9
939.827	4654.55
940.135	4566.65
940.442	4581.79
940.749	4585.85
941.056	4578.17
941.363	4521
941.67	4528.23
941.977	4476.25
942.284	4413.43
942.591	4481.45
942.898	4440.77
943.205	4407.1
943.511	4399.87
943.818	4370.72
944.125	4324.62
944.431	4358.97
944.738	4328.01
945.044	4318.74
945.35	4276.94
945.657	4278.07
945.963	4205.75
946.269	4211.17
946.575	4251.4
946.881	4181.34
947.187	4171.18
947.493	4139.99
947.799	4125.3
948.105	4112.65
948.41	4125.75
948.716	4093.21
949.022	4073.55
949.327	4068.81
949.633	4019.99
949.938	4023.83
950.244	3967.57
950.549	3993.1
950.854	4006.89
951.16	3963.5
951.465	3943.16
951.77	3950.62
952.075	3914.23
952.38	3888.92
952.685	3900.45
952.99	3832.43
953.294	3819.09
953.599	3844.4
953.904	3771.86
954.209	3761.02
954.513	3773.45
954.818	3731.19
955.122	3734.8
955.426	3707.91
955.731	3728.02
956.035	3692.09
956.339	3624.3
956.643	3653.68
956.948	3655.48
957.252	3647.57
957.556	3609.16
957.86	3586.78
958.163	3584.3
958.467	3608.7
958.771	3568.71
959.075	3553.34
959.378	3520.35
959.682	3505.88
959.985	3495.71
960.289	3434.02
960.592	3466.11
960.896	3482.61
961.199	3463.85
961.502	3440.35
961.805	3416.85
962.108	3401.48
962.411	3361.25
962.714	3358.77
963.017	3297.53
963.32	3339.33
963.623	3304.76
963.926	3298.66
964.228	3314.02
964.531	3325.55
964.833	3246
965.136	3225.21
965.438	3230.64
965.741	3193.8
966.043	3198.32
966.345	3159.68
966.648	3159.9
966.95	3157.42
967.252	3166.91
967.554	3135.72
967.856	3156.97
968.158	3057.53
968.46	3040.13
968.761	3066.57
969.063	3076.06
969.365	3051.88
969.666	3006.91
969.968	3002.62
970.269	3004.88
970.571	3007.59
970.872	2968.5
971.174	2972.56
971.475	2939.8
971.776	2952
972.077	2943.19
972.378	2922.62
972.679	2919.01
972.98	2899.34
973.281	2866.8
973.582	2867.48
973.883	2850.08
974.183	2880.59
974.484	2863.64
974.785	2822.06
975.085	2836.75
975.386	2854.15
975.686	2811.21
975.986	2798.56
976.287	2755.62
976.587	2744.09
976.887	2732.12
977.187	2754.04
977.487	2682.63
977.787	2716.52
978.087	2668.84
978.387	2702.51
978.687	2676.07
978.987	2664.77
979.286	2605.57
979.586	2656.64
979.885	2626.13
980.185	2615.51
980.484	2569.41
980.784	2582.74
981.083	2590.88
981.382	2592.46
981.682	2577.09
981.981	2536.42
982.28	2523.31
982.579	2501.84
982.878	2536.42
983.177	2498.23
983.475	2482.63
983.774	2473.82
984.073	2463.2
984.372	2464.78
984.67	2443.54
984.969	2435.18
985.267	2436.76
985.566	2424.33
985.864	2411.9
986.162	2378.23
986.461	2384.33
986.759	2379.58
987.057	2370.55
987.355	2376.87
987.653	2354.05
987.951	2353.82
988.249	2304.78
988.547	2289.42
988.844	2316.76
989.142	2274.05
989.44	2271.56
989.737	2244.22
990.035	2289.87
990.332	2231.11
990.63	2219.36
990.927	2216.2
991.224	2225.46
991.521	2205.58
991.819	2201.51
992.116	2194.5
992.413	2189.08
992.71	2175.07
993.006	2175.52
993.303	2169.19
993.6	2136.43
993.897	2107.28
994.193	2114.51
994.49	2102.08
994.787	2090.1
995.083	2119.7
995.379	2105.69
995.676	2080.38
995.972	2044.45
996.268	2035.41
996.565	2041.06
996.861	2017.79
997.157	2053.27
997.453	2019.82
997.749	2014.17
998.044	1992.02
998.34	1992.48
998.636	1987.5
998.932	1965.81
999.227	1950.9
999.523	1949.31
999.818	1933.95
1000.114	1913.38
1000.409	1926.26
1000.704	1906.83
1001	1872.48
1001.295	1876.55
1001.59	1883.1
1001.885	1866.6
1002.18	1853.27
1002.475	1848.3
1002.77	1821.63
1003.065	1801.52
1003.359	1811.92
1003.654	1812.14
1003.949	1776.21
1004.243	1789.77
1004.538	1748.87
1004.832	1793.61
1005.127	1766.27
1005.421	1778.92
1005.715	1766.27
1006.009	1735.31
1006.304	1693.27
1006.598	1704.8
1006.892	1711.58
1007.186	1679.94
1007.48	1694.18
1007.773	1676.78
1008.067	1681.98
1008.361	1650.56
1008.655	1639.04
1008.948	1645.59
1009.242	1624.12
1009.535	1628.19
1009.829	1623.67
1010.122	1618.02
1010.415	1617.57
1010.708	1613.95
1011.001	1577.8
1011.295	1577.57
1011.588	1569.21
1011.881	1554.97
1012.173	1535.09
1012.466	1523.79
1012.759	1541.87
1013.052	1532.6
1013.344	1521.53
1013.637	1498.93
1013.93	1475.43
1014.222	1491.92
1014.514	1483.56
1014.807	1467.74
1015.099	1456.44
1015.391	1465.94
1015.683	1441.98
1015.976	1427.74
1016.268	1427.97
1016.56	1385.03
1016.851	1416.67
1017.143	1392.27
1017.435	1406.95
1017.727	1386.84
1018.018	1368.09
1018.31	1367.41
1018.602	1387.52
1018.893	1355.66
1019.185	1339.61
1019.476	1336.67
1019.767	1317.92
1020.058	1315.66
1020.35	1306.39
1020.641	1298.71
1020.932	1304.36
1021.223	1285.38
1021.514	1254.42
1021.804	1267.75
1022.095	1265.04
1022.386	1270.69
1022.677	1253.29
1022.967	1247.41
1023.258	1216.45
1023.548	1223.46
1023.839	1190.24
1024.129	1194.08
1024.419	1204.7
1024.709	1189.79
1025	1206.06
1025.29	1184.36
1025.58	1168.99
1025.87	1149.56
1026.16	1150.01
1026.449	1142.1
1026.739	1165.15
1027.029	1155.89
1027.319	1097.36
1027.608	1135.1
1027.898	1118.15
1028.187	1103.69
1028.477	1094.19
1028.766	1093.74
1029.055	1083.35
1029.344	1090.58
1029.634	1080.18
1029.923	1081.09
1030.212	1046.06
1030.501	1036.12
1030.79	1053.29
1031.078	1062.56
1031.367	1024.37
1031.656	1031.82
1031.945	1017.81
1032.233	1013.29
1032.522	1022.78
1032.81	995.44
1033.099	1004.48
1033.387	977.14
1033.675	992.05
1033.963	976.91
1034.251	990.47
1034.54	959.96
1034.828	964.71
1035.116	943.24
1035.403	933.75
1035.691	947.31
1035.979	940.98
1036.267	937.81
1036.554	929.45
1036.842	925.39
1037.129	901.43
1037.417	911.37
1037.704	893.97
1037.992	907.76
1038.279	893.97
1038.566	889.68
1038.853	889.68
1039.14	889.68
