Data from hue_90_FLMS001491_25.txt Node
Date: Mon Feb 06 15:24:54 GMT 2017
User: dcchb
Spectrometer: FLMS00149
Trigger mode: 0
Integration Time (sec): 2.000000E-2
Scans to average: 10
Electric dark correction enabled: true
Nonlinearity correction enabled: false
Boxcar width: 0
XAxis mode: Wavelengths
Number of Pixels in Spectrum: 2048
>>>>>Begin Spectral Data<<<<<
341.393	-27.06
341.776	-27.06
342.16	-27.06
342.543	-44.24
342.927	-47.85
343.31	-63.22
343.693	-73.16
344.077	-43.78
344.46	-69.32
344.843	-62.31
345.226	-41.75
345.61	-27.97
345.993	-26.61
346.376	-3.79
346.759	22.88
347.142	13.16
347.525	50.9
347.908	66.72
348.291	52.48
348.674	85.03
349.057	120.73
349.44	119.83
349.823	156.21
350.206	163.67
350.588	195.53
350.971	225.36
351.354	203.44
351.737	243.89
352.119	235.3
352.502	257
352.884	258.58
353.267	270.11
353.65	302.42
354.032	295.64
354.414	293.16
354.797	311.23
355.179	319.6
355.562	326.15
355.944	330.67
356.326	317.56
356.709	327.05
357.091	325.47
357.473	332.7
357.855	346.94
358.238	340.39
358.62	322.53
359.002	353.04
359.384	360.05
359.766	334.28
360.148	326.15
360.53	352.82
360.912	351.23
361.294	343.55
361.676	312.14
362.057	348.97
362.439	331.12
362.821	343.32
363.203	327.73
363.584	311.23
363.966	324.79
364.348	326.15
364.729	317.79
365.111	328.41
365.493	325.47
365.874	333.16
366.256	313.04
366.637	328.86
367.019	318.24
367.4	329.54
367.781	321.86
368.163	319.37
368.544	292.93
368.925	318.47
369.306	306.94
369.688	313.27
370.069	311.23
370.45	319.37
370.831	317.79
371.212	310.33
371.593	317.56
371.974	329.31
372.355	322.08
372.736	304.23
373.117	303.78
373.498	318.92
373.879	315.53
374.26	316.21
374.641	315.3
375.021	316.88
375.402	323.44
375.783	314.17
376.163	357.56
376.544	335.41
376.925	333.38
377.305	328.18
377.686	338.13
378.066	351.91
378.447	309.43
378.827	339.48
379.208	329.31
379.588	337.9
379.968	316.21
380.349	328.18
380.729	346.94
381.109	346.26
381.489	353.95
381.87	336.09
382.25	327.05
382.63	347.17
383.01	357.34
383.39	351.01
383.77	326.6
384.15	349.88
384.53	347.84
384.91	339.93
385.29	336.32
385.67	350.56
386.049	336.09
386.429	350.56
386.809	362.53
387.189	348.75
387.568	359.14
387.948	362.76
388.328	373.38
388.707	357.11
389.087	353.72
389.466	348.97
389.846	367.73
390.225	339.71
390.605	364.34
390.984	380.39
391.363	366.37
391.743	367.28
392.122	386.94
392.501	367.05
392.881	384.91
393.26	398.24
393.639	374.96
394.018	389.88
394.397	372.48
394.776	387.84
395.155	388.29
395.534	373.61
395.913	392.14
396.292	389.2
396.671	385.58
397.05	389.65
397.429	386.26
397.808	396.66
398.186	381.97
398.565	402.53
398.944	395.3
399.323	397.56
399.701	387.16
400.08	396.43
400.458	430.78
400.837	418.58
401.215	428.75
401.594	406.15
401.972	413.6
402.351	433.27
402.729	399.37
403.107	396.43
403.486	427.16
403.864	424
404.242	414.06
404.62	426.49
404.999	433.49
405.377	427.16
405.755	439.82
406.133	446.6
406.511	446.82
406.889	439.59
407.267	433.27
407.645	445.69
408.023	455.86
408.401	467.39
408.779	465.58
409.156	463.77
409.534	461.97
409.912	462.42
410.29	497.44
410.667	470.33
411.045	468.97
411.422	495.64
411.8	486.82
412.178	478.24
412.555	484.34
412.933	493.6
413.31	498.35
413.687	497.9
414.065	486.82
414.442	517.78
414.819	493.6
415.197	504.45
415.574	507.61
415.951	499.93
416.328	514.62
416.705	521.17
417.082	544.45
417.46	532.92
417.837	534.96
418.214	543.09
418.591	518.91
418.967	541.96
419.344	537.9
419.721	560.72
420.098	544.67
420.475	562.75
420.852	559.36
421.228	563.88
421.605	563.66
421.982	573.37
422.358	573.37
422.735	586.03
423.111	577.22
423.488	596.42
423.864	581.28
424.241	598.23
424.617	573.15
424.994	602.75
425.37	589.42
425.746	609.31
426.123	598.91
426.499	616.76
426.875	606.37
427.251	620.15
427.627	631
428.003	630.55
428.379	643.43
428.756	618.12
429.132	647.5
429.507	667.16
429.883	689.53
430.259	684.56
430.635	669.19
431.011	674.84
431.387	680.26
431.763	685.46
432.138	707.83
432.514	733.14
432.89	708.74
433.265	737.66
433.641	743.54
434.016	735.63
434.392	722.3
434.767	750.77
435.143	748.06
435.518	764.1
435.894	767.95
436.269	763.43
436.644	780.6
437.02	774.73
437.395	794.61
437.77	779.7
438.145	804.33
438.52	819.7
438.895	813.59
439.271	814.5
439.646	799.13
440.021	845.91
440.395	849.98
440.77	847.72
441.145	835.29
441.52	869.41
441.895	841.84
442.27	852.01
442.645	887.49
443.019	872.58
443.394	847.04
443.769	885.46
444.143	883.88
444.518	902.86
444.892	874.16
445.267	902.41
445.641	893.37
446.016	941.73
446.39	936.53
446.764	903.99
447.139	911.9
447.513	958.68
447.887	930.65
448.262	959.13
448.636	960.94
449.01	964.1
449.384	962.74
449.758	979.69
450.132	985.12
450.506	1004.1
450.88	1016.3
451.254	981.05
451.628	995.51
452.002	1008.84
452.376	1052.01
452.75	1060.37
453.123	1053.81
453.497	1053.36
453.871	1063.31
454.244	1074.83
454.618	1088.84
454.992	1114.6
455.365	1100.82
455.739	1160.93
456.112	1118.9
456.486	1154.38
456.859	1171.78
457.232	1198.9
457.606	1171.33
457.979	1197.77
458.352	1222.17
458.725	1223.98
459.099	1217.43
459.472	1236.86
459.845	1275.28
460.218	1276.86
460.591	1316.41
460.964	1318.89
461.337	1337.42
461.71	1332.22
462.083	1375.39
462.456	1363.18
462.829	1368.16
463.201	1406.57
463.574	1403.41
463.947	1444.54
464.32	1496.97
464.692	1475.72
465.065	1484.09
465.438	1498.55
465.81	1529.06
466.183	1544.42
466.555	1602.73
466.928	1615.83
467.3	1576.96
467.672	1635.72
468.045	1674.14
468.417	1673.23
468.789	1688.37
469.161	1741.48
469.534	1754.81
469.906	1834.81
470.278	1825.77
470.65	1844.3
471.022	1893.79
471.394	1936.5
471.766	1971.3
472.138	2007.91
472.51	2055.82
472.882	2096.5
473.253	2083.62
473.625	2175.82
473.997	2226.21
474.369	2251.75
474.74	2244.52
475.112	2323.39
475.484	2397.06
475.855	2451.29
476.227	2467.11
476.598	2587.33
476.97	2627.33
477.341	2632.08
477.713	2719.08
478.084	2754.11
478.455	2858.29
478.827	2895.57
479.198	3009.24
479.569	3079.98
479.94	3161.33
480.311	3215.34
480.682	3323.13
481.053	3442.9
481.424	3542.56
481.795	3604.93
482.166	3710.02
482.537	3722.67
482.908	3876.79
483.279	3944.59
483.65	4056
484.021	4187.07
484.391	4238.82
484.762	4345.48
485.133	4479.03
485.503	4566.94
485.874	4700.5
486.244	4764.68
486.615	4916.09
486.985	5044.44
487.356	5160.6
487.726	5277.66
488.097	5411.21
488.467	5480.36
488.837	5648.04
489.207	5752.9
489.578	5891.65
489.948	6035.6
490.318	6166.9
490.688	6280.12
491.058	6413.45
491.428	6543.39
491.798	6681.91
492.168	6875.81
492.538	6893.21
492.908	7123.03
493.278	7264.27
493.648	7274.22
494.017	7499.07
494.387	7598.27
494.757	7640.53
495.126	7786.74
495.496	7914.2
495.866	8076.91
496.235	8159.84
496.605	8335.2
496.974	8342.44
497.344	8473.28
497.713	8614.29
498.082	8711.69
498.452	8864.23
498.821	8932.7
499.19	9067.16
499.559	9174.28
499.928	9279.13
500.298	9334.73
500.667	9516.42
501.036	9472.12
501.405	9597.54
501.774	9723.42
502.143	9816.97
502.512	9893.81
502.88	9980.36
503.249	10082.5
503.618	10096.74
503.987	10256.51
504.356	10341.03
504.724	10378.54
505.093	10469.84
505.462	10539.89
505.83	10598.65
506.199	10705.09
506.567	10929.71
506.936	10846.32
507.304	11003.61
507.672	11076.6
508.041	11150.95
508.409	11161.12
508.777	11284.96
509.145	11356.37
509.514	11348.01
509.882	11426.87
510.25	11517.27
510.618	11564.05
510.986	11605.63
511.354	11718.17
511.722	11777.6
512.09	11891.04
512.458	11821.89
512.826	11925.62
513.193	11999.97
513.561	12054.65
513.929	12173.07
514.297	12164.26
514.664	12269.11
515.032	12299.62
515.4	12325.16
515.767	12347.53
516.135	12394.53
516.502	12384.36
516.869	12566.73
517.237	12574.64
517.604	12570.12
517.972	12647.18
518.339	12682.89
518.706	12712.72
519.073	12737.8
519.44	12783.45
519.808	12885.14
520.175	12846.72
520.542	12886.95
520.909	13008.53
521.276	13063.89
521.643	13099.15
522.009	13170.78
522.376	13176.21
522.743	13243.55
523.11	13291.68
523.477	13434.96
523.843	13381.4
524.21	13463.43
524.577	13492.81
524.943	13645.57
525.31	13508.85
525.676	13643.31
526.043	13674.5
526.409	13741.16
526.776	13717.66
527.142	13888.05
527.508	13850.99
527.874	13798.56
528.241	13853.93
528.607	13897.32
528.973	13957.43
529.339	13931.89
529.705	13943.64
530.071	13990.88
530.437	14023.64
530.803	14007.82
531.169	14087.37
531.535	13967.6
531.901	14046.92
532.267	14028.39
532.632	14109.29
532.998	14048.5
533.364	14081.49
533.73	14059.12
534.095	14201.94
534.461	14135.96
534.826	14052.12
535.192	14194.03
535.557	14175.73
535.923	14058.22
536.288	14106.8
536.653	14143.41
537.019	14067.48
537.384	14081.49
537.749	14033.59
538.114	14075.84
538.479	13994.04
538.845	14039.69
539.21	13965.79
539.575	13976.41
539.94	13914.27
540.305	14040.82
540.67	13907.94
541.034	13932.35
541.399	13944.1
541.764	13945.68
542.129	13841.5
542.494	13818.45
542.858	13864.1
543.223	13885.79
543.587	13863.87
543.952	13836.98
544.316	13789.75
544.681	13728.96
545.045	13658.91
545.41	13687.15
545.774	13745.91
546.138	13691
546.503	13606.93
546.867	13562.19
547.231	13634.95
547.595	13664.56
547.959	13561.73
548.324	13560.6
548.688	13589.76
549.052	13539.36
549.416	13498.23
549.779	13494.39
550.143	13491.45
550.507	13503.2
550.871	13439.7
551.235	13437.67
551.599	13410.78
551.962	13446.26
552.326	13381.85
552.689	13526.48
553.053	13376.65
553.417	13351.34
553.78	13487.61
554.143	13394.73
554.507	13386.37
554.87	13334.85
555.234	13380.72
555.597	13323.55
555.96	13308.41
556.323	13303.66
556.686	13295.98
557.05	13278.35
557.413	13322.87
557.776	13252.82
558.139	13296.66
558.502	13265.92
558.865	13328.29
559.228	13339.59
559.59	13357.45
559.953	13372.36
560.316	13422.98
560.679	13422.3
561.041	13431.34
561.404	13413.04
561.767	13494.62
562.129	13376.2
562.492	13544.56
562.854	13398.35
563.217	13498.23
563.579	13467.95
563.941	13461.4
564.304	13534.62
564.666	13694.39
565.028	13508.4
565.39	13581.17
565.753	13560.83
566.115	13545.46
566.477	13668.62
566.839	13666.82
567.201	13684.44
567.563	13746.59
567.925	13742.07
568.287	13719.92
568.648	13680.15
569.01	13774.16
569.372	13778.9
569.734	13746.36
570.095	13838.56
570.457	13858
570.819	13822.29
571.18	13886.02
571.542	13910.2
571.903	13930.54
572.265	13998.78
572.626	14036.07
572.987	14025.22
573.349	13999.91
573.71	13987.03
574.071	13955.17
574.432	14029.97
574.794	14090.99
575.155	14055.28
575.516	14040.82
575.877	14056.64
576.238	14094.15
576.599	14117.43
576.96	14117.43
577.32	14098.22
577.681	14202.17
578.042	14217.08
578.403	14126.92
578.763	14120.14
579.124	14161.27
579.485	14214.82
579.845	14256.86
580.206	14214.82
580.566	14155.16
580.927	14163.75
581.287	14155.62
581.648	14137.09
582.008	14253.92
582.368	14205.33
582.728	14264.31
583.089	14159.68
583.449	14093.47
583.809	14126.92
584.169	14153.13
584.529	14109.97
584.889	14185.45
585.249	14134.15
585.609	14159.68
585.969	14247.82
586.329	14132.11
586.688	14078.33
587.048	14153.81
587.408	14152
587.768	14102.28
588.127	14144.77
588.487	14102.06
588.846	14172.11
589.206	14059.12
589.565	13985.9
589.925	14058.9
590.284	14080.36
590.643	13973.02
591.003	14118.56
591.362	14095.96
591.721	14037.88
592.08	14022.74
592.44	14050.31
592.799	14127.59
593.158	13979.12
593.517	14012.57
593.876	14052.34
594.235	14003.76
594.593	13910.43
594.952	13986.36
595.311	13958.79
595.67	13981.84
596.029	14067.26
596.387	14033.13
596.746	14015.06
597.104	13979.8
597.463	13947.03
597.822	14060.25
598.18	13939.8
598.538	14015.96
598.897	14038.78
599.255	13857.32
599.613	14036.75
599.972	14004.89
600.33	14009.86
600.688	13883.99
601.046	14020.48
601.404	14061.61
601.762	13982.06
602.12	13950.42
602.478	14027.03
602.836	14004.43
603.194	13938.22
603.552	14056.86
603.91	13872.01
604.268	13975.28
604.625	13990.2
604.983	14037.65
605.341	13897.54
605.698	14048.27
606.056	14013.25
606.413	13976.64
606.771	13999.69
607.128	14041.72
607.485	14050.53
607.843	14020.7
608.2	14104.54
608.557	14077.65
608.914	14076.97
609.272	14099.57
609.629	14212.79
609.986	14139.57
610.343	14050.76
610.7	14184.54
611.057	14213.24
611.414	14112.45
611.771	14215.05
612.127	14242.62
612.484	14195.39
612.841	14177.76
613.198	14199.68
613.554	14157.42
613.911	14332.11
614.267	14274.71
614.624	14246.46
614.98	14289.62
615.337	14302.96
615.693	14252.79
616.05	14233.13
616.406	14370.98
616.762	14312
617.118	14296.86
617.475	14390.41
617.831	14359
618.187	14359.68
618.543	14380.24
618.899	14444.65
619.255	14459.34
619.611	14373.01
619.967	14460.47
620.323	14491.88
620.678	14408.27
621.034	14360.58
621.39	14394.03
621.746	14485.1
622.101	14481.71
622.457	14380.47
622.812	14380.92
623.168	14434.03
623.523	14440.13
623.879	14482.61
624.234	14330.08
624.589	14541.82
624.945	14500.24
625.3	14502.95
625.655	14468.6
626.01	14491.2
626.365	14462.5
626.72	14431.32
627.075	14443.52
627.43	14425.67
627.785	14437.42
628.14	14388.6
628.495	14387.7
628.85	14473.12
629.205	14386.12
629.559	14497.53
629.914	14384.09
630.269	14336.63
630.623	14375.27
630.978	14243.3
631.332	14397.19
631.687	14342.05
632.041	14305.44
632.396	14323.97
632.75	14263.86
633.104	14269.06
633.459	14276.52
633.813	14259.79
634.167	14120.36
634.521	14171.44
634.875	14310.19
635.229	14221.6
635.583	14026.35
635.937	14118.56
636.291	14083.98
636.645	14059.12
636.999	14022.29
637.352	14046.47
637.706	14088.05
638.06	14050.31
638.413	14090.53
638.767	13921.5
639.121	14020.7
639.474	13940.93
639.828	13860.48
640.181	13879.24
640.534	14022.51
640.888	13907.04
641.241	13820.03
641.594	13858.45
641.947	13887.37
642.301	13847.38
642.654	13944.1
643.007	13924.89
643.36	13848.51
643.713	13860.26
644.066	13945
644.419	13780.49
644.771	13737.77
645.124	13589.53
645.477	13582.75
645.83	13466.6
646.182	13474.5
646.535	13371.91
646.888	13388.18
647.24	13335.07
647.593	13351.34
647.945	13411.91
648.298	13258.01
648.65	13333.27
649.002	13244.68
649.355	13340.5
649.707	13281.06
650.059	13336.65
650.411	13577.55
650.763	13489.19
651.115	13595.18
651.467	13604.22
651.819	13597.89
652.171	13641.28
652.523	13596.76
652.875	13545.01
653.227	13542.3
653.578	13668.62
653.93	13638.12
654.282	13533.26
654.633	13578.91
654.985	13569.42
655.337	13541.4
655.688	13598.79
656.039	13629.98
656.391	13500.94
656.742	13518.12
657.094	13583.88
657.445	13526.93
657.796	13608.29
658.147	13597.44
658.498	13547.72
658.849	13589.08
659.2	13539.81
659.551	13555.86
659.902	13558.8
660.253	13524.22
660.604	13623.43
660.955	13503.2
661.306	13638.34
661.656	13578.68
662.007	13622.98
662.358	13567.16
662.708	13566.93
663.059	13623.43
663.409	13439.03
663.76	13629.3
664.11	13587.04
664.461	13551.34
664.811	13660.94
665.161	13596.08
665.511	13577.55
665.862	13659.13
666.212	13747.72
666.562	13656.65
666.912	13676.53
667.262	13558.34
667.612	13615.74
667.962	13648.96
668.312	13587.5
668.662	13669.53
669.011	13620.49
669.361	13528.97
669.711	13618.91
670.06	13562.64
670.41	13529.42
670.76	13487.39
671.109	13559.93
671.459	13472.47
671.808	13443.77
672.157	13573.94
672.507	13454.39
672.856	13400.16
673.205	13484.22
673.554	13494.62
673.904	13489.42
674.253	13483.32
674.602	13518.35
674.951	13270.44
675.3	13264.79
675.649	13401.51
675.998	13385.02
676.346	13413.26
676.695	13384.34
677.044	13383.21
677.393	13448.52
677.741	13428.18
678.09	13312.02
678.438	13278.58
678.787	13351.8
679.135	13293.49
679.484	13284.68
679.832	13260.5
680.181	13202.65
680.529	13206.04
680.877	13238.58
681.225	13183.21
681.573	13239.03
681.922	13200.84
682.27	13041.52
682.618	13041.97
682.966	13034.74
683.314	13042.43
683.661	12978.25
684.009	12943.44
684.357	12949.55
684.705	12912.49
685.053	12847.85
685.4	12779.61
685.748	12795.65
686.095	12851.47
686.443	12727.18
686.79	12780.06
687.138	12830.91
687.485	12777.35
687.832	12723.56
688.18	12748.87
688.527	12659.16
688.874	12675.2
689.221	12602.89
689.568	12609.89
689.915	12486.06
690.262	12499.39
690.609	12438.6
690.956	12388.21
691.303	12410.35
691.65	12280.19
691.997	12283.12
692.344	12240.64
692.69	12199.51
693.037	12169.45
693.383	12094.65
693.73	12113.86
694.077	12013.98
694.423	12013.3
694.769	11982.57
695.116	11944.38
695.462	11867.54
695.808	11846.98
696.155	11876.35
696.501	11718.39
696.847	11783.93
697.193	11691.73
697.539	11762.01
697.885	11695.34
698.231	11555.23
698.577	11530.15
698.923	11495.57
699.269	11487.66
699.614	11440.66
699.96	11391.85
700.306	11389.59
700.651	11338.52
700.997	11289.03
701.342	11291.06
701.688	11208.12
702.033	11094.23
702.379	11162.25
702.724	11150.27
703.069	11147.33
703.415	11006.55
703.76	10950.73
704.105	10970.39
704.45	10947.11
704.795	10884.74
705.14	10781.24
705.485	10866.89
705.83	10820.34
706.175	10784.18
706.52	10746.21
706.865	10700.34
707.209	10691.07
707.554	10674.13
707.899	10720
708.243	10618.31
708.588	10600
708.932	10503.06
709.277	10525.88
709.621	10445.21
709.966	10368.37
710.31	10470.52
710.654	10295.38
710.998	10386.22
711.342	10407.47
711.687	10290.86
712.031	10281.37
712.375	10180.35
712.719	10286.79
713.063	10185.1
713.407	10233.01
713.75	10235.72
714.094	10144.2
714.438	10110.07
714.782	10103.97
715.125	10072.56
715.469	10106.91
715.812	10036.18
716.156	9979.68
716.499	10003.18
716.843	10016.97
717.186	9938.33
717.53	9980.13
717.873	9964.09
718.216	9969.51
718.559	9947.37
718.902	9880.93
719.246	9818.78
719.589	9865.79
719.932	9833.02
720.275	9805.67
720.617	9831.89
720.96	9756.64
721.303	9832.34
721.646	9801.83
721.989	9747.37
722.331	9757.99
722.674	9706.47
723.016	9755.51
723.359	9742.85
723.701	9746.69
724.044	9639.58
724.386	9664.44
724.729	9640.48
725.071	9552.57
725.413	9614.49
725.755	9657.88
726.097	9644.1
726.439	9615.4
726.782	9639.13
727.124	9636.41
727.465	9583.76
727.807	9547.6
728.149	9548.96
728.491	9535.4
728.833	9581.95
729.175	9519.81
729.516	9523.42
729.858	9596.19
730.199	9508.28
730.541	9496.08
730.882	9527.94
731.224	9509.18
731.565	9433.03
731.906	9463.76
732.248	9456.76
732.589	9491.33
732.93	9406.36
733.271	9446.59
733.612	9485.46
733.953	9493.37
734.294	9385.12
734.635	9410.2
734.976	9372.24
735.317	9404.55
735.658	9397.78
735.999	9454.5
736.339	9454.05
736.68	9478.23
737.021	9412.24
737.361	9481.39
737.702	9421.73
738.042	9519.81
738.383	9404.78
738.723	9461.73
739.063	9446.14
739.404	9468.06
739.744	9416.08
740.084	9441.84
740.424	9434.61
740.764	9419.47
741.104	9510.99
741.444	9507.15
741.784	9445.01
742.124	9467.38
742.464	9521.84
742.804	9535.4
743.143	9554.61
743.483	9590.54
743.823	9528.85
744.162	9571.56
744.502	9621.95
744.841	9586.7
745.181	9731.1
745.52	9623.98
745.86	9708.73
746.199	9785.56
746.538	9765.45
746.877	9809.29
747.216	9867.14
747.556	9809.52
747.895	9903.75
748.234	9905.33
748.573	9929.06
748.911	10047.7
749.25	10055.84
749.589	10094.25
749.928	10182.39
750.267	10200.24
750.605	10247.24
750.944	10352.1
751.283	10396.17
751.621	10528.59
751.96	10491.08
752.298	10584.41
752.636	10688.81
752.975	10689.04
753.313	10775.59
753.651	10953.44
753.989	10988.47
754.327	11028.02
754.666	11132.42
755.004	11239.08
755.342	11413.32
755.679	11541.9
756.017	11495.35
756.355	11792.29
756.693	11703.93
757.031	11901.66
757.368	11992.74
757.706	12118.16
758.044	12307.53
758.381	12364.93
758.719	12529.44
759.056	12639.27
759.394	12758.59
759.731	12844.01
760.068	13025.7
760.405	13025.93
760.743	13208.07
761.08	13505.24
761.417	13546.82
761.754	13733.93
762.091	13746.36
762.428	13870.88
762.765	13969.86
763.102	14173.47
763.438	14218.67
763.775	14385.67
764.112	14483.29
764.449	14688.71
764.785	14767.13
765.122	14874.24
765.458	14941.81
765.795	15088.93
766.131	15294.34
766.467	15412.76
766.804	15448.01
767.14	15547.44
767.476	15798.74
767.812	15779.98
768.148	15917.83
768.485	15999.41
768.821	16047.09
769.157	16243.25
769.492	16260.87
769.828	16398.95
770.164	16393.98
770.5	16435.56
770.836	16540.64
771.171	16723.91
771.507	16759.39
771.842	16746.06
772.178	16896.11
772.513	16931.36
772.849	17038.03
773.184	17063.79
773.519	17238.93
773.855	17156.44
774.19	17099.27
774.525	17343.1
774.86	17327.74
775.195	17332.03
775.53	17385.81
775.865	17386.04
776.2	17345.82
776.535	17356.66
776.87	17438.24
777.205	17427.85
777.539	17486.6
777.874	17521.4
778.209	17452.25
778.543	17473.27
778.878	17432.82
779.212	17553.04
779.547	17500.39
779.881	17611.8
780.215	17503.55
780.55	17571.35
780.884	17543.1
781.218	17547.84
781.552	17602.76
781.886	17445.47
782.22	17528.41
782.554	17501.29
782.888	17450.9
783.222	17424.91
783.556	17430.11
783.889	17374.06
784.223	17307.17
784.557	17316.66
784.89	17451.8
785.224	17310.56
785.557	17303.78
785.891	17295.42
786.224	17395.98
786.558	17259.04
786.891	17159.61
787.224	17091.36
787.557	17183.79
787.891	17185.82
788.224	17199.83
788.557	17188.53
788.89	17170.68
789.223	17163.22
789.556	17023.11
789.888	17061.75
790.221	16978.82
790.554	16835.55
790.887	16882.78
791.219	16850.01
791.552	16804.59
791.884	16715.32
792.217	16794.42
792.549	16682.1
792.882	16559.17
793.214	16631.71
793.546	16632.16
793.879	16487.08
794.211	16476.01
794.543	16576.12
794.875	16422.22
795.207	16554.42
795.539	16365.5
795.871	16394.2
796.203	16280.31
796.535	16163.02
796.867	16203.25
797.198	16179.29
797.53	16200.99
797.862	16030.6
798.193	16017.04
798.525	16045.96
798.856	15998.73
799.188	15939.98
799.519	15902.69
799.85	15814.56
800.182	15857.72
800.513	15800.54
800.844	15614.56
801.175	15808.45
801.506	15765.52
801.837	15668.57
802.168	15661.11
802.499	15659.76
802.83	15512.64
803.161	15452.08
803.491	15483.94
803.822	15434.45
804.153	15363.72
804.483	15368.69
804.814	15262.71
805.145	15254.12
805.475	15264.51
805.805	15214.35
806.136	15210.96
806.466	15237.62
806.796	15134.8
807.126	15022.49
807.457	15067.91
807.787	15065.2
808.117	14963.28
808.447	14940.91
808.777	15030.62
809.107	14885.09
809.436	14945.43
809.766	14867.24
810.096	14831.08
810.426	14705.66
810.755	14704.98
811.085	14721.7
811.414	14655.04
811.744	14577.07
812.073	14550.41
812.403	14436.29
812.732	14428.15
813.061	14409.85
813.39	14386.12
813.719	14404.65
814.049	14449.17
814.378	14427.02
814.707	14279.46
815.036	14283.3
815.365	14263.41
815.693	14137.76
816.022	14132.11
816.351	14163.98
816.68	14075.84
817.008	14052.12
817.337	14030.42
817.665	14052.12
817.994	13939.35
818.322	14028.39
818.651	13901.84
818.979	13900.93
819.307	13968.73
819.636	13926.24
819.964	13865.91
820.292	13828.62
820.62	13887.37
820.948	13810.09
821.276	13867.94
821.604	13847.38
821.932	13804.67
822.259	13829.07
822.587	13725.57
822.915	13746.14
823.243	13828.85
823.57	13864.78
823.898	13758.56
824.225	13753.59
824.553	13738.45
824.88	13854.61
825.207	13840.6
825.535	13796.3
825.862	13788.62
826.189	13778
826.516	13773.93
826.843	13912.23
827.17	13818.45
827.497	13810.09
827.824	13766.25
828.151	13819.81
828.478	13749.53
828.805	13825.23
829.131	13785.68
829.458	13683.54
829.785	13664.33
830.111	13747.04
830.438	13798.56
830.764	13813.7
831.09	13817.55
831.417	13710.88
831.743	13768.28
832.069	13753.37
832.395	13654.84
832.722	13808.73
833.048	13686.7
833.374	13668.85
833.7	13629.08
834.026	13655.29
834.351	13691.9
834.677	13731.9
835.003	13729.19
835.329	13674.95
835.654	13679.47
835.98	13606.48
836.306	13706.36
836.631	13613.03
836.956	13670.43
837.282	13551.79
837.607	13517.89
837.932	13516.09
838.258	13556.54
838.583	13406.03
838.908	13484.9
839.233	13396.99
839.558	13343.21
839.883	13450.1
840.208	13347.5
840.533	13384.79
840.858	13248.52
841.182	13288.29
841.507	13335.53
841.832	13234.96
842.156	13170.33
842.481	13160.39
842.805	13155.19
843.13	13137.79
843.454	13065.02
843.778	13045.36
844.103	13052.37
844.427	12976.21
844.751	12998.58
845.075	12930.34
845.399	12933.05
845.723	12875.2
846.047	12887.63
846.371	12807.63
846.695	12759.72
847.019	12663.45
847.343	12652.38
847.666	12481.76
847.99	12477.69
848.313	12479.95
848.637	12428.43
848.96	12435.66
849.284	12352.05
849.607	12214.42
849.931	12226.18
850.254	12213.29
850.577	12146.86
850.9	11996.35
851.223	11969.69
851.546	11939.63
851.869	11911.16
852.192	11932.17
852.515	11820.31
852.838	11761.33
853.161	11798.62
853.483	11678.39
853.806	11647.21
854.129	11667.77
854.451	11637.72
854.774	11554.33
855.096	11501.45
855.419	11548.23
855.741	11474.33
856.063	11362.7
856.385	11335.58
856.708	11302.81
857.03	11324.05
857.352	11344.62
857.674	11214.22
857.996	11239.08
858.318	11157.96
858.64	11120.22
858.961	11147.33
859.283	11069.37
859.605	11060.78
859.926	11026.21
860.248	11033.44
860.57	10975.81
860.891	10973.78
861.212	10835.48
861.534	10941.92
861.855	10871.18
862.176	10776.04
862.498	10883.16
862.819	10855.14
863.14	10806.33
863.461	10804.29
863.782	10684.07
864.103	10717.97
864.424	10691.53
864.745	10743.5
865.065	10628.7
865.386	10646.33
865.707	10651.75
866.027	10650.85
866.348	10619.21
866.668	10564.3
866.989	10579.89
867.309	10503.28
867.63	10489.05
867.95	10503.51
868.27	10386
868.59	10445.66
868.91	10467.8
869.23	10404.75
869.55	10411.76
869.87	10440.46
870.19	10336.28
870.51	10386.22
870.83	10315.27
871.15	10252.89
871.469	10316.62
871.789	10359.11
872.109	10289.05
872.428	10280.24
872.748	10272.1
873.067	10222.84
873.386	10226
873.706	10182.39
874.025	10183.97
874.344	10162.95
874.663	10156.63
874.982	10205.21
875.301	10134.48
875.62	10094.48
875.939	10104.42
876.258	10021.94
876.577	9982.84
876.896	10024.65
877.214	10004.77
877.533	10083.86
877.852	9963.86
878.17	9986.69
878.489	9958.44
878.807	9944.88
879.125	9875.28
879.444	9955.95
879.762	9884.54
880.08	9883.19
880.398	9834.6
880.716	9875.05
881.034	9808.39
881.352	9765.22
881.67	9732
881.988	9746.47
882.306	9743.3
882.624	9768.39
882.941	9638.9
883.259	9639.8
883.577	9643.42
883.894	9551.9
884.212	9606.36
884.529	9583.08
884.846	9476.42
885.164	9472.58
885.481	9452.46
885.798	9504.21
886.115	9379.24
886.432	9370.66
886.75	9399.58
887.067	9419.92
887.383	9321.85
887.7	9364.56
888.017	9324.56
888.334	9266.25
888.651	9301.05
888.967	9265.12
889.284	9263.54
889.6	9159.14
889.917	9153.49
890.233	9115.07
890.55	9142.87
890.866	9100.38
891.182	9045.02
891.498	9022.64
891.815	8969.54
892.131	9001.63
892.447	8969.09
892.763	8918.24
893.079	8831.01
893.395	8883.21
893.71	8867.17
894.026	8814.51
894.342	8735.42
894.657	8816.55
894.973	8686.61
895.289	8756.21
895.604	8695.87
895.92	8634.41
896.235	8629.66
896.55	8644.12
896.865	8627.4
897.181	8570.68
897.496	8541.98
897.811	8474.86
898.126	8487.29
898.441	8484.13
898.756	8499.72
899.071	8394.64
899.386	8395.77
899.7	8286.84
900.015	8221.76
900.33	8224.25
900.644	8177.24
900.959	8172.5
901.273	8192.16
901.588	8140.63
901.902	8087.3
902.216	8001.43
902.531	8082.78
902.845	8046.4
903.159	7976.57
903.473	7970.02
903.787	7941.09
904.101	7809.57
904.415	7845.05
904.729	7864.71
905.042	7739.51
905.356	7691.83
905.67	7746.07
905.984	7756.91
906.297	7683.02
906.611	7595.11
906.924	7601.21
907.237	7589.91
907.551	7584.94
907.864	7556.69
908.177	7500.65
908.491	7472.18
908.804	7438.05
909.117	7376.36
909.43	7319.86
909.743	7287.55
910.056	7295.46
910.368	7241.45
910.681	7238.96
910.994	7226.53
911.307	7175.46
911.619	7148.12
911.932	7156.7
912.244	7094.33
912.557	7066.54
912.869	7078.29
913.181	6982.02
913.494	6982.25
913.806	6967.56
914.118	6909.03
914.43	6896.6
914.742	6883.49
915.054	6788.13
915.366	6777.28
915.678	6783.15
915.99	6712.42
916.302	6748.13
916.613	6725.53
916.925	6727.79
917.236	6699.99
917.548	6650.28
917.859	6626.77
918.171	6596.27
918.482	6578.64
918.794	6532.77
919.105	6474.01
919.416	6448.25
919.727	6436.05
920.038	6420.68
920.349	6414.8
920.66	6369.83
920.971	6381.36
921.282	6355.6
921.593	6272.66
921.903	6254.81
922.214	6234.24
922.525	6192.66
922.835	6208.71
923.146	6194.24
923.456	6113.79
923.767	6132.55
924.077	6117.41
924.387	6103.4
924.697	6022.95
925.008	6034.7
925.318	5970.07
925.628	5942.27
925.938	6002.61
926.248	5885.55
926.558	5883.07
926.867	5862.73
927.177	5852.33
927.487	5818.66
927.796	5796.29
928.106	5817.98
928.416	5756.52
928.725	5763.29
929.034	5745.44
929.344	5706.8
929.653	5699.12
929.962	5605.78
930.271	5592.23
930.581	5599.01
930.89	5603.75
931.199	5479.01
931.508	5495.05
931.817	5510.19
932.125	5499.35
932.434	5430.87
932.743	5394.94
933.051	5412.57
933.36	5372.34
933.669	5313.36
933.977	5336.41
934.286	5293.93
934.594	5294.61
934.902	5215.96
935.21	5268.17
935.519	5267.04
935.827	5268.62
936.135	5172.12
936.443	5170.32
936.751	5122.86
937.059	5166.02
937.367	5076.53
937.674	5081.96
937.982	5064.78
938.29	5065.01
938.597	5059.13
938.905	4977.33
939.213	4956.99
939.52	4981.39
939.827	4920.38
940.135	4938.23
940.442	4880.38
940.749	4871.79
941.056	4889.87
941.363	4823.43
941.67	4811.23
941.977	4825.92
942.284	4770.33
942.591	4734.4
942.898	4742.08
943.205	4728.75
943.511	4688.75
943.818	4671.12
944.125	4642.65
944.431	4607.84
944.738	4579.15
945.044	4545.02
945.35	4558.58
945.657	4550.9
945.963	4539.37
946.269	4495.98
946.575	4505.47
946.881	4442.43
947.187	4437
947.493	4409.88
947.799	4400.17
948.105	4362.2
948.41	4342.32
948.716	4355.65
949.022	4315.88
949.327	4290.79
949.633	4283.79
949.938	4281.75
950.244	4270
950.549	4227.52
950.854	4236.33
951.16	4235.2
951.465	4201.53
951.77	4190
952.075	4149.78
952.38	4142.77
952.685	4128.76
952.99	4083.11
953.294	4094.41
953.599	4104.81
953.904	4056
954.209	4040.18
954.513	3979.16
954.818	3999.05
955.122	3957.47
955.426	3965.15
955.731	3955.21
956.035	3920.63
956.339	3921.54
956.643	3911.82
956.948	3882.67
957.252	3886.96
957.556	3900.07
957.86	3854.19
958.163	3820.07
958.467	3839.5
958.771	3813.06
959.075	3813.06
959.378	3772.16
959.682	3759.51
959.985	3722.67
960.289	3708.66
960.592	3690.58
960.896	3672.95
961.199	3665.27
961.502	3668.89
961.805	3634.99
962.108	3632.73
962.411	3602.9
962.714	3598.15
963.017	3566.06
963.32	3572.62
963.623	3540.08
963.926	3565.16
964.228	3497.59
964.531	3515.67
964.833	3468.21
965.136	3467.76
965.438	3438.38
965.741	3434.09
966.043	3412.62
966.345	3423.24
966.648	3366.52
966.95	3376.24
967.252	3303.47
967.554	3355.22
967.856	3338.05
968.158	3287.88
968.46	3301.89
968.761	3250.82
969.063	3278.39
969.365	3223.02
969.666	3249.24
969.968	3211.5
970.269	3205.4
970.571	3211.5
970.872	3189.35
971.174	3165.4
971.475	3174.66
971.776	3152.74
972.077	3143.25
972.378	3116.36
972.679	3144.15
972.98	3100.54
973.281	3100.09
973.582	3100.54
973.883	3072.74
974.183	3060.54
974.484	3034.55
974.785	3006.53
975.085	3004.95
975.386	3014.89
975.686	3021.67
975.986	2954.56
976.287	2963.14
976.587	2935.35
976.887	2957.04
977.187	2931.5
977.487	2927.66
977.787	2907.1
978.087	2923.37
978.387	2852.18
978.687	2853.99
978.987	2851.73
979.286	2808.8
979.586	2804.05
979.885	2825.07
980.185	2861.45
980.484	2777.38
980.784	2766.09
981.083	2766.31
981.382	2735.8
981.682	2735.58
981.981	2716.37
982.28	2725.41
982.579	2713.21
982.878	2710.04
983.177	2679.08
983.475	2654
983.774	2624.85
984.073	2596.37
984.372	2614.23
984.67	2619.42
984.969	2589.14
985.267	2594.34
985.566	2592.08
985.864	2595.47
986.162	2572.19
986.461	2542.14
986.759	2522.02
987.057	2516.37
987.355	2523.83
987.653	2513.44
987.951	2476.15
988.249	2482.25
988.547	2447.45
988.844	2471.63
989.142	2439.31
989.44	2418.3
989.737	2413.55
990.035	2385.76
990.332	2390.05
990.63	2384.4
990.927	2382.59
991.224	2340.11
991.521	2349.6
991.819	2358.64
992.116	2334.46
992.413	2309.37
992.71	2274.57
993.006	2301.92
993.303	2293.33
993.6	2270.73
993.897	2277.06
994.193	2261.92
994.49	2264.18
994.787	2225.76
995.083	2232.09
995.379	2220.34
995.676	2198.64
995.972	2209.72
996.268	2184.41
996.565	2180.34
996.861	2188.47
997.157	2136.95
997.453	2112.77
997.749	2110.28
998.044	2089.27
998.34	2107.8
998.636	2121.13
998.932	2113.22
999.227	2051.75
999.523	2070.74
999.818	2084.52
1000.114	2089.04
1000.409	2019.21
1000.704	2010.85
1001	2003.62
1001.295	2014.01
1001.59	1978.54
1001.885	2009.72
1002.18	1962.26
1002.475	1948.03
1002.77	1922.72
1003.065	1970.63
1003.359	1914.81
1003.654	1905.77
1003.949	1901.02
1004.243	1869.61
1004.538	1903.74
1004.832	1898.54
1005.127	1892.21
1005.421	1869.16
1005.715	1841.59
1006.009	1825.09
1006.304	1830.97
1006.598	1828.71
1006.892	1793.23
1007.186	1802.72
1007.48	1777.41
1007.773	1773.12
1008.067	1766.34
1008.361	1733.34
1008.655	1763.63
1008.948	1749.16
1009.242	1722.95
1009.535	1707.58
1009.829	1705.77
1010.122	1693.57
1010.415	1710.07
1010.708	1706
1011.001	1657.87
1011.295	1669.17
1011.588	1651.76
1011.881	1645.21
1012.173	1620.13
1012.466	1616.74
1012.759	1625.78
1013.052	1590.07
1013.344	1612.22
1013.637	1600.47
1013.93	1571.54
1014.222	1580.13
1014.514	1531.32
1014.807	1562.95
1015.099	1543.29
1015.391	1530.19
1015.683	1535.61
1015.976	1522.05
1016.268	1509.85
1016.56	1454.71
1016.851	1473.01
1017.143	1462.16
1017.435	1467.36
1017.727	1456.29
1018.018	1465.1
1018.31	1448.38
1018.602	1440.92
1018.893	1436.85
1019.185	1430.75
1019.476	1411.09
1019.767	1393.69
1020.058	1357.99
1020.35	1369.74
1020.641	1355.28
1020.932	1336.74
1021.223	1336.74
1021.514	1339.23
1021.804	1327.48
1022.095	1302.17
1022.386	1309.17
1022.677	1308.27
1022.967	1296.97
1023.258	1300.81
1023.548	1281.38
1023.839	1272.57
1024.129	1281.15
1024.419	1250.65
1024.709	1248.61
1025	1238.67
1025.29	1234.83
1025.58	1227.82
1025.87	1255.84
1026.16	1223.08
1026.449	1198.44
1026.739	1218.56
1027.029	1188.95
1027.319	1201.15
1027.608	1163.64
1027.898	1205.45
1028.187	1154.83
1028.477	1167.94
1028.766	1120.03
1029.055	1135.39
1029.344	1129.97
1029.634	1119.12
1029.923	1122.29
1030.212	1145.11
1030.501	1109.18
1030.79	1096.75
1031.078	1089.07
1031.367	1056.07
1031.656	1057.88
1031.945	1071.44
1032.233	1080.48
1032.522	1034.38
1032.81	1040.71
1033.099	1036.87
1033.387	1033.25
1033.675	1032.12
1033.963	1037.32
1034.251	1017.88
1034.54	1019.69
1034.828	1011.1
1035.116	1014.49
1035.403	986.02
1035.691	966.58
1035.979	963.42
1036.267	964.32
1036.554	942.4
1036.842	935.85
1037.129	955.06
1037.417	981.05
1037.704	939.69
1037.992	955.74
1038.279	938.11
1038.566	920.48
1038.853	920.48
1039.14	920.48
