Data from hue_24_FLMS001491_00091.txt Node
Date: Tue Feb 07 17:13:00 GMT 2017
User: dcchb
Spectrometer: FLMS00149
Trigger mode: 0
Integration Time (sec): 2.000000E-2
Scans to average: 10
Electric dark correction enabled: true
Nonlinearity correction enabled: false
Boxcar width: 0
XAxis mode: Wavelengths
Number of Pixels in Spectrum: 2048
>>>>>Begin Spectral Data<<<<<
341.393	3.12
341.776	3.12
342.16	3.12
342.543	-74.62
342.927	-68.29
343.31	-59.02
343.693	-63.54
344.077	-65.13
344.46	-48.85
344.843	-40.27
345.226	-60.83
345.61	-32.58
345.993	-22.64
346.376	-4.11
346.759	6.29
347.142	30.24
347.525	18.04
347.908	46.96
348.291	88.77
348.674	94.64
349.057	112.05
349.44	133.51
349.823	146.62
350.206	163.57
350.588	198.82
350.971	237.92
351.354	241.08
351.737	266.17
352.119	254.41
352.502	279.05
352.884	294.64
353.267	298.71
353.65	317.69
354.032	318.82
354.414	317.01
354.797	328.54
355.179	330.12
355.562	336.45
355.944	354.07
356.326	343.68
356.709	361.98
357.091	350.23
357.473	333.73
357.855	359.95
358.238	356.33
358.62	354.52
359.002	358.37
359.384	362.66
359.766	347.97
360.148	361.76
360.53	350.68
360.912	368.99
361.294	358.14
361.676	354.52
362.057	348.88
362.439	333.96
362.821	322.21
363.203	351.81
363.584	343.23
363.966	339.61
364.348	343
364.729	322.44
365.111	340.29
365.493	338.03
365.874	318.82
366.256	315.43
366.637	332.6
367.019	321.98
367.4	332.15
367.781	313.85
368.163	329.89
368.544	345.26
368.925	323.56
369.306	333.96
369.688	345.49
370.069	339.84
370.45	318.59
370.831	347.97
371.212	318.14
371.593	321.76
371.974	338.48
372.355	333.51
372.736	344.81
373.117	347.29
373.498	352.49
373.879	340.97
374.26	332.83
374.641	318.82
375.021	353.62
375.402	339.16
375.783	329.67
376.163	358.82
376.544	346.62
376.925	350.91
377.305	324.47
377.686	352.26
378.066	331.7
378.447	340.51
378.827	340.51
379.208	361.98
379.588	364.02
379.968	359.04
380.349	357.24
380.729	359.04
381.109	345.94
381.489	344.81
381.87	359.5
382.25	363.79
382.63	334.64
383.01	369.21
383.39	376.67
383.77	348.2
384.15	371.25
384.53	359.72
384.91	366.05
385.29	384.81
385.67	395.2
386.049	382.77
386.429	357.46
386.809	389.55
387.189	394.75
387.568	395.65
387.948	377.12
388.328	391.59
388.707	402.66
389.087	396.11
389.466	401.53
389.846	384.58
390.225	405.6
390.605	379.61
390.984	401.75
391.363	408.53
391.743	398.14
392.122	390.68
392.501	405.37
392.881	420.29
393.26	414.86
393.639	421.87
394.018	418.03
394.397	424.13
394.776	416.22
395.155	421.19
395.534	422.55
395.913	418.93
396.292	430.68
396.671	447.63
397.05	434.75
397.429	421.87
397.808	433.62
398.186	415.54
398.565	434.97
398.944	448.31
399.323	460.28
399.701	446.05
400.08	413.28
400.458	461.87
400.837	453.51
401.215	448.53
401.594	439.72
401.972	459.15
402.351	446.73
402.729	466.39
403.107	460.06
403.486	465.26
403.864	481.3
404.242	458.48
404.62	471.13
404.999	484.01
405.377	479.27
405.755	486.27
406.133	468.42
406.511	476.78
406.889	484.24
407.267	494.41
407.645	498.7
408.023	511.58
408.401	494.86
408.779	499.83
409.156	505.26
409.534	518.59
409.912	532.6
410.29	522.88
410.667	519.04
411.045	559.72
411.422	532.15
411.8	521.3
412.178	547.51
412.555	531.92
412.933	553.84
413.31	553.84
413.687	538.93
414.065	538.25
414.442	545.93
414.819	566.72
415.197	558.14
415.574	580.73
415.951	571.24
416.328	582.99
416.705	571.02
417.082	587.96
417.46	567.85
417.837	610.56
418.214	610.11
418.591	615.31
418.967	593.61
419.344	627.51
419.721	633.16
420.098	607.17
420.475	643.33
420.852	619.15
421.228	631.58
421.605	637.91
421.982	625.48
422.358	625.48
422.735	628.64
423.111	656.66
423.488	666.83
423.864	658.7
424.241	661.86
424.617	684.46
424.994	705.48
425.37	685.82
425.746	679.71
426.123	696.44
426.499	698.92
426.875	680.84
427.251	700.05
427.627	717.23
428.003	722.2
428.379	722.42
428.756	732.37
429.132	713.39
429.507	732.82
429.883	731.92
430.259	773.5
430.635	753.38
431.011	766.04
431.387	764.91
431.763	805.81
432.138	775.53
432.514	808.52
432.89	789.77
433.265	829.77
433.641	824.12
434.016	829.77
434.392	824.57
434.767	855.3
435.143	867.28
435.518	864.34
435.894	859.6
436.269	874.06
436.644	907.5
437.02	891.23
437.395	902.53
437.77	895.08
438.145	915.87
438.52	901.85
438.895	913.38
439.271	931.91
439.646	950.22
440.021	958.8
440.395	959.25
440.77	942.76
441.145	945.02
441.52	988.18
441.895	956.77
442.27	1001.97
442.645	992.02
443.019	1004.45
443.394	969.65
443.769	1018.01
444.143	1015.52
444.518	1037.9
444.892	1008.74
445.267	1015.75
445.641	1032.92
446.016	1011.46
446.39	1034.05
446.764	1037.22
447.139	1062.08
447.513	1057.1
447.887	1064.11
448.262	1084.67
448.636	1086.03
449.01	1102.75
449.384	1122.64
449.758	1085.35
450.132	1116.54
450.506	1085.35
450.88	1119.93
451.254	1142.07
451.628	1158.35
452.002	1166.93
452.376	1170.1
452.75	1177.55
453.123	1185.46
453.497	1178.23
453.871	1218.23
454.244	1224.56
454.618	1222.07
454.992	1216.65
455.365	1243.09
455.739	1260.26
456.112	1290.77
456.486	1297.32
456.859	1288.29
457.232	1327.83
457.606	1328.51
457.979	1348.62
458.352	1375.29
458.725	1409.19
459.099	1396.98
459.472	1387.94
459.845	1411.45
460.218	1445.12
460.591	1445.57
460.964	1454.83
461.337	1481.73
461.71	1531.89
462.083	1512.46
462.456	1543.42
462.829	1531.44
463.201	1547.49
463.574	1588.39
463.947	1623.42
464.32	1612.8
464.692	1673.81
465.065	1678.33
465.438	1688.73
465.81	1700.03
466.183	1702.96
466.555	1758.78
466.928	1749.06
467.3	1756.97
467.672	1752.91
468.045	1822.51
468.417	1825.45
468.789	1832.68
469.161	1859.12
469.534	1907.48
469.906	1924.65
470.278	1954.26
470.65	1963.3
471.022	2005.55
471.394	2008.94
471.766	2078.1
472.138	2137.3
472.51	2125.1
472.882	2171.88
473.253	2206.45
473.625	2229.28
473.997	2253.68
474.369	2269.28
474.74	2286.68
475.112	2381.82
475.484	2394.02
475.855	2432.66
476.227	2472.66
476.598	2533.68
476.97	2556.73
477.341	2614.35
477.713	2634.46
478.084	2695.93
478.455	2774.12
478.827	2790.84
479.198	2899.99
479.569	2884.63
479.94	2970.95
480.311	2991.07
480.682	3039.2
481.053	3115.36
481.424	3166.65
481.795	3219.76
482.166	3319.87
482.537	3309.02
482.908	3463.6
483.279	3447.1
483.65	3525.51
484.021	3608.22
484.391	3624.95
484.762	3688.67
485.133	3728.67
485.503	3810.93
485.874	3919.63
486.244	3918.72
486.615	3997.14
486.985	4099.51
487.356	4137.25
487.726	4203.69
488.097	4271.03
488.467	4350.13
488.837	4385.15
489.207	4454.98
489.578	4555.77
489.948	4607.29
490.318	4661.98
490.688	4701.08
491.058	4746.95
491.428	4872.6
491.798	4940.62
492.168	5006.15
492.538	5035.76
492.908	5118.24
493.278	5174.51
493.648	5218.35
494.017	5275.07
494.387	5311
494.757	5358.23
495.126	5428.74
495.496	5437.1
495.866	5510.1
496.235	5553.71
496.605	5620.37
496.974	5711.45
497.344	5774.04
497.713	5809.75
498.082	5815.4
498.452	5908.73
498.821	5951.89
499.19	5955.73
499.559	6028.95
499.928	6047.48
500.298	6096.97
500.667	6151.43
501.036	6124.77
501.405	6192.79
501.774	6236.86
502.143	6251.32
502.512	6338.1
502.88	6380.35
503.249	6403.63
503.618	6416.29
503.987	6493.12
504.356	6489.73
504.724	6497.41
505.093	6571.99
505.462	6625.32
505.83	6655.83
506.199	6700.12
506.567	6724.07
506.936	6830.06
507.304	6792.1
507.672	6891.75
508.041	6936.72
508.409	6901.02
508.777	6955.03
509.145	6991.19
509.514	7073.44
509.882	7087.45
510.25	7072.09
510.618	7156.38
510.986	7165.42
511.354	7217.17
511.722	7267.79
512.09	7316.38
512.458	7334
512.826	7417.62
513.193	7411.74
513.561	7444.96
513.929	7475.92
514.297	7622.81
514.664	7578.97
515.032	7638.63
515.4	7674.78
515.767	7714.33
516.135	7821.9
516.502	7737.83
516.869	7846.76
517.237	7932.86
517.604	7916.13
517.972	7949.35
518.339	7977.37
518.706	8008.33
519.073	8043.14
519.44	8056.92
519.808	8125.39
520.175	8154.55
520.542	8248.78
520.909	8218.95
521.276	8327.65
521.643	8328.33
522.009	8428.44
522.376	8489
522.743	8545.27
523.11	8604.7
523.477	8622.78
523.843	8619.39
524.21	8713.4
524.577	8829.56
524.943	8842.89
525.31	8849.44
525.676	8950.68
526.043	8925.15
526.409	8989.55
526.776	9132.6
527.142	9125.59
527.508	9205.82
527.874	9259.15
528.241	9305.93
528.607	9327.62
528.973	9397.9
529.339	9455.75
529.705	9457.11
530.071	9557.67
530.437	9593.6
530.803	9646.03
531.169	9741.4
531.535	9737.78
531.901	9793.37
532.267	9793.15
532.632	9867.72
532.998	9864.11
533.364	9980.94
533.73	10012.58
534.095	10077.66
534.461	10123.76
534.826	10161.05
535.192	10246.47
535.557	10286.24
535.923	10258.44
536.288	10319.46
536.653	10367.59
537.019	10368.72
537.384	10442.62
537.749	10476.07
538.114	10479.68
538.479	10500.25
538.845	10587.93
539.21	10610.3
539.575	10670.64
539.94	10664.31
540.305	10756.28
540.67	10737.3
541.034	10799.22
541.399	10884.64
541.764	10912.67
542.129	10870.63
542.494	10967.13
542.858	11034.7
543.223	11071.3
543.587	11193.79
543.952	11093
544.316	11248.48
544.681	11230.17
545.045	11225.2
545.41	11379.55
545.774	11377.96
546.138	11330.73
546.503	11426.1
546.867	11428.36
547.231	11555.59
547.595	11568.24
547.959	11664.51
548.324	11744.06
548.688	11696.37
549.052	11752.87
549.416	11783.38
549.779	11797.84
550.143	11825.86
550.507	11929.59
550.871	11895.92
551.235	11933.43
551.599	12034.9
551.962	12020.66
552.326	12098.85
552.689	12166.87
553.053	12134.33
553.417	12236.25
553.78	12311.27
554.143	12347.2
554.507	12350.14
554.87	12348.56
555.234	12471.95
555.597	12468.78
555.96	12536.58
556.323	12535.9
556.686	12552.4
557.05	12656.35
557.413	12653.86
557.776	12688.44
558.139	12714.2
558.502	12861.09
558.865	12913.74
559.228	12935.89
559.59	13007.75
559.953	13003.23
560.316	13143.34
560.679	13111.7
561.041	13267.86
561.404	13314.64
561.767	13342.43
562.129	13260.4
562.492	13422.66
562.854	13428.76
563.217	13401.41
563.579	13538.58
563.941	13586.72
564.304	13671.46
564.666	13690.22
565.028	13758.92
565.39	13804.57
565.753	13880.5
566.115	13888.63
566.477	13950.78
566.839	13903.77
567.201	14107.61
567.563	14082.3
567.925	14146.7
568.287	14202.3
568.648	14275.51
569.01	14334.04
569.372	14451.33
569.734	14306.93
570.095	14515.28
570.457	14600.93
570.819	14566.58
571.18	14585.11
571.542	14725.45
571.903	14804.54
572.265	14823.07
572.626	14898.55
572.987	14896.52
573.349	14944.2
573.71	15116.62
574.071	15206.11
574.432	15220.8
574.794	15347.8
575.155	15395.71
575.516	15412.66
575.877	15473.45
576.238	15590.06
576.599	15749.6
576.96	15853.55
577.32	15885.87
577.681	15873.44
578.042	15994.34
578.403	16138.52
578.763	16332.18
579.124	16420.77
579.485	16538.28
579.845	16728.56
580.206	16784.15
580.566	16926.74
580.927	17037.7
581.287	17260.29
581.648	17277.7
582.008	17466.84
582.368	17668.87
582.728	17829.55
583.089	17971.46
583.449	18039.26
583.809	18332.81
584.169	18557.89
584.529	18708.17
584.889	19020.7
585.249	19143.41
585.609	19233.12
585.969	19495.94
586.329	19761.02
586.688	19984.29
587.048	20208.69
587.408	20506.99
587.768	20699.75
588.127	20928.9
588.487	21216.12
588.846	21552.61
589.206	21704.7
589.565	22046.84
589.925	22481.63
590.284	22539.7
590.643	23027.37
591.003	23400.47
591.362	23639.56
591.721	23999.78
592.08	24239.77
592.44	24523.38
592.799	24967.66
593.158	25095.34
593.517	25567.65
593.876	26042.66
594.235	26214.41
594.593	26467.74
594.952	26876.31
595.311	27182.07
595.67	27623.86
596.029	27983.85
596.387	28411.64
596.746	28869.93
597.104	29041
597.463	29376.59
597.822	29712.62
598.18	29914.2
598.538	30351.25
598.897	30993.27
599.255	30990.78
599.613	31772.23
599.972	31866.01
600.33	32321.37
600.688	32404.08
601.046	32964.29
601.404	33432.3
601.762	33565.63
602.12	34153.86
602.478	34354.76
602.836	34875.88
603.194	34889.21
603.552	35286.49
603.91	35443.09
604.268	35959.69
604.625	36249.17
604.983	36730.07
605.341	36720.57
605.698	37207.57
606.056	37582.92
606.413	37781.56
606.771	38337.48
607.128	38636.91
607.485	38572.73
607.843	38892.72
608.2	39364.12
608.557	39720.27
608.914	39905.58
609.272	40166.81
609.629	40434.37
609.986	40808.6
610.343	40995.72
610.7	41430.05
611.057	41510.5
611.414	41756.6
611.771	42083.14
612.127	42364.95
612.484	42526.98
612.841	42909.56
613.198	42877.93
613.554	43203.34
613.911	43622.99
614.267	43592.94
614.624	43890.1
614.98	44013.49
615.337	44453.03
615.693	44366.25
616.05	44672.46
616.406	44884.88
616.762	45008.72
617.118	45131.2
617.475	45306.56
617.831	45741.35
618.187	45830.84
618.543	45946.55
618.899	46198.74
619.255	46407.78
619.611	46484.84
619.967	46681.22
620.323	46807.77
620.678	46840.76
621.034	46864.94
621.39	46976.8
621.746	46893.64
622.101	47471.48
622.457	47346.06
622.812	47489.1
623.168	47627.86
623.523	47710.34
623.879	47893.16
624.234	47791.7
624.589	48135.19
624.945	48139.93
625.3	48202.76
625.655	48259.71
626.01	48400.72
626.365	48475.75
626.72	48557.1
627.075	48578.12
627.43	48539.02
627.785	48593.03
628.14	48650.66
628.495	48848.84
628.85	48783.31
629.205	48779.92
629.559	48915.51
629.914	48892.91
630.269	49002.28
630.623	48927.94
630.978	48951.21
631.332	49117.08
631.687	49308.27
632.041	49015.17
632.396	49222.39
632.75	49101.27
633.104	49194.14
633.459	49012
633.813	48974.72
634.167	49179.46
634.521	49176.29
634.875	49296.74
635.229	49184.88
635.583	49069.4
635.937	49078.89
636.291	49075.28
636.645	49080.02
636.999	49110.76
637.352	49218.55
637.706	49121.83
638.06	49228.72
638.413	49199.12
638.767	49113.47
639.121	49149.17
639.474	49067.14
639.828	48941.5
640.181	49103.07
640.534	49219.68
640.888	49009.06
641.241	48984.43
641.594	48963.42
641.947	49104.66
642.301	49063.07
642.654	49125.45
643.007	49099.46
643.36	49006.58
643.713	49066.92
644.066	49194.14
644.419	48838.9
644.771	48598.91
645.124	48447.72
645.477	48323.66
645.83	48131.35
646.182	48004.35
646.535	47978.36
646.888	48007.96
647.24	47790.57
647.593	48092.7
647.945	48067.17
648.298	47951.69
648.65	47674.64
649.002	47668.76
649.355	47762.09
649.707	47723
650.059	47927.06
650.411	48299.25
650.763	48344.9
651.115	48814.27
651.467	48651.33
651.819	48626.48
652.171	48605.46
652.523	48588.06
652.875	48578.12
653.227	48375.86
653.578	48732.24
653.93	48731.11
654.282	48409.31
654.633	48308.07
654.985	48407.95
655.337	48428.74
655.688	48521.39
656.039	48664.44
656.391	48308.52
656.742	48403.2
657.094	48417.67
657.445	48605.91
657.796	48411.79
658.147	48353.04
658.498	48342.42
658.849	48482.07
659.2	48399.81
659.551	48157.56
659.902	48300.38
660.253	48229.42
660.604	48478
660.955	48068.52
661.306	48381.74
661.656	48301.06
662.007	48225.81
662.358	48309.2
662.708	48271.91
663.059	48309.87
663.409	48060.39
663.76	48354.39
664.11	48235.3
664.461	48324.11
664.811	48294.06
665.161	48167.5
665.511	48149.88
665.862	48258.8
666.212	48252.93
666.562	48169.54
666.912	48176.77
667.262	48141.74
667.612	48159.82
667.962	48165.7
668.312	48140.84
668.662	48294.51
669.011	48167.96
669.361	48022.65
669.711	48105.59
670.06	48026.27
670.41	47953.5
670.76	47956.44
671.109	48024.46
671.459	48134.74
671.808	48051.8
672.157	48112.14
672.507	47806.16
672.856	47826.27
673.205	47966.15
673.554	48125.92
673.904	47878.7
674.253	47995.98
674.602	47898.81
674.951	47357.13
675.3	47139.96
675.649	47793.5
675.998	47688.87
676.346	47753.05
676.695	47904.46
677.044	47623.11
677.393	47618.37
677.741	47706.27
678.09	47654.07
678.438	47617.46
678.787	47640.51
679.135	47699.27
679.484	47392.84
679.832	47516.22
680.181	47437.58
680.529	47367.07
680.877	47271.71
681.225	47166.18
681.573	47473.29
681.922	47269.9
682.27	47091.15
682.618	47059.29
682.966	46986.97
683.314	47172.73
683.661	46964.82
684.009	46805.51
684.357	46593.53
684.705	46754.89
685.053	46750.59
685.4	46684.83
685.748	46537.49
686.095	46531.84
686.443	46252.75
686.79	46232.19
687.138	46262.47
687.485	46374.11
687.832	46214.11
688.18	46303.6
688.527	46069.93
688.874	46053.89
689.221	45924.85
689.568	45877.85
689.915	45746.33
690.262	45780.67
690.609	45575.48
690.956	45459.1
691.303	45421.81
691.65	45212.33
691.997	45207.81
692.344	44942.5
692.69	45111.99
693.037	44957.19
693.383	44591.1
693.73	44756.07
694.077	44568.05
694.423	44589.52
694.769	44503.87
695.116	44350.88
695.462	44455.51
695.808	44095.75
696.155	44336.64
696.501	43878.58
696.847	43895.07
697.193	43750.45
697.539	43913.83
697.885	43583.67
698.231	43365.82
698.577	43465.48
698.923	43446.72
699.269	43203.79
699.614	43022.33
699.96	42924.48
700.306	42938.72
700.651	42791.15
700.997	42783.47
701.342	42844.93
701.688	42609.23
702.033	42579.63
702.379	42293.31
702.724	42293.53
703.069	42428.67
703.415	41861.68
703.76	41981.23
704.105	42064.84
704.45	41835.02
704.795	41759.54
705.14	41527.68
705.485	41553.44
705.83	41434.12
706.175	41504.63
706.52	41455.82
706.865	41182.15
707.209	41193.45
707.554	40971.08
707.899	40964.3
708.243	40849.05
708.588	40742.62
708.932	40348.73
709.277	40355.05
709.621	40353.92
709.966	40219.01
710.31	40255.62
710.654	39982.41
710.998	40049.3
711.342	40054.27
711.687	39874.39
712.031	39762.3
712.375	39550.1
712.719	39747.61
713.063	39716.65
713.407	39735.64
713.75	39564.34
714.094	39477.56
714.438	39430.79
714.782	39367.06
715.125	39108.08
715.469	39398.92
715.812	39112.38
716.156	38887.07
716.499	38904.92
716.843	38805.94
717.186	38562.33
717.53	38876.9
717.873	38783.8
718.216	38777.02
718.559	38570.69
718.902	38345.16
719.246	38322.34
719.589	38237.37
719.932	38059.97
720.275	38144.04
720.617	38081.89
720.96	38002.12
721.303	38157.6
721.646	38071.5
721.989	37738.63
722.331	37969.58
722.674	37669.48
723.016	37819.53
723.359	37721.9
723.701	37643.49
724.044	37604.17
724.386	37255.7
724.729	37447.11
725.071	37360.56
725.413	37294.12
725.755	37377.28
726.097	37134.8
726.439	36868.14
726.782	36935.71
727.124	37273.1
727.465	36914.92
727.807	36791.31
728.149	36865.2
728.491	36727.35
728.833	36745.43
729.175	36658.65
729.516	36557.41
729.858	36498.66
730.199	36532.33
730.541	36424.99
730.882	36326.46
731.224	36526
731.565	36171.21
731.906	36284.65
732.248	36306.35
732.589	36080.14
732.93	35868.17
733.271	35950.2
733.612	36145.9
733.953	35878.79
734.294	35767.83
734.635	35877.21
734.976	35843.99
735.317	35677.21
735.658	35684.9
735.999	35581.62
736.339	35528.51
736.68	35672.92
737.021	35473.15
737.361	35360.16
737.702	35577.33
738.042	35321.29
738.383	35356.99
738.723	35418.46
739.063	35269.09
739.404	35293.49
739.744	35213.72
740.084	35078.36
740.424	35050.34
740.764	35066.83
741.104	35200.39
741.444	34974.41
741.784	34853.28
742.124	34837.91
742.464	34799.72
742.804	34699.16
743.143	34706.84
743.483	34830.23
743.823	34542.1
744.162	34507.98
744.502	34412.39
744.841	34371.94
745.181	34476.34
745.52	34397.47
745.86	34316.12
746.199	34321.32
746.538	34268.44
746.877	34249.45
747.216	34343.69
747.556	34192.28
747.895	34096.91
748.234	33936.92
748.573	33914.32
748.911	33983.02
749.25	33877.94
749.589	33827.09
749.928	33845.4
750.267	33811.27
750.605	33614.22
750.944	33660.54
751.283	33513.2
751.621	33636.36
751.96	33354.56
752.298	33340.55
752.636	33527.44
752.975	33210.16
753.313	33047.68
753.651	33230.95
753.989	33032.31
754.327	32915.7
754.666	32830.73
755.004	32808.13
755.342	32767.01
755.679	32699.89
756.017	32685.88
756.355	32665.54
756.693	32533.79
757.031	32536.28
757.368	32234.59
757.706	32377.41
758.044	32346.45
758.381	32261.93
758.719	32180.81
759.056	32101.94
759.394	31920.7
759.731	31837.54
760.068	31812.68
760.405	31748.73
760.743	31602.52
761.08	31630.99
761.417	31440.03
761.754	31394.16
762.091	31336.53
762.428	31198.01
762.765	31181.74
763.102	31149.42
763.438	30928.41
763.775	30937.9
764.112	30877.34
764.449	30974.74
764.785	30727.74
765.122	30490.68
765.458	30385.83
765.795	30272.16
766.131	30378.14
766.467	30186.96
766.804	30147.64
767.14	30053.86
767.476	30045.04
767.812	29840.08
768.148	29902.22
768.485	29636.92
768.821	29457.49
769.157	29505.85
769.492	29421.1
769.828	29447.32
770.164	29068.35
770.5	29075.58
770.836	28955.13
771.171	28920.33
771.507	28749.26
771.842	28600.79
772.178	28564.86
772.513	28523.05
772.849	28356.5
773.184	28280.12
773.519	28237.18
773.855	28066.79
774.19	28043.51
774.525	27830.64
774.86	27901.82
775.195	27788.61
775.53	27669.29
775.865	27547.48
776.2	27344.78
776.535	27169.64
776.87	27202.41
777.205	27061.84
777.539	27013.26
777.874	27013.03
778.209	26717.67
778.543	26758.58
778.878	26505.25
779.212	26493.5
779.547	26479.71
779.881	26465.25
780.215	26286.27
780.55	26441.97
780.884	26171.47
781.218	26056
781.552	26003.34
781.886	25907.07
782.22	25748.21
782.554	25667.76
782.888	25474.32
783.222	25389.35
783.556	25347.31
783.889	25310.93
784.223	25039.75
784.557	25031.39
784.89	25077.49
785.224	24966.76
785.557	24697.61
785.891	24706.65
786.224	24695.81
786.558	24583.04
786.891	24422.59
787.224	24364.51
787.557	24310.73
787.891	24131.75
788.224	24225.99
788.557	24157.97
788.89	24073.45
789.223	24075.93
789.556	23856.28
789.888	23776.51
790.221	23670.75
790.554	23442.28
790.887	23456.29
791.219	23396.86
791.552	23269.85
791.884	23220.82
792.217	23034.83
792.549	23056.98
792.882	22862.63
793.214	22885.23
793.546	22831.45
793.879	22717.1
794.211	22500.61
794.543	22644.56
794.875	22605.92
795.207	22598.23
795.539	22419.26
795.871	22398.69
796.203	22177.68
796.535	22145.59
796.867	22085.7
797.198	22038.02
797.53	22031.02
797.862	21850.46
798.193	21845.26
798.525	21732.49
798.856	21818.59
799.188	21614.08
799.519	21445.04
799.85	21444.59
800.182	21386.97
800.513	21387.19
800.844	21244.37
801.175	21297.25
801.506	21235.33
801.837	21050.25
802.168	21039.18
802.499	20931.16
802.83	20891.16
803.161	20781.78
803.491	20835.57
803.822	20762.35
804.153	20666.53
804.483	20513.09
804.814	20494.79
805.145	20373.21
805.475	20390.83
805.805	20378.18
806.136	20249.82
806.466	20268.8
806.796	20279.42
807.126	20060.9
807.457	19946.1
807.787	19996.95
808.117	19982.94
808.447	19893.22
808.777	19955.82
809.107	19794.24
809.436	19794.01
809.766	19688.25
810.096	19635.37
810.426	19562.38
810.755	19585.88
811.085	19511.99
811.414	19541.82
811.744	19245.1
812.073	19264.76
812.403	19292.78
812.732	19189.06
813.061	19209.17
813.39	19109.74
813.719	19035.16
814.049	19022.73
814.378	18959.69
814.707	18935.73
815.036	18823.19
815.365	18741.61
815.693	18627.94
816.022	18679.01
816.351	18707.71
816.68	18498.91
817.008	18599.92
817.337	18411.22
817.665	18347.5
817.994	18481.28
818.322	18365.35
818.651	18296.88
818.979	18226.6
819.307	18340.49
819.636	18180.04
819.964	18200.38
820.292	18207.61
820.62	18124.9
820.948	18067.73
821.276	18116.09
821.604	18001.97
821.932	18059.37
822.259	18071.8
822.587	18031.12
822.915	17961.29
823.243	18104.11
823.57	17887.62
823.898	17993.61
824.225	17901.18
824.553	17889.88
824.88	17867.28
825.207	17910.45
825.535	17869.77
825.862	17992.93
826.189	17874.74
826.516	18015.08
826.843	17931.69
827.17	17971.24
827.497	17887.17
827.824	17959.03
828.151	18011.69
828.478	17981.86
828.805	17995.64
829.131	17986.38
829.458	17888.53
829.785	17831.81
830.111	17833.84
830.438	17893.72
830.764	17859.83
831.09	17917.23
831.417	17886.27
831.743	17897.57
832.069	17858.47
832.395	17802.88
832.722	17917.68
833.048	17791.81
833.374	17735.31
833.7	17620.29
834.026	17733.28
834.351	17796.55
834.677	17729.43
835.003	17715.2
835.329	17689.89
835.654	17622.09
835.98	17640.85
836.306	17596.11
836.631	17559.27
836.956	17637.46
837.282	17688.98
837.607	17464.36
837.932	17507.97
838.258	17525.82
838.583	17397.47
838.908	17334.64
839.233	17370.57
839.558	17468.42
839.883	17278.6
840.208	17274.08
840.533	17169.22
840.858	17272.05
841.182	17168.77
841.507	17107.76
841.832	17055.33
842.156	17030.24
842.481	17051.94
842.805	17048.1
843.13	16987.08
843.454	16945.05
843.778	16848.55
844.103	16806.75
844.427	16744.83
844.751	16796.13
845.075	16641.78
845.399	16643.36
845.723	16521.78
846.047	16569.47
846.371	16439.3
846.695	16362.24
847.019	16276.37
847.343	16257.16
847.666	16105.97
847.99	16082.25
848.313	16189.14
848.637	16009.71
848.96	15979.65
849.284	15862.59
849.607	15763.61
849.931	15769.71
850.254	15722.93
850.577	15632.09
850.9	15516.84
851.223	15456.5
851.546	15370.63
851.869	15244.98
852.192	15414.47
852.515	15200.46
852.838	15154.14
853.161	15126.11
853.483	15073.46
853.806	14910.98
854.129	15058.09
854.451	14952.11
854.774	14830.53
855.096	14745.33
855.419	14770.19
855.741	14766.8
856.063	14690.42
856.385	14587.6
856.708	14600.7
857.03	14537.43
857.352	14519.12
857.674	14415.62
857.996	14499.46
858.318	14366.13
858.64	14331.78
858.961	14261.28
859.283	14159.81
859.605	14195.74
859.926	14252.01
860.248	14180.6
860.57	14172.01
860.891	14124.11
861.212	14018.12
861.534	13896.99
861.855	13969.99
862.176	13890.44
862.498	13859.03
862.819	13892.25
863.14	13802.08
863.461	13794.62
863.782	13694.51
864.103	13849.54
864.424	13736.09
864.745	13741.97
865.065	13639.15
865.386	13651.12
865.707	13588.3
866.027	13534.74
866.348	13535.87
866.668	13520.73
866.989	13523.67
867.309	13455.2
867.63	13411.58
867.95	13477.8
868.27	13407.51
868.59	13402.54
868.91	13372.04
869.23	13371.36
869.55	13300.17
869.87	13349.44
870.19	13310.34
870.51	13303.56
870.83	13331.58
871.15	13205.26
871.469	13260.63
871.789	13271.25
872.109	13302.21
872.428	13138.82
872.748	13155.09
873.067	13080.07
873.386	13095.88
873.706	13128.2
874.025	13059.5
874.344	13026.96
874.663	12983.12
874.982	12940.18
875.301	12932.5
875.62	12865.83
875.939	12880.3
876.258	12924.14
876.577	12816.34
876.896	12825.16
877.214	12755.55
877.533	12763.46
877.852	12763.01
878.17	12809.11
878.489	12723.01
878.807	12772.5
879.125	12693.86
879.444	12689.34
879.762	12610.93
880.08	12591.72
880.398	12532.74
880.716	12571.83
881.034	12515.33
881.352	12490.02
881.67	12423.36
881.988	12511.04
882.306	12427.88
882.624	12399.63
882.941	12399.63
883.259	12252.74
883.577	12308.79
883.894	12384.49
884.212	12243.93
884.529	12266.98
884.846	12146.53
885.164	12198.05
885.481	12176.36
885.798	12177.49
886.115	12075.8
886.432	12120.77
886.75	12023.14
887.067	12043.71
887.383	11944.95
887.7	11989.25
888.017	11889.59
888.334	11891.17
888.651	11930.49
888.967	11930.49
889.284	11807.56
889.6	11726.2
889.917	11723.49
890.233	11739.31
890.55	11614.34
890.866	11715.36
891.182	11567.11
891.498	11565.3
891.815	11576.15
892.131	11460
892.447	11521.46
892.763	11435.59
893.079	11406.66
893.395	11372.99
893.71	11377.74
894.026	11275.82
894.342	11246.44
894.657	11175.48
894.973	11092.32
895.289	11155.6
895.604	11143.85
895.92	11027.46
896.235	11059.33
896.55	11009.61
896.865	10958.09
897.181	10910.63
897.496	10829.05
897.811	10896.62
898.126	10825.21
898.441	10843.97
898.756	10714.93
899.071	10622.73
899.386	10627.25
899.7	10578.44
900.015	10520.13
900.33	10563.75
900.644	10499.79
900.959	10537.99
901.273	10455.5
901.588	10365.33
901.902	10330.31
902.216	10409.4
902.531	10283.76
902.845	10293.92
903.159	10200.14
903.473	10150.88
903.787	10129.41
904.101	10071.78
904.415	10060.26
904.729	10034.27
905.042	10023.87
905.356	9934.39
905.67	9961.96
905.984	9904.56
906.297	9871.79
906.611	9801.96
906.924	9744.56
907.237	9775.52
907.551	9739.14
907.864	9686.48
908.177	9637.22
908.491	9647.16
908.804	9555.86
909.117	9477.9
909.43	9464.57
909.743	9360.16
910.056	9433.16
910.368	9362.2
910.681	9259.15
910.994	9323.78
911.307	9308.19
911.619	9186.16
911.932	9182.32
912.244	9081.75
912.557	9107.29
912.869	9094.18
913.181	9006.73
913.494	9036.33
913.806	8953.62
914.118	8941.87
914.43	8864.13
914.742	8900.06
915.054	8748.88
915.366	8828.65
915.678	8758.82
915.99	8642.44
916.302	8653.52
916.613	8555.44
916.925	8556.34
917.236	8470.7
917.548	8524.48
917.859	8510.24
918.171	8471.6
918.482	8397.02
918.794	8365.16
919.105	8356.57
919.416	8251.49
919.727	8259.85
920.038	8244.94
920.349	8160.87
920.66	8214.2
920.971	8118.16
921.282	8120.65
921.593	8021.89
921.903	8003.59
922.214	7979.41
922.525	7950.94
922.835	7947.77
923.146	7884.04
923.456	7887.43
923.767	7899.86
924.077	7836.59
924.387	7730.38
924.697	7717.04
925.008	7616.25
925.318	7666.42
925.628	7642.92
925.938	7578.06
926.248	7490.61
926.558	7490.61
926.867	7416.94
927.177	7446.09
927.487	7413.77
927.796	7291.97
928.106	7327.45
928.416	7297.84
928.725	7336.26
929.034	7234.12
929.344	7199.99
929.653	7184.4
929.962	7065.76
930.271	7101.24
930.581	7066.21
930.89	7025.99
931.199	7055.14
931.508	6961.58
931.817	7007.23
932.125	6915.93
932.434	6916.61
932.743	6836.39
933.051	6882.71
933.36	6828.48
933.669	6818.76
933.977	6749.16
934.286	6744.41
934.594	6695.37
934.902	6662.38
935.21	6629.39
935.519	6654.92
935.827	6576.06
936.135	6547.13
936.443	6480.47
936.751	6486.11
937.059	6495.61
937.367	6453.12
937.674	6436.62
937.982	6400.47
938.29	6389.85
938.597	6339.68
938.905	6263.07
939.213	6265.1
939.52	6232.79
939.827	6255.61
940.135	6232.34
940.442	6156.41
940.749	6120.47
941.056	6160.93
941.363	6089.97
941.67	6033.02
941.977	5995.73
942.284	5998.44
942.591	5967.94
942.898	5974.72
943.205	5978.33
943.511	5898.33
943.818	5919.12
944.125	5872.35
944.431	5826.7
944.738	5782.86
945.044	5785.34
945.35	5696.53
945.657	5718.9
945.963	5711.22
946.269	5658.57
946.575	5656.76
946.881	5604.78
947.187	5637.55
947.493	5603.2
947.799	5551.68
948.105	5549.87
948.41	5491.34
948.716	5523.88
949.022	5472.81
949.327	5403.43
949.633	5382.87
949.938	5369.31
950.244	5375.41
950.549	5340.61
950.854	5331.79
951.16	5329.54
951.465	5296.54
951.77	5209.76
952.075	5227.62
952.38	5161.4
952.685	5239.82
952.99	5168.86
953.294	5104.91
953.599	5051.58
953.904	5105.36
954.209	5080.05
954.513	5087.73
954.818	5017.45
955.122	4977.45
955.426	5014.52
955.731	4926.38
956.035	4964.8
956.339	4910.79
956.643	4899.04
956.948	4848.42
957.252	4833.28
957.556	4856.1
957.86	4818.81
958.163	4782.66
958.467	4749.44
958.771	4745.6
959.075	4781.07
959.378	4694.98
959.682	4684.35
959.985	4683.45
960.289	4613.62
960.592	4596.45
960.896	4584.02
961.199	4577.69
961.502	4563
961.805	4512.61
962.108	4521.19
962.411	4531.36
962.714	4461.54
963.017	4440.07
963.32	4401.2
963.623	4424.7
963.926	4398.94
964.228	4369.33
964.531	4335.21
964.833	4385.61
965.136	4295.21
965.438	4282.1
965.741	4291.37
966.043	4273.29
966.345	4207.76
966.648	4200.3
966.95	4270.35
967.252	4167.08
967.554	4176.34
967.856	4139.51
968.158	4080.08
968.46	4098.61
968.761	4110.81
969.063	4045.27
969.365	4071.94
969.666	4066.74
969.968	4014.09
970.269	4012.06
970.571	3969.34
970.872	3956.01
971.174	3966.63
971.475	3944.71
971.776	3933.19
972.077	3905.84
972.378	3897.26
972.679	3825.39
972.98	3880.99
973.281	3823.59
973.582	3795.56
973.883	3817.94
974.183	3780.88
974.484	3770.25
974.785	3735.9
975.085	3742.46
975.386	3716.92
975.686	3733.87
975.986	3684.15
976.287	3634.66
976.587	3627.21
976.887	3652.29
977.187	3575
977.487	3608.45
977.787	3573.65
978.087	3553.31
978.387	3575.46
978.687	3559.64
978.987	3503.37
979.286	3513.09
979.586	3486.65
979.885	3478.51
980.185	3454.1
980.484	3464.73
980.784	3456.59
981.083	3389.02
981.382	3405.52
981.682	3400.77
981.981	3384.5
982.28	3341.79
982.579	3369.13
982.878	3320.77
983.177	3301.34
983.475	3268.57
983.774	3267.44
984.073	3256.37
984.372	3220.89
984.67	3239.42
984.969	3232.19
985.267	3187.9
985.566	3209.82
985.864	3145.86
986.162	3182.7
986.461	3139.08
986.759	3107.22
987.057	3101.35
987.355	3070.61
987.653	3096.6
987.951	3083.49
988.249	3054.79
988.547	3007.11
988.844	3036.94
989.142	2994.91
989.44	2970.5
989.737	2999.65
990.035	2959.88
990.332	2936.15
990.63	2943.16
990.927	2939.99
991.224	2914.01
991.521	2908.81
991.819	2879.66
992.116	2898.41
992.413	2881.46
992.71	2838.75
993.006	2819.77
993.303	2816.61
993.6	2865.19
993.897	2799.43
994.193	2777.29
994.49	2751.52
994.787	2776.16
995.083	2699.77
995.379	2740.45
995.676	2735.25
995.972	2729.15
996.268	2701.81
996.565	2646.67
996.861	2665.42
997.157	2649.61
997.453	2652.77
997.749	2610.74
998.044	2580.91
998.34	2587.46
998.636	2582.49
998.932	2556.27
999.227	2563.96
999.523	2541.59
999.818	2516.5
1000.114	2534.58
1000.409	2508.59
1000.704	2487.35
1001	2458.2
1001.295	2436.5
1001.59	2401.25
1001.885	2416.62
1002.18	2413.91
1002.475	2390.18
1002.77	2413.45
1003.065	2333.68
1003.359	2353.57
1003.654	2366.9
1003.949	2353.79
1004.243	2350.86
1004.538	2334.13
1004.832	2281.48
1005.127	2254.81
1005.421	2280.12
1005.715	2281.71
1006.009	2242.16
1006.304	2276.28
1006.598	2252.78
1006.892	2190.41
1007.186	2219.11
1007.48	2168.26
1007.773	2178.43
1008.067	2166.23
1008.361	2120.81
1008.655	2137.53
1008.948	2086.23
1009.242	2123.97
1009.535	2096.17
1009.829	2096.85
1010.122	2065.67
1010.415	2099.34
1010.708	2044.88
1011.001	2045.55
1011.295	2003.29
1011.588	1986.8
1011.881	1998.1
1012.173	1973.24
1012.466	1984.76
1012.759	1961.94
1013.052	1963.52
1013.344	1942.96
1013.637	1959.68
1013.93	1929.62
1014.222	1923.97
1014.514	1895.28
1014.807	1876.74
1015.099	1889.17
1015.391	1864.99
1015.683	1864.99
1015.976	1834.49
1016.268	1822.28
1016.56	1785.45
1016.851	1811.21
1017.143	1799.01
1017.435	1792
1017.727	1751.32
1018.018	1763.53
1018.31	1785.45
1018.602	1745.9
1018.893	1712.45
1019.185	1709.07
1019.476	1705.68
1019.767	1700.7
1020.058	1700.03
1020.35	1677.88
1020.641	1640.82
1020.932	1665.45
1021.223	1645.34
1021.514	1642.17
1021.804	1592.01
1022.095	1590.65
1022.386	1593.81
1022.677	1562.85
1022.967	1549.07
1023.258	1555.17
1023.548	1569.63
1023.839	1537.09
1024.129	1523.53
1024.419	1503.65
1024.709	1500.03
1025	1527.38
1025.29	1487.15
1025.58	1497.09
1025.87	1483.53
1026.16	1465.91
1026.449	1451.9
1026.739	1444.89
1027.029	1421.84
1027.319	1425.91
1027.608	1401.73
1027.898	1428.85
1028.187	1416.42
1028.477	1389.98
1028.766	1356.53
1029.055	1344.1
1029.344	1394.95
1029.634	1378
1029.923	1368.74
1030.212	1315.18
1030.501	1353.82
1030.79	1324.44
1031.078	1281.05
1031.367	1286.25
1031.656	1262.3
1031.945	1260.04
1032.233	1267.95
1032.522	1269.3
1032.81	1262.98
1033.099	1258.68
1033.387	1255.97
1033.675	1202.64
1033.963	1211.23
1034.251	1233.37
1034.54	1200.15
1034.828	1204.67
1035.116	1182.53
1035.403	1179.81
1035.691	1177.55
1035.979	1159.25
1036.267	1149.76
1036.554	1160.61
1036.842	1135.75
1037.129	1133.26
1037.417	1115.41
1037.704	1131.23
1037.992	1121.28
1038.279	1078.35
1038.566	1090.1
1038.853	1090.1
1039.14	1090.1
