Data from hue_190_FLMS001491_00004.txt Node
Date: Tue Feb 07 16:44:42 GMT 2017
User: dcchb
Spectrometer: FLMS00149
Trigger mode: 0
Integration Time (sec): 2.000000E-2
Scans to average: 10
Electric dark correction enabled: true
Nonlinearity correction enabled: false
Boxcar width: 0
XAxis mode: Wavelengths
Number of Pixels in Spectrum: 2048
>>>>>Begin Spectral Data<<<<<
341.393	-11.26
341.776	-11.26
342.16	-11.26
342.543	-41.76
342.927	-69.79
343.31	-86.51
343.693	-58.94
344.077	-43.12
344.46	-77.92
344.843	-60.52
345.226	-49.9
345.61	-41.31
345.993	-27.53
346.376	5.01
346.759	22.64
347.142	12.47
347.525	42.53
347.908	79.14
348.291	89.53
348.674	88.18
349.057	106.25
349.44	121.62
349.823	161.17
350.206	158.23
350.588	192.58
350.971	193.94
351.354	252.92
351.737	226.48
352.119	265.57
352.502	266.48
352.884	282.29
353.267	297.89
353.65	289.53
354.032	318.45
354.414	316.64
354.797	318.68
355.179	316.42
355.562	334.04
355.944	307.6
356.326	350.99
356.709	345.8
357.091	333.82
357.473	349.64
357.855	342.86
358.238	358.9
358.62	348.73
359.002	346.47
359.384	355.29
359.766	351.67
360.148	349.19
360.53	330.88
360.912	327.49
361.294	353.93
361.676	343.54
362.057	317.55
362.439	322.97
362.821	328.17
363.203	346.7
363.584	320.49
363.966	327.72
364.348	327.27
364.729	327.27
365.111	327.49
365.493	316.19
365.874	327.49
366.256	316.42
366.637	314.61
367.019	317.55
367.4	291.33
367.781	308.96
368.163	301.5
368.544	318.45
368.925	317.55
369.306	308.73
369.688	324.55
370.069	311.22
370.45	326.14
370.831	318.23
371.212	324.33
371.593	307.38
371.974	308.28
372.355	325.68
372.736	313.48
373.117	315.74
373.498	322.75
373.879	306.02
374.26	325.91
374.641	324.55
375.021	317.77
375.402	305.8
375.783	336.3
376.163	306.93
376.544	314.16
376.925	336.53
377.305	332.01
377.686	355.51
378.066	326.36
378.447	343.31
378.827	330.43
379.208	335.17
379.588	347.38
379.968	347.15
380.349	338.79
380.729	333.82
381.109	322.75
381.489	316.87
381.87	335.85
382.25	347.6
382.63	337.66
383.01	314.38
383.39	342.41
383.77	347.6
384.15	336.53
384.53	345.12
384.91	358
385.29	356.19
385.67	354.84
386.049	352.58
386.429	361.16
386.809	346.93
387.189	362.97
387.568	364.33
387.948	360.94
388.328	388.05
388.707	350.99
389.087	337.43
389.466	355.06
389.846	363.42
390.225	358.45
390.605	376.76
390.984	359.13
391.363	354.84
391.743	378.79
392.122	369.98
392.501	380.82
392.881	381.73
393.26	369.98
393.639	379.24
394.018	350.77
394.397	386.7
394.776	390.77
395.155	381.95
395.534	388.51
395.913	371.33
396.292	408.39
396.671	400.48
397.05	390.99
397.429	387.6
397.808	373.14
398.186	410.43
398.565	381.5
398.944	412.01
399.323	386.47
399.701	394.83
400.08	422.18
400.458	407.49
400.837	409.07
401.215	418.56
401.594	415.62
401.972	401.84
402.351	409.52
402.729	418.79
403.107	426.25
403.486	426.02
403.864	419.69
404.242	438.67
404.62	425.79
404.999	428.96
405.377	456.08
405.755	423.76
406.133	462.86
406.511	462.63
406.889	461.5
407.267	450.88
407.645	459.47
408.023	473.25
408.401	481.39
408.779	476.41
409.156	472.8
409.534	500.14
409.912	506.02
410.29	501.5
410.667	520.93
411.045	529.97
411.422	543.08
411.8	543.3
412.178	554.83
412.555	560.48
412.933	555.96
413.31	550.54
413.687	573.59
414.065	569.07
414.442	597.77
414.819	612
415.197	621.04
415.574	614.72
415.951	622.17
416.328	630.31
416.705	644.55
417.082	640.48
417.46	652.45
417.837	645.45
418.214	686.13
418.591	680.7
418.967	694.04
419.344	685.45
419.721	721.61
420.098	724.54
420.475	721.61
420.852	734.94
421.228	741.04
421.605	751.21
421.982	765.45
422.358	792.11
422.735	800.02
423.111	804.32
423.488	823.3
423.864	828.5
424.241	855.61
424.617	876.86
424.994	864.43
425.37	878.66
425.746	889.74
426.123	922.28
426.499	922.73
426.875	921.6
427.251	956.4
427.627	944.65
428.003	994.82
428.379	999.79
428.756	981.49
429.132	1006.12
429.507	1014.7
429.883	1029.62
430.259	1044.99
430.635	1056.96
431.011	1082.73
431.387	1090.86
431.763	1096.74
432.138	1099.9
432.514	1130.86
432.89	1142.16
433.265	1181.03
433.641	1200.69
434.016	1196.4
434.392	1196.17
434.767	1242.04
435.143	1261.93
435.518	1292.66
435.894	1274.13
436.269	1319.1
436.644	1358.88
437.02	1377.63
437.395	1381.02
437.77	1405.43
438.145	1435.03
438.52	1456.5
438.895	1478.87
439.271	1480.68
439.646	1541.7
440.021	1554.58
440.395	1547.8
440.77	1562.49
441.145	1622.15
441.52	1623.05
441.895	1630.28
442.27	1647.23
442.645	1703.05
443.019	1717.06
443.394	1722.71
443.769	1732.88
444.143	1752.09
444.518	1770.39
444.892	1776.72
445.267	1825.76
445.641	1815.81
446.016	1812.65
446.39	1839.77
446.764	1858.3
447.139	1882.48
447.513	1865.53
447.887	1886.55
448.262	1899.2
448.636	1907.34
449.01	1948.24
449.384	1963.38
449.758	1962.48
450.132	1984.4
450.506	2018.52
450.88	2034.57
451.254	2023.27
451.628	2072.08
452.002	2111.85
452.376	2087.67
452.75	2130.61
453.123	2132.64
453.497	2177.84
453.871	2192.53
454.244	2213.77
454.618	2260.55
454.992	2271.4
455.365	2292.86
455.739	2331.51
456.112	2379.64
456.486	2397.04
456.859	2418.51
457.232	2475.91
457.606	2440.88
457.979	2479.75
458.352	2536.7
458.725	2543.03
459.099	2600.65
459.472	2644.27
459.845	2658.05
460.218	2666.41
460.591	2710.48
460.964	2715.45
461.337	2779.86
461.71	2821.21
462.083	2862.57
462.456	2863.24
462.829	2895.56
463.201	2954.99
463.574	2974.65
463.947	3020.75
464.32	3081.54
464.692	3081.54
465.065	3100.98
465.438	3168.09
465.81	3199.28
466.183	3276.79
466.555	3300.75
466.928	3321.31
467.3	3353.63
467.672	3410.8
468.045	3463.45
468.417	3495.54
468.789	3533.51
469.161	3571.25
469.534	3633.62
469.906	3695.54
470.278	3728.76
470.65	3780.28
471.022	3873.39
471.394	3928.07
471.766	3910.45
472.138	3956.77
472.51	4075.64
472.882	4115.19
473.253	4249.42
473.625	4271.57
473.997	4342.08
474.369	4385.69
474.74	4423.88
475.112	4495.97
475.484	4563.31
475.855	4653.48
476.227	4668.85
476.598	4838.56
476.97	4874.04
477.341	4987.93
477.713	5079.68
478.084	5090.98
478.455	5247.81
478.827	5303.41
479.198	5424.53
479.569	5405.32
479.94	5602.83
480.311	5623.85
480.682	5764.86
481.053	5920.11
481.424	6000.34
481.795	6079.43
482.166	6128.92
482.537	6195.13
482.908	6356.26
483.279	6450.95
483.65	6511.28
484.021	6663.14
484.391	6775.46
484.762	6813.65
485.133	6889.13
485.503	6940.2
485.874	7109.46
486.244	7234.43
486.615	7315.78
486.985	7392.62
487.356	7446.85
487.726	7624.7
488.097	7771.59
488.467	7756.9
488.837	7960.96
489.207	8006.84
489.578	8146.95
489.948	8253.16
490.318	8278.92
490.688	8323.21
491.058	8466.26
491.428	8583.32
491.798	8625.35
492.168	8762.07
492.538	8838.91
492.908	8936.53
493.278	8983.08
493.648	9131.1
494.017	9174.94
494.387	9222.17
494.757	9231.21
495.126	9423.52
495.496	9375.84
495.866	9481.83
496.235	9530.64
496.605	9596.85
496.974	9633.91
497.344	9690.18
497.713	9774.93
498.082	9830.74
498.452	9951.65
498.821	9928.59
499.19	9944.19
499.559	10017.86
499.928	10100.12
500.298	10114.58
500.667	10202.26
501.036	10143.5
501.405	10253.11
501.774	10218.98
502.143	10313.9
502.512	10362.93
502.88	10411.52
503.249	10416.27
503.618	10465.08
503.987	10477.06
504.356	10496.72
504.724	10617.39
505.093	10577.39
505.462	10566.77
505.83	10685.64
506.199	10723.83
506.567	10773.09
506.936	10714.11
507.304	10844.73
507.672	10882.47
508.041	10834.11
508.409	10944.16
508.777	11017.38
509.145	10959.98
509.514	10970.6
509.882	10959.53
510.25	11006.53
510.618	11038.17
510.986	10987.1
511.354	11042.46
511.722	11143.93
512.09	11226.19
512.458	11125.4
512.826	11146.64
513.193	11237.49
513.561	11160.2
513.929	11260.09
514.297	11270.48
514.664	11265.28
515.032	11302.12
515.4	11309.58
515.767	11277.26
516.135	11272.51
516.502	11213.53
516.869	11423.47
517.237	11344.38
517.604	11263.48
517.972	11354.09
518.339	11399.29
518.706	11278.39
519.073	11291.27
519.44	11340.76
519.808	11388.9
520.175	11265.06
520.542	11461.89
520.909	11433.19
521.276	11399.29
521.643	11432.74
522.009	11445.39
522.376	11420.53
522.743	11465.96
523.11	11539.4
523.477	11556.8
523.843	11550.02
524.21	11558.61
524.577	11584.37
524.943	11492.17
525.31	11507.76
525.676	11523.36
526.043	11550.02
526.409	11547.31
526.776	11548.44
527.142	11543.02
527.508	11558.61
527.874	11528.33
528.241	11512.28
528.607	11430.93
528.973	11479.29
529.339	11345.96
529.705	11508.89
530.071	11442.23
530.437	11437.71
530.803	11433.41
531.169	11424.6
531.535	11369.69
531.901	11292.63
532.267	11286.53
532.632	11272.29
532.998	11222.12
533.364	11218.28
533.73	11129.47
534.095	11188.22
534.461	11217.83
534.826	11004.5
535.192	11150.48
535.557	11031.84
535.923	10956.14
536.288	10957.27
536.653	10933.09
537.019	10862.13
537.384	10776.93
537.749	10820.55
538.114	10744.84
538.479	10626.88
538.845	10648.58
539.21	10554.57
539.575	10499.65
539.94	10477.51
540.305	10439.54
540.67	10377.17
541.034	10308.25
541.399	10310.51
541.764	10206.1
542.129	10160
542.494	10158.19
542.858	10200
543.223	10044.07
543.587	10039.55
543.952	9964.3
544.316	9961.81
544.681	9851.99
545.045	9841.37
545.41	9763.63
545.774	9801.59
546.138	9739
546.503	9595.04
546.867	9595.72
547.231	9597.3
547.595	9517.98
547.959	9511.66
548.324	9463.3
548.688	9386.69
549.052	9387.37
549.416	9245
549.779	9283.87
550.143	9261.49
550.507	9129.52
550.871	9114.38
551.235	9049.75
551.599	9057.43
551.962	8976.53
552.326	8949.19
552.689	8940.6
553.053	8806.36
553.417	8862.63
553.78	8879.81
554.143	8725.69
554.507	8776.53
554.87	8662.41
555.234	8740.15
555.597	8638.91
555.96	8578.12
556.323	8605.92
556.686	8559.37
557.05	8527.05
557.413	8536.99
557.776	8457.67
558.139	8418.35
558.502	8392.14
558.865	8373.38
559.228	8407.05
559.59	8401.18
559.953	8362.99
560.316	8388.52
560.679	8356.88
561.041	8279.6
561.404	8242.54
561.767	8339.26
562.129	8216.32
562.492	8269.66
562.854	8256.32
563.217	8190.79
563.579	8194.63
563.941	8292.71
564.304	8241.86
564.666	8240.96
565.028	8184.91
565.39	8200.05
565.753	8145.59
566.115	8164.8
566.477	8177.91
566.839	8148.53
567.201	8155.08
567.563	8098.59
567.925	8230.56
568.287	8145.59
568.648	8196.21
569.01	8173.84
569.372	8113.05
569.734	8121.18
570.095	8125.7
570.457	8205.25
570.819	8154.86
571.18	8099.26
571.542	8127.51
571.903	8125.03
572.265	8083.67
572.626	8159.83
572.987	8081.19
573.349	8106.5
573.71	8145.59
574.071	8111.92
574.432	8150.11
574.794	8140.39
575.155	8100.62
575.516	8094.29
575.877	8091.13
576.238	8085.48
576.599	8143.78
576.96	8097.46
577.32	8067.85
577.681	8058.36
578.042	8061.75
578.403	8085.93
578.763	8058.59
579.124	8113.28
579.485	8138.81
579.845	8099.94
580.206	8020.62
580.566	8007.06
580.927	8053.39
581.287	8115.08
581.648	8044.12
582.008	8019.49
582.368	8049.55
582.728	8003.9
583.089	8044.35
583.449	7998.93
583.809	8018.59
584.169	8026.05
584.529	8001.19
584.889	7987.4
585.249	7978.82
585.609	7925.03
585.969	7963.9
586.329	7885.26
586.688	7945.6
587.048	7857.24
587.408	7870.34
587.768	7904.92
588.127	7844.13
588.487	7862.43
588.846	7916.44
589.206	7824.7
589.565	7760.06
589.925	7804.81
590.284	7769.56
590.643	7831.93
591.003	7870.34
591.362	7853.17
591.721	7757.13
592.08	7787.86
592.44	7850.01
592.799	7797.58
593.158	7760.74
593.517	7725.49
593.876	7762.32
594.235	7732.04
594.593	7806.39
594.952	7741.99
595.311	7720.29
595.67	7718.94
596.029	7774.98
596.387	7770.23
596.746	7733.17
597.104	7595.55
597.463	7694.3
597.822	7724.81
598.18	7613.18
598.538	7658.37
598.897	7722.1
599.255	7595.55
599.613	7723.23
599.972	7614.31
600.33	7637.58
600.688	7609.79
601.046	7671.03
601.404	7639.16
601.762	7605.49
602.12	7652.72
602.478	7597.36
602.836	7619.05
603.194	7572.5
603.552	7633.29
603.91	7573.85
604.268	7638.26
604.625	7562.33
604.983	7583.8
605.341	7630.8
605.698	7598.49
606.056	7676.9
606.413	7639.62
606.771	7686.85
607.128	7671.48
607.485	7555.1
607.843	7611.14
608.2	7650.24
608.557	7640.75
608.914	7574.08
609.272	7654.08
609.629	7609.33
609.986	7603.46
610.343	7595.32
610.7	7666.06
611.057	7713.74
611.414	7651.82
611.771	7611.37
612.127	7686.62
612.484	7584.25
612.841	7668.77
613.198	7658.15
613.554	7628.99
613.911	7686.39
614.267	7671.71
614.624	7607.07
614.98	7644.36
615.337	7735.21
615.693	7734.08
616.05	7662.89
616.406	7710.57
616.762	7674.19
617.118	7695.66
617.475	7708.77
617.831	7651.14
618.187	7738.37
618.543	7710.12
618.899	7743.79
619.255	7717.58
619.611	7752.38
619.967	7799.84
620.323	7713.74
620.678	7671.48
621.034	7719.39
621.39	7701.31
621.746	7675.09
622.101	7780.85
622.457	7767.97
622.812	7793.51
623.168	7803.23
623.523	7741.53
623.879	7766.39
624.234	7716.9
624.589	7732.72
624.945	7767.07
625.3	7744.7
625.655	7712.16
626.01	7728.65
626.365	7760.52
626.72	7687.3
627.075	7716.68
627.43	7745.83
627.785	7750.57
628.14	7693.85
628.495	7700.4
628.85	7683.23
629.205	7716.45
629.559	7692.72
629.914	7663.8
630.269	7613.85
630.623	7635.77
630.978	7608.88
631.332	7656.34
631.687	7705.83
632.041	7639.84
632.396	7596.68
632.75	7618.83
633.104	7630.12
633.459	7620.18
633.813	7547.64
634.167	7579.73
634.521	7652.04
634.875	7560.97
635.229	7587.64
635.583	7518.26
635.937	7490.47
636.291	7502.67
636.645	7519.17
636.999	7525.95
637.352	7451.82
637.706	7470.35
638.06	7440.07
638.413	7435.55
638.767	7452.95
639.121	7467.19
639.474	7426.06
639.828	7457.47
640.181	7365.05
640.534	7425.38
640.888	7347.65
641.241	7351.49
641.594	7387.87
641.947	7393.75
642.301	7391.03
642.654	7405.95
643.007	7380.19
643.36	7363.69
643.713	7346.97
644.066	7360.53
644.419	7324.82
644.771	7270.81
645.124	7225.62
645.477	7210.02
645.83	7164.37
646.182	7096.58
646.535	7070.59
646.888	7169.35
647.24	7106.07
647.593	7121.89
647.945	7085.28
648.298	7151.49
648.65	7106.07
649.002	7089.35
649.355	7081.66
649.707	7087.54
650.059	7163.24
650.411	7202.79
650.763	7282.34
651.115	7302.9
651.467	7261.77
651.819	7332.28
652.171	7289.12
652.523	7222.9
652.875	7356.23
653.227	7276.46
653.578	7334.99
653.93	7255.9
654.282	7261.32
654.633	7252.96
654.985	7248.89
655.337	7269
655.688	7289.57
656.039	7347.65
656.391	7202.34
656.742	7317.59
657.094	7309.23
657.445	7342.9
657.796	7339.51
658.147	7284.14
658.498	7299.51
658.849	7337.93
659.2	7306.52
659.551	7343.13
659.902	7326.86
660.253	7362.33
660.604	7348.78
660.955	7323.47
661.306	7314.88
661.656	7367.31
662.007	7391.49
662.358	7326.86
662.708	7387.42
663.059	7304.03
663.409	7352.39
663.76	7365.27
664.11	7361.2
664.461	7341.54
664.811	7430.58
665.161	7376.35
665.511	7408.21
665.862	7394.65
666.212	7389.45
666.562	7401.88
666.912	7413.63
667.262	7363.01
667.612	7379.28
667.962	7361.2
668.312	7344.93
668.662	7378.83
669.011	7384.48
669.361	7407.08
669.711	7371.6
670.06	7354.88
670.41	7402.79
670.76	7306.97
671.109	7369.34
671.459	7288.66
671.808	7283.92
672.157	7374.54
672.507	7324.14
672.856	7336.35
673.205	7340.41
673.554	7379.74
673.904	7316.69
674.253	7383.13
674.602	7336.12
674.951	7250.47
675.3	7210.47
675.649	7278.27
675.998	7309.91
676.346	7254.31
676.695	7298.83
677.044	7251.83
677.393	7247.08
677.741	7219.29
678.09	7171.83
678.438	7249.34
678.787	7258.83
679.135	7191.27
679.484	7220.87
679.832	7158.27
680.181	7204.82
680.529	7173.87
680.877	7146.52
681.225	7116.47
681.573	7176.35
681.922	7121.66
682.27	7115.34
682.618	7116.69
682.966	7109.23
683.314	7092.96
683.661	7117.6
684.009	6993.53
684.357	6939.52
684.705	6952.18
685.053	6976.81
685.4	7009.35
685.748	6946.53
686.095	6955.11
686.443	6870.82
686.79	6852.52
687.138	6892.74
687.485	6899.75
687.832	6853.42
688.18	6884.16
688.527	6752.18
688.874	6871.73
689.221	6809.81
689.568	6736.36
689.915	6737.49
690.262	6738.17
690.609	6742.92
690.956	6661.11
691.303	6644.61
691.65	6651.39
691.997	6724.39
692.344	6631.05
692.69	6607.55
693.037	6635.35
693.383	6506.99
693.73	6501.34
694.077	6506.09
694.423	6481.45
694.769	6430.83
695.116	6396.48
695.462	6431.74
695.808	6394.68
696.155	6425.64
696.501	6309.93
696.847	6297.28
697.193	6311.06
697.539	6307
697.885	6216.83
698.231	6255.7
698.577	6263.15
698.923	6240.56
699.269	6197.39
699.614	6172.31
699.96	6089.15
700.306	6080.56
700.651	6044.86
700.997	6077.17
701.342	6033.1
701.688	6008.7
702.033	5993.56
702.379	5981.58
702.724	5980
703.069	5943.61
703.415	5907.91
703.76	5881.47
704.105	5851.64
704.45	5830.4
704.795	5815.03
705.14	5815.03
705.485	5753.34
705.83	5749.5
706.175	5756.95
706.52	5758.54
706.865	5709.04
707.209	5669.27
707.554	5645.77
707.899	5650.97
708.243	5688.25
708.588	5645.54
708.932	5589.27
709.277	5610.06
709.621	5619.1
709.966	5548.15
710.31	5535.26
710.654	5572.78
710.998	5521.03
711.342	5544.98
711.687	5554.7
712.031	5486.9
712.375	5506.11
712.719	5475.38
713.063	5416.85
713.407	5458.66
713.75	5434.93
714.094	5406.91
714.438	5392.44
714.782	5404.87
715.125	5406.91
715.469	5399.22
715.812	5399.9
716.156	5355.38
716.499	5319.22
716.843	5342.5
717.186	5309.73
717.53	5377.3
717.873	5359.45
718.216	5294.82
718.559	5290.98
718.902	5245.1
719.246	5328.49
719.589	5263.18
719.932	5295.5
720.275	5265.44
720.617	5281.49
720.96	5234.48
721.303	5245.1
721.646	5266.57
721.989	5283.07
722.331	5227.93
722.674	5222.28
723.016	5218.66
723.359	5203.75
723.701	5204.65
724.044	5229.51
724.386	5178.44
724.729	5203.3
725.071	5165.56
725.413	5207.14
725.755	5193.8
726.097	5171.66
726.439	5153.13
726.782	5153.35
727.124	5261.82
727.465	5169.62
727.807	5130.3
728.149	5158.78
728.491	5150.42
728.833	5151.77
729.175	5169.85
729.516	5193.58
729.858	5152.68
730.199	5207.82
730.541	5138.89
730.882	5149.74
731.224	5182.5
731.565	5128.27
731.906	5085.78
732.248	5157.19
732.589	5130.3
732.93	5101.83
733.271	5146.35
733.612	5180.47
733.953	5222.5
734.294	5130.3
734.635	5143.41
734.976	5178.66
735.317	5171.21
735.658	5182.96
735.999	5165.1
736.339	5232.9
736.68	5269.96
737.021	5194.03
737.361	5186.57
737.702	5215.05
738.042	5200.58
738.383	5232.9
738.723	5270.64
739.063	5239.23
739.404	5283.07
739.744	5238.1
740.084	5252.33
740.424	5274.93
740.764	5319.9
741.104	5322.16
741.444	5301.37
741.784	5322.39
742.124	5315.83
742.464	5335.27
742.804	5354.48
743.143	5443.06
743.483	5436.51
743.823	5413.69
744.162	5473.34
744.502	5494.81
744.841	5497.75
745.181	5552.44
745.52	5590.4
745.86	5606.67
746.199	5665.2
746.538	5687.58
746.877	5716.28
747.216	5766.44
747.556	5773.68
747.895	5822.49
748.234	5864.07
748.573	5888.7
748.911	5945.2
749.25	6045.53
749.589	6041.69
749.928	6168.69
750.267	6250.5
750.605	6275.13
750.944	6314.23
751.283	6401.91
751.621	6510.38
751.96	6512.19
752.298	6691.62
752.636	6727.78
752.975	6824.72
753.313	6891.84
753.651	6964.38
753.989	7102
754.327	7254.99
754.666	7328.89
755.004	7420.41
755.342	7600.97
755.679	7736.11
756.017	7882.77
756.355	8016.1
756.693	8052.26
757.031	8256.55
757.368	8366.83
757.706	8500.16
758.044	8618.12
758.381	8783.77
758.719	8975.85
759.056	9136.53
759.394	9262.85
759.731	9370.87
760.068	9622.16
760.405	9700.58
760.743	9876.17
761.08	10090.62
761.417	10299.88
761.754	10481.12
762.091	10620.33
762.428	10779.87
762.765	10966.99
763.102	11206.75
763.438	11287.66
763.775	11519.74
764.112	11677.48
764.449	11850.8
764.785	12074.98
765.122	12161.76
765.458	12316.33
765.795	12502.31
766.131	12616.21
766.467	12802.19
766.804	12923.32
767.14	13139.36
767.476	13347.94
767.812	13411.67
768.148	13619.35
768.485	13756.06
768.821	13840.81
769.157	14077.41
769.492	14158.54
769.828	14388.14
770.164	14356.95
770.5	14566.89
770.836	14569.6
771.171	14762.37
771.507	14868.8
771.842	14949.93
772.178	15125.07
772.513	15128.23
772.849	15401.9
773.184	15307.66
773.519	15475.34
773.855	15515.34
774.19	15583.81
774.525	15804.82
774.86	15832.39
775.195	15851.83
775.53	15984.03
775.865	15920.75
776.2	16006.4
776.535	16031.71
776.87	16108.09
777.205	16221.76
777.539	16236
777.874	16355.77
778.209	16241.88
778.543	16322.55
778.878	16348.77
779.212	16403.68
779.547	16441.64
779.881	16579.72
780.215	16539.49
780.55	16659.27
780.884	16520.51
781.218	16681.41
781.552	16712.6
781.886	16641.64
782.22	16658.14
782.554	16689.55
782.888	16571.36
783.222	16636.44
783.556	16633.96
783.889	16680.28
784.223	16532.04
784.557	16661.75
784.89	16685.93
785.224	16676.89
785.557	16570
785.891	16665.82
786.224	16574.97
786.558	16602.77
786.891	16564.58
787.224	16445.94
787.557	16579.04
787.891	16565.03
788.224	16542.66
788.557	16626.72
788.89	16579.72
789.223	16619.94
789.556	16544.69
789.888	16464.92
790.221	16517.12
790.554	16463.56
790.887	16456.33
791.219	16364.13
791.552	16394.41
791.884	16354.41
792.217	16308.77
792.549	16282.1
792.882	16245.26
793.214	16210.69
793.546	16284.81
793.879	16158.71
794.211	16141.76
794.543	16201.2
794.875	16085.95
795.207	16299.5
795.539	16128.21
795.871	16180.41
796.203	15973.41
796.535	15993.97
796.867	15954.88
797.198	15972.28
797.53	15902
797.862	15858.61
798.193	15889.57
798.525	15735.67
798.856	15787.88
799.188	15686.41
799.519	15725.28
799.85	15537.71
800.182	15661.55
800.513	15645.05
800.844	15532.06
801.175	15599.63
801.506	15526.41
801.837	15490.93
802.168	15372.97
802.499	15338.62
802.83	15454.55
803.161	15312.86
803.491	15420.2
803.822	15395.57
804.153	15292.97
804.483	15176.14
804.814	15204.16
805.145	15148.8
805.475	15080.55
805.805	15054.34
806.136	14999.42
806.466	15033.77
806.796	14984.73
807.126	14876.04
807.457	14824.74
807.787	14957.39
808.117	14866.09
808.447	14831.52
808.777	14784.29
809.107	14791.74
809.436	14763.95
809.766	14782.48
810.096	14696.15
810.426	14651.63
810.755	14589.49
811.085	14623.39
811.414	14600.11
811.744	14480.34
812.073	14493.67
812.403	14530.96
812.732	14407.35
813.061	14470.62
813.39	14339.1
813.719	14391.98
814.049	14398.08
814.378	14402.6
814.707	14229.72
815.036	14287.58
815.365	14193.34
815.693	14167.13
816.022	14119.22
816.351	14178.65
816.68	14085.1
817.008	14017.07
817.337	13973.01
817.665	14000.58
817.994	14052.78
818.322	13966.45
818.651	13832.67
818.979	13877.19
819.307	13937.53
819.636	13876.06
819.964	13863.63
820.292	13872.45
820.62	13889.85
820.948	13876.51
821.276	13880.81
821.604	13834.71
821.932	13764.88
822.259	13811.2
822.587	13902.73
822.915	13768.72
823.243	13833.35
823.57	13783.63
823.898	13741.15
824.225	13751.77
824.553	13711.09
824.88	13722.39
825.207	13830.87
825.535	13830.64
825.862	13880.81
826.189	13821.15
826.516	13867.47
826.843	13843.52
827.17	13871.09
827.497	13835.84
827.824	13902.05
828.151	13857.31
828.478	13799
828.805	14006.23
829.131	13867.02
829.458	13865.21
829.785	13756.06
830.111	13811.2
830.438	13855.27
830.764	13917.42
831.09	13953.35
831.417	13871.32
831.743	13772.34
832.069	13893.01
832.395	13772.56
832.722	13859.56
833.048	13812.56
833.374	13710.87
833.7	13672.45
834.026	13725.33
834.351	13731.66
834.677	13735.95
835.003	13734.82
835.329	13749.74
835.654	13752
835.98	13623.19
836.306	13711.32
836.631	13659.34
836.956	13684.65
837.282	13635.39
837.607	13598.55
837.932	13634.26
838.258	13668.38
838.583	13577.09
838.908	13495.05
839.233	13536.86
839.558	13578.44
839.883	13459.8
840.208	13454.38
840.533	13484.43
840.858	13420.03
841.182	13414.15
841.507	13389.29
841.832	13352.01
842.156	13317.88
842.481	13256.87
842.805	13247.15
843.13	13208.06
843.454	13207.15
843.778	13171.45
844.103	13169.19
844.427	13099.13
844.751	13156.31
845.075	13074.05
845.399	12936.88
845.723	13005.8
846.047	12997.89
846.371	12901.17
846.695	12961.74
847.019	12842.42
847.343	12782.53
847.666	12667.05
847.99	12671.57
848.313	12596.1
848.637	12584.12
848.96	12519.49
849.284	12504.35
849.607	12444.69
849.931	12350.68
850.254	12253.96
850.577	12278.36
850.9	12158.37
851.223	12113.4
851.546	12090.8
851.869	11950.01
852.192	12039.05
852.515	11892.39
852.838	11915.44
853.161	11907.98
853.483	11876.11
853.806	11745.72
854.129	11769.9
854.451	11696.91
854.774	11610.81
855.096	11603.13
855.419	11642.22
855.741	11587.99
856.063	11517.03
856.385	11486.97
856.708	11461.44
857.03	11437.03
857.352	11428.67
857.674	11370.82
857.996	11307.32
858.318	11239.29
858.64	11291.27
858.961	11180.99
859.283	11157.72
859.605	11127.66
859.926	11185.74
860.248	11030.94
860.57	11146.64
860.891	11045.18
861.212	11008.57
861.534	11071.39
861.855	10954.33
862.176	10967.21
862.498	10946.42
862.819	10952.52
863.14	10872.07
863.461	10887.44
863.782	10814.9
864.103	10884.95
864.424	10770.61
864.745	10863.94
865.065	10748.46
865.386	10689.25
865.707	10721.34
866.027	10686.32
866.348	10662.36
866.668	10758.86
866.989	10636.6
867.309	10571.06
867.63	10683.38
867.95	10643.6
868.27	10499.65
868.59	10555.25
868.91	10587.56
869.23	10491.52
869.55	10476.6
869.87	10495.81
870.19	10446.32
870.51	10508.24
870.83	10472.08
871.15	10458.98
871.469	10450.39
871.789	10439.09
872.109	10387.34
872.428	10412.2
872.748	10367.68
873.067	10315.25
873.386	10361.8
873.706	10314.57
874.025	10278.87
874.344	10299.66
874.663	10341.24
874.982	10230.73
875.301	10221.02
875.62	10211.75
875.939	10196.16
876.258	10235.93
876.577	10062.83
876.896	10205.65
877.214	10106.67
877.533	10149.61
877.852	10080.68
878.17	10099.44
878.489	10045.2
878.807	10043.85
879.125	10048.14
879.444	10045.88
879.762	10016.73
880.08	9990.74
880.398	9937.41
880.716	9941.02
881.034	9910.29
881.352	9921.14
881.67	9881.14
881.988	9871.87
882.306	9837.3
882.624	9852.89
882.941	9739
883.259	9757.3
883.577	9825.77
883.894	9790.29
884.212	9699
884.529	9657.87
884.846	9699.22
885.164	9623.52
885.481	9645.21
885.798	9659.9
886.115	9626
886.432	9555.5
886.75	9495.16
887.067	9582.39
887.383	9457.65
887.7	9583.07
888.017	9477.53
888.334	9453.13
888.651	9375.16
888.967	9379.91
889.284	9348.95
889.6	9315.05
889.917	9303.53
890.233	9286.8
890.55	9247.48
890.866	9230.99
891.182	9207.26
891.498	9090.88
891.815	9095.4
892.131	9118.67
892.447	9125.45
892.763	9087.49
893.079	9013.59
893.395	8965.68
893.71	8929.53
894.026	8930.43
894.342	8949.41
894.657	8896.98
894.973	8857.89
895.289	8885.91
895.604	8819.92
895.92	8809.98
896.235	8720.27
896.55	8731.79
896.865	8673.03
897.181	8637.1
897.496	8618.12
897.811	8581.06
898.126	8542.42
898.441	8495.64
898.756	8552.36
899.071	8399.6
899.386	8442.76
899.7	8407.96
900.015	8395.75
900.33	8295.87
900.644	8286.83
900.959	8271.24
901.273	8216.55
901.588	8206.15
901.902	8135.42
902.216	8168.42
902.531	8171.13
902.845	8084.58
903.159	8027.85
903.473	8033.96
903.787	8000.96
904.101	8005.93
904.415	7953.73
904.729	8002.54
905.042	7858.82
905.356	7859.04
905.67	7862.43
905.984	7813.85
906.297	7797.58
906.611	7710.12
906.924	7703.79
907.237	7663.8
907.551	7622.21
907.864	7566.85
908.177	7604.81
908.491	7577.24
908.804	7503.12
909.117	7486.85
909.43	7426.74
909.743	7367.98
910.056	7395.33
910.368	7362.56
910.681	7325.73
910.994	7303.35
911.307	7231.04
911.619	7229.23
911.932	7171.38
912.244	7180.42
912.557	7144.49
912.869	7090.48
913.181	7115.56
913.494	7030.14
913.806	7044.38
914.118	7015.23
914.43	6926.87
914.742	7024.26
915.054	6956.24
915.366	6870.82
915.678	6886.41
915.99	6882.35
916.302	6813.65
916.613	6739.53
916.925	6818.85
917.236	6754.44
917.548	6644.39
917.859	6732.97
918.171	6655.91
918.482	6650.26
918.794	6601.22
919.105	6623.82
919.416	6499.76
919.727	6517.61
920.038	6501.11
920.349	6426.77
920.66	6434.9
920.971	6439.42
921.282	6458.63
921.593	6359.2
921.903	6356.94
922.214	6306.54
922.525	6297.96
922.835	6304.51
923.146	6257.05
923.456	6190.84
923.767	6168.47
924.077	6184.51
924.387	6123.27
924.697	6154.68
925.008	6072.88
925.318	6064.74
925.628	6078.07
925.938	6045.76
926.248	5965.76
926.558	5971.64
926.867	5964.18
927.177	5925.31
927.487	5875.37
927.796	5832.66
928.106	5891.41
928.416	5815.03
928.725	5818.19
929.034	5720.12
929.344	5796.95
929.653	5780.46
929.962	5702.49
930.271	5659.78
930.581	5702.27
930.89	5636.96
931.199	5586.34
931.508	5576.84
931.817	5599.22
932.125	5538.43
932.434	5558.77
932.743	5517.86
933.051	5511.99
933.36	5473.8
933.669	5392.44
933.977	5443.06
934.286	5362.84
934.594	5383.63
934.902	5288.26
935.21	5325.55
935.519	5335.27
935.827	5344.31
936.135	5248.04
936.443	5249.62
936.751	5177.53
937.059	5196.29
937.367	5177.08
937.674	5181.15
937.982	5127.14
938.29	5132.11
938.597	5105.9
938.905	5075.84
939.213	5043.75
939.52	4996.3
939.827	5008.72
940.135	5012.57
940.442	4914.26
940.749	4938.67
941.056	4966.24
941.363	4908.39
941.67	4859.12
941.977	4823.87
942.284	4806.47
942.591	4839.92
942.898	4790.42
943.205	4744.32
943.511	4766.24
943.818	4688.73
944.125	4728.51
944.431	4689.41
944.738	4675.85
945.044	4669.3
945.35	4668.39
945.657	4521.51
945.963	4606.47
946.269	4513.82
946.575	4559.92
946.881	4560.15
947.187	4541.39
947.493	4522.64
947.799	4502.07
948.105	4470.21
948.41	4474.73
948.716	4460.26
949.022	4393.6
949.327	4388.18
949.633	4332.81
949.938	4367.84
950.244	4346.82
950.549	4308.86
950.854	4271.34
951.16	4276.31
951.465	4209.2
951.77	4237.45
952.075	4225.92
952.38	4167.16
952.685	4152.02
952.99	4163.77
953.294	4138.46
953.599	4107.05
953.904	4109.54
954.209	4102.53
954.513	4086.26
954.818	4056.88
955.122	4001.52
955.426	4019.37
955.731	4007.62
956.035	4013.5
956.339	3997.45
956.643	3967.62
956.948	3938.92
957.252	3905.7
957.556	3915.42
957.86	3881.3
958.163	3911.8
958.467	3851.92
958.771	3881.97
959.075	3795.87
959.378	3801.3
959.682	3806.04
959.985	3752.71
960.289	3785.25
960.592	3743.45
960.896	3732.37
961.199	3722.2
961.502	3689.44
961.805	3698.48
962.108	3648.08
962.411	3643.11
962.714	3624.81
963.017	3660.51
963.32	3613.51
963.623	3573.06
963.926	3530.57
964.228	3577.8
964.531	3524.47
964.833	3557.46
965.136	3497.8
965.438	3501.87
965.741	3456.67
966.043	3483.57
966.345	3464.58
966.648	3422.78
966.95	3424.59
967.252	3406.96
967.554	3399.05
967.856	3366.28
968.158	3345.04
968.46	3307.3
968.761	3324.02
969.063	3356.34
969.365	3314.53
969.666	3317.92
969.968	3267.3
970.269	3280.86
970.571	3277.7
970.872	3236.79
971.174	3251.48
971.475	3240.64
971.776	3181.2
972.077	3196.12
972.378	3185.27
972.679	3138.04
972.98	3153.86
973.281	3138.72
973.582	3119.06
973.883	3117.25
974.183	3114.99
974.484	3072.73
974.785	3105.72
975.085	3018.04
975.386	3063.46
975.686	3025.27
975.986	2977.37
976.287	2999.29
976.587	2966.97
976.887	2973.52
977.187	2985.5
977.487	2950.47
977.787	2925.84
978.087	2885.16
978.387	2935.33
978.687	2907.99
978.987	2921.1
979.286	2858.27
979.586	2830.25
979.885	2827.76
980.185	2827.31
980.484	2835.45
980.784	2813.98
981.083	2796.8
981.382	2747.99
981.682	2778.27
981.981	2772.4
982.28	2720.2
982.579	2737.37
982.878	2711.16
983.177	2689.01
983.475	2674.32
983.774	2714.1
984.073	2660.76
984.372	2676.13
984.67	2668.22
984.969	2622.8
985.267	2613.31
985.566	2630.48
985.864	2593.87
986.162	2599.07
986.461	2597.04
986.759	2563.59
987.057	2565.85
987.355	2499.41
987.653	2525.63
987.951	2530.15
988.249	2521.78
988.547	2495.12
988.844	2479.98
989.142	2471.39
989.44	2475.01
989.737	2448.57
990.035	2471.84
990.332	2420.77
990.63	2434.33
990.927	2389.36
991.224	2379.19
991.521	2383.03
991.819	2357.72
992.116	2370.6
992.413	2350.49
992.71	2342.13
993.006	2318.4
993.303	2325.18
993.6	2332.18
993.897	2336.93
994.193	2305.74
994.49	2253.77
994.787	2247.67
995.083	2231.4
995.379	2226.2
995.676	2235.92
995.972	2209.7
996.268	2208.35
996.565	2216.26
996.861	2181
997.157	2184.39
997.453	2162.25
997.749	2162.92
998.044	2167.67
998.34	2150.72
998.636	2121.79
998.932	2110.95
999.227	2118.4
999.523	2077.28
999.818	2090.61
1000.114	2096.03
1000.409	2070.27
1000.704	2038.63
1001	2015.81
1001.295	2012.64
1001.59	2065.52
1001.885	2033.66
1002.18	2019.2
1002.475	1989.82
1002.77	1989.14
1003.065	1972.87
1003.359	1968.8
1003.654	1951.86
1003.949	1935.81
1004.243	1900.78
1004.538	1884.06
1004.832	1905.98
1005.127	1889.94
1005.421	1868.47
1005.715	1877.51
1006.009	1854.46
1006.304	1851.97
1006.598	1840.9
1006.892	1835.93
1007.186	1809.94
1007.48	1815.14
1007.773	1800.67
1008.067	1774.46
1008.361	1760.45
1008.655	1752.31
1008.948	1739.21
1009.242	1755.02
1009.535	1738.3
1009.829	1712.99
1010.122	1694.91
1010.415	1704.63
1010.708	1669.15
1011.001	1715.03
1011.295	1671.18
1011.588	1643.16
1011.881	1664.63
1012.173	1640.45
1012.466	1673.22
1012.759	1614.01
1013.052	1657.17
1013.344	1623.28
1013.637	1614.69
1013.93	1568.59
1014.222	1575.82
1014.514	1574.24
1014.807	1564.97
1015.099	1561.81
1015.391	1550.96
1015.683	1513
1015.976	1499.89
1016.268	1521.13
1016.56	1491.3
1016.851	1499.66
1017.143	1504.41
1017.435	1482.49
1017.727	1459.67
1018.018	1461.25
1018.31	1468.48
1018.602	1479.55
1018.893	1441.36
1019.185	1434.35
1019.476	1423.96
1019.767	1431.42
1020.058	1402.94
1020.35	1394.58
1020.641	1348.48
1020.932	1357.75
1021.223	1353.45
1021.514	1341.7
1021.804	1340.57
1022.095	1336.73
1022.386	1352.1
1022.677	1339.89
1022.967	1336.73
1023.258	1308.03
1023.548	1302.83
1023.839	1280.01
1024.129	1308.03
1024.419	1252.89
1024.709	1268.03
1025	1237.3
1025.29	1231.42
1025.58	1232.1
1025.87	1240.46
1026.16	1220.58
1026.449	1243.85
1026.739	1204.76
1027.029	1232.1
1027.319	1181.71
1027.608	1163.63
1027.898	1181.25
1028.187	1174.93
1028.477	1187.13
1028.766	1147.81
1029.055	1140.8
1029.344	1135.15
1029.634	1130.41
1029.923	1106.68
1030.212	1117.75
1030.501	1110.75
1030.79	1113.69
1031.078	1124.08
1031.367	1081.14
1031.656	1107.36
1031.945	1080.24
1032.233	1062.39
1032.522	1078.21
1032.81	1049.28
1033.099	1048.38
1033.387	1058.55
1033.675	1051.31
1033.963	1042.95
1034.251	1022.39
1034.54	1032.56
1034.828	998.66
1035.116	1031.2
1035.403	1005.67
1035.691	1003.63
1035.979	995.27
1036.267	994.82
1036.554	955.05
1036.842	940.13
1037.129	987.14
1037.417	975.16
1037.704	968.15
1037.992	926.8
1038.279	925.89
1038.566	929.74
1038.853	929.74
1039.14	929.74
