Data from hue_340_FLMS001491_11.txt Node
Date: Mon Feb 06 15:42:20 GMT 2017
User: dcchb
Spectrometer: FLMS00149
Trigger mode: 0
Integration Time (sec): 2.000000E-2
Scans to average: 10
Electric dark correction enabled: true
Nonlinearity correction enabled: false
Boxcar width: 0
XAxis mode: Wavelengths
Number of Pixels in Spectrum: 2048
>>>>>Begin Spectral Data<<<<<
341.393	-21.12
341.776	-21.12
342.16	-21.12
342.543	-60.21
342.927	-68.12
343.31	-87.55
343.693	-64.73
344.077	-63.6
344.46	-76.26
344.843	-51.62
345.226	-43.26
345.61	-23.83
345.993	-20.21
346.376	15.72
346.759	11.65
347.142	25.89
347.525	46.91
347.908	69.73
348.291	59.33
348.674	99.11
349.057	102.72
349.44	122.84
349.823	148.15
350.206	177.3
350.588	195.6
350.971	208.48
351.354	221.36
351.737	236.96
352.119	257.52
352.502	257.07
352.884	262.95
353.267	305.43
353.65	268.82
354.032	301.81
354.414	334.58
354.797	322.38
355.179	339.55
355.562	323.06
355.944	327.58
356.326	321.93
356.709	339.33
357.091	328.71
357.473	356.5
357.855	346.33
358.238	342.72
358.62	351.98
359.002	343.85
359.384	355.82
359.766	317.86
360.148	319.67
360.53	343.62
360.912	320.8
361.294	325.99
361.676	351.53
362.057	303.62
362.439	326.67
362.821	332.32
363.203	323.73
363.584	325.99
363.966	309.72
364.348	319.67
364.729	308.14
365.111	333.45
365.493	309.27
365.874	277.63
366.256	326.9
366.637	312.21
367.019	295.94
367.4	314.7
367.781	326.67
368.163	315.15
368.544	295.71
368.925	317.63
369.306	328.71
369.688	314.47
370.069	318.31
370.45	309.5
370.831	293
371.212	292.55
371.593	302.94
371.974	306.56
372.355	318.54
372.736	318.54
373.117	298.88
373.498	312.44
373.879	304.98
374.26	321.93
374.641	292.55
375.021	324.64
375.402	325.09
375.783	317.63
376.163	324.86
376.544	332.32
376.925	303.62
377.305	303.17
377.686	320.8
378.066	314.24
378.447	322.38
378.827	329.61
379.208	329.61
379.588	331.64
379.968	323.28
380.349	310.85
380.729	323.73
381.109	330.97
381.489	309.5
381.87	331.42
382.25	346.11
382.63	334.36
383.01	320.8
383.39	325.99
383.77	333.45
384.15	348.59
384.53	318.31
384.91	324.41
385.29	332.1
385.67	333.45
386.049	336.39
386.429	342.27
386.809	344.07
387.189	338.2
387.568	342.49
387.948	330.51
388.328	352.89
388.707	335.49
389.087	345.88
389.466	336.62
389.846	356.05
390.225	360.12
390.605	347.69
390.984	357.41
391.363	363.96
391.743	365.77
392.122	353.34
392.501	364.86
392.881	380
393.26	354.24
393.639	361.25
394.018	366.67
394.397	368.93
394.776	357.18
395.155	371.19
395.534	367.35
395.913	369.83
396.292	353.79
396.671	382.49
397.05	374.35
397.429	383.62
397.808	365.54
398.186	369.83
398.565	362.6
398.944	383.39
399.323	381.36
399.701	377.97
400.08	373.68
400.458	382.72
400.837	376.84
401.215	380.23
401.594	370.51
401.972	384.98
402.351	405.54
402.729	394.24
403.107	392.66
403.486	393.11
403.864	396.95
404.242	401.7
404.62	396.05
404.999	401.47
405.377	402.15
405.755	423.84
406.133	410.51
406.511	415.26
406.889	432.21
407.267	434.92
407.645	416.39
408.023	426.56
408.401	421.36
408.779	451.87
409.156	433.11
409.534	433.56
409.912	427.01
410.29	441.02
410.667	450.06
411.045	438.99
411.422	438.31
411.8	448.02
412.178	489.83
412.555	450.51
412.933	456.16
413.31	478.53
413.687	464.07
414.065	496.39
414.442	506.55
414.819	488.02
415.197	490.96
415.574	505.65
415.951	504.97
416.328	525.31
416.705	518.31
417.082	517.63
417.46	516.72
417.837	527.34
418.214	520.11
418.591	547.01
418.967	542.94
419.344	555.59
419.721	541.81
420.098	538.87
420.475	560.11
420.852	547.23
421.228	538.19
421.605	564.41
421.982	567.57
422.358	574.35
422.735	581.58
423.111	570.28
423.488	576.61
423.864	603.73
424.241	603.95
424.617	571.19
424.994	596.04
425.37	615.93
425.746	587
426.123	605.08
426.499	615.7
426.875	627.68
427.251	638.75
427.627	647.79
428.003	651.41
428.379	667
428.756	634.91
429.132	670.17
429.507	658.19
429.883	655.48
430.259	667.91
430.635	684.18
431.011	672.43
431.387	703.61
431.763	714.91
432.138	695.02
432.514	701.13
432.89	713.55
433.265	727.57
433.641	733.22
434.016	729.37
434.392	744.74
434.767	749.03
435.143	733.44
435.518	760.33
435.894	775.47
436.269	759.43
436.644	789.71
437.02	809.6
437.395	786.55
437.77	786.55
438.145	803.27
438.52	805.76
438.895	829.03
439.271	799.2
439.646	846.88
440.021	836.94
440.395	852.31
440.77	830.39
441.145	825.19
441.52	872.19
441.895	864.51
442.27	854.12
442.645	882.59
443.019	893.44
443.394	898.86
443.769	882.82
444.143	888.24
444.518	875.13
444.892	890.27
445.267	890.95
445.641	922.36
446.016	888.01
446.39	883.95
446.764	922.59
447.139	931.4
447.513	919.2
447.887	918.3
448.262	935.24
448.636	931.18
449.01	937.5
449.384	938.63
449.758	936.37
450.132	969.14
450.506	955.36
450.88	971.63
451.254	973.89
451.628	983.38
452.002	1016.6
452.376	1008.01
452.75	995.81
453.123	1010.27
453.497	1010.04
453.871	991.29
454.244	1012.3
454.618	1041
454.992	1035.58
455.365	1066.54
455.739	1048.46
456.112	1082.13
456.486	1078.06
456.859	1072.64
457.232	1074
457.606	1102.02
457.979	1109.25
458.352	1103.15
458.725	1122.13
459.099	1156.03
459.472	1154.9
459.845	1170.49
460.218	1158.51
460.591	1173.43
460.964	1158.51
461.337	1182.69
461.71	1207.78
462.083	1231.51
462.456	1247.1
462.829	1231.28
463.201	1252.3
463.574	1240.55
463.947	1248
464.32	1270.83
464.692	1305.86
465.065	1271.96
465.438	1307.89
465.81	1321.9
466.183	1323.71
466.555	1348.34
466.928	1351.05
467.3	1356.93
467.672	1381.33
468.045	1407.32
468.417	1397.15
468.789	1428.11
469.161	1425.63
469.534	1407.1
469.906	1471.95
470.278	1478.05
470.65	1502.46
471.022	1541.1
471.394	1559.18
471.766	1569.8
472.138	1579.97
472.51	1615.23
472.882	1625.4
473.253	1635.56
473.625	1666.75
473.997	1702.23
474.369	1686.41
474.74	1680.08
475.112	1718.5
475.484	1756.92
475.855	1788.78
476.227	1819.74
476.598	1808.22
476.97	1871.26
477.341	1905.16
477.713	1909.46
478.084	1938.83
478.455	1965.5
478.827	2025.16
479.198	2047.76
479.569	2040.75
479.94	2081.65
480.311	2162.56
480.682	2186.06
481.053	2189.67
481.424	2244.81
481.795	2238.94
482.166	2270.12
482.537	2291.59
482.908	2344.47
483.279	2350.57
483.65	2364.13
484.021	2470.12
484.391	2446.84
484.762	2477.8
485.133	2513.06
485.503	2538.59
485.874	2640.74
486.244	2607.97
486.615	2655.42
486.985	2718.93
487.356	2733.84
487.726	2769.77
488.097	2792.14
488.467	2813.39
488.837	2869.2
489.207	2878.02
489.578	2909.2
489.948	2923.21
490.318	2981.52
490.688	2998.92
491.058	3053.61
491.428	3096.32
491.798	3137.67
492.168	3152.36
492.538	3194.85
492.908	3203.21
493.278	3277.56
493.648	3288.4
494.017	3305.8
494.387	3315.97
494.757	3394.84
495.126	3392.81
495.496	3407.95
495.866	3408.63
496.235	3415.4
496.605	3497.21
496.974	3505.35
497.344	3519.81
497.713	3521.62
498.082	3580.15
498.452	3616.53
498.821	3623.08
499.19	3621.27
499.559	3657.66
499.928	3691.56
500.298	3718
500.667	3721.84
501.036	3713.7
501.405	3779.24
501.774	3755.73
502.143	3799.12
502.512	3814.94
502.88	3825.56
503.249	3822.85
503.618	3892.45
503.987	3888.39
504.356	3870.99
504.724	3963.86
505.093	3927.93
505.462	3932.91
505.83	3958.22
506.199	3978.78
506.567	4018.33
506.936	4052
507.304	4085.22
507.672	4042.28
508.041	4072.79
508.409	4105.56
508.777	4113.69
509.145	4159.34
509.514	4132.45
509.882	4124.99
510.25	4186.91
510.618	4163.86
510.986	4200.24
511.354	4212.45
511.722	4253.57
512.09	4270.98
512.458	4301.93
512.826	4297.19
513.193	4315.95
513.561	4334.25
513.929	4352.1
514.297	4407.69
514.664	4410.63
515.032	4414.93
515.4	4368.37
515.767	4419.67
516.135	4464.87
516.502	4405.21
516.869	4513.23
517.237	4488.14
517.604	4475.94
517.972	4526.34
518.339	4543.96
518.706	4517.07
519.073	4547.8
519.44	4516.17
519.808	4633.68
520.175	4610.63
520.542	4629.84
520.909	4676.61
521.276	4628.71
521.643	4691.98
522.009	4700.57
522.376	4736.95
522.743	4727.91
523.11	4764.97
523.477	4776.27
523.843	4799.32
524.21	4810.4
524.577	4840.23
524.943	4860.79
525.31	4884.52
525.676	4978.98
526.043	4941.69
526.409	4958.64
526.776	4971.07
527.142	5024.18
527.508	4995.25
527.874	5073.21
528.241	5104.4
528.607	5103.72
528.973	5196.15
529.339	5174
529.705	5228.92
530.071	5255.36
530.437	5268.24
530.803	5273.21
531.169	5342.36
531.535	5292.42
531.901	5371.96
532.267	5330.61
532.632	5428.23
532.998	5414.9
533.364	5487.21
533.73	5446.54
534.095	5461.45
534.461	5531.96
534.826	5563.82
535.192	5549.81
535.557	5579.42
535.923	5581.68
536.288	5616.25
536.653	5639.07
537.019	5630.04
537.384	5638.62
537.749	5701.45
538.114	5695.57
538.479	5754.55
538.845	5752.07
539.21	5761.78
539.575	5806.53
539.94	5833.19
540.305	5896.7
540.67	5865.28
541.034	5875.9
541.399	5924.04
541.764	5973.76
542.129	5997.94
542.494	5992.51
542.858	6024.38
543.223	5975.56
543.587	6063.02
543.952	6080.42
544.316	6147.54
544.681	6082
545.045	6175.11
545.41	6126.52
545.774	6237.93
546.138	6237.48
546.503	6280.19
546.867	6281.77
547.231	6295.55
547.595	6331.94
547.959	6310.47
548.324	6352.95
548.688	6387.53
549.052	6362.9
549.416	6395.44
549.779	6474.31
550.143	6451.71
550.507	6532.38
550.871	6518.6
551.235	6508.88
551.599	6576.9
551.962	6583.23
552.326	6624.13
552.689	6600.86
553.053	6569.9
553.417	6610.12
553.78	6686.73
554.143	6680.86
554.507	6763.57
554.87	6722.44
555.234	6798.14
555.597	6708.65
555.96	6786.84
556.323	6757.69
556.686	6847.18
557.05	6837.24
557.413	6863.9
557.776	6887.86
558.139	6945.03
558.502	6963.79
558.865	6934.86
559.228	6977.57
559.59	6985.25
559.953	7042.43
560.316	7094.86
560.679	7084.46
561.041	7125.82
561.404	7107.06
561.767	7246.72
562.129	7165.59
562.492	7230.67
562.854	7234.97
563.217	7208.53
563.579	7254.17
563.941	7275.87
564.304	7378.01
564.666	7398.8
565.028	7426.82
565.39	7397.22
565.753	7482.19
566.115	7510.89
566.477	7487.16
566.839	7523.32
567.201	7570.78
567.563	7564.22
567.925	7667.04
568.287	7580.94
568.648	7595.86
569.01	7704.33
569.372	7682.86
569.734	7701.85
570.095	7851.9
570.457	7877.43
570.819	7865.91
571.18	7908.85
571.542	7918.34
571.903	7907.26
572.265	7981.16
572.626	8021.39
572.987	8102.74
573.349	8130.99
573.71	8189.29
574.071	8223.87
574.432	8245.56
574.794	8357.2
575.155	8343.86
575.516	8405.33
575.877	8474.71
576.238	8542.28
576.599	8582.27
576.96	8696.4
577.32	8672.44
577.681	8805.32
578.042	8902.94
578.403	8870.85
578.763	8988.14
579.124	9103.84
579.485	9236.95
579.845	9346.32
580.206	9365.08
580.566	9496.15
580.927	9605.3
581.287	9749.02
581.648	9797.38
582.008	9984.72
582.368	10093.87
582.728	10211.38
583.089	10360.98
583.449	10431.04
583.809	10679.85
584.169	10856.11
584.529	10995.54
584.889	11226.05
585.249	11344.69
585.609	11464.23
585.969	11682.31
586.329	11850.44
586.688	12073.93
587.048	12207.26
587.408	12417.65
587.768	12675.05
588.127	12860.13
588.487	13007.24
588.846	13411.53
589.206	13489.94
589.565	13681.12
589.925	14016.93
590.284	14271.62
590.643	14487.2
591.003	14821.43
591.362	15063.46
591.721	15302.32
592.08	15594.29
592.44	15862.99
592.799	16166.03
593.158	16452.8
593.517	16695.51
593.876	16986.8
594.235	17202.61
594.593	17583.62
594.952	17760.11
595.311	18097.5
595.67	18382.24
596.029	18734.1
596.387	18992.62
596.746	19338.38
597.104	19473.97
597.463	19756.22
597.822	20143.78
598.18	20349.87
598.538	20537.89
598.897	20986.47
599.255	21106.69
599.613	21569.73
599.972	21755.26
600.33	22055.37
600.688	22212.2
601.046	22613.77
601.404	22915.91
601.762	23095.79
602.12	23540.98
602.478	23773.74
602.836	24007.41
603.194	24107.74
603.552	24454.4
603.91	24647.84
604.268	25049.86
604.625	25255.96
604.983	25540.92
605.341	25632
605.698	26002.83
606.056	26227.91
606.413	26415.25
606.771	26702.7
607.128	27039.42
607.485	27048.23
607.843	27361.44
608.2	27738.38
608.557	27886.4
608.914	28050.46
609.272	28478.7
609.629	28634.63
609.986	28736.55
610.343	28894.06
610.7	29346.93
611.057	29433.25
611.414	29588.73
611.771	29798.44
612.127	30042.73
612.484	30316.62
612.841	30486.33
613.198	30470.06
613.554	30808.81
613.911	31091.51
614.267	31171.51
614.624	31214.22
614.98	31453.31
615.337	31824.83
615.693	31755.22
616.05	31893.53
616.406	32272.27
616.762	32264.14
617.118	32420.29
617.475	32594.07
617.831	32778.7
618.187	32881.75
618.543	33027.28
618.899	33485.35
619.255	33423.66
619.611	33579.58
619.967	33634.05
620.323	33799.46
620.678	33881.95
621.034	33852.8
621.39	33994.04
621.746	34088.5
622.101	34473.12
622.457	34144.99
622.812	34391.09
623.168	34611.65
623.523	34729.38
623.879	34907.46
624.234	34665.66
624.589	34835.14
624.945	35020.22
625.3	35218.86
625.655	35357.84
626.01	35458.4
626.365	35520.55
626.72	35466.77
627.075	35435.35
627.43	35435.35
627.785	35563.71
628.14	35679.19
628.495	35837.6
628.85	35776.59
629.205	35771.39
629.559	36018.39
629.914	35924.61
630.269	35894.55
630.623	35904.72
630.978	35988.33
631.332	36067.65
631.687	36232.85
632.041	36050.7
632.396	36196.46
632.75	36131.61
633.104	36168.44
633.459	36046.18
633.813	36071.04
634.167	36122.12
634.521	36336.57
634.875	36289.12
635.229	36209.34
635.583	36023.59
635.937	36221.1
636.291	36159.4
636.645	36210.02
636.999	36194.2
637.352	36254.77
637.706	36110.36
638.06	36248.21
638.413	36157.82
638.767	36066.75
639.121	36269.68
639.474	36005.73
639.828	36084.38
640.181	36201.89
640.534	36245.28
640.888	36182.23
641.241	35974.77
641.594	35970.03
641.947	36157.37
642.301	36002.8
642.654	36098.16
643.007	36124.6
643.36	36036.24
643.713	35930.93
644.066	36092.29
644.419	36027.2
644.771	35761.9
645.124	35498.18
645.477	35358.29
645.83	35201.46
646.182	35146.32
646.535	35097.06
646.888	35180.22
647.24	34838.53
647.593	35100.9
647.945	35133.44
648.298	34905.65
648.65	34736.39
649.002	34773.45
649.355	35079.66
649.707	34915.14
650.059	35000.56
650.411	35539.98
650.763	35544.96
651.115	35883.25
651.467	35836.25
651.819	35691.84
652.171	35706.08
652.523	35690.26
652.875	35654.78
653.227	35540.66
653.578	35807.77
653.93	35680.54
654.282	35561.9
654.633	35418.18
654.985	35567.78
655.337	35523.71
655.688	35578.85
656.039	35639.42
656.391	35444.62
656.742	35431.96
657.094	35558.29
657.445	35551.28
657.796	35355.58
658.147	35345.19
658.498	35384.51
658.849	35595.35
659.2	35373.21
659.551	35292.08
659.902	35468.35
660.253	35394.68
660.604	35365.3
660.955	35264.06
661.306	35466.54
661.656	35296.15
662.007	35417.27
662.358	35418.18
662.708	35306.32
663.059	35374.11
663.409	35143.16
663.76	35483.94
664.11	35420.44
664.461	35375.69
664.811	35406.65
665.161	35226.55
665.511	35231.07
665.862	35272.42
666.212	35407.78
666.562	35375.92
666.912	35346.32
667.262	35182.48
667.612	35337.28
667.962	35463.15
668.312	35320.1
668.662	35383.38
669.011	35284.85
669.361	35355.81
669.711	35280.33
670.06	35303.38
670.41	35102.93
670.76	35031.52
671.109	35248.47
671.459	35203.5
671.808	35074.91
672.157	35212.76
672.507	35078.3
672.856	34994.24
673.205	35176.38
673.554	35214.34
673.904	34879.44
674.253	35088.92
674.602	35056.38
674.951	34652.78
675.3	34515.83
675.649	35023.84
675.998	34980.9
676.346	34933.67
676.695	34889.61
677.044	34707.24
677.393	34900.23
677.741	34929.15
678.09	34997.62
678.438	34728.71
678.787	34791.08
679.135	34822.26
679.484	34471.76
679.832	34748.82
680.181	34573
680.529	34633.79
680.877	34596.28
681.225	34593.79
681.573	34787.24
681.922	34675.37
682.27	34390.64
682.618	34445.32
682.966	34330.75
683.314	34414.82
683.661	34339.79
684.009	34238.32
684.357	34010.76
684.705	34077.88
685.053	34118.78
685.4	33999.23
685.748	33799.46
686.095	33853.25
686.443	33797.66
686.79	33671.33
687.138	33727.6
687.485	33790.43
687.832	33625.46
688.18	33720.37
688.527	33400.83
688.874	33374.84
689.221	33554.5
689.568	33411
689.915	33161.74
690.262	33276.54
690.609	33124.23
690.956	33027.51
691.303	33051.91
691.65	32860.73
691.997	32808.53
692.344	32644.69
692.69	32744.58
693.037	32582.77
693.383	32364.25
693.73	32610.8
694.077	32360.63
694.423	32408.31
694.769	32276.57
695.116	32176.23
695.462	32056.69
695.808	31965.16
696.155	32038.38
696.501	31777.37
696.847	31847.2
697.193	31536.47
697.539	31728.56
697.885	31441.33
698.231	31472.29
698.577	31376.25
698.923	31416.93
699.269	31142.59
699.614	31125.64
699.96	31080.21
700.306	30986.66
700.651	30807.9
700.997	30833.67
701.342	30818.53
701.688	30725.19
702.033	30482.94
702.379	30524.07
702.724	30528.36
703.069	30570.4
703.415	30184.42
703.76	30287.92
704.105	30263.96
704.45	30174.47
704.795	29948.72
705.14	29791.21
705.485	29820.59
705.83	29733.81
706.175	29882.73
706.52	29652.91
706.865	29594.38
707.209	29591.67
707.554	29544.89
707.899	29483.87
708.243	29421.05
708.588	29358.9
708.932	29156.65
709.277	29167.04
709.621	29144.9
709.966	28941.29
710.31	29135.18
710.654	28835.08
710.998	28843.21
711.342	28912.59
711.687	28686.15
712.031	28711.46
712.375	28647.06
712.719	28598.47
713.063	28551.47
713.407	28523.67
713.75	28385.82
714.094	28337.69
714.438	28367.74
714.782	28290.68
715.125	28184.92
715.469	28263.34
715.812	27962.78
716.156	27869.22
716.499	27933.18
716.843	27983.35
717.186	27835.33
717.53	27953.74
717.873	27858.83
718.216	27851.15
718.559	27769.57
718.902	27532.51
719.246	27690.25
719.589	27559.18
719.932	27401.44
720.275	27527.76
720.617	27376.81
720.96	27334.32
721.303	27261.78
721.646	27272.4
721.989	27118.74
722.331	27296.58
722.674	27130.49
723.016	27173.42
723.359	27090.94
723.701	27112.18
724.044	26902.47
724.386	26882.13
724.729	26935.24
725.071	26855.01
725.413	26824.28
725.755	26861.57
726.097	26617.73
726.439	26604.4
726.782	26595.36
727.124	26639.43
727.465	26448.47
727.807	26537.28
728.149	26469.94
728.491	26348.81
728.833	26378.19
729.175	26302.94
729.516	26287.57
729.858	26298.87
730.199	26279.44
730.541	26175.48
730.882	26131.19
731.224	26251.19
731.565	26085.32
731.906	26017.75
732.248	26043.28
732.589	25992.44
732.93	25931.87
733.271	25784.08
733.612	25918.32
733.953	25849.39
734.294	25737.98
734.635	25700.92
734.976	25753.8
735.317	25569.62
735.658	25542.73
735.999	25618.44
736.339	25514.26
736.68	25576.4
737.021	25509.51
737.361	25313.81
737.702	25539.12
738.042	25353.81
738.383	25369.63
738.723	25407.37
739.063	25245.57
739.404	25283.3
739.744	25167.15
740.084	25080.15
740.424	25141.39
740.764	25081.05
741.104	25195.62
741.444	25017.32
741.784	24871.56
742.124	25074.04
742.464	24880.83
742.804	24806.71
743.143	24834.5
743.483	24862.3
743.823	24732.58
744.162	24608.75
744.502	24775.75
744.841	24602.87
745.181	24751.11
745.52	24607.84
745.86	24604.23
746.199	24524.68
746.538	24518.35
746.877	24518.13
747.216	24508.41
747.556	24375.31
747.895	24413.27
748.234	24366.94
748.573	24254.4
748.911	24305.02
749.25	24311.35
749.589	24108.19
749.928	24236.1
750.267	24155.42
750.605	24224.35
750.944	23976.22
751.283	23907.97
751.621	24109.78
751.96	23874.3
752.298	23853.74
752.636	23865.04
752.975	23745.49
753.313	23650.8
753.651	23826.62
753.989	23593.41
754.327	23563.35
754.666	23541.43
755.004	23574.65
755.342	23569
755.679	23461.88
756.017	23237.93
756.355	23389.34
756.693	23331.27
757.031	23323.36
757.368	23124.94
757.706	23075.9
758.044	23017.6
758.381	23047.88
758.719	22926.98
759.056	22984.38
759.394	22943.7
759.731	22694.9
760.068	22718.17
760.405	22576.03
760.743	22524.51
761.08	22499.2
761.417	22493.1
761.754	22428.92
762.091	22330.16
762.428	22334.46
762.765	22160.45
763.102	22275.02
763.438	21992.09
763.775	22108.02
764.112	21964.52
764.449	21983.5
764.785	21923.39
765.122	21729.05
765.458	21649.28
765.795	21614.47
766.131	21581.03
766.467	21483.4
766.804	21448.15
767.14	21317.53
767.476	21329.51
767.812	21257.42
768.148	21253.58
768.485	21157.54
768.821	21093.36
769.157	20987.6
769.492	21038.9
769.828	20859.92
770.164	20642.97
770.5	20765.46
770.836	20687.94
771.171	20460.83
771.507	20449.98
771.842	20358.69
772.178	20332.25
772.513	20319.37
772.849	20188.52
773.184	20145.13
773.519	20091.35
773.855	19974.97
774.19	19968.64
774.525	19898.59
774.86	19914.63
775.195	19801.87
775.53	19711.25
775.865	19492.95
776.2	19577.69
776.535	19299.51
776.87	19428.77
777.205	19300.86
777.539	19113.3
777.874	19191.26
778.209	19044.6
778.543	18967.09
778.878	18882.57
779.212	18947.43
779.547	18825.85
779.881	18803.02
780.215	18679.86
780.55	18758.28
780.884	18520.32
781.218	18482.8
781.552	18538.85
781.886	18464.73
782.22	18359.87
782.554	18230.38
782.888	18162.36
783.222	18026.09
783.556	18066.77
783.889	17857.06
784.223	17835.36
784.557	17804.4
784.89	17799.66
785.224	17719.44
785.557	17541.13
785.891	17544.52
786.224	17495.03
786.558	17578.65
786.891	17377.75
787.224	17288.94
787.557	17174.59
787.891	17262.05
788.224	17192.9
788.557	17182.73
788.89	17140.92
789.223	17025.44
789.556	17007.82
789.888	16897.76
790.221	16806.69
790.554	16651.44
790.887	16662.51
791.219	16619.35
791.552	16608.28
791.884	16492.8
792.217	16449.19
792.549	16335.97
792.882	16232.92
793.214	16305.24
793.546	16308.85
793.879	16131.91
794.211	16062.76
794.543	16070.44
794.875	15947.96
795.207	16028.41
795.539	15875.87
795.871	15924.91
796.203	15845.36
796.535	15671.13
796.867	15715.65
797.198	15715.65
797.53	15644.24
797.862	15474.07
798.193	15527.85
798.525	15371.47
798.856	15433.39
799.188	15280.63
799.519	15241.31
799.85	15152.27
800.182	15131.25
800.513	15184.81
800.844	14921.99
801.175	15066.85
801.506	15041.99
801.837	14893.29
802.168	14971.71
802.499	14894.42
802.83	14741.89
803.161	14780.98
803.491	14772.85
803.822	14727.65
804.153	14619.18
804.483	14582.12
804.814	14506.41
805.145	14557.94
805.475	14502.8
805.805	14427.77
806.136	14470.03
806.466	14357.04
806.796	14344.83
807.126	14197.95
807.457	14242.92
807.787	14268.45
808.117	14186.42
808.447	14120.89
808.777	14117.95
809.107	14008.8
809.436	14064.84
809.766	14002.02
810.096	13956.6
810.426	13986.43
810.755	13973.77
811.085	13812.19
811.414	13864.4
811.744	13791.18
812.073	13709.15
812.403	13666.66
812.732	13587.11
813.061	13557.96
813.39	13542.82
813.719	13494.91
814.049	13484.97
814.378	13468.47
814.707	13385.09
815.036	13359.55
815.365	13358.42
815.693	13215.82
816.022	13244.3
816.351	13201.81
816.68	13104.19
817.008	13146.45
817.337	12992.78
817.665	13037.07
817.994	13007.24
818.322	13030.74
818.651	12962.72
818.979	12911.2
819.307	13018.32
819.636	12940.35
819.964	12783.97
820.292	12868.49
820.62	12874.59
820.948	12825.78
821.276	12853.12
821.604	12782.16
821.932	12788.72
822.259	12873.01
822.587	12779.45
822.915	12830.07
823.243	12807.7
823.57	12774.48
823.898	12760.7
824.225	12669.62
824.553	12761.37
824.88	12754.59
825.207	12786.91
825.535	12703.3
825.862	12758.21
826.189	12762.28
826.516	12775.38
826.843	12754.14
827.17	12744.2
827.497	12811.99
827.824	12726.57
828.151	12732
828.478	12717.31
828.805	12750.53
829.131	12660.81
829.458	12691.54
829.785	12695.16
830.111	12660.59
830.438	12752.33
830.764	12733.58
831.09	12750.53
831.417	12604.54
831.743	12728.15
832.069	12715.27
832.395	12597.31
832.722	12710.3
833.048	12614.26
833.374	12633.92
833.7	12611.32
834.026	12662.62
834.351	12627.37
834.677	12583.98
835.003	12584.43
835.329	12570.42
835.654	12498.33
835.98	12492.23
836.306	12563.86
836.631	12376.98
836.956	12532.23
837.282	12509.18
837.607	12380.37
837.932	12334.04
838.258	12415.85
838.583	12390.99
838.908	12203.42
839.233	12313.7
839.558	12329.97
839.883	12246.13
840.208	12156.64
840.533	12207.04
840.858	12237.77
841.182	12179.02
841.507	12180.6
841.832	12069.41
842.156	12108.51
842.481	12076.42
842.805	12057.66
843.13	11964.78
843.454	12063.99
843.778	12033.26
844.103	11967.27
844.427	11883.43
844.751	11929.76
845.075	11842.53
845.399	11804.56
845.723	11721.85
846.047	11848.18
846.371	11652.48
846.695	11686.83
847.019	11660.39
847.343	11504.91
847.666	11494.29
847.99	11417.23
848.313	11387.4
848.637	11342.2
848.96	11343.56
849.284	11256.55
849.607	11244.58
849.931	11174.3
850.254	11219.49
850.577	11064.24
850.9	10993.51
851.223	10995.54
851.546	10991.02
851.869	10930.24
852.192	10905.38
852.515	10827.41
852.838	10705.16
853.161	10720.3
853.483	10705.38
853.806	10696.34
854.129	10667.87
854.451	10603.69
854.774	10544.26
855.096	10526.18
855.419	10493.18
855.741	10518.72
856.063	10413.19
856.385	10415.22
856.708	10298.39
857.03	10316.24
857.352	10354.88
857.674	10274.89
857.996	10267.65
858.318	10212.29
858.64	10209.35
858.961	10217.94
859.283	10116.47
859.605	10144.72
859.926	10083.25
860.248	10051.84
860.57	10002.8
860.891	9996.25
861.212	9959.41
861.534	9986.53
861.855	9921.67
862.176	9916.7
862.498	9852.98
862.819	9960.09
863.14	9873.09
863.461	9896.36
863.782	9800.1
864.103	9894.56
864.424	9811.39
864.745	9830.15
865.065	9675.8
865.386	9686.2
865.707	9722.13
866.027	9731.17
866.348	9671.96
866.668	9665.18
866.989	9685.07
867.309	9525.53
867.63	9601
867.95	9620.21
868.27	9481.01
868.59	9576.15
868.91	9545.41
869.23	9533.89
869.55	9463.38
869.87	9528.24
870.19	9487.79
870.51	9463.16
870.83	9443.27
871.15	9389.26
871.469	9371.86
871.789	9370.73
872.109	9416.15
872.428	9308.13
872.748	9354.23
873.067	9316.94
873.386	9352.65
873.706	9330.73
874.025	9208.7
874.344	9295.02
874.663	9238.08
874.982	9251.86
875.301	9247.34
875.62	9225.42
875.939	9125.76
876.258	9186.55
876.577	9108.14
876.896	9133.22
877.214	9147.23
877.533	9142.94
877.852	9048.7
878.17	9091.19
878.489	9106.55
878.807	9048.02
879.125	9025.43
879.444	9039.21
879.762	8986.11
880.08	9035.37
880.398	8900.68
880.716	8986.33
881.034	8922.38
881.352	8951.3
881.67	8929.38
881.988	8936.39
882.306	8902.04
882.624	8838.54
882.941	8811.87
883.259	8835.15
883.577	8793.57
883.894	8734.36
884.212	8767.13
884.529	8725.55
884.846	8755.38
885.164	8676.28
885.481	8705.89
885.798	8649.84
886.115	8632.22
886.432	8617.08
886.75	8584.08
887.067	8600.35
887.383	8542.73
887.7	8570.75
888.017	8459.34
888.334	8553.8
888.651	8532.56
888.967	8443.97
889.284	8359
889.6	8419.11
889.917	8290.53
890.233	8377.08
890.55	8332.56
890.866	8308.16
891.182	8279.68
891.498	8304.54
891.815	8212.34
892.131	8224.77
892.447	8199.23
892.763	8177.99
893.079	8107.03
893.395	8095.28
893.71	8081.27
894.026	8038.79
894.342	8048.73
894.657	7965.57
894.973	7987.49
895.289	7910.43
895.604	7933.03
895.92	7891.67
896.235	7856.87
896.55	7831.56
896.865	7835.85
897.181	7818.45
897.496	7818.23
897.811	7732.13
898.126	7654.16
898.441	7639.93
898.756	7674.28
899.071	7633.82
899.386	7572.58
899.7	7535.52
900.015	7542.08
900.33	7510.66
900.644	7468.18
900.959	7502.98
901.273	7440.16
901.588	7407.62
901.902	7380.27
902.216	7366.49
902.531	7300.95
902.845	7309.54
903.159	7325.58
903.473	7307.05
903.787	7254.63
904.101	7199.71
904.415	7150.67
904.729	7175.53
905.042	7157
905.356	7127.17
905.67	7140.96
905.984	7058.7
906.297	7089.43
906.611	7046.5
906.924	6937.57
907.237	6944.8
907.551	6957.91
907.864	6859.16
908.177	6915.88
908.491	6802.43
908.804	6833.85
909.117	6803.34
909.43	6734.19
909.743	6722.21
910.056	6766.05
910.368	6691.48
910.681	6621.87
910.994	6644.47
911.307	6558.82
911.619	6583.23
911.932	6579.39
912.244	6513.63
912.557	6515.66
912.869	6473.63
913.181	6462.33
913.494	6422.33
913.806	6365.84
914.118	6353.18
914.43	6329.68
914.742	6305.95
915.054	6321.99
915.366	6307.08
915.678	6261.88
915.99	6220.3
916.302	6207.65
916.613	6166.07
916.925	6191.6
917.236	6107.54
917.548	6063.92
917.859	6100.08
918.171	6063.7
918.482	6044.26
918.794	5980.76
919.105	6016.47
919.416	5895.57
919.727	5938.28
920.038	5900.08
920.349	5890.14
920.66	5826.87
920.971	5816.47
921.282	5795
921.593	5736.47
921.903	5785.51
922.214	5725.4
922.525	5738.28
922.835	5666.19
923.146	5673.88
923.456	5659.87
923.767	5647.89
924.077	5608.57
924.387	5568.12
924.697	5546.2
925.008	5518.85
925.318	5481.56
925.628	5503.03
925.938	5453.54
926.248	5413.09
926.558	5417.16
926.867	5389.82
927.177	5375.13
927.487	5341.91
927.796	5322.25
928.106	5283.15
928.416	5226.43
928.725	5283.15
929.034	5236.83
929.344	5241.8
929.653	5180.78
929.962	5160.9
930.271	5154.34
930.581	5118.64
930.89	5058.98
931.199	5135.13
931.508	5079.99
931.817	5034.57
932.125	5032.76
932.434	5010.62
932.743	4952.31
933.051	4956.83
933.36	4926.78
933.669	4920.45
933.977	4869.83
934.286	4888.59
934.594	4865.08
934.902	4770.62
935.21	4780.57
935.519	4804.97
935.827	4754.8
936.135	4717.52
936.443	4682.94
936.751	4683.17
937.059	4664.41
937.367	4633.23
937.674	4678.42
937.982	4585.77
938.29	4582.61
938.597	4563.4
938.905	4549.61
939.213	4534.7
939.52	4501.48
939.827	4566.56
940.135	4492.21
940.442	4461.93
940.749	4475.04
941.056	4446.56
941.363	4381.03
941.67	4406.79
941.977	4374.93
942.284	4333.8
942.591	4346.91
942.898	4312.33
943.205	4336.51
943.511	4267.13
943.818	4256.29
944.125	4220.81
944.431	4221.03
944.738	4189.17
945.044	4185.1
945.35	4188.04
945.657	4132.67
945.963	4116.86
946.269	4085.22
946.575	4118.89
946.881	4098.78
947.187	4112.11
947.493	4053.35
947.799	4022.39
948.105	3995.28
948.41	4005.22
948.716	3975.16
949.022	3985.56
949.327	3975.62
949.633	3903.3
949.938	3935.62
950.244	3904.21
950.549	3885
950.854	3886.8
951.16	3884.09
951.465	3854.04
951.77	3806.81
952.075	3784.66
952.38	3813.13
952.685	3785.11
952.99	3759.12
953.294	3760.93
953.599	3736.3
953.904	3718.45
954.209	3659.47
954.513	3635.51
954.818	3682.74
955.122	3633.03
955.426	3598.22
955.731	3618.11
956.035	3616.76
956.339	3543.31
956.643	3569.75
956.948	3541.95
957.252	3543.54
957.556	3511.22
957.86	3513.71
958.163	3509.19
958.467	3484.56
958.771	3480.04
959.075	3450.43
959.378	3466.48
959.682	3441.39
959.985	3442.75
960.289	3418.57
960.592	3362.98
960.896	3360.94
961.199	3365.24
961.502	3301.51
961.805	3322.53
962.108	3304
962.411	3309.19
962.714	3263.09
963.017	3266.93
963.32	3236.43
963.623	3214.05
963.926	3226.71
964.228	3194.62
964.531	3203.21
964.833	3173.6
965.136	3154.17
965.438	3153.04
965.741	3135.19
966.043	3127.05
966.345	3104.68
966.648	3131.12
966.95	3105.36
967.252	3062.19
967.554	3059.71
967.856	3032.14
968.158	3007.73
968.46	2992.36
968.761	2993.49
969.063	3020.39
969.365	2975.42
969.666	2966.6
969.968	2934.51
970.269	2945.13
970.571	2934.06
970.872	2906.72
971.174	2899.71
971.475	2873.72
971.776	2904.91
972.077	2872.14
972.378	2823.33
972.679	2836.44
972.98	2816.1
973.281	2852.71
973.582	2798.47
973.883	2810.22
974.183	2822.43
974.484	2749.66
974.785	2772.48
975.085	2731.58
975.386	2741.75
975.686	2712.15
975.986	2692.49
976.287	2705.14
976.587	2682.32
976.887	2649.32
977.187	2653.84
977.487	2651.81
977.787	2623.79
978.087	2619.72
978.387	2666.05
978.687	2623.11
978.987	2597.12
979.286	2592.15
979.586	2581.08
979.885	2535.43
980.185	2558.48
980.484	2544.02
980.784	2515.99
981.083	2506.5
981.382	2484.58
981.682	2503.79
981.981	2501.3
982.28	2487.75
982.579	2479.16
982.878	2468.54
983.177	2433.74
983.475	2447.97
983.774	2419.95
984.073	2423.57
984.372	2388.76
984.67	2396.45
984.969	2406.39
985.267	2382.89
985.566	2360.07
985.864	2355.32
986.162	2347.86
986.461	2316.45
986.759	2306.51
987.057	2284.13
987.355	2306.73
987.653	2308.09
987.951	2299.73
988.249	2272.84
988.547	2288.43
988.844	2267.86
989.142	2260.86
989.44	2225.15
989.737	2222.44
990.035	2209.56
990.332	2223.35
990.63	2174.08
990.927	2172.05
991.224	2169.79
991.521	2172.95
991.819	2145.83
992.116	2127.53
992.413	2137.25
992.71	2130.69
993.006	2120.75
993.303	2099.73
993.6	2120.07
993.897	2052.05
994.193	2112.61
994.49	2069.23
994.787	2054.99
995.083	2069.23
995.379	2042.56
995.676	2048.43
995.972	2020.64
996.268	1995.55
996.565	2001.88
996.861	1983.58
997.157	1989.91
997.453	1956.91
997.749	1953.07
998.044	1942.22
998.34	1941.09
998.636	1943.58
998.932	1934.31
999.227	1898.83
999.523	1895.44
999.818	1909.46
1000.114	1879.85
1000.409	1859.74
1000.704	1873.98
1001	1846.86
1001.295	1843.24
1001.59	1816.8
1001.885	1828.1
1002.18	1818.84
1002.475	1818.38
1002.77	1773.41
1003.065	1783.81
1003.359	1792.4
1003.654	1760.08
1003.949	1762.79
1004.243	1779.97
1004.538	1760.53
1004.832	1752.17
1005.127	1735.45
1005.421	1724.38
1005.715	1685.05
1006.009	1671.95
1006.304	1675.34
1006.598	1678.5
1006.892	1668.56
1007.186	1622.23
1007.48	1642.34
1007.773	1633.98
1008.067	1667.88
1008.361	1612.74
1008.655	1616.58
1008.948	1615.45
1009.242	1594.44
1009.535	1595.57
1009.829	1565.28
1010.122	1588.33
1010.415	1562.12
1010.708	1534.55
1011.001	1545.17
1011.295	1547.21
1011.588	1538.17
1011.881	1519.41
1012.173	1523.7
1012.466	1489.81
1012.759	1488.9
1013.052	1492.07
1013.344	1497.49
1013.637	1460.88
1013.93	1462.01
1014.222	1419.75
1014.514	1415.01
1014.807	1460.88
1015.099	1398.06
1015.391	1412.29
1015.683	1417.49
1015.976	1400.32
1016.268	1405.06
1016.56	1402.58
1016.851	1420.43
1017.143	1357.61
1017.435	1361
1017.727	1337.72
1018.018	1344.95
1018.31	1318.28
1018.602	1342.69
1018.893	1329.58
1019.185	1288.23
1019.476	1317.38
1019.767	1307.44
1020.058	1270.38
1020.35	1266.53
1020.641	1268.57
1020.932	1262.01
1021.223	1267.44
1021.514	1243.26
1021.804	1242.81
1022.095	1218.85
1022.386	1217.95
1022.677	1212.52
1022.967	1198.06
1023.258	1217.27
1023.548	1192.64
1023.839	1187.21
1024.129	1188.57
1024.419	1176.37
1024.709	1168.91
1025	1157.84
1025.29	1156.48
1025.58	1168.91
1025.87	1142.92
1026.16	1157.84
1026.449	1116.03
1026.739	1113.77
1027.029	1110.38
1027.319	1096.6
1027.608	1080.55
1027.898	1100.44
1028.187	1088.91
1028.477	1092.08
1028.766	1079.65
1029.055	1072.87
1029.344	1056.6
1029.634	1041.91
1029.923	1053.88
1030.212	1022.25
1030.501	1033.32
1030.79	1019.08
1031.078	1017.05
1031.367	1013.21
1031.656	1021.8
1031.945	995.13
1032.233	1015.02
1032.522	961.23
1032.81	998.74
1033.099	989.03
1033.387	967.56
1033.675	959.88
1033.963	940.67
1034.251	976.15
1034.54	954.45
1034.828	947.45
1035.116	937.73
1035.403	918.07
1035.691	911.74
1035.979	905.87
1036.267	911.52
1036.554	921.91
1036.842	889.82
1037.129	919.65
1037.417	901.8
1037.704	881.46
1037.992	875.36
1038.279	851.63
1038.566	872.65
1038.853	872.65
1039.14	872.65
