Data from hue_100_FLMS001491_00006.txt Node
Date: Tue Feb 07 17:02:34 GMT 2017
User: dcchb
Spectrometer: FLMS00149
Trigger mode: 0
Integration Time (sec): 2.000000E-2
Scans to average: 10
Electric dark correction enabled: true
Nonlinearity correction enabled: false
Boxcar width: 0
XAxis mode: Wavelengths
Number of Pixels in Spectrum: 2048
>>>>>Begin Spectral Data<<<<<
341.393	-13.94
341.776	-13.94
342.16	-13.94
342.543	-45.8
342.927	-60.72
343.31	-65.01
343.693	-68.4
344.077	-56.43
344.46	-56.2
344.843	-67.72
345.226	-44.22
345.61	-16.43
345.993	-28.4
346.376	5.72
346.759	17.02
347.142	28.32
347.525	34.42
347.908	70.8
348.291	72.61
348.674	66.96
349.057	106.96
349.44	133.4
349.823	146.51
350.206	163.23
350.588	192.61
350.971	210.69
351.354	222.44
351.737	218.6
352.119	268.76
352.502	262.66
352.884	275.77
353.267	288.42
353.65	308.09
354.032	289.55
354.414	310.34
354.797	323.23
355.179	324.36
355.562	328.2
355.944	310.57
356.326	330.68
356.709	357.35
357.091	343.34
357.473	372.72
357.855	343.11
358.238	368.2
358.62	350.34
359.002	355.09
359.384	363.22
359.766	339.27
360.148	337.69
360.53	339.04
360.912	330.68
361.294	349.89
361.676	346.73
362.057	344.92
362.439	338.14
362.821	325.49
363.203	333.62
363.584	342.43
363.966	339.95
364.348	335.2
364.729	312.15
365.111	328.65
365.493	321.42
365.874	321.64
366.256	321.87
366.637	346.05
367.019	357.12
367.4	321.87
367.781	331.14
368.163	299.72
368.544	317.35
368.925	327.75
369.306	335.66
369.688	322.1
370.069	318.48
370.45	321.42
370.831	307.18
371.212	315.32
371.593	344.24
371.974	312.83
372.355	312.6
372.736	333.62
373.117	311.25
373.498	316.22
373.879	332.72
374.26	331.59
374.641	299.95
375.021	323.23
375.402	348.99
375.783	313.51
376.163	330.68
376.544	350.57
376.925	339.27
377.305	341.3
377.686	341.76
378.066	348.99
378.447	338.14
378.827	307.41
379.208	332.94
379.588	325.26
379.968	324.13
380.349	358.48
380.729	338.82
381.109	342.66
381.489	367.52
381.87	335.2
382.25	370.46
382.63	370
383.01	360.51
383.39	353.28
383.77	346.28
384.15	370.91
384.53	362.55
384.91	388.31
385.29	372.72
385.67	370.68
386.049	340.85
386.429	383.79
386.809	371.81
387.189	355.99
387.568	385.15
387.948	355.77
388.328	384.92
388.707	385.15
389.087	379.95
389.466	395.77
389.846	385.37
390.225	403.45
390.605	398.7
390.984	369.78
391.363	380.4
391.743	402.55
392.122	373.39
392.501	370.91
392.881	388.31
393.26	404.81
393.639	394.86
394.018	404.81
394.397	383.11
394.776	402.77
395.155	425.37
395.534	405.94
395.913	403.45
396.292	406.84
396.671	408.87
397.05	395.77
397.429	394.64
397.808	412.04
398.186	408.65
398.565	419.27
398.944	408.65
399.323	388.31
399.701	414.3
400.08	436.67
400.458	434.64
400.837	424.69
401.215	433.96
401.594	424.92
401.972	437.35
402.351	433.51
402.729	427.4
403.107	427.18
403.486	447.52
403.864	447.97
404.242	454.3
404.62	453.62
404.999	482.32
405.377	453.17
405.755	454.97
406.133	449.1
406.511	458.82
406.889	471.47
407.267	466.05
407.645	463.56
408.023	477.12
408.401	475.31
408.779	473.28
409.156	477.57
409.534	493.39
409.912	465.6
410.29	489.78
410.667	492.94
411.045	514.41
411.422	493.62
411.8	503.79
412.178	530.68
412.555	526.38
412.933	522.99
413.31	490.68
413.687	540.62
414.065	522.32
414.442	527.51
414.819	515.31
415.197	557.34
415.574	548.3
415.951	556.89
416.328	560.96
416.705	528.87
417.082	562.32
417.46	555.31
417.837	563.9
418.214	572.94
418.591	570.68
418.967	573.84
419.344	574.29
419.721	584.01
420.098	600.51
420.475	605.48
420.852	583.11
421.228	610.68
421.605	607.96
421.982	602.99
422.358	618.81
422.735	607.51
423.111	628.53
423.488	628.75
423.864	618.13
424.241	621.75
424.617	648.42
424.994	624.01
425.37	642.54
425.746	655.87
426.123	668.08
426.499	632.82
426.875	671.01
427.251	652.48
427.627	680.5
428.003	681.63
428.379	691.8
428.756	696.78
429.132	672.37
429.507	694.74
429.883	710.11
430.259	704.91
430.635	702.65
431.011	710.33
431.387	745.81
431.763	732.48
432.138	739.49
432.514	770.45
432.89	758.47
433.265	758.69
433.641	770.9
434.016	785.59
434.392	794.63
434.767	800.5
435.143	789.65
435.518	822.2
435.894	825.36
436.269	836.66
436.644	825.59
437.02	849.99
437.395	842.53
437.77	872.82
438.145	871.01
438.52	886.6
438.895	895.41
439.271	889.54
439.646	894.51
440.021	899.71
440.395	888.18
440.77	926.15
441.145	906.26
441.52	930.67
441.895	941.74
442.27	920.95
442.645	944.68
443.019	938.35
443.394	972.47
443.769	976.99
444.143	976.99
444.518	978.8
444.892	973.6
445.267	1001.17
445.641	997.78
446.016	995.75
446.39	1027.39
446.764	1016.09
447.139	1007.28
447.513	1028.97
447.887	989.88
448.262	1032.81
448.636	1040.72
449.01	1060.16
449.384	1067.16
449.758	1087.27
450.132	1084.34
450.506	1086.6
450.88	1095.41
451.254	1076.65
451.628	1124.33
452.002	1114.62
452.376	1138.57
452.75	1154.62
453.123	1194.62
453.497	1161.62
453.871	1198.01
454.244	1180.38
454.618	1207.04
454.992	1205.46
455.365	1200.94
455.739	1256.08
456.112	1276.2
456.486	1253.82
456.859	1288.4
457.232	1318.91
457.606	1308.74
457.979	1315.97
458.352	1358.23
458.725	1330.88
459.099	1373.37
459.472	1382.41
459.845	1407.94
460.218	1450.43
460.591	1438
460.964	1490.43
461.337	1486.36
461.71	1502.63
462.083	1510.31
462.456	1511.9
462.829	1540.82
463.201	1561.61
463.574	1571.1
463.947	1590.99
464.32	1633.93
464.692	1643.64
465.065	1651.1
465.438	1683.19
465.81	1697.2
466.183	1720.48
466.555	1789.63
466.928	1828.5
467.3	1811.77
467.672	1849.06
468.045	1898.33
468.417	1932.22
468.789	1908.5
469.161	1916.86
469.534	1981.49
469.906	2054.93
470.278	2045.89
470.65	2089.51
471.022	2131.09
471.394	2160.47
471.766	2198.66
472.138	2278.65
472.51	2292.21
472.882	2364.75
473.253	2388.03
473.625	2394.36
473.997	2483.17
474.369	2527.01
474.74	2582.6
475.112	2608.82
475.484	2729.26
475.855	2778.75
476.227	2801.8
476.598	2908.47
476.97	2922.93
477.341	3038.41
477.713	3081.35
478.084	3111.63
478.455	3223.04
478.827	3309.59
479.198	3441.34
479.569	3458.51
479.94	3577.38
480.311	3639.3
480.682	3763.14
481.053	3874.77
481.424	3988.89
481.795	4074.31
482.166	4114.99
482.537	4252.16
482.908	4364.25
483.279	4450.8
483.65	4612.38
484.021	4727.4
484.391	4819.15
484.762	4881.75
485.133	5049.2
485.503	5114.06
485.874	5320.61
486.244	5402.41
486.615	5613.93
486.985	5668.85
487.356	5830.43
487.726	5980.25
488.097	6177.08
488.467	6193.13
488.837	6390.19
489.207	6567.36
489.578	6715.37
489.948	6840.12
490.318	6951.3
490.688	7124.86
491.058	7220.22
491.428	7459.99
491.798	7552.64
492.168	7776.59
492.538	7848.23
492.908	8067.43
493.278	8182.23
493.648	8281.89
494.017	8402.79
494.387	8624.48
494.757	8731.37
495.126	8921.87
495.496	8928.88
495.866	9199.83
496.235	9360.73
496.605	9438.47
496.974	9559.82
497.344	9673.94
497.713	9815.86
498.082	9983.54
498.452	10086.13
498.821	10132.01
499.19	10273.92
499.559	10408.38
499.928	10571.54
500.298	10684.31
500.667	10818.09
501.036	10894.47
501.405	10998.2
501.774	11110.29
502.143	11239.78
502.512	11297.4
502.88	11416.72
503.249	11479.54
503.618	11550.95
503.987	11735.36
504.356	11770.83
504.724	11917.5
505.093	12012.86
505.462	12008.57
505.83	12140.09
506.199	12255.57
506.567	12521.1
506.936	12545.73
507.304	12713.41
507.672	12689.23
508.041	12820.98
508.409	12876.34
508.777	13064.13
509.145	13033.4
509.514	13142.32
509.882	13215.09
510.25	13218.93
510.618	13345.03
510.986	13430.45
511.354	13483.56
511.722	13554.29
512.09	13720.61
512.458	13637.23
512.826	13783.89
513.193	13872.93
513.561	13856.66
513.929	13935.52
514.297	14052.36
514.664	14163.99
515.032	14186.36
515.4	14275.18
515.767	14330.77
516.135	14458.67
516.502	14322.86
516.869	14569.18
517.237	14523.76
517.604	14561.04
517.972	14610.99
518.339	14713.36
518.706	14711.1
519.073	14738.21
519.44	14748.61
519.808	14969.39
520.175	14868.61
520.542	15008.72
520.909	15071.09
521.276	15064.31
521.643	15236.28
522.009	15316.28
522.376	15283.51
522.743	15290.74
523.11	15389.72
523.477	15500.91
523.843	15465.2
524.21	15586.55
524.577	15688.25
524.943	15668.81
525.31	15745.87
525.676	15768.92
526.043	15765.08
526.409	15924.17
526.776	16041
527.142	15986.09
527.508	16045.52
527.874	16127.56
528.241	16059.31
528.607	16089.59
528.973	16178.4
529.339	16102.02
529.705	16099.08
530.071	16236.48
530.437	16221.34
530.803	16367.1
531.169	16365.74
531.535	16209.59
531.901	16312.64
532.267	16328.23
532.632	16342.69
532.998	16263.6
533.364	16236.48
533.73	16284.84
534.095	16392.18
534.461	16268.12
534.826	16389.02
535.192	16295.01
535.557	16423.59
535.923	16370.71
536.288	16355.12
536.653	16458.39
537.019	16225.18
537.384	16316.03
537.749	16241.23
538.114	16293.43
538.479	16260.66
538.845	16330.26
539.21	16130.49
539.575	16197.38
539.94	16220.66
540.305	16269.7
540.67	16169.14
541.034	16202.58
541.399	16201
541.764	16074
542.129	16062.93
542.494	16083.49
542.858	16062.93
543.223	16090.72
543.587	16102.02
543.952	16028.12
544.316	15954.68
544.681	15918.07
545.045	15886.88
545.41	15971.18
545.774	15869.48
546.138	15758.53
546.503	15838.3
546.867	15747.68
547.231	15880.33
547.595	15808.69
547.959	15719.88
548.324	15645.08
548.688	15705.42
549.052	15682.14
549.416	15625.2
549.779	15628.59
550.143	15503.17
550.507	15633.78
550.871	15632.65
551.235	15476.73
551.599	15526.67
551.962	15485.99
552.326	15442.6
552.689	15468.82
553.053	15441.92
553.417	15348.82
553.78	15540
554.143	15471.08
554.507	15516.27
554.87	15478.08
555.234	15586.55
555.597	15406.22
555.96	15478.99
556.323	15431.53
556.686	15432.89
557.05	15529.15
557.413	15434.47
557.776	15458.87
558.139	15419.55
558.502	15408.25
558.865	15431.3
559.228	15408.93
559.59	15443.96
559.953	15409.83
560.316	15560.79
560.679	15454.35
561.041	15525.99
561.404	15479.89
561.767	15612.77
562.129	15515.14
562.492	15564.86
562.854	15576.38
563.217	15511.08
563.579	15622.26
563.941	15638.76
564.304	15667.23
564.666	15697.51
565.028	15722.37
565.39	15687.34
565.753	15704.52
566.115	15761.01
566.477	15706.55
566.839	15722.82
567.201	15869.03
567.563	15869.71
567.925	15887.56
568.287	15855.25
568.648	15915.36
569.01	15933.89
569.372	16067.67
569.734	15861.35
570.095	16031.06
570.457	15981.35
570.819	16045.75
571.18	16057.73
571.542	16070.83
571.903	16126.43
572.265	16173.2
572.626	16076.94
572.987	16098.86
573.349	16134.79
573.71	16203.03
574.071	16223.82
574.432	16182.7
574.794	16304.73
575.155	16245.75
575.516	16198.74
575.877	16256.82
576.238	16227.44
576.599	16256.59
576.96	16250.49
577.32	16283.71
577.681	16440.32
578.042	16380.88
578.403	16369.58
578.763	16409.81
579.124	16363.71
579.485	16473.08
579.845	16409.58
580.206	16424.05
580.566	16393.76
580.927	16349.25
581.287	16487.09
581.648	16455.01
582.008	16371.17
582.368	16379.53
582.728	16422.01
583.089	16418.17
583.449	16400.54
583.809	16366.42
584.169	16363.48
584.529	16385.4
584.889	16471.73
585.249	16338.17
585.609	16212.53
585.969	16351.73
586.329	16240.32
586.688	16356.7
587.048	16313.99
587.408	16234.45
587.768	16212.07
588.127	16242.36
588.487	16252.75
588.846	16298.85
589.206	16191.28
589.565	16227.89
589.925	16329.58
590.284	16226.76
590.643	16155.8
591.003	16291.39
591.362	16329.58
591.721	16207.78
592.08	16214.11
592.44	16207.55
592.799	16247.1
593.158	16142.7
593.517	16126.2
593.876	16218.85
594.235	16173.66
594.593	16153.09
594.952	16178.63
595.311	16148.57
595.67	16088.46
596.029	16214.33
596.387	16179.08
596.746	16153.09
597.104	16266.54
597.463	16131.4
597.822	16160.78
598.18	16088.69
598.538	16089.14
598.897	16208.01
599.255	15977.96
599.613	16253.43
599.972	16175.24
600.33	16131.4
600.688	16094.79
601.046	16188.8
601.404	16152.64
601.762	16128.91
602.12	16133.88
602.478	16212.98
602.836	16169.81
603.194	16094.11
603.552	16175.24
603.91	16083.04
604.268	16078.29
604.625	16048.24
604.983	16116.26
605.341	16100.44
605.698	16122.81
606.056	16204.84
606.413	16164.62
606.771	16061.12
607.128	16233.09
607.485	16063.38
607.843	16142.92
608.2	16258.63
608.557	16217.72
608.914	16203.71
609.272	16230.38
609.629	16329.58
609.986	16341.34
610.343	16179.08
610.7	16346.76
611.057	16366.87
611.414	16345.4
611.771	16276.93
612.127	16416.59
612.484	16412.52
612.841	16466.98
613.198	16421.11
613.554	16398.96
613.911	16568
614.267	16471.73
614.624	16452.52
614.98	16475.12
615.337	16446.87
615.693	16537.26
616.05	16438.51
616.406	16559.64
616.762	16551.5
617.118	16550.14
617.475	16502.69
617.831	16554.66
618.187	16663.14
618.543	16604.61
618.899	16692.06
619.255	16569.35
619.611	16709.69
619.967	16699.52
620.323	16709.24
620.678	16640.54
621.034	16689.58
621.39	16685.06
621.746	16691.16
622.101	16727.99
622.457	16683.02
622.812	16626.53
623.168	16766.41
623.523	16668.11
623.879	16794.88
624.234	16646.41
624.589	16682.12
624.945	16728.9
625.3	16642.57
625.655	16760.53
626.01	16624.04
626.365	16688.9
626.72	16592.85
627.075	16538.84
627.43	16628.33
627.785	16565.06
628.14	16579.52
628.495	16643.47
628.85	16586.98
629.205	16511.73
629.559	16612.29
629.914	16563.02
630.269	16592.63
630.623	16530.48
630.978	16429.7
631.332	16550.37
631.687	16648.67
632.041	16501.33
632.396	16490.26
632.75	16455.46
633.104	16398.28
633.459	16448.45
633.813	16413.88
634.167	16461.56
634.521	16371.84
634.875	16432.63
635.229	16396.25
635.583	16308.34
635.937	16291.85
636.291	16327.32
636.645	16311.96
636.999	16258.85
637.352	16261.11
637.706	16076.71
638.06	16225.41
638.413	16175.24
638.767	16155.35
639.121	16105.86
639.474	16022.25
639.828	16068.8
640.181	16152.19
640.534	16067.9
640.888	16014.34
641.241	16021.34
641.594	16008.01
641.947	15975.47
642.301	16007.33
642.654	15982.02
643.007	16000.1
643.36	15997.39
643.713	15891.63
644.066	15913.32
644.419	15862.03
644.771	15852.08
645.124	15652.09
645.477	15661.58
645.83	15501.36
646.182	15489.61
646.535	15392.43
646.888	15488.02
647.24	15464.97
647.593	15380.01
647.945	15388.14
648.298	15326
648.65	15337.97
649.002	15340.23
649.355	15393.56
649.707	15400.57
650.059	15531.19
650.411	15686.89
650.763	15675.14
651.115	15738.64
651.467	15705.19
651.819	15791.52
652.171	15666.1
652.523	15674.23
652.875	15683.5
653.227	15600.56
653.578	15727.79
653.93	15665.2
654.282	15606.89
654.633	15562.15
654.985	15613.22
655.337	15742.03
655.688	15703.39
656.039	15722.6
656.391	15567.34
656.742	15677.62
657.094	15629.49
657.445	15728.47
657.796	15597.4
658.147	15674.91
658.498	15676.95
658.849	15701.13
659.2	15681.92
659.551	15654.8
659.902	15711.75
660.253	15643.05
660.604	15640.11
660.955	15687.57
661.306	15670.62
661.656	15618.19
662.007	15725.53
662.358	15762.82
662.708	15672.2
663.059	15690.28
663.409	15559.44
663.76	15760.79
664.11	15674.23
664.461	15725.53
664.811	15744.97
665.161	15740.22
665.511	15632.2
665.862	15684.18
666.212	15780.67
666.562	15744.29
666.912	15755.14
667.262	15787.9
667.612	15732.54
667.962	15753.1
668.312	15700.45
668.662	15749.71
669.011	15752.65
669.361	15711.3
669.711	15616.61
670.06	15647.79
670.41	15632.2
670.76	15623.84
671.109	15721.92
671.459	15584.97
671.808	15507.91
672.157	15605.99
672.507	15556.95
672.856	15538.87
673.205	15517.85
673.554	15559.44
673.904	15527.8
674.253	15608.02
674.602	15523.5
674.951	15241.48
675.3	15246.9
675.649	15437.4
675.998	15467.69
676.346	15427.24
676.695	15522.15
677.044	15295.26
677.393	15400.8
677.741	15454.35
678.09	15361.25
678.438	15409.61
678.787	15359.89
679.135	15392.21
679.484	15245.32
679.832	15336.62
680.181	15222.04
680.529	15253.91
680.877	15196.28
681.225	15122.84
681.573	15256.62
681.922	15031.99
682.27	15086.68
682.618	15014.82
682.966	15068.83
683.314	15107.92
683.661	15038.32
684.009	14960.36
684.357	14919
684.705	14859.34
685.053	14922.16
685.4	14808.95
685.748	14782.73
686.095	14746.35
686.443	14704.54
686.79	14710.64
687.138	14744.54
687.485	14610.31
687.832	14683.53
688.18	14681.04
688.527	14606.24
688.874	14512.23
689.221	14586.13
689.568	14488.73
689.915	14439.69
690.262	14394.04
690.609	14373.93
690.956	14360.15
691.303	14272.01
691.65	14206.48
691.997	14171.22
692.344	14108.85
692.69	14101.85
693.037	14092.36
693.383	13910.67
693.73	13980.04
694.077	13892.36
694.423	13857.33
694.769	13801.52
695.116	13787.28
695.462	13743.66
695.808	13667.96
696.155	13711.57
696.501	13583.22
696.847	13582.31
697.193	13455.76
697.539	13494.41
697.885	13425.03
698.231	13263.22
698.577	13384.8
698.923	13333.28
699.269	13181.64
699.614	13126.73
699.96	13170.12
700.306	13149.1
700.651	13044.7
700.997	12994.08
701.342	13019.39
701.688	12982.33
702.033	12967.64
702.379	12933.74
702.724	12880.64
703.069	12868.88
703.415	12768.55
703.76	12833.18
704.105	12726.29
704.45	12650.59
704.795	12532.85
705.14	12594.09
705.485	12546.86
705.83	12465.51
706.175	12519.97
706.52	12424.83
706.865	12343.7
707.209	12371.5
707.554	12315.45
707.899	12258.51
708.243	12249.24
708.588	12222.12
708.932	12055.57
709.277	12060.54
709.621	12035.01
709.966	12018.29
710.31	12021.68
710.654	11964.5
710.998	11966.31
711.342	11924.5
711.687	11832.08
712.031	11922.24
712.375	11864.17
712.719	11853.77
713.063	11754.79
713.407	11812.87
713.75	11764.96
714.094	11778.52
714.438	11727.22
714.782	11721.8
715.125	11650.61
715.469	11661.23
715.812	11553.67
716.156	11541.91
716.499	11548.47
716.843	11540.56
717.186	11452.2
717.53	11483.16
717.873	11474.35
718.216	11510.95
718.559	11439.54
718.902	11354.12
719.246	11390.28
719.589	11336.27
719.932	11291.07
720.275	11307.12
720.617	11306.89
720.96	11334.91
721.303	11218.31
721.646	11301.47
721.989	11276.61
722.331	11272.54
722.674	11253.79
723.016	11223.5
723.359	11143.05
723.701	11161.36
724.044	11176.27
724.386	11155.26
724.729	11242.71
725.071	11143.28
725.413	11159.1
725.755	11170.62
726.097	11092.21
726.439	11052.66
726.782	11041.81
727.124	11146.44
727.465	10985.09
727.807	11067.12
728.149	11035.49
728.491	10982.15
728.833	11018.54
729.175	10987.58
729.516	10951.87
729.858	10936.96
730.199	10971.53
730.541	10903.29
730.882	10944.87
731.224	10954.36
731.565	10849.95
731.906	10937.86
732.248	10908.03
732.589	10846.11
732.93	10862.61
733.271	10875.26
733.612	10957.3
733.953	10962.04
734.294	10856.06
734.635	10804.98
734.976	10874.81
735.317	10872.33
735.658	10825.1
735.999	10853.12
736.339	10942.61
736.68	10894.93
737.021	10913.46
737.361	10827.81
737.702	10880.24
738.042	10840.92
738.383	10873.91
738.723	10857.86
739.063	10860.58
739.404	10890.63
739.744	10882.04
740.084	10858.99
740.424	10925.43
740.764	10914.59
741.104	10955.94
741.444	10984.41
741.784	10938.54
742.124	11035.94
742.464	11056.73
742.804	11001.59
743.143	11044.3
743.483	11087.91
743.823	11020.8
744.162	11105.77
744.502	11142.83
744.841	11157.97
745.181	11205.2
745.52	11195.71
745.86	11226.67
746.199	11251.75
746.538	11257.18
746.877	11486.1
747.216	11392.77
747.556	11480.45
747.895	11481.58
748.234	11501.01
748.573	11539.65
748.911	11629.6
749.25	11713.89
749.589	11755.47
749.928	11829.14
750.267	11985.74
750.605	11947.78
750.944	12010.83
751.283	12077.95
751.621	12223.7
751.96	12233.87
752.298	12374.89
752.636	12448.33
752.975	12526.52
753.313	12562.23
753.651	12735.78
753.989	12790.02
754.327	12922.44
754.666	12946.4
755.004	13106.39
755.342	13276.33
755.679	13445.14
756.017	13499.15
756.355	13623.67
756.693	13749.54
757.031	13919.25
757.368	14028.63
757.706	14158.34
758.044	14249.64
758.381	14426.13
758.719	14565.34
759.056	14688.95
759.394	14980.92
759.731	14991.99
760.068	15198.99
760.405	15227.69
760.743	15480.34
761.08	15729.6
761.417	15788.81
761.754	15928.47
762.091	16093.43
762.428	16255.24
762.765	16420.2
763.102	16636.92
763.438	16678.28
763.775	16898.16
764.112	17059.96
764.449	17343.8
764.785	17376.56
765.122	17419.27
765.458	17630.12
765.795	17834.63
766.131	17912.37
766.467	18090.22
766.804	18175.41
767.14	18260.61
767.476	18303.32
767.812	18587.38
768.148	18706.47
768.485	18717.54
768.821	18815.4
769.157	18902.17
769.492	19147.36
769.828	19224.65
770.164	19209.28
770.5	19251.99
770.836	19304.2
771.171	19398.88
771.507	19494.47
771.842	19501.48
772.178	19717.97
772.513	19800
772.849	19895.14
773.184	19920.9
773.519	19959.55
773.855	19990.73
774.19	20015.59
774.525	20093.55
774.86	20269.82
775.195	20249.93
775.53	20282.93
775.865	20258.97
776.2	20272.53
776.535	20225.3
776.87	20315.24
777.205	20343.94
777.539	20352.98
777.874	20365.64
778.209	20436.82
778.543	20437.5
778.878	20429.82
779.212	20470.04
779.547	20472.98
779.881	20458.06
780.215	20556.59
780.55	20555.69
780.884	20511.4
781.218	20379.65
781.552	20550.49
781.886	20453.32
782.22	20398.18
782.554	20507.1
782.888	20363.6
783.222	20295.81
783.556	20330.61
783.889	20271.18
784.223	20168.58
784.557	20168.81
784.89	20206.54
785.224	20148.69
785.557	20111.63
785.891	20081.58
786.224	20103.27
786.558	20161.35
786.891	19942.6
787.224	19962.48
787.557	19879.77
787.891	19950.05
788.224	19903.05
788.557	19945.31
788.89	19875.71
789.223	19860.79
789.556	19833
789.888	19731.76
790.221	19788.02
790.554	19656.05
790.887	19609.05
791.219	19548.94
791.552	19570.18
791.884	19490.86
792.217	19492.67
792.549	19480.46
792.882	19272.33
793.214	19164.76
793.546	19401.14
793.879	19236.4
794.211	19094.26
794.543	19200.92
794.875	19177.19
795.207	19220.81
795.539	19147.14
795.871	19101.26
796.203	18948.27
796.535	18887.71
796.867	18765.68
797.198	18840.25
797.53	18864.89
797.862	18710.54
798.193	18694.72
798.525	18651.56
798.856	18676.87
799.188	18448.85
799.519	18497.21
799.85	18307.84
800.182	18387.84
800.513	18347.61
800.844	18230.1
801.175	18387.84
801.506	18279.59
801.837	18174.28
802.168	18135.86
802.499	18182.42
802.83	18007.51
803.161	18021.07
803.491	18054.06
803.822	17972.25
804.153	17851.8
804.483	17795.53
804.814	17805.7
805.145	17772.48
805.475	17699.72
805.805	17610.68
806.136	17671.92
806.466	17622.43
806.796	17567.07
807.126	17468.99
807.457	17410.46
807.787	17463.34
808.117	17386.96
808.447	17362.55
808.777	17346.51
809.107	17224.93
809.436	17238.04
809.766	17193.06
810.096	17148.77
810.426	17104.03
810.755	17156
811.085	17068.32
811.414	17080.3
811.744	16920.53
812.073	16799.18
812.403	16989.45
812.732	16805.73
813.061	16814.09
813.39	16758.5
813.719	16639.86
814.049	16843.02
814.378	16666.07
814.707	16639.86
815.036	16682.57
815.365	16657.71
815.693	16448.23
816.022	16522.12
816.351	16420.88
816.68	16372.07
817.008	16352.63
817.337	16164.62
817.665	16186.31
817.994	16236.71
818.322	16269.7
818.651	16131.17
818.979	16086.65
819.307	16176.37
819.636	16141.79
819.964	16081.68
820.292	16137.73
820.62	16004.4
820.948	15977.28
821.276	16139.08
821.604	16058.41
821.932	16114.22
822.259	16033.32
822.587	15961.68
822.915	15946.54
823.243	16013.43
823.57	15999.42
823.898	16027.22
824.225	15959.65
824.553	15932.99
824.88	15976.83
825.207	16000.55
825.535	15965.3
825.862	16044.62
826.189	16008.01
826.516	16028.58
826.843	16112.19
827.17	16020.21
827.497	15981.12
827.824	15965.53
828.151	16036.94
828.478	15973.66
828.805	15967.56
829.131	16027.9
829.458	15943.83
829.785	15928.92
830.111	15853.89
830.438	15989.93
830.764	16022.7
831.09	16047.56
831.417	15928.47
831.743	16026.09
832.069	15970.27
832.395	15910.61
832.722	15989.71
833.048	15891.86
833.374	15968.01
833.7	15848.92
834.026	15940.89
834.351	15923.49
834.677	15831.29
835.003	15906.09
835.329	15897.73
835.654	15851.41
835.98	15711.3
836.306	15723.27
836.631	15698.41
836.956	15807.11
837.282	15739.54
837.607	15711.97
837.932	15581.13
838.258	15710.84
838.583	15591.75
838.908	15495.26
839.233	15511.3
839.558	15586.1
839.883	15499.78
840.208	15358.76
840.533	15465.2
840.858	15438.31
841.182	15567.12
841.507	15463.62
841.832	15392.43
842.156	15310.18
842.481	15264.98
842.805	15220.01
843.13	15192.21
843.454	15171.42
843.778	15111.09
844.103	15101.82
844.427	15009.17
844.751	15070.63
845.075	14996.96
845.399	14923.07
845.723	14902.96
846.047	14967.59
846.371	14760.36
846.695	14870.19
847.019	14702.73
847.343	14674.49
847.666	14584.09
847.99	14427.94
848.313	14470.88
848.637	14364.44
848.96	14398.79
849.284	14318.79
849.607	14260.94
849.931	14258.68
850.254	14015.75
850.577	14064.56
850.9	13938.91
851.223	13888.74
851.546	13910.89
851.869	13771.91
852.192	13853.04
852.515	13712.7
852.838	13573.73
853.161	13608.98
853.483	13576.44
853.806	13545.03
854.129	13516.33
854.451	13358.59
854.774	13388.87
855.096	13284.47
855.419	13220.06
855.741	13278.59
856.063	13197.46
856.385	13161.31
856.708	13086.96
857.03	12986.62
857.352	13071.82
857.674	12991.82
857.996	13044.25
858.318	12921.09
858.64	12830.69
858.961	12816
859.283	12860.07
859.605	12808.32
859.926	12821.88
860.248	12733.07
860.57	12645.16
860.891	12688.55
861.212	12642.68
861.534	12540.08
861.855	12556.58
862.176	12573.07
862.498	12577.82
862.819	12506.63
863.14	12496.01
863.461	12369.24
863.782	12427.54
864.103	12475.22
864.424	12456.47
864.745	12349.58
865.065	12373.08
865.386	12316.58
865.707	12314.78
866.027	12319.07
866.348	12228.68
866.668	12278.17
866.989	12197.04
867.309	12162.24
867.63	12239.52
867.95	12174.44
868.27	12091.28
868.59	12061.67
868.91	12097.15
869.23	12108
869.55	12009.25
869.87	12082.46
870.19	12064.84
870.51	11991.62
870.83	12073.2
871.15	11891.51
871.469	11921.79
871.789	11928.34
872.109	11905.52
872.428	11832.53
872.748	11835.47
873.067	11845.63
873.386	11859.65
873.706	11782.59
874.025	11797.5
874.344	11755.02
874.663	11746.65
874.982	11737.39
875.301	11602.7
875.62	11713.66
875.939	11679.09
876.258	11574.23
876.577	11586.88
876.896	11586.66
877.214	11570.84
877.533	11564.74
877.852	11481.35
878.17	11534.23
878.489	11533.33
878.807	11479.09
879.125	11471.63
879.444	11534.68
879.762	11404.52
880.08	11467.34
880.398	11353.67
880.716	11345.54
881.034	11280.23
881.352	11340.34
881.67	11280.23
881.988	11268.25
882.306	11240.23
882.624	11191.41
882.941	11154.35
883.259	11107.35
883.577	11106.22
883.894	11086.33
884.212	11024.87
884.529	11048.14
884.846	11030.06
885.164	11009.27
885.481	10877.98
885.798	10960.01
886.115	10917.3
886.432	10844.76
886.75	10848.37
887.067	10893.34
887.383	10760.92
887.7	10814.25
888.017	10744.42
888.334	10816.51
888.651	10715.72
888.967	10753.69
889.284	10627.59
889.6	10612.67
889.917	10578.1
890.233	10589.85
890.55	10503.3
890.866	10518.21
891.182	10461.72
891.498	10388.05
891.815	10398.89
892.131	10389.4
892.447	10335.17
892.763	10336.75
893.079	10246.13
893.395	10289.97
893.71	10263.98
894.026	10256.75
894.342	10116.87
894.657	10137.21
894.973	10160.26
895.289	10061.95
895.604	10078.68
895.92	9993.93
896.235	9986.93
896.55	9937.66
896.865	9881.39
897.181	9885.01
897.496	9919.58
897.811	9766.59
898.126	9781.51
898.441	9827.38
898.756	9710.32
899.071	9712.13
899.386	9655.18
899.7	9567.28
900.015	9577.9
900.33	9468.07
900.644	9548.97
900.959	9499.03
901.273	9443.21
901.588	9444.79
901.902	9398.24
902.216	9327.73
902.531	9366.6
902.845	9305.81
903.159	9138.14
903.473	9161.19
903.787	9065.37
904.101	9096.33
904.415	9142.2
904.729	9026.5
905.042	9001.64
905.356	8873.28
905.67	8908.31
905.984	8940.85
906.297	8912.6
906.611	8897.01
906.924	8788.77
907.237	8828.54
907.551	8811.14
907.864	8727.98
908.177	8697.47
908.491	8605.04
908.804	8491.82
909.117	8521.43
909.43	8459.28
909.743	8401.21
910.056	8476.68
910.368	8452.28
910.681	8311.94
910.994	8329.8
911.307	8334.54
911.619	8297.48
911.932	8261.1
912.244	8157.82
912.557	8095.22
912.869	8094.32
913.181	8150.14
913.494	8055.23
913.806	7997.6
914.118	8028.11
914.43	7987.88
914.742	7901.78
915.054	7952.18
915.366	7858.17
915.678	7839.86
915.99	7753.09
916.302	7727.33
916.613	7683.48
916.925	7701.34
917.236	7736.82
917.548	7613.43
917.859	7623.15
918.171	7565.52
918.482	7545.86
918.794	7448.24
919.105	7506.99
919.416	7422.25
919.727	7409.82
920.038	7414.34
920.349	7355.81
920.66	7334.79
920.971	7332.53
921.282	7300.44
921.593	7229.94
921.903	7248.47
922.214	7215.47
922.525	7212.76
922.835	7136.15
923.146	7093.67
923.456	7026.55
923.767	7031.75
924.077	7027.91
924.387	6942.49
924.697	6914.01
925.008	6930.74
925.318	6869.04
925.628	6898.19
925.938	6866.78
926.248	6791.76
926.558	6789.27
926.867	6729.16
927.177	6726.45
927.487	6741.81
927.796	6643.29
928.106	6611.87
928.416	6580.91
928.725	6620.69
929.034	6500.01
929.344	6560.58
929.653	6494.82
929.962	6452.33
930.271	6465.66
930.581	6419.56
930.89	6413.01
931.199	6409.62
931.508	6338.44
931.817	6373.91
932.125	6315.84
932.434	6264.54
932.743	6219.57
933.051	6222.96
933.36	6205.33
933.669	6158.55
933.977	6126.92
934.286	6123.07
934.594	6115.39
934.902	5999.01
935.21	6057.09
935.519	6027.71
935.827	5970.08
936.135	5959.91
936.443	5936.64
936.751	5897.77
937.059	5891.22
937.367	5831.33
937.674	5893.93
937.982	5865.91
938.29	5812.35
938.597	5765.34
938.905	5707.94
939.213	5708.4
939.52	5666.81
939.827	5742.74
940.135	5585.69
940.442	5624.56
940.749	5537.1
941.056	5648.51
941.363	5533.48
941.67	5539.59
941.977	5417.56
942.284	5422.07
942.591	5502.07
942.898	5402.64
943.205	5430.89
943.511	5389.53
943.818	5359.25
944.125	5290.55
944.431	5325.13
944.738	5278.8
945.044	5261.18
945.35	5214.85
945.657	5165.58
945.963	5151.35
946.269	5168.07
946.575	5185.7
946.881	5092.82
947.187	5099.15
947.493	5058.24
947.799	5046.04
948.105	5020.05
948.41	5002.42
948.716	5016.21
949.022	4940.51
949.327	4971.01
949.633	4903.67
949.938	4912.03
950.244	4885.59
950.549	4836.33
950.854	4847.85
951.16	4821.19
951.465	4800.17
951.77	4771.7
952.075	4767.63
952.38	4717.23
952.685	4761.3
952.99	4723.11
953.294	4685.6
953.599	4654.86
953.904	4588.88
954.209	4623.45
954.513	4585.26
954.818	4518.6
955.122	4540.06
955.426	4520.86
955.731	4503.68
956.035	4456.9
956.339	4465.26
956.643	4434.08
956.948	4450.35
957.252	4427.3
957.556	4394.76
957.86	4379.16
958.163	4393.85
958.467	4357.47
958.771	4343.01
959.075	4300.07
959.378	4282.67
959.682	4290.58
959.985	4275.44
960.289	4212.39
960.592	4232.95
960.896	4194.31
961.199	4164.25
961.502	4198.83
961.805	4177.14
962.108	4115.67
962.411	4065.73
962.714	4105.05
963.017	4049
963.32	4102.34
963.623	4030.25
963.926	4024.6
964.228	4013.75
964.531	3999.06
964.833	3974.88
965.136	3959.74
965.438	3927.88
965.741	3883.81
966.043	3885.17
966.345	3852.4
966.648	3888.33
966.95	3847.65
967.252	3825.96
967.554	3808.33
967.856	3810.59
968.158	3731.5
968.46	3747.54
968.761	3717.04
969.063	3745.06
969.365	3699.86
969.666	3674.1
969.968	3682.46
970.269	3678.17
970.571	3665.74
970.872	3629.13
971.174	3599.75
971.475	3605.63
971.776	3595
972.077	3548.9
972.378	3562.01
972.679	3538.28
972.98	3554.55
973.281	3480.88
973.582	3512.97
973.883	3463.48
974.183	3460.09
974.484	3448.79
974.785	3418.51
975.085	3402.47
975.386	3406.31
975.686	3385.07
975.986	3386.2
976.287	3360.66
976.587	3315.69
976.887	3351.17
977.187	3333.32
977.487	3327.21
977.787	3272.75
978.087	3301.9
978.387	3242.02
978.687	3284.05
978.987	3219.87
979.286	3210.83
979.586	3253.77
979.885	3194.11
980.185	3171.74
980.484	3135.81
980.784	3154.11
981.083	3132.42
981.382	3112.76
981.682	3116.82
981.981	3112.98
982.28	3054.23
982.579	3080.89
982.878	3075.02
983.177	2994.79
983.475	3036.83
983.774	2994.34
984.073	2982.59
984.372	2951.41
984.67	2967.22
984.969	2954.57
985.267	2929.94
985.566	2906.66
985.864	2939.88
986.162	2882.93
986.461	2864.4
986.759	2841.58
987.057	2835.93
987.355	2845.19
987.653	2805.65
987.951	2795.7
988.249	2767.91
988.547	2789.83
988.844	2755.25
989.142	2769.72
989.44	2727.91
989.737	2709.15
990.035	2733.56
990.332	2699.66
990.63	2704.41
990.927	2695.82
991.224	2656.95
991.521	2676.84
991.819	2647.68
992.116	2649.72
992.413	2590.74
992.71	2604.97
993.006	2624.63
993.303	2610.17
993.6	2599.55
993.897	2581.7
994.193	2594.8
994.49	2509.61
994.787	2552.09
995.083	2496.5
995.379	2486.33
995.676	2480.68
995.972	2475.26
996.268	2471.19
996.565	2447.24
996.861	2462.38
997.157	2424.87
997.453	2424.87
997.749	2426.67
998.044	2386.22
998.34	2381.02
998.636	2364.98
998.932	2363.4
999.227	2338.99
999.523	2323.63
999.818	2325.21
1000.114	2343.29
1000.409	2307.58
1000.704	2272.78
1001	2273.68
1001.295	2255.83
1001.59	2257.64
1001.885	2249.5
1002.18	2213.57
1002.475	2204.98
1002.77	2201.59
1003.065	2164.31
1003.359	2187.58
1003.654	2187.13
1003.949	2162.73
1004.243	2141.26
1004.538	2124.76
1004.832	2120.01
1005.127	2109.39
1005.421	2064.2
1005.715	2079.34
1006.009	2086.8
1006.304	2045.21
1006.598	2021.71
1006.892	2048.38
1007.186	2005.67
1007.48	2027.36
1007.773	1980.13
1008.067	1968.38
1008.361	1962.5
1008.655	1961.15
1008.948	1930.87
1009.242	1943.3
1009.535	1912.11
1009.829	1917.76
1010.122	1871.89
1010.415	1872.11
1010.708	1885.67
1011.001	1859.68
1011.295	1887.93
1011.588	1889.29
1011.881	1834.37
1012.173	1817.2
1012.466	1837.08
1012.759	1804.09
1013.052	1783.98
1013.344	1777.88
1013.637	1787.59
1013.93	1738.33
1014.222	1741.72
1014.514	1748.27
1014.807	1727.48
1015.099	1735.39
1015.391	1749.4
1015.683	1767.26
1015.976	1711.66
1016.268	1676.64
1016.56	1684.32
1016.851	1645.68
1017.143	1656.75
1017.435	1639.58
1017.727	1605.68
1018.018	1618.33
1018.31	1591.67
1018.602	1605.9
1018.893	1581.95
1019.185	1601.61
1019.476	1575.62
1019.767	1593.48
1020.058	1556.64
1020.35	1518.9
1020.641	1558.22
1020.932	1553.25
1021.223	1513.93
1021.514	1505.79
1021.804	1500.6
1022.095	1464.66
1022.386	1455.85
1022.677	1478.68
1022.967	1421.95
1023.258	1424.44
1023.548	1448.39
1023.839	1467.83
1024.129	1420.6
1024.419	1401.39
1024.709	1397.32
1025	1397.1
1025.29	1381.73
1025.58	1394.16
1025.87	1355.74
1026.16	1355.52
1026.449	1352.35
1026.739	1337.89
1027.029	1333.14
1027.319	1338.79
1027.608	1324.56
1027.898	1278.46
1028.187	1294.05
1028.477	1296.99
1028.766	1266.03
1029.055	1266.93
1029.344	1259.25
1029.634	1243.43
1029.923	1252.69
1030.212	1261.05
1030.501	1237.1
1030.79	1227.38
1031.078	1209.3
1031.367	1215.18
1031.656	1171.57
1031.945	1169.98
1032.233	1166.14
1032.522	1206.59
1032.81	1175.63
1033.099	1186.93
1033.387	1132.24
1033.675	1138.35
1033.963	1144
1034.251	1108.97
1034.54	1128.4
1034.828	1105.8
1035.116	1122.75
1035.403	1108.97
1035.691	1091.12
1035.979	1099.48
1036.267	1086.6
1036.554	1058.8
1036.842	1045.69
1037.129	1076.43
1037.417	1058.12
1037.704	1043.66
1037.992	1011.57
1038.279	1025.35
1038.566	1024.68
1038.853	1024.68
1039.14	1024.68
