Data from hue_190_FLMS001491_00006.txt Node
Date: Tue Feb 07 16:44:43 GMT 2017
User: dcchb
Spectrometer: FLMS00149
Trigger mode: 0
Integration Time (sec): 2.000000E-2
Scans to average: 10
Electric dark correction enabled: true
Nonlinearity correction enabled: false
Boxcar width: 0
XAxis mode: Wavelengths
Number of Pixels in Spectrum: 2048
>>>>>Begin Spectral Data<<<<<
341.393	-8.39
341.776	-8.39
342.16	-8.39
342.543	-57.88
342.927	-77.09
343.31	-64.66
343.693	-63.08
344.077	-94.04
344.46	-74.15
344.843	-41.61
345.226	-38.45
345.61	-46.58
345.993	-7.26
346.376	-0.71
346.759	12.85
347.142	40.65
347.525	23.25
347.908	65.51
348.291	89.91
348.674	97.6
349.057	100.76
349.44	128.56
349.823	142.11
350.206	169.68
350.588	183.02
350.971	217.59
351.354	225.95
351.737	234.09
352.119	243.36
352.502	253.3
352.884	254.88
353.267	273.18
353.65	302.79
354.032	290.13
354.414	296.91
354.797	296.69
355.179	331.94
355.562	314.09
355.944	317.25
356.326	328.78
356.709	321.32
357.091	320.19
357.473	343.01
357.855	338.27
358.238	345.95
358.62	336.46
359.002	340.53
359.384	333.97
359.766	338.27
360.148	333.52
360.53	331.26
360.912	338.72
361.294	331.26
361.676	327.19
362.057	321.55
362.439	320.87
362.821	339.17
363.203	327.87
363.584	307.53
363.966	298.27
364.348	317.93
364.729	328.1
365.111	311.83
365.493	316.12
365.874	317.48
366.256	310.7
366.637	302.79
367.019	305.73
367.4	306.86
367.781	322
368.163	312.73
368.544	311.6
368.925	308.66
369.306	307.76
369.688	297.37
370.069	305.05
370.45	317.25
370.831	305.05
371.212	309.79
371.593	315.44
371.974	295.78
372.355	293.98
372.736	291.94
373.117	293.98
373.498	311.38
373.879	289.68
374.26	298.95
374.641	317.48
375.021	323.35
375.402	308.66
375.783	330.58
376.163	322.9
376.544	331.49
376.925	329.23
377.305	320.64
377.686	311.38
378.066	330.13
378.447	329.45
378.827	327.19
379.208	327.19
379.588	322.9
379.968	319.06
380.349	319.29
380.729	305.95
381.109	320.42
381.489	340.75
381.87	326.52
382.25	327.19
382.63	346.18
383.01	335.56
383.39	352.28
383.77	325.16
384.15	337.14
384.53	336.23
384.91	339.62
385.29	319.51
385.67	339.85
386.049	333.75
386.429	334.43
386.809	343.24
387.189	334.88
387.568	339.62
387.948	360.41
388.328	346.18
388.707	344.14
389.087	339.17
389.466	344.82
389.846	340.53
390.225	374.43
390.605	357.02
390.984	361.09
391.363	352.05
391.743	373.97
392.122	345.05
392.501	382.11
392.881	354.09
393.26	363.35
393.639	382.33
394.018	374.65
394.397	350.7
394.776	371.49
395.155	367.65
395.534	378.49
395.913	351.83
396.292	374.65
396.671	367.42
397.05	387.76
397.429	381.88
397.808	386.4
398.186	399.96
398.565	399.96
398.944	384.14
399.323	387.08
399.701	411.49
400.08	387.53
400.458	398.83
400.837	392.96
401.215	399.51
401.594	418.72
401.972	405.61
402.351	400.64
402.729	428.44
403.107	432.5
403.486	419.17
403.864	420.98
404.242	402.9
404.62	435.89
404.999	438.15
405.377	422.79
405.755	436.12
406.133	455.55
406.511	459.17
406.889	465.95
407.267	450.58
407.645	459.39
408.023	465.27
408.401	459.85
408.779	471.82
409.156	482.67
409.534	510.01
409.912	484.93
410.29	509.34
410.667	508.66
411.045	521.77
411.422	516.34
411.8	520.64
412.178	540.75
412.555	538.94
412.933	571.26
413.31	565.38
413.687	576.23
414.065	578.26
414.442	571.48
414.819	580.52
415.197	607.87
415.574	595.21
415.951	600.41
416.328	632.05
416.705	626.62
417.082	637.92
417.46	638.37
417.837	659.84
418.214	661.2
418.591	667.52
418.967	701.42
419.344	684.47
419.721	697.13
420.098	693.51
420.475	718.14
420.852	724.02
421.228	707.3
421.605	755.43
421.982	771.7
422.358	790.69
422.735	779.39
423.111	787.07
423.488	819.61
423.864	808.31
424.241	843.34
424.617	862.55
424.994	863.45
425.37	883.56
425.746	883.56
426.123	904.13
426.499	918.59
426.875	915.43
427.251	949.1
427.627	958.36
428.003	975.99
428.379	985.48
428.756	985.93
429.132	1014.86
429.507	982.32
429.883	1060.06
430.259	1029.32
430.635	1045.59
431.011	1069.32
431.387	1070.68
431.763	1095.54
432.138	1105.03
432.514	1095.76
432.89	1113.61
433.265	1170.11
433.641	1180.96
434.016	1187.51
434.392	1232.48
434.767	1251.24
435.143	1276.1
435.518	1253.5
435.894	1296.21
436.269	1346.83
436.644	1328.52
437.02	1360.39
437.395	1370.33
437.77	1379.37
438.145	1436.77
438.52	1470.67
438.895	1495.07
439.271	1480.84
439.646	1506.6
440.021	1549.08
440.395	1590.89
440.77	1584.79
441.145	1580.95
441.52	1626.6
441.895	1612.81
442.27	1661.62
442.645	1709.31
443.019	1690.55
443.394	1701.62
443.769	1718.57
444.143	1682.87
444.518	1775.97
444.892	1737.33
445.267	1818.68
445.641	1784.33
446.016	1816.65
446.39	1842.18
446.764	1870.66
447.139	1839.92
447.513	1846.48
447.887	1878.11
448.262	1891.67
448.636	1929.64
449.01	1929.41
449.384	1934.61
449.758	1964.21
450.132	1994.04
450.506	2018.22
450.88	2014.83
451.254	2014.83
451.628	2034.95
452.002	2090.54
452.376	2108.84
452.75	2133.93
453.123	2152.01
453.497	2209.86
453.871	2174.15
454.244	2217.09
454.618	2257.09
454.992	2289.63
455.365	2283.98
455.739	2383.41
456.112	2370.3
456.486	2379.8
456.859	2394.49
457.232	2432.68
457.606	2416.18
457.979	2480.58
458.352	2549.06
458.725	2568.49
459.099	2572.56
459.472	2615.5
459.845	2637.64
460.218	2680.35
460.591	2723.52
460.964	2711.31
461.337	2743.4
461.71	2833.57
462.083	2850.97
462.456	2848.26
462.829	2903.17
463.201	2923.51
463.574	2933.68
463.947	2988.14
464.32	3026.56
464.692	3061.13
465.065	3123.73
465.438	3173.67
465.81	3228.59
466.183	3200.57
466.555	3328.47
466.928	3315.14
467.3	3313.1
467.672	3360.34
468.045	3495.02
468.417	3485.76
468.789	3551.97
469.161	3567.34
469.534	3616.37
469.906	3726.2
470.278	3751.74
470.65	3752.64
471.022	3814.56
471.394	3933.65
471.766	3947.89
472.138	3975.01
472.51	4063.14
472.882	4142.69
473.253	4191.95
473.625	4245.06
473.997	4320.54
474.369	4356.02
474.74	4439.4
475.112	4476.92
475.484	4582.9
475.855	4653.18
476.227	4700.41
476.598	4879.84
476.97	4861.76
477.341	4981.99
477.713	5041.2
478.084	5085.71
478.455	5271.25
478.827	5275.99
479.198	5440.96
479.569	5428.3
479.94	5552.82
480.311	5661.29
480.682	5762.76
481.053	5927.5
481.424	6027.84
481.795	6079.59
482.166	6098.57
482.537	6223.99
482.908	6309.86
483.279	6367.26
483.65	6539.91
484.021	6639.8
484.391	6730.87
484.762	6807.93
485.133	6829.4
485.503	6940.35
485.874	7120.69
486.244	7153.91
486.615	7257.63
486.985	7378.08
487.356	7554.58
487.726	7619.88
488.097	7741.92
488.467	7755.93
488.837	7950.5
489.207	8017.84
489.578	8150.72
489.948	8201.34
490.318	8311.84
490.688	8369.47
491.058	8493.08
491.428	8574.44
491.798	8637.48
492.168	8790.7
492.538	8837.93
492.908	8891.94
493.278	9032.28
493.648	9089.22
494.017	9153.18
494.387	9239.95
494.757	9343
495.126	9388.88
495.496	9327.86
495.866	9499.16
496.235	9481.3
496.605	9708.42
496.974	9673.62
497.344	9747.29
497.713	9755.87
498.082	9793.16
498.452	9923.1
498.821	9957.68
499.19	9932.14
499.559	10004.23
499.928	10145.24
500.298	10139.14
500.667	10220.27
501.036	10106.37
501.405	10310.89
501.774	10240.15
502.143	10266.82
502.512	10390.88
502.88	10386.82
503.249	10401.73
503.618	10458.68
503.987	10539.58
504.356	10485.8
504.724	10592.24
505.093	10644.21
505.462	10568.06
505.83	10585.46
506.199	10639.47
506.567	10756.75
506.936	10707.26
507.304	10809.86
507.672	10765.56
508.041	10869.29
508.409	10862.51
508.777	10962.4
509.145	10935.28
509.514	10928.95
509.882	10968.27
510.25	10982.28
510.618	11033.81
510.986	11003.3
511.354	11043.52
511.722	11047.82
512.09	11165.33
512.458	11082.17
512.826	11167.36
513.193	11156.06
513.561	11117.87
513.929	11256.17
514.297	11206.68
514.664	11288.94
515.032	11258.21
515.4	11220.02
515.767	11319.67
516.135	11315.15
516.502	11262.73
516.869	11345.89
517.237	11357.41
517.604	11263.4
517.972	11394.47
518.339	11280.13
518.706	11327.58
519.073	11281.26
519.44	11364.87
519.808	11426.11
520.175	11358.09
520.542	11456.62
520.909	11398.32
521.276	11373.46
521.643	11453.68
522.009	11488.26
522.376	11501.59
522.743	11445.77
523.11	11496.84
523.477	11518.54
523.843	11497.52
524.21	11547.24
524.577	11555.15
524.943	11527.8
525.31	11516.73
525.676	11529.84
526.043	11630.17
526.409	11550.4
526.776	11558.54
527.142	11471.99
527.508	11436.73
527.874	11504.3
528.241	11491.65
528.607	11490.74
528.973	11446.68
529.339	11434.25
529.705	11492.78
530.071	11467.69
530.437	11451.2
530.803	11389.28
531.169	11424.76
531.535	11327.36
531.901	11301.14
532.267	11301.6
532.632	11254.37
532.998	11203.74
533.364	11178.21
533.73	11146.8
534.095	11198.55
534.461	11218.89
534.826	11125.78
535.192	11060.92
535.557	11106.8
535.923	10966.92
536.288	10847.82
536.653	10961.27
537.019	10897.54
537.384	10851.66
537.749	10778.67
538.114	10654.83
538.479	10643.99
538.845	10691.22
539.21	10521.73
539.575	10560.6
539.94	10487.38
540.305	10425.69
540.67	10376.87
541.034	10350.66
541.399	10317.89
541.764	10283.54
542.129	10304.56
542.494	10134.85
542.858	10089.88
543.223	10090.33
543.587	10114.06
543.952	10052.81
544.316	9928.07
544.681	9850.56
545.045	9826.38
545.41	9816.44
545.774	9725.37
546.138	9689.21
546.503	9702.09
546.867	9538.48
547.231	9582.32
547.595	9543
547.959	9441.53
548.324	9409.67
548.688	9356.79
549.052	9286.28
549.416	9282.67
549.779	9169.22
550.143	9219.62
550.507	9157.25
550.871	9103.69
551.235	9078.6
551.599	9055.55
551.962	8987.31
552.326	8927.19
552.689	8900.98
553.053	8863.92
553.417	8744.15
553.78	8882.45
554.143	8745.28
554.507	8706.64
554.87	8757.03
555.234	8748.44
555.597	8569.69
555.96	8567.66
556.323	8605.4
556.686	8543.02
557.05	8524.27
557.413	8487.43
557.776	8450.37
558.139	8473.2
558.502	8432.52
558.865	8438.17
559.228	8429.58
559.59	8336.93
559.953	8308.23
560.316	8340.54
560.679	8336.93
561.041	8316.14
561.404	8313.88
561.767	8329.7
562.129	8244.5
562.492	8283.14
562.854	8202.47
563.217	8179.64
563.579	8193.2
563.941	8188.23
564.304	8192.52
564.666	8210.38
565.028	8134
565.39	8125.86
565.753	8143.03
566.115	8188.23
566.477	8177.61
566.839	8139.87
567.201	8180.77
567.563	8136.48
567.925	8173.99
568.287	8192.3
568.648	8153.43
569.01	8146.88
569.372	8197.27
569.734	8104.62
570.095	8148.23
570.457	8152.07
570.819	8173.99
571.18	8178.51
571.542	8119.53
571.903	8103.04
572.265	8140.1
572.626	8138.06
572.987	8137.61
573.349	8040.66
573.71	8139.42
574.071	8054
574.432	8089.93
574.794	8163.37
575.155	8125.18
575.516	8033.21
575.877	8094.45
576.238	8079.08
576.599	8145.52
576.96	8141.68
577.32	8063.04
577.681	8119.98
578.042	8071.17
578.403	8049.48
578.763	8110.72
579.124	8043.15
579.485	8092.41
579.845	8069.82
580.206	8092.41
580.566	8072.08
580.927	8141.9
581.287	8120.89
581.648	8044.51
582.008	8088.35
582.368	8036.37
582.728	8029.59
583.089	7975.13
583.449	8017.61
583.809	7992.76
584.169	8017.39
584.529	8020.33
584.889	7988.24
585.249	7933.55
585.609	7893.78
585.969	7921.57
586.329	7939.65
586.688	7945.75
587.048	7936.94
587.408	7889.03
587.768	7851.29
588.127	7886.77
588.487	7811.29
588.846	7869.37
589.206	7793.67
589.565	7771.07
589.925	7810.16
590.284	7823.04
590.643	7853.32
591.003	7872.99
591.362	7812.42
591.721	7774.46
592.08	7856.71
592.44	7809.94
592.799	7799.54
593.158	7707.11
593.517	7752.08
593.876	7774.46
594.235	7779.88
594.593	7712.76
594.952	7725.42
595.311	7704.18
595.67	7727.68
596.029	7777.85
596.387	7735.36
596.746	7731.29
597.104	7678.87
597.463	7651.3
597.822	7672.99
598.18	7607.46
598.538	7641.35
598.897	7647.68
599.255	7588.7
599.613	7713.44
599.972	7664.85
600.33	7613.1
600.688	7642.48
601.046	7651.75
601.404	7653.56
601.762	7600.45
602.12	7625.53
602.478	7654.91
602.836	7596.38
603.194	7609.94
603.552	7655.82
603.91	7491.75
604.268	7604.74
604.625	7529.27
604.983	7607.46
605.341	7558.64
605.698	7605.65
606.056	7639.54
606.413	7536.5
606.771	7594.35
607.128	7662.82
607.485	7563.84
607.843	7545.54
608.2	7629.6
608.557	7583.05
608.914	7625.99
609.272	7528.14
609.629	7632.77
609.986	7623.73
610.343	7576.27
610.7	7654.46
611.057	7590.05
611.414	7607
611.771	7595.03
612.127	7687.68
612.484	7732.65
612.841	7678.87
613.198	7673.89
613.554	7676.61
613.911	7696.94
614.267	7642.26
614.624	7717.28
614.98	7595.93
615.337	7723.38
615.693	7668.02
616.05	7651.07
616.406	7711.18
616.762	7671.18
617.118	7660.56
617.475	7650.39
617.831	7677.96
618.187	7741.46
618.543	7747.56
618.899	7754.12
619.255	7722.25
619.611	7741.92
619.967	7747.56
620.323	7756.15
620.678	7743.27
621.034	7680.9
621.39	7661.24
621.746	7678.41
622.101	7801.8
622.457	7731.75
622.812	7668.24
623.168	7767.23
623.523	7693.33
623.879	7807.22
624.234	7731.29
624.589	7724.06
624.945	7765.19
625.3	7769.48
625.655	7730.39
626.01	7721.35
626.365	7718.64
626.72	7702.59
627.075	7709.83
627.43	7722.03
627.785	7656.04
628.14	7679.77
628.495	7706.44
628.85	7673.22
629.205	7679.77
629.559	7675.93
629.914	7682.71
630.269	7666.21
630.623	7687.68
630.978	7644.74
631.332	7627.79
631.687	7637.51
632.041	7617.17
632.396	7708.24
632.75	7576.72
633.104	7596.38
633.459	7542.82
633.813	7630.51
634.167	7590.51
634.521	7565.65
634.875	7550.73
635.229	7571.07
635.583	7466.89
635.937	7478.87
636.291	7517.74
636.645	7526.1
636.999	7440.23
637.352	7498.76
637.706	7450.62
638.06	7501.24
638.413	7476.39
638.767	7542.82
639.121	7468.25
639.474	7418.08
639.828	7405.88
640.181	7431.64
640.534	7444.52
640.888	7412.21
641.241	7404.52
641.594	7442.49
641.947	7354.81
642.301	7380.34
642.654	7357.29
643.007	7380.12
643.36	7382.15
643.713	7323.62
644.066	7356.61
644.419	7311.42
644.771	7277.29
645.124	7191.2
645.477	7180.35
645.83	7180.8
646.182	7123.63
646.535	7100.8
646.888	7159.56
647.24	7114.81
647.593	7134.7
647.945	7158.65
648.298	7101.03
648.65	7107.58
649.002	7116.62
649.355	7165.66
649.707	7135.6
650.059	7163.85
650.411	7202.72
650.763	7170.86
651.115	7308.25
651.467	7258.76
651.819	7306.45
652.171	7313.9
652.523	7310.74
652.875	7303.73
653.227	7211.53
653.578	7335.6
653.93	7273.68
654.282	7282.94
654.633	7235.94
654.985	7265.09
655.337	7269.84
655.688	7315.49
656.039	7295.37
656.391	7248.14
656.742	7257.18
657.094	7289.27
657.445	7326.33
657.796	7364.98
658.147	7248.59
658.498	7281.59
658.849	7277.29
659.2	7275.26
659.551	7310.97
659.902	7333.79
660.253	7353
660.604	7300.12
660.955	7343.73
661.306	7340.34
661.656	7354.13
662.007	7354.35
662.358	7354.58
662.708	7349.38
663.059	7363.85
663.409	7276.62
663.76	7406.78
664.11	7423.96
664.461	7330.4
664.811	7376.27
665.161	7357.52
665.511	7368.59
665.862	7363.85
666.212	7412.21
666.562	7430.74
666.912	7372.89
667.262	7368.37
667.612	7372.89
667.962	7357.52
668.312	7354.35
668.662	7403.17
669.011	7366.56
669.361	7384.86
669.711	7354.13
670.06	7360.46
670.41	7322.49
670.76	7327.69
671.109	7298.08
671.459	7353.9
671.808	7327.24
672.157	7333.11
672.507	7340.12
672.856	7296.5
673.205	7323.4
673.554	7311.64
673.904	7329.04
674.253	7408.36
674.602	7275.71
674.951	7259.44
675.3	7107.58
675.649	7320.91
675.998	7277.52
676.346	7296.05
676.695	7264.41
677.044	7247.01
677.393	7282.27
677.741	7313.45
678.09	7206.11
678.438	7222.61
678.787	7239.1
679.135	7240.23
679.484	7154.13
679.832	7166.11
680.181	7140.8
680.529	7188.94
680.877	7099.67
681.225	7123.85
681.573	7159.56
681.922	7078.2
682.27	7101.03
682.618	7095.83
682.966	7100.58
683.314	7131.54
683.661	7005.89
684.009	6995.49
684.357	7009.96
684.705	7052.67
685.053	6996.62
685.4	6983.52
685.748	6897.19
686.095	6914.14
686.443	6845.67
686.79	6895.84
687.138	6903.07
687.485	6901.26
687.832	6846.8
688.18	6869.85
688.527	6807.93
688.874	6805.89
689.221	6736.52
689.568	6740.81
689.915	6760.25
690.262	6743.3
690.609	6679.8
690.956	6706.01
691.303	6653.36
691.65	6594.37
691.997	6714.82
692.344	6608.84
692.69	6621.94
693.037	6578.1
693.383	6489.74
693.73	6534.72
694.077	6460.82
694.423	6479.35
694.769	6496.75
695.116	6389.41
695.462	6385.11
695.808	6399.58
696.155	6446.13
696.501	6333.59
696.847	6318.9
697.193	6281.61
697.539	6252.46
697.885	6280.94
698.231	6266.47
698.577	6161.62
698.923	6189.64
699.269	6175.18
699.614	6110.32
699.96	6138.79
700.306	6117.33
700.651	6064.67
700.997	5967.05
701.342	6000.27
701.688	6037.55
702.033	6023.32
702.379	5979.48
702.724	5956.43
703.069	5961.17
703.415	5894.51
703.76	5842.3
704.105	5861.96
704.45	5837.78
704.795	5800.05
705.14	5816.99
705.485	5777.45
705.83	5779.93
706.175	5780.16
706.52	5716.88
706.865	5700.61
707.209	5741.97
707.554	5694.06
707.899	5693.83
708.243	5621.07
708.588	5648.64
708.932	5632.37
709.277	5572.25
709.621	5584.23
709.966	5542.88
710.31	5584.23
710.654	5508.75
710.998	5528.41
711.342	5495.19
711.687	5514.63
712.031	5459.49
712.375	5449.09
712.719	5465.36
713.063	5439.6
713.407	5461.75
713.75	5439.15
714.094	5420.39
714.438	5377.23
714.782	5429.21
715.125	5359.15
715.469	5367.97
715.812	5341.07
716.156	5346.95
716.499	5318.25
716.843	5387.85
717.186	5313.5
717.53	5362.99
717.873	5360.06
718.216	5307.85
718.559	5287.52
718.902	5277.12
719.246	5314.63
719.589	5272.38
719.932	5234.64
720.275	5206.16
720.617	5248.2
720.96	5219.72
721.303	5237.35
721.646	5235.77
721.989	5207.97
722.331	5255.88
722.674	5242.09
723.016	5160.74
723.359	5211.59
723.701	5209.78
724.044	5132.49
724.386	5163.45
724.729	5244.58
725.071	5243.68
725.413	5203.68
725.755	5184.24
726.097	5187.63
726.439	5159.84
726.782	5165.03
727.124	5203.22
727.465	5183.11
727.807	5151.93
728.149	5183.34
728.491	5136.11
728.833	5192.15
729.175	5143.11
729.516	5149.67
729.858	5127.97
730.199	5161.87
730.541	5123.23
730.882	5188.08
731.224	5146.28
731.565	5093.85
731.906	5168.88
732.248	5143.34
732.589	5122.55
732.93	5124.81
733.271	5128.65
733.612	5207.07
733.953	5161.42
734.294	5133.17
734.635	5175.65
734.976	5210.91
735.317	5205.71
735.658	5181.76
735.999	5164.58
736.339	5193.96
736.68	5213.39
737.021	5184.02
737.361	5162.77
737.702	5190.12
738.042	5186.95
738.383	5188.99
738.723	5215.43
739.063	5207.97
739.404	5251.59
739.744	5270.57
740.084	5288.19
740.424	5286.84
740.764	5318.48
741.104	5327.74
741.444	5297.01
741.784	5326.84
742.124	5334.75
742.464	5363.22
742.804	5366.38
743.143	5392.6
743.483	5367.74
743.823	5398.25
744.162	5466.95
744.502	5492.26
744.841	5488.19
745.181	5509.66
745.52	5525.93
745.86	5603.89
746.199	5609.32
746.538	5607.28
746.877	5693.16
747.216	5741.74
747.556	5762.76
747.895	5836.65
748.234	5862.42
748.573	5927.73
748.911	5922.3
749.25	5991.45
749.589	6029.42
749.928	6127.04
750.267	6197.55
750.605	6285.46
750.944	6324.78
751.283	6349.86
751.621	6517.09
751.96	6541.95
752.298	6620.36
752.636	6729.06
752.975	6842.5
753.313	6906
753.651	7085.21
753.989	7111.2
754.327	7216.73
754.666	7297.86
755.004	7415.82
755.342	7588.7
755.679	7692.42
756.017	7752.99
756.355	7979.65
756.693	8072.75
757.031	8255.12
757.368	8338.28
757.706	8540.31
758.044	8665.73
758.381	8827.54
758.719	8912.73
759.056	9113.63
759.394	9286.73
759.731	9387.52
760.068	9560.4
760.405	9705.48
760.743	9844.23
761.08	10137.56
761.417	10200.16
761.754	10498
762.091	10576.64
762.428	10731.89
762.765	10942.06
763.102	11175.72
763.438	11267.47
763.775	11496.17
764.112	11653.22
764.449	11881.24
764.785	11938.41
765.122	12172.08
765.458	12307.67
765.795	12508.8
766.131	12673.54
766.467	12823.14
766.804	12922.12
767.14	13035.34
767.476	13324.59
767.812	13376.57
768.148	13646.84
768.485	13711.25
768.821	13749.44
769.157	14136.78
769.492	14206.83
769.828	14309.88
770.164	14384
770.5	14446.82
770.836	14597.1
771.171	14739.47
771.507	14882.97
771.842	14880.03
772.178	15153.7
772.513	15193.24
772.849	15326.35
773.184	15341.94
773.519	15454.25
773.855	15456.97
774.19	15576.74
774.525	15693.8
774.86	15811.76
775.195	15940.57
775.53	16013.56
775.865	15909.84
776.2	16064.18
776.535	15962.94
776.87	16060.79
777.205	16102.6
777.539	16103.05
777.874	16273.89
778.209	16356.38
778.543	16279.09
778.878	16386.89
779.212	16384.63
779.547	16461.69
779.881	16541.23
780.215	16524.51
780.55	16546.66
780.884	16614.9
781.218	16645.86
781.552	16620.33
781.886	16712.3
782.22	16663.94
782.554	16671.17
782.888	16618.97
783.222	16639.99
783.556	16662.81
783.889	16573.55
784.223	16662.13
784.557	16667.56
784.89	16689.7
785.224	16654.68
785.557	16670.49
785.891	16592.76
786.224	16618.74
786.558	16600.44
786.891	16484.96
787.224	16519.99
787.557	16598.18
787.891	16470.95
788.224	16485.41
788.557	16530.38
788.89	16484.96
789.223	16560.21
789.556	16476.83
789.888	16510.95
790.221	16486.09
790.554	16355.7
790.887	16413.78
791.219	16347.79
791.552	16391.86
791.884	16318.41
792.217	16394.12
792.549	16316.6
792.882	16279.54
793.214	16298.98
793.546	16257.85
793.879	16166.33
794.211	16091.07
794.543	16270.5
794.875	16154.58
795.207	16281.58
795.539	16123.62
795.871	16043.39
796.203	16082.26
796.535	15962.72
796.867	15982.6
797.198	15901.25
797.53	15921.81
797.862	15879.33
798.193	15898.31
798.525	15713.91
798.856	15813.79
799.188	15644.76
799.519	15611.54
799.85	15638.66
800.182	15683.18
800.513	15584.87
800.844	15484.76
801.175	15593.01
801.506	15586
801.837	15414.71
802.168	15473.01
802.499	15400.92
802.83	15326.57
803.161	15369.06
803.491	15366.8
803.822	15265.56
804.153	15270.3
804.483	15148.27
804.814	15089.52
805.145	15032.12
805.475	15100.37
805.805	15031.89
806.136	15054.04
806.466	15055.85
806.796	14974.27
807.126	14906.02
807.457	14859.24
807.787	14876.42
808.117	14833.71
808.447	14823.31
808.777	14880.26
809.107	14739.02
809.436	14679.13
809.766	14727.04
810.096	14627.84
810.426	14555.97
810.755	14573.83
811.085	14630.55
811.414	14651.11
811.744	14510.1
812.073	14467.16
812.403	14547.39
812.732	14387.39
813.061	14435.52
813.39	14386.71
813.719	14337
814.049	14375.41
814.378	14364.57
814.707	14254.06
815.036	14332.02
815.365	14239.6
815.693	14144.91
816.022	14197.34
816.351	14071.69
816.68	14052.94
817.008	14115.31
817.337	13942.66
817.665	13935.2
817.994	14020.85
818.322	13916.44
818.651	13939.72
818.979	13884.35
819.307	13927.06
819.636	13861.98
819.964	13806.84
820.292	13794.41
820.62	13894.97
820.948	13798.7
821.276	13856.33
821.604	13784.02
821.932	13880.96
822.259	13899.72
822.587	13905.37
822.915	13898.14
823.243	13854.52
823.57	13813.62
823.898	13747.18
824.225	13820.85
824.553	13813.62
824.88	13772.04
825.207	13838.7
825.535	13739.72
825.862	13788.99
826.189	13870.79
826.516	13875.09
826.843	13924.13
827.17	13819.04
827.497	13786.95
827.824	13787.18
828.151	13842.77
828.478	13771.36
828.805	13950.57
829.131	13852.71
829.458	13821.53
829.785	13869.21
830.111	13842.77
830.438	13929.55
830.764	13875.31
831.09	13868.53
831.417	13798.7
831.743	13860.85
832.069	13770.01
832.395	13777.46
832.722	13817.69
833.048	13757.58
833.374	13803.45
833.7	13770.23
834.026	13811.59
834.351	13811.36
834.677	13711.7
835.003	13845.48
835.329	13753.96
835.654	13720.97
835.98	13716.45
836.306	13668.31
836.631	13622.21
836.956	13718.48
837.282	13729.78
837.607	13526.4
837.932	13579.05
838.258	13597.81
838.583	13573.17
838.908	13522.33
839.233	13477.13
839.558	13504.7
839.883	13412.27
840.208	13465.15
840.533	13391.48
840.858	13435.1
841.182	13424.03
841.507	13418.15
841.832	13329.11
842.156	13344.71
842.481	13279.17
842.805	13323.24
843.13	13301.09
843.454	13165.95
843.778	13145.16
844.103	13095.9
844.427	13064.49
844.751	13102.9
845.075	13062.91
845.399	12960.53
845.723	12934.09
846.047	12989.69
846.371	12861.55
846.695	12903.36
847.019	12779.97
847.343	12770.03
847.666	12582.47
847.99	12590.6
848.313	12581.34
848.637	12559.19
848.96	12505.63
849.284	12431.06
849.607	12343.83
849.931	12338.63
850.254	12315.35
850.577	12243.94
850.9	12171.86
851.223	12063.84
851.546	12042.82
851.869	11997.62
852.192	12056.6
852.515	11966.66
852.838	11848.47
853.161	11880.79
853.483	11803.05
853.806	11768.25
854.129	11735.71
854.451	11702.04
854.774	11644.86
855.096	11570.74
855.419	11664.98
855.741	11521.7
856.063	11495.71
856.385	11510.86
856.708	11437.64
857.03	11341.37
857.352	11450.52
857.674	11327.13
857.996	11358.77
858.318	11238.32
858.64	11270.64
858.961	11223.86
859.283	11137.76
859.605	11080.58
859.926	11184.31
860.248	11160.81
860.57	11116.06
860.891	11061.6
861.212	10990.87
861.534	11010.98
861.855	10990.87
862.176	10963.75
862.498	10963.3
862.819	10929.63
863.14	10864.77
863.461	10870.19
863.782	10838.1
864.103	10824.32
864.424	10873.13
864.745	10845.56
865.065	10779.12
865.386	10753.36
865.707	10690.76
866.027	10678.34
866.348	10666.13
866.668	10692.8
866.989	10654.83
867.309	10591.33
867.63	10584.33
867.95	10671.1
868.27	10530.32
868.59	10562.18
868.91	10614.61
869.23	10550.65
869.55	10500.26
869.87	10471.79
870.19	10440.38
870.51	10540.71
870.83	10498
871.15	10343.88
871.469	10408.96
871.789	10389.53
872.109	10459.36
872.428	10402.86
872.748	10368.29
873.067	10334.16
873.386	10336.88
873.706	10285.58
874.025	10204
874.344	10225.92
874.663	10254.17
874.982	10183.66
875.301	10267.72
875.62	10177.78
875.939	10151.57
876.258	10235.18
876.577	10137.56
876.896	10140.72
877.214	10123.55
877.533	10194.73
877.852	10053.49
878.17	10097.11
878.489	10074.96
878.807	10075.64
879.125	10010.78
879.444	10055.98
879.762	9932.82
880.08	9990.67
880.398	9939.15
880.716	9955.42
881.034	9949.09
881.352	9930.78
881.67	9863.44
881.988	9874.06
882.306	9877.9
882.624	9818.92
882.941	9761.07
883.259	9799.94
883.577	9728.08
883.894	9718.13
884.212	9724.01
884.529	9691.69
884.846	9691.47
885.164	9657.34
885.481	9603.34
885.798	9626.39
886.115	9505.26
886.432	9614.18
886.75	9583.45
887.067	9469.78
887.383	9489.21
887.7	9540.96
888.017	9444.24
888.334	9493.28
888.651	9441.76
888.967	9444.7
889.284	9420.74
889.6	9278.15
889.917	9259.39
890.233	9312.95
890.55	9156.79
890.866	9248.99
891.182	9185.27
891.498	9150.24
891.815	9133.29
892.131	9078.38
892.447	9076.12
892.763	9042.9
893.079	9015.55
893.395	9008.55
893.71	8936.23
894.026	8909.79
894.342	8940.08
894.657	8865.28
894.973	8773.3
895.289	8797.48
895.604	8820.76
895.92	8720.19
896.235	8746.18
896.55	8696.24
896.865	8686.75
897.181	8610.14
897.496	8666.18
897.811	8562.91
898.126	8537.83
898.441	8529.24
898.756	8493.31
899.071	8474.1
899.386	8417.38
899.7	8323.37
900.015	8376.25
900.33	8258.51
900.644	8285.4
900.959	8280.88
901.273	8197.5
901.588	8216.25
901.902	8158.85
902.216	8152.3
902.531	8178.51
902.845	8052.87
903.159	8031.62
903.473	7995.47
903.787	7982.13
904.101	7875.92
904.415	7995.92
904.729	7879.54
905.042	7878.63
905.356	7899.88
905.67	7889.93
905.984	7838.86
906.297	7749.15
906.611	7754.34
906.924	7695.81
907.237	7643.84
907.551	7647.23
907.864	7611.97
908.177	7551.41
908.491	7586.21
908.804	7495.37
909.117	7459.66
909.43	7425.54
909.743	7416.5
910.056	7370.63
910.368	7381.47
910.681	7378.08
910.994	7280.46
911.307	7251.76
911.619	7235.49
911.932	7200.23
912.244	7153
912.557	7155.94
912.869	7132.89
913.181	7113.23
913.494	7066
913.806	7019.22
914.118	7015.38
914.43	6927.7
914.742	7034.59
915.054	6903.52
915.366	6880.24
915.678	6879.79
915.99	6844.99
916.302	6762.51
916.613	6769.29
916.925	6759.57
917.236	6725.9
917.548	6703.98
917.859	6728.16
918.171	6658.33
918.482	6604.32
918.794	6593.92
919.105	6546.47
919.416	6508.73
919.727	6505.11
920.038	6556.18
920.349	6468.5
920.66	6420.37
920.971	6418.56
921.282	6406.13
921.593	6349.64
921.903	6332.69
922.214	6359.58
922.525	6220.15
922.835	6273.93
923.146	6175.85
923.456	6185.35
923.767	6186.02
924.077	6132.69
924.387	6178.11
924.697	6109.87
925.008	6120.26
925.318	6094.05
925.628	6039.59
925.938	6064.22
926.248	6000.94
926.558	5938.12
926.867	6001.85
927.177	5961.4
927.487	5816.99
927.796	5837.78
928.106	5904.45
928.416	5789.88
928.725	5740.84
929.034	5750.33
929.344	5723.89
929.653	5799.59
929.962	5702.19
930.271	5682.08
930.581	5724.34
930.89	5618.13
931.199	5645.02
931.508	5559.83
931.817	5500.62
932.125	5564.57
932.434	5594.17
932.743	5480.05
933.051	5439.83
933.36	5404.35
933.669	5388.76
933.977	5441.41
934.286	5405.48
934.594	5390.11
934.902	5325.48
935.21	5336.78
935.519	5310.34
935.827	5270.34
936.135	5291.13
936.443	5188.99
936.751	5212.72
937.059	5205.94
937.367	5189.67
937.674	5178.59
937.982	5144.24
938.29	5078.71
938.597	5106.28
938.905	5050.69
939.213	5064.25
939.52	4984.02
939.827	5034.42
940.135	4957.13
940.442	4942.67
940.749	4927.53
941.056	4926.17
941.363	4857.7
941.67	4852.95
941.977	4846.4
942.284	4819.05
942.591	4782.22
942.898	4857.25
943.205	4779.28
943.511	4721.88
943.818	4773.86
944.125	4744.03
944.431	4702.9
944.738	4655.89
945.044	4647.76
945.35	4602.34
945.657	4620.87
945.963	4566.18
946.269	4519.4
946.575	4516.46
946.881	4557.14
947.187	4538.84
947.493	4496.35
947.799	4455.22
948.105	4430.59
948.41	4397.14
948.716	4405.96
949.022	4441.21
949.327	4413.19
949.633	4328.9
949.938	4313.98
950.244	4319.63
950.549	4273.98
950.854	4248.9
951.16	4304.04
951.465	4216.81
951.77	4238.5
952.075	4179.07
952.38	4175
952.685	4154.66
952.99	4124.84
953.294	4165.74
953.599	4111.95
953.904	4085.29
954.209	4060.2
954.513	4039.87
954.818	4059.3
955.122	3990.15
955.426	4008.91
955.731	4025.85
956.035	3992.41
956.339	3956.7
956.643	3974.78
956.948	3885.97
957.252	3942.24
957.556	3927.55
957.86	3910.6
958.163	3854.56
958.467	3830.38
958.771	3820.21
959.075	3834.67
959.378	3804.84
959.682	3791.51
959.985	3771.4
960.289	3755.58
960.592	3740.66
960.896	3718.97
961.199	3702.25
961.502	3687.78
961.805	3702.47
962.108	3611.85
962.411	3682.59
962.714	3604.85
963.017	3627.22
963.32	3666.32
963.623	3611.85
963.926	3561.46
964.228	3570.27
964.531	3549.48
964.833	3540.22
965.136	3512.2
965.438	3490.95
965.741	3480.11
966.043	3478.98
966.345	3449.15
966.648	3438.98
966.95	3415.48
967.252	3376.83
967.554	3405.98
967.856	3382.03
968.158	3331.86
968.46	3326.21
968.761	3325.53
969.063	3336.61
969.365	3297.96
969.666	3249.6
969.968	3255.93
970.269	3234.91
970.571	3279.66
970.872	3259.77
971.174	3239.66
971.475	3210.73
971.776	3172.09
972.077	3195.14
972.378	3156.95
972.679	3175.26
972.98	3150.85
973.281	3115.82
973.582	3119.66
973.883	3081.02
974.183	3041.25
974.484	3117.18
974.785	3097.52
975.085	3065.88
975.386	3014.13
975.686	2987.69
975.986	3041.93
976.287	3050.29
976.587	2970.52
976.887	2947.46
977.187	2950.18
977.487	2942.04
977.787	2921.25
978.087	2908.6
978.387	2866.79
978.687	2891.42
978.987	2862.27
979.286	2849.16
979.586	2891.2
979.885	2841.48
980.185	2774.59
980.484	2791.08
980.784	2776.85
981.083	2771.65
981.382	2733.69
981.682	2757.64
981.981	2734.36
982.28	2749.73
982.579	2690.07
982.878	2721.26
983.177	2703.63
983.475	2713.12
983.774	2682.61
984.073	2659.79
984.372	2636.74
984.67	2640.35
984.969	2647.81
985.267	2610.98
985.566	2552.9
985.864	2585.67
986.162	2586.34
986.461	2582.05
986.759	2600.58
987.057	2500.47
987.355	2511.09
987.653	2533.46
987.951	2502.5
988.249	2506.8
988.547	2502.73
988.844	2469.74
989.142	2451.66
989.44	2439.68
989.737	2467.7
990.035	2451.43
990.332	2406.01
990.63	2399
990.927	2394.94
991.224	2386.58
991.521	2385.67
991.819	2339.35
992.116	2363.98
992.413	2347.71
992.71	2342.28
993.006	2358.1
993.303	2302.74
993.6	2314.04
993.897	2295.5
994.193	2297.54
994.49	2269.97
994.787	2263.19
995.083	2271.55
995.379	2194.49
995.676	2225
995.972	2217.54
996.268	2207.6
996.565	2184.1
996.861	2215.73
997.157	2174.83
997.453	2159.01
997.749	2141.84
998.044	2146.13
998.34	2099.8
998.636	2137.32
998.932	2123.76
999.227	2070.2
999.523	2083.08
999.818	2116.75
1000.114	2076.53
1000.409	2070.2
1000.704	2040.82
1001	2020.94
1001.295	2027.26
1001.59	2029.07
1001.885	2028.84
1002.18	1987.94
1002.475	1997.43
1002.77	1979.13
1003.065	1959.02
1003.359	1953.37
1003.654	1933.25
1003.949	1893.48
1004.243	1943.2
1004.538	1912.46
1004.832	1909.07
1005.127	1879.24
1005.421	1868.62
1005.715	1843.31
1006.009	1880.15
1006.304	1833.37
1006.598	1805.12
1006.892	1838.79
1007.186	1785.69
1007.48	1773.94
1007.773	1794.27
1008.067	1805.57
1008.361	1759.25
1008.655	1747.72
1008.948	1733.71
1009.242	1726.03
1009.535	1737.78
1009.829	1734.84
1010.122	1711.79
1010.415	1713.82
1010.708	1671.11
1011.001	1712.47
1011.295	1712.24
1011.588	1677.89
1011.881	1637.89
1012.173	1629.08
1012.466	1650.55
1012.759	1606.71
1013.052	1616.88
1013.344	1598.35
1013.637	1603.77
1013.93	1598.57
1014.222	1585.24
1014.514	1572.36
1014.807	1584.34
1015.099	1548.86
1015.391	1526.26
1015.683	1542.3
1015.976	1519.48
1016.268	1522.87
1016.56	1506.15
1016.851	1478.35
1017.143	1460.72
1017.435	1479.03
1017.727	1457.79
1018.018	1469.31
1018.31	1461.18
1018.602	1454.4
1018.893	1404.91
1019.185	1420.5
1019.476	1391.57
1019.767	1416.21
1020.058	1378.24
1020.35	1383.21
1020.641	1378.47
1020.932	1356.55
1021.223	1379.14
1021.514	1337.56
1021.804	1340.05
1022.095	1353.61
1022.386	1320.61
1022.677	1318.13
1022.967	1306.6
1023.258	1294.4
1023.548	1310.45
1023.839	1274.51
1024.129	1282.88
1024.419	1269.09
1024.709	1263.44
1025	1233.16
1025.29	1234.97
1025.58	1239.26
1025.87	1225.25
1026.16	1259.15
1026.449	1203.33
1026.739	1219.6
1027.029	1204.69
1027.319	1174.63
1027.608	1172.37
1027.898	1192.03
1028.187	1182.99
1028.477	1180.73
1028.766	1163.11
1029.055	1149.09
1029.344	1138.92
1029.634	1132.6
1029.923	1112.71
1030.212	1115.87
1030.501	1127.85
1030.79	1096.67
1031.078	1100.28
1031.367	1106.38
1031.656	1070.9
1031.945	1078.14
1032.233	1085.82
1032.522	1055.09
1032.81	1046.5
1033.099	1037.01
1033.387	1060.51
1033.675	1044.69
1033.963	1019.38
1034.251	1026.84
1034.54	1008.98
1034.828	1003.11
1035.116	987.52
1035.403	994.3
1035.691	991.81
1035.979	1007.63
1036.267	992.71
1036.554	966.73
1036.842	993.17
1037.129	974.64
1037.417	957.01
1037.704	954.75
1037.992	944.13
1038.279	944.58
1038.566	948.87
1038.853	948.87
1039.14	948.87
