Data from hue_160_FLMS001491_00086.txt Node
Date: Tue Feb 07 16:51:49 GMT 2017
User: dcchb
Spectrometer: FLMS00149
Trigger mode: 0
Integration Time (sec): 2.000000E-2
Scans to average: 10
Electric dark correction enabled: true
Nonlinearity correction enabled: false
Boxcar width: 0
XAxis mode: Wavelengths
Number of Pixels in Spectrum: 2048
>>>>>Begin Spectral Data<<<<<
341.393	3.12
341.776	3.12
342.16	3.12
342.543	-65.58
342.927	-50.21
343.31	-86.82
343.693	-85.69
344.077	-64
344.46	-38.01
344.843	-56.76
345.226	-43.88
345.61	-21.74
345.993	-37.1
346.376	-9.76
346.759	4.7
347.142	28.43
347.525	57.58
347.908	61.42
348.291	85.15
348.674	96.9
349.057	109.56
349.44	120.41
349.823	138.94
350.206	179.16
350.588	209.67
350.971	220.74
351.354	222.1
351.737	252.61
352.119	248.99
352.502	270.68
352.884	269.56
353.267	280.85
353.65	285.6
354.032	294.87
354.414	298.71
354.797	316.79
355.179	335.32
355.562	331.47
355.944	325.6
356.326	324.02
356.709	336.22
357.091	340.97
357.473	342.55
357.855	351.36
358.238	339.61
358.62	359.04
359.002	343
359.384	359.04
359.766	354.98
360.148	348.2
360.53	343
360.912	339.84
361.294	317.69
361.676	340.29
362.057	343.23
362.439	340.51
362.821	335.32
363.203	315.66
363.584	328.08
363.966	345.71
364.348	323.11
364.729	331.02
365.111	322.21
365.493	304.36
365.874	326.5
366.256	338.93
366.637	307.97
367.019	323.56
367.4	321.31
367.781	304.81
368.163	327.86
368.544	321.31
368.925	320.4
369.306	301.87
369.688	320.85
370.069	303
370.45	308.65
370.831	314.07
371.212	327.86
371.593	329.21
371.974	320.85
372.355	306.16
372.736	313.62
373.117	326.73
373.498	307.97
373.879	330.34
374.26	298.03
374.641	292.61
375.021	317.01
375.402	311.81
375.783	339.61
376.163	344.13
376.544	337.12
376.925	348.65
377.305	336.22
377.686	331.25
378.066	336.9
378.447	323.56
378.827	326.05
379.208	321.53
379.588	323.79
379.968	340.74
380.349	344.58
380.729	333.28
381.109	338.03
381.489	325.15
381.87	341.87
382.25	345.94
382.63	334.41
383.01	326.05
383.39	318.59
383.77	328.08
384.15	342.32
384.53	357.69
384.91	366.73
385.29	349.55
385.67	357.01
386.049	338.71
386.429	349.55
386.809	353.17
387.189	357.91
387.568	345.94
387.948	325.37
388.328	343.9
388.707	359.5
389.087	359.5
389.466	345.03
389.846	352.72
390.225	351.36
390.605	364.24
390.984	388.65
391.363	370.34
391.743	366.05
392.122	367.63
392.501	396.56
392.881	386.84
393.26	371.47
393.639	379.83
394.018	379.61
394.397	379.38
394.776	365.82
395.155	374.64
395.534	378.25
395.913	397.46
396.292	380.96
396.671	397.46
397.05	395.65
397.429	401.3
397.808	403.56
398.186	394.75
398.565	383
398.944	390
399.323	371.47
399.701	400.63
400.08	392.94
400.458	428.87
400.837	407.4
401.215	419.61
401.594	407.63
401.972	416.44
402.351	400.63
402.729	424.81
403.107	431.36
403.486	420.06
403.864	422.55
404.242	422.32
404.62	433.62
404.999	421.64
405.377	446.73
405.755	435.88
406.133	442.88
406.511	434.52
406.889	426.61
407.267	447.63
407.645	423.45
408.023	455.76
408.401	468.19
408.779	467.06
409.156	451.25
409.534	463
409.912	451.7
410.29	467.97
410.667	459.83
411.045	473.39
411.422	468.42
411.8	468.87
412.178	477.46
412.555	487.4
412.933	480.62
413.31	466.16
413.687	474.3
414.065	480.17
414.442	491.47
414.819	489.66
415.197	507.06
415.574	507.97
415.951	524.24
416.328	515.65
416.705	530.11
417.082	535.54
417.46	537.12
417.837	535.99
418.214	540.73
418.591	532.15
418.967	539.83
419.344	541.64
419.721	539.83
420.098	551.58
420.475	562.88
420.852	541.64
421.228	552.03
421.605	575.99
421.982	562.88
422.358	565.14
422.735	589.09
423.111	574.18
423.488	600.17
423.864	581.64
424.241	590.22
424.617	594.07
424.994	632.03
425.37	599.04
425.746	602.43
426.123	634.29
426.499	627.29
426.875	601.75
427.251	638.13
427.627	610.34
428.003	633.84
428.379	627.51
428.756	646.49
429.132	667.74
429.507	681.3
429.883	673.16
430.259	667.74
430.635	671.8
431.011	675.87
431.387	689.43
431.763	695.98
432.138	695.08
432.514	724.91
432.89	711.35
433.265	713.61
433.641	727.17
434.016	716.77
434.392	740.96
434.767	744.8
435.143	763.33
435.518	770.11
435.894	775.98
436.269	773.95
436.644	790.9
437.02	792.93
437.395	778.92
437.77	796.09
438.145	787.51
438.52	840.84
438.895	828.64
439.271	812.82
439.646	820.05
440.021	855.08
440.395	837.45
440.77	889.43
441.145	872.93
441.52	868.86
441.895	882.87
442.27	876.09
442.645	907.5
443.019	885.13
443.394	904.57
443.769	900.27
444.143	914.51
444.518	883.55
444.892	919.48
445.267	905.7
445.641	953.83
446.016	962.64
446.39	932.59
446.764	936.66
447.139	965.13
447.513	957.9
447.887	981.4
448.262	963.1
448.636	985.24
449.01	1001.97
449.384	990.67
449.758	1003.32
450.132	1010.1
450.506	1035.64
450.88	1043.55
451.254	1019.37
451.628	1047.39
452.002	1079.48
452.376	1075.86
452.75	1085.58
453.123	1081.96
453.497	1076.09
453.871	1132.58
454.244	1116.76
454.618	1126.71
454.992	1130.55
455.365	1166.03
455.739	1158.57
456.112	1173.03
456.486	1208.97
456.859	1213.03
457.232	1221.17
457.606	1256.65
457.979	1227.27
458.352	1276.08
458.725	1271.79
459.099	1273.82
459.472	1325.57
459.845	1332.58
460.218	1322.86
460.591	1342.07
460.964	1349.98
461.337	1387.49
461.71	1419.13
462.083	1426.13
462.456	1472.69
462.829	1479.47
463.201	1459.35
463.574	1498.45
463.947	1515.4
464.32	1537.32
464.692	1534.61
465.065	1561.95
465.438	1586.81
465.81	1619.8
466.183	1642.85
466.555	1667.71
466.928	1717.88
467.3	1690.53
467.672	1730.99
468.045	1769.4
468.417	1795.62
468.789	1807.37
469.161	1832.23
469.534	1907.48
469.906	1906.8
470.278	1966.01
470.65	1984.54
471.022	2005.33
471.394	2063.63
471.766	2065.21
472.138	2123.74
472.51	2154.93
472.882	2218.88
473.253	2259.56
473.625	2307.24
473.997	2362.38
474.369	2393.79
474.74	2445.77
475.112	2521.25
475.484	2554.47
475.855	2650.51
476.227	2649.61
476.598	2754.69
476.97	2784.74
477.341	2875.59
477.713	2933.67
478.084	2989.94
478.455	3078.52
478.827	3138.41
479.198	3248.01
479.569	3292.3
479.94	3364.84
480.311	3448.23
480.682	3566.19
481.053	3695.45
481.424	3751.72
481.795	3859.07
482.166	3934.32
482.537	3996.01
482.908	4126.4
483.279	4174.31
483.65	4373.63
484.021	4482.78
484.391	4561.87
484.762	4607.07
485.133	4746.73
485.503	4823.56
485.874	5005.25
486.244	5057.68
486.615	5214.51
486.985	5312.13
487.356	5442.3
487.726	5563.88
488.097	5685.91
488.467	5768.17
488.837	6002.74
489.207	6077.09
489.578	6215.39
489.948	6326.8
490.318	6482.05
490.688	6575.6
491.058	6689.5
491.428	6776.5
491.798	6972.43
492.168	7124.29
492.538	7225.98
492.908	7325.87
493.278	7527.67
493.648	7560.66
494.017	7695.35
494.387	7930.82
494.757	7982.8
495.126	8129.69
495.496	8156.35
495.866	8311.83
496.235	8435.67
496.605	8582.1
496.974	8660.75
497.344	8735.1
497.713	8844.47
498.082	8955.88
498.452	9088.76
498.821	9139.83
499.19	9205.59
499.559	9327.62
499.928	9453.49
500.298	9483.32
500.667	9694.62
501.036	9718.8
501.405	9802.19
501.774	9868.17
502.143	9926.48
502.512	10002.63
502.88	10152.69
503.249	10147.71
503.618	10259.35
503.987	10330.76
504.356	10402.17
504.724	10421.6
505.093	10512
505.462	10551.09
505.83	10603.07
506.199	10699.56
506.567	10879.22
506.936	10915.38
507.304	11020.23
507.672	10984.53
508.041	11112.66
508.409	11196.05
508.777	11256.84
509.145	11353.56
509.514	11327.12
509.882	11371.64
510.25	11406.66
510.618	11511.52
510.986	11507.9
511.354	11649.37
511.722	11742.7
512.09	11732.3
512.458	11690.27
512.826	11821.34
513.193	11811.4
513.561	11948.57
513.929	11959.87
514.297	12123.25
514.664	12132.75
515.032	12124.61
515.4	12116.7
515.767	12189.24
516.135	12279.41
516.502	12089.36
516.869	12382.46
517.237	12397.6
517.604	12376.36
517.972	12433.75
518.339	12405.06
518.706	12464.49
519.073	12466.97
519.44	12541.32
519.808	12584.03
520.175	12535.67
520.542	12654.54
520.909	12732.5
521.276	12663.81
521.643	12707.87
522.009	12772.5
522.376	12774.99
522.743	12843.46
523.11	12935.66
523.477	12988.54
523.843	13017.69
524.21	13057.69
524.577	13115.54
524.943	13097.47
525.31	13147.63
525.676	13132.04
526.043	13193.74
526.409	13151.25
526.776	13283
527.142	13251.59
527.508	13246.61
527.874	13337.46
528.241	13314.18
528.607	13264.24
528.973	13398.48
529.339	13318.03
529.705	13351.24
530.071	13458.13
530.437	13367.52
530.803	13433.5
531.169	13457.46
531.535	13388.98
531.901	13404.35
532.267	13400.06
532.632	13428.53
532.998	13365.03
533.364	13452.49
533.73	13380.85
534.095	13348.53
534.461	13433.5
534.826	13392.83
535.192	13364.35
535.557	13410
535.923	13278.7
536.288	13357.35
536.653	13309.66
537.019	13246.84
537.384	13216.33
537.749	13174.3
538.114	13181.76
538.479	13161.65
538.845	13183.11
539.21	13148.09
539.575	13104.25
539.94	13064.47
540.305	13112.61
540.67	13006.62
541.034	12987.86
541.399	12991.93
541.764	12984.47
542.129	12891.37
542.494	12925.04
542.858	12929.34
543.223	12923.69
543.587	12840.52
543.952	12838.04
544.316	12764.82
544.681	12694.54
545.045	12705.61
545.41	12730.7
545.774	12689.34
546.138	12683.69
546.503	12633.52
546.867	12525.73
547.231	12621.55
547.595	12608.67
547.959	12537.03
548.324	12457.03
548.688	12478.95
549.052	12321.44
549.416	12328
549.779	12375.45
550.143	12298.39
550.507	12286.41
550.871	12277.37
551.235	12272.63
551.599	12278.28
551.962	12252.06
552.326	12276.7
552.689	12243.93
553.053	12193.76
553.417	12161.9
553.78	12215.68
554.143	12049.36
554.507	12066.31
554.87	11980.89
555.234	12117.61
555.597	12056.36
555.96	12054.56
556.323	11988.57
556.686	11930.72
557.05	12033.77
557.413	12037.16
557.776	12008.46
558.139	12022.92
558.502	11959.64
558.865	11987.67
559.228	12002.58
559.59	11993.54
559.953	11973.2
560.316	12077.15
560.679	11922.13
561.041	11963.71
561.404	12034.22
561.767	12075.12
562.129	11944.95
562.492	12047.1
562.854	11981.56
563.217	11982.69
563.579	11956.48
563.941	11975.01
564.304	11989.25
564.666	12105.63
565.028	12073.54
565.39	12059.3
565.753	12055.46
566.115	12172.52
566.477	12098.17
566.839	12163.48
567.201	12168.9
567.563	12128.23
567.925	12187.43
568.287	12179.75
568.648	12177.94
569.01	12199.18
569.372	12266.08
569.734	12227.43
570.095	12288.45
570.457	12281.22
570.819	12315.79
571.18	12245.96
571.542	12258.62
571.903	12282.12
572.265	12307.88
572.626	12295.45
572.987	12349.69
573.349	12322.57
573.71	12405.28
574.071	12318.5
574.432	12344.27
574.794	12455.45
575.155	12393.08
575.516	12414.09
575.877	12401.67
576.238	12404.83
576.599	12400.31
576.96	12422.46
577.32	12444.15
577.681	12532.51
578.042	12475.56
578.403	12469.69
578.763	12536.58
579.124	12538.16
579.485	12478.05
579.845	12475.56
580.206	12436.92
580.566	12424.04
580.927	12497.71
581.287	12536.58
581.648	12359.18
582.008	12546.75
582.368	12522.34
582.728	12470.36
583.089	12426.98
583.449	12436.69
583.809	12460.87
584.169	12374.55
584.529	12431.27
584.889	12511.49
585.249	12347.43
585.609	12343.14
585.969	12399.63
586.329	12288.45
586.688	12367.77
587.048	12367.54
587.408	12370.71
587.768	12368.67
588.127	12338.39
588.487	12310.14
588.846	12363.25
589.206	12240.09
589.565	12245.96
589.925	12336.81
590.284	12265.85
590.643	12226.75
591.003	12237.15
591.362	12263.14
591.721	12264.27
592.08	12254.78
592.44	12256.13
592.799	12291.84
593.158	12253.42
593.517	12264.72
593.876	12329.12
594.235	12187.66
594.593	12212.97
594.952	12253.87
595.311	12145.85
595.67	12215.91
596.029	12208
596.387	12215.91
596.746	12134.55
597.104	12108.11
597.463	12205.51
597.822	12241.9
598.18	12102.46
598.538	12180.43
598.897	12235.12
599.255	12132.75
599.613	12251.16
599.972	12136.81
600.33	12184.04
600.688	12135.91
601.046	12196.93
601.404	12232.18
601.762	12132.07
602.12	12295.23
602.478	12273.53
602.836	12206.19
603.194	12113.99
603.552	12270.82
603.91	12084.61
604.268	12172.52
604.625	12198.28
604.983	12228.56
605.341	12191.5
605.698	12142.01
606.056	12256.81
606.413	12172.29
606.771	12252.97
607.128	12184.72
607.485	12211.16
607.843	12170.49
608.2	12195.34
608.557	12200.09
608.914	12166.64
609.272	12269.47
609.629	12277.15
609.986	12450.25
610.343	12288
610.7	12332.51
611.057	12188.34
611.414	12269.69
611.771	12359.18
612.127	12299.75
612.484	12293.42
612.841	12408.22
613.198	12352.4
613.554	12331.84
613.911	12441.21
614.267	12419.97
614.624	12410.03
614.98	12373.87
615.337	12412.96
615.693	12398.28
616.05	12399.18
616.406	12532.06
616.762	12498.16
617.118	12494.32
617.475	12454.77
617.831	12565.95
618.187	12495.67
618.543	12410.48
618.899	12608.89
619.255	12486.86
619.611	12541.77
619.967	12567.76
620.323	12627.87
620.678	12530.7
621.034	12471.04
621.39	12487.99
621.746	12491.15
622.101	12590.36
622.457	12537.71
622.812	12494.77
623.168	12609.34
623.523	12544.94
623.879	12587.88
624.234	12512.62
624.589	12564.37
624.945	12491.83
625.3	12514.66
625.655	12513.75
626.01	12528.67
626.365	12574.77
626.72	12562.11
627.075	12580.42
627.43	12526.18
627.785	12418.84
628.14	12526.41
628.495	12492.74
628.85	12480.76
629.205	12429.01
629.559	12539.29
629.914	12418.84
630.269	12479.4
630.623	12459.07
630.978	12476.24
631.332	12470.36
631.687	12497.48
632.041	12456.35
632.396	12369.58
632.75	12366.19
633.104	12334.1
633.459	12328.9
633.813	12342.23
634.167	12379.07
634.521	12322.12
634.875	12359.41
635.229	12315.57
635.583	12173.87
635.937	12239.18
636.291	12262.01
636.645	12201.44
636.999	12184.95
637.352	12248
637.706	12173.87
638.06	12252.74
638.413	12158.28
638.767	12078.96
639.121	12130.03
639.474	12128.68
639.828	12133.2
640.181	12052.75
640.534	12109.47
640.888	12062.92
641.241	11965.07
641.594	12052.75
641.947	12007.78
642.301	12058.17
642.654	11965.07
643.007	11984.73
643.36	12003.03
643.713	11998.06
644.066	12092.75
644.419	11930.27
644.771	11834
645.124	11705.64
645.477	11745.86
645.83	11662.7
646.182	11668.8
646.535	11586.77
646.888	11611.4
647.24	11563.04
647.593	11562.82
647.945	11661.35
648.298	11525.08
648.65	11511.97
649.002	11518.52
649.355	11584.74
649.707	11579.09
650.059	11614.34
650.411	11847.1
650.763	11769.82
651.115	11933.88
651.467	11803.26
651.819	11777.05
652.171	11815.92
652.523	11771.63
652.875	11782.7
653.227	11791.51
653.578	11841.68
653.93	11870.38
654.282	11765.3
654.633	11785.41
654.985	11770.72
655.337	11768.91
655.688	11793.09
656.039	11808.69
656.391	11695.02
656.742	11787.9
657.094	11740.44
657.445	11779.99
657.796	11763.04
658.147	11791.74
658.498	11755.81
658.849	11763.49
659.2	11735.47
659.551	11786.09
659.902	11768.46
660.253	11730.5
660.604	11783.15
660.955	11745.86
661.306	11816.82
661.656	11832.64
662.007	11839.87
662.358	11810.27
662.708	11809.36
663.059	11793.32
663.409	11819.08
663.76	11806.88
664.11	11857.27
664.461	11871.28
664.811	11904.05
665.161	11831.74
665.511	11891.85
665.862	11848.69
666.212	11890.72
666.562	11800.55
666.912	11901.11
667.262	11872.41
667.612	11860.21
667.962	11923.03
668.312	11807.1
668.662	11885.52
669.011	11819.53
669.361	11858.18
669.711	11852.53
670.06	11753.77
670.41	11843.71
670.76	11826.31
671.109	11890.27
671.459	11787.22
671.808	11724.4
672.157	11819.31
672.507	11748.12
672.856	11709.03
673.205	11757.39
673.554	11801.23
673.904	11749.25
674.253	11721.91
674.602	11757.16
674.951	11631.74
675.3	11507.68
675.649	11696.37
675.998	11690.95
676.346	11597.62
676.695	11711.97
677.044	11622.48
677.393	11740.89
677.741	11672.42
678.09	11592.2
678.438	11626.54
678.787	11594.91
679.135	11584.51
679.484	11532.76
679.832	11614.34
680.181	11450.05
680.529	11438.53
680.877	11387.91
681.225	11413.44
681.573	11466.1
681.922	11404.4
682.27	11413.44
682.618	11402.82
682.966	11348.13
683.314	11393.1
683.661	11365.31
684.009	11291.64
684.357	11308.13
684.705	11229.94
685.053	11245.99
685.4	11164.41
685.748	11181.36
686.095	11236.95
686.443	11162.6
686.79	11111.3
687.138	11180.68
687.485	11211.64
687.832	11101.59
688.18	11021.14
688.527	11023.17
688.874	10949.5
689.221	10930.07
689.568	10900.46
689.915	10875.83
690.262	10878.09
690.609	10833.12
690.956	10775.95
691.303	10825.21
691.65	10769.17
691.997	10682.39
692.344	10683.52
692.69	10667.02
693.037	10567.59
693.383	10506.8
693.73	10589.28
694.077	10473.58
694.423	10430.64
694.769	10446.24
695.116	10429.51
695.462	10332.34
695.808	10355.17
696.155	10395.39
696.501	10268.61
696.847	10256.86
697.193	10131.67
697.539	10173.48
697.885	10116.98
698.231	10106.13
698.577	10063.65
698.923	10036.53
699.269	9965.35
699.614	9933.03
699.96	9893.48
700.306	9854.39
700.651	9771.68
700.997	9765.8
701.342	9766.25
701.688	9730.1
702.033	9707.72
702.379	9690.1
702.724	9652.13
703.069	9701.4
703.415	9576.65
703.76	9540.5
704.105	9539.82
704.45	9545.02
704.795	9401.29
705.14	9446.94
705.485	9425.25
705.83	9383.21
706.175	9390.67
706.52	9383.44
706.865	9333.5
707.209	9304.35
707.554	9274.74
707.899	9266.61
708.243	9211.69
708.588	9198.36
708.932	9103.67
709.277	9102.77
709.621	9084.46
709.966	8984.58
710.31	9056.89
710.654	8986.16
710.998	8982.55
711.342	8959.5
711.687	8943.45
712.031	8872.72
712.375	8877.24
712.719	8950.68
713.063	8869.55
713.407	8863.23
713.75	8816.9
714.094	8824.13
714.438	8799.05
714.782	8839.73
715.125	8728.77
715.469	8724.02
715.812	8708.2
716.156	8720.41
716.499	8712.95
716.843	8681.09
717.186	8679.73
717.53	8673.63
717.873	8672.27
718.216	8693.97
718.559	8589.11
718.902	8585.95
719.246	8563.8
719.589	8553.18
719.932	8540.07
720.275	8491.26
720.617	8558.15
720.96	8584.82
721.303	8493.07
721.646	8490.58
721.989	8435.67
722.331	8540.3
722.674	8477.7
723.016	8536.46
723.359	8473.63
723.701	8473.86
724.044	8415.56
724.386	8325.39
724.729	8400.87
725.071	8460.98
725.413	8380.75
725.755	8398.38
726.097	8331.72
726.439	8336.69
726.782	8351.15
727.124	8357.25
727.465	8366.29
727.807	8310.7
728.149	8355.67
728.491	8341.21
728.833	8363.35
729.175	8279.51
729.516	8317.25
729.858	8305.73
730.199	8307.08
730.541	8277.93
730.882	8359.51
731.224	8345.95
731.565	8274.09
731.906	8269.8
732.248	8305.28
732.589	8223.02
732.93	8255.11
733.271	8304.37
733.612	8251.27
733.953	8318.38
734.294	8281.77
734.635	8252.85
734.976	8260.53
735.317	8291.27
735.658	8293.52
735.999	8291.27
736.339	8266.86
736.68	8314.77
737.021	8320.42
737.361	8336.91
737.702	8385.05
738.042	8285.62
738.383	8321.77
738.723	8378.27
739.063	8311.15
739.404	8272.28
739.744	8387.31
740.084	8346.18
740.424	8338.72
740.764	8357.93
741.104	8402.9
741.444	8407.19
741.784	8367.42
742.124	8392.96
742.464	8447.87
742.804	8477.7
743.143	8496.23
743.483	8466.85
743.823	8461.43
744.162	8564.93
744.502	8559.28
744.841	8543.24
745.181	8632.95
745.52	8679.28
745.86	8633.4
746.199	8624.59
746.538	8639.73
746.877	8737.81
747.216	8798.14
747.556	8837.24
747.895	8911.59
748.234	8884.02
748.573	8942.55
748.911	8983.68
749.25	9048.99
749.589	9029.1
749.928	9107.29
750.267	9238.81
750.605	9315.42
750.944	9307.96
751.283	9402.42
751.621	9514.96
751.96	9544.57
752.298	9686.26
752.636	9794.05
752.975	9731.23
753.313	9894.84
753.651	9987.94
753.989	10049.86
754.327	10181.16
754.666	10272.91
755.004	10400.36
755.342	10551.54
755.679	10584.31
756.017	10734.82
756.355	10887.81
756.693	10976.62
757.031	11138.65
757.368	11152.66
757.706	11377.96
758.044	11394.01
758.381	11639.2
758.719	11757.61
759.056	11921.9
759.394	12020.88
759.731	12116.02
760.068	12260.88
760.405	12336.58
760.743	12571.38
761.08	12724.82
761.417	12918.26
761.754	13033.74
762.091	13173.85
762.428	13361.87
762.765	13443.67
763.102	13697.45
763.438	13687.51
763.775	13967.27
764.112	14066.71
764.449	14256.76
764.785	14412.91
765.122	14515.51
765.458	14612.23
765.795	14747.59
766.131	14948.49
766.467	15067.36
766.804	15160.24
767.14	15294.24
767.476	15483.17
767.812	15542.6
768.148	15716.15
768.485	15820.11
768.821	15794.12
769.157	16002.93
769.492	16149.14
769.828	16264.39
770.164	16310.26
770.5	16488.11
770.836	16525.62
771.171	16477.26
771.507	16625.28
771.842	16702.34
772.178	16873.86
772.513	16871.6
772.849	16955.9
773.184	17194.99
773.519	17182.1
773.855	17189.34
774.19	17343
774.525	17389.1
774.86	17378.71
775.195	17501.64
775.53	17592.26
775.865	17553.85
776.2	17476.56
776.535	17430.46
776.87	17686.05
777.205	17611.7
777.539	17614.18
777.874	17755.65
778.209	17716.33
778.543	17704.35
778.878	17734.63
779.212	17851.47
779.547	17718.36
779.881	17906.61
780.215	17842.43
780.55	17877.45
780.884	17910.67
781.218	17866.15
781.552	17999.48
781.886	17899.37
782.22	17946.38
782.554	17871.8
782.888	17808.3
783.222	17792.94
783.556	17823.22
783.889	17832.03
784.223	17727.4
784.557	17685.14
784.89	17856.21
785.224	17724.01
785.557	17676.33
785.891	17743.67
786.224	17688.53
786.558	17766.04
786.891	17638.14
787.224	17616.67
787.557	17580.74
787.891	17604.24
788.224	17627.29
788.557	17623.9
788.89	17488.99
789.223	17599.27
789.556	17434.98
789.888	17379.39
790.221	17468.42
790.554	17318.82
790.887	17271.37
791.219	17303.01
791.552	17260.29
791.884	17253.29
792.217	17191.82
792.549	17178.71
792.882	17154.76
793.214	17060.53
793.546	17112.28
793.879	17081.09
794.211	16969
794.543	16993.64
794.875	16977.36
795.207	16992.28
795.539	16964.03
795.871	16922
796.203	16800.19
796.535	16799.29
796.867	16803.81
797.198	16726.75
797.53	16724.04
797.862	16618.5
798.193	16689.46
798.525	16486.53
798.856	16579.41
799.188	16339.64
799.519	16406.08
799.85	16244.05
800.182	16326.08
800.513	16355.23
800.844	16194.56
801.175	16393.42
801.506	16314.56
801.837	16207.89
802.168	16170.83
802.499	16147.33
802.83	16083.6
803.161	15956.6
803.491	16072.08
803.822	16040.21
804.153	15903.27
804.483	15766.77
804.814	15814.68
805.145	15841.57
805.475	15822.37
805.805	15726.1
806.136	15640.22
806.466	15732.2
806.796	15792.31
807.126	15502.15
807.457	15517.06
807.787	15567.91
808.117	15496.05
808.447	15462.83
808.777	15445.65
809.107	15372.21
809.436	15418.31
809.766	15371.98
810.096	15307.35
810.426	15286.11
810.755	15296.73
811.085	15225.09
811.414	15261.25
811.744	15153.46
812.073	15117.07
812.403	15124.08
812.732	14987.36
813.061	15065.1
813.39	14878.66
813.719	14847.48
814.049	14975.38
814.378	14870.53
814.707	14929.51
815.036	14873.69
815.365	14861.49
815.693	14666.01
816.022	14794.14
816.351	14713.02
816.68	14538.33
817.008	14696.75
817.337	14509.41
817.665	14545.11
817.994	14545.56
818.322	14550.76
818.651	14517.32
818.979	14434.61
819.307	14468.05
819.636	14402.74
819.964	14365.23
820.292	14400.26
820.62	14406.58
820.948	14390.99
821.276	14348.05
821.604	14427.37
821.932	14336.3
822.259	14372.69
822.587	14303.54
822.915	14257.44
823.243	14354.61
823.57	14284.33
823.898	14304.21
824.225	14257.21
824.553	14251.79
824.88	14236.19
825.207	14385.12
825.535	14212.01
825.862	14282.52
826.189	14287.49
826.516	14410.2
826.843	14349.86
827.17	14309.19
827.497	14343.76
827.824	14404.55
828.151	14314.84
828.478	14325
828.805	14414.72
829.131	14294.05
829.458	14351.22
829.785	14223.09
830.111	14263.99
830.438	14339.24
830.764	14280.26
831.09	14309.19
831.417	14293.82
831.743	14311.22
832.069	14331.33
832.395	14248.85
832.722	14295.85
833.048	14244.1
833.374	14293.14
833.7	14159.13
834.026	14258.34
834.351	14268.73
834.677	14301.28
835.003	14226.7
835.329	14211.56
835.654	14282.52
835.98	14127.04
836.306	14139.47
836.631	14144.44
836.956	14205.46
837.282	14185.8
837.607	14015.41
837.932	14103.09
838.258	14055.41
838.583	14033.03
838.908	13953.04
839.233	13999.82
839.558	13929.99
839.883	13882.76
840.208	13799.14
840.533	13920.72
840.858	13826.94
841.182	13812.48
841.507	13796.43
841.832	13673.27
842.156	13682.99
842.481	13799.37
842.805	13692.25
843.13	13674.63
843.454	13591.92
843.778	13574.74
844.103	13498.36
844.427	13531.35
844.751	13561.63
845.075	13494.29
845.399	13457.23
845.723	13411.81
846.047	13338.14
846.371	13273.51
846.695	13257.69
847.019	13215.43
847.343	13174.53
847.666	13071.7
847.99	13012.5
848.313	12912.61
848.637	12898.38
848.96	12940.41
849.284	12850.24
849.607	12796.01
849.931	12682.79
850.254	12669.46
850.577	12596.91
850.9	12510.59
851.223	12457.26
851.546	12502
851.869	12415.22
852.192	12465.39
852.515	12272.86
852.838	12329.58
853.161	12259.52
853.483	12159.64
853.806	12088.91
854.129	12150.6
854.451	12076.7
854.774	11996.93
855.096	11973.2
855.419	11901.11
855.741	11848.23
856.063	11842.36
856.385	11841.23
856.708	11823.83
857.03	11721.91
857.352	11785.18
857.674	11661.57
857.996	11626.54
858.318	11562.59
858.64	11706.99
858.961	11578.18
859.283	11592.2
859.605	11474.23
859.926	11495.25
860.248	11511.97
860.57	11445.53
860.891	11394.46
861.212	11348.59
861.534	11293.22
861.855	11309.94
862.176	11285.54
862.498	11256.61
862.819	11315.14
863.14	11214.58
863.461	11243.05
863.782	11225.2
864.103	11135.94
864.424	11196.73
864.745	11153.79
865.065	11074.69
865.386	11062.72
865.707	11115.15
866.027	11086.9
866.348	11066.79
866.668	11059.33
866.989	11014.81
867.309	10978.65
867.63	10885.55
867.95	10956.28
868.27	10860.24
868.59	10926.45
868.91	10849.16
869.23	10876.51
869.55	10756.06
869.87	10862.5
870.19	10829.28
870.51	10846.9
870.83	10795.38
871.15	10725.33
871.469	10730.07
871.789	10839.67
872.109	10709.28
872.428	10662.73
872.748	10640.58
873.067	10650.75
873.386	10641.26
873.706	10654.59
874.025	10565.56
874.344	10596.06
874.663	10546.57
874.982	10524.88
875.301	10532.34
875.62	10511.32
875.939	10450.53
876.258	10460.93
876.577	10341.15
876.896	10381.15
877.214	10430.42
877.533	10498.44
877.852	10405.56
878.17	10381.83
878.489	10307.94
878.807	10363.75
879.125	10321.04
879.444	10319.91
879.762	10298.9
880.08	10257.32
880.398	10220.25
880.716	10259.8
881.034	10156.07
881.352	10215.96
881.67	10214.6
881.988	10177.09
882.306	10178
882.624	10067.72
882.941	10008.28
883.259	9970.99
883.577	9940.94
883.894	9980.71
884.212	10008.73
884.529	9957.89
884.846	9917.21
885.164	9909.75
885.481	9903.88
885.798	9938.68
886.115	9760.6
886.432	9816.2
886.75	9792.24
887.067	9785.24
887.383	9769.64
887.7	9796.31
888.017	9741.85
888.334	9727.61
888.651	9641.96
888.967	9651.23
889.284	9604
889.6	9580.04
889.917	9514.28
890.233	9564.23
890.55	9446.49
890.866	9528.07
891.182	9484
891.498	9397.68
891.815	9432.48
892.131	9284.46
892.447	9335.31
892.763	9316.32
893.079	9314.29
893.395	9287.17
893.71	9222.99
894.026	9203.33
894.342	9160.17
894.657	9065.71
894.973	9142.54
895.289	9134.86
895.604	9117.91
895.92	9016.22
896.235	8957.01
896.55	8939.61
896.865	8910.68
897.181	8867.3
897.496	8898.71
897.811	8824.13
898.126	8748.2
898.441	8782.78
898.756	8738.71
899.071	8629.34
899.386	8734.42
899.7	8643.57
900.015	8594.76
900.33	8538.49
900.644	8567.87
900.959	8462.56
901.273	8447.87
901.588	8383.24
901.902	8359.06
902.216	8384.14
902.531	8337.37
902.845	8359.51
903.159	8266.41
903.473	8281.32
903.787	8247.88
904.101	8226.63
904.415	8143.47
904.729	8158.39
905.042	8058.95
905.356	8035
905.67	8085.85
905.984	8036.58
906.297	7992.29
906.611	7936.47
906.924	7983.02
907.237	7940.09
907.551	7856.93
907.864	7867.77
908.177	7808.57
908.491	7786.42
908.804	7655.58
909.117	7699.42
909.43	7644.05
909.743	7577.84
910.056	7559.08
910.368	7593.2
910.681	7477.5
910.994	7528.12
911.307	7466.65
911.619	7414.23
911.932	7387.11
912.244	7360.44
912.557	7343.49
912.869	7327.22
913.181	7275.25
913.494	7267.11
913.806	7192.54
914.118	7201.12
914.43	7166.1
914.742	7134.46
915.054	7116.83
915.366	7092.43
915.678	7064.63
915.99	7023.5
916.302	7034.12
916.613	6904.41
916.925	6904.63
917.236	6966.1
917.548	6916.16
917.859	6881.13
918.171	6830.74
918.482	6869.16
918.794	6785.09
919.105	6773.79
919.416	6731.08
919.727	6719.33
920.038	6689.5
920.349	6639.11
920.66	6548.26
920.971	6613.8
921.282	6599.11
921.593	6539.45
921.903	6519.11
922.214	6446.12
922.525	6440.47
922.835	6436.4
923.146	6362.95
923.456	6417.87
923.767	6350.75
924.077	6380.81
924.387	6350.3
924.697	6292.45
925.008	6258.78
925.318	6224.65
925.628	6161.6
925.938	6184.88
926.248	6115.5
926.558	6084.32
926.867	6096.97
927.177	6129.06
927.487	6077.09
927.796	5964.55
928.106	5966.81
928.416	6013.36
928.725	5950.54
929.034	5927.49
929.344	5894.72
929.653	5891.1
929.962	5854.49
930.271	5847.71
930.581	5841.61
930.89	5788.73
931.199	5735.4
931.508	5769.52
931.817	5734.72
932.125	5724.33
932.434	5698.79
932.743	5671.67
933.051	5599.81
933.36	5567.49
933.669	5560.04
933.977	5553.48
934.286	5540.83
934.594	5528.17
934.902	5445.46
935.21	5427.84
935.519	5434.17
935.827	5437.33
936.135	5407.27
936.443	5339.93
936.751	5364.34
937.059	5336.09
937.367	5306.03
937.674	5286.6
937.982	5265.36
938.29	5216.09
938.597	5241.85
938.905	5178.13
939.213	5159.14
939.52	5170.9
939.827	5171.35
940.135	5096.77
940.442	5067.62
940.749	5082.31
941.056	5046.83
941.363	4997.34
941.67	4959.15
941.977	4928.87
942.284	4946.49
942.591	4930.68
942.898	4905.14
943.205	4882.54
943.511	4902.88
943.818	4868.08
944.125	4868.76
944.431	4785.14
944.738	4874.41
945.044	4730
945.35	4719.61
945.657	4726.39
945.963	4708.31
946.269	4706.05
946.575	4683.9
946.881	4643.23
947.187	4640.74
947.493	4635.54
947.799	4563.45
948.105	4576.56
948.41	4534.53
948.716	4562.32
949.022	4509.22
949.327	4498.14
949.633	4431.03
949.938	4494.75
950.244	4436.9
950.549	4418.15
950.854	4379.96
951.16	4398.94
951.465	4365.27
951.77	4328.66
952.075	4309.67
952.38	4296.79
952.685	4326.4
952.99	4301.99
953.294	4239.62
953.599	4244.14
953.904	4164.82
954.209	4194.88
954.513	4185.61
954.818	4127.08
955.122	4089.79
955.426	4131.83
955.731	4077.36
956.035	4096.12
956.339	4049.57
956.643	4086.4
956.948	4034.2
957.252	4014.77
957.556	4016.35
957.86	4006.86
958.163	3980.64
958.467	3963.24
958.771	3918.05
959.075	3930.7
959.378	3895.22
959.682	3883.47
959.985	3864.26
960.289	3859.52
960.592	3864.71
960.896	3822
961.199	3808.67
961.502	3807.77
961.805	3769.8
962.108	3762.8
962.411	3751.05
962.714	3730.26
963.017	3715.34
963.32	3675.57
963.623	3614.55
963.926	3679.18
964.228	3646.64
964.531	3703.82
964.833	3579.52
965.136	3600.77
965.438	3586.76
965.741	3608.45
966.043	3564.16
966.345	3541.11
966.648	3514.67
966.95	3532.29
967.252	3470.6
967.554	3466.08
967.856	3447.1
968.158	3449.58
968.46	3439.42
968.761	3443.48
969.063	3402.81
969.365	3390.15
969.666	3372.75
969.968	3332.98
970.269	3320.77
970.571	3335.69
970.872	3346.08
971.174	3297.5
971.475	3270.38
971.776	3271.28
972.077	3290.49
972.378	3279.19
972.679	3243.49
972.98	3238.52
973.281	3197.61
973.582	3189.48
973.883	3180.66
974.183	3144.28
974.484	3133.89
974.785	3149.71
975.085	3135.02
975.386	3135.02
975.686	3128.91
975.986	3117.84
976.287	3091.85
976.587	3031.29
976.887	3066.09
977.187	3058.18
977.487	3042.36
977.787	3002.82
978.087	3001.46
978.387	2990.16
978.687	2967.56
978.987	2972.08
979.286	2972.08
979.586	2958.75
979.885	2935.02
980.185	2897.96
980.484	2860.67
980.784	2871.97
981.083	2867
981.382	2831.52
981.682	2832.43
981.981	2811.64
982.28	2821.8
982.579	2761.24
982.878	2811.18
983.177	2765.76
983.475	2751.52
983.774	2735.25
984.073	2752.88
984.372	2718.3
984.67	2704.07
984.969	2716.72
985.267	2641.47
985.566	2690.28
985.864	2690.73
986.162	2660.23
986.461	2628.82
986.759	2629.27
987.057	2610.28
987.355	2541.81
987.653	2594.24
987.951	2560.34
988.249	2558.08
988.547	2548.59
988.844	2554.47
989.142	2567.57
989.44	2505.88
989.737	2490.06
990.035	2494.81
990.332	2479.67
990.63	2451.42
990.927	2439.22
991.224	2440.8
991.521	2444.41
991.819	2445.32
992.116	2442.38
992.413	2390.86
992.71	2402.15
993.006	2415.49
993.303	2372.1
993.6	2377.3
993.897	2355.6
994.193	2336.62
994.49	2319.44
994.787	2346.79
995.083	2304.76
995.379	2315.15
995.676	2272.67
995.972	2259.33
996.268	2246.23
996.565	2221.14
996.861	2225.66
997.157	2230.86
997.453	2212.55
997.749	2197.19
998.044	2195.61
998.34	2187.47
998.636	2230.86
998.932	2155.83
999.227	2133.69
999.523	2116.06
999.818	2109.28
1000.114	2089.62
1000.409	2089.85
1000.704	2090.75
1001	2053.46
1001.295	2069.51
1001.59	2046.01
1001.885	2085.78
1002.18	2043.07
1002.475	2010.3
1002.77	2000.81
1003.065	2015.05
1003.359	1995.39
1003.654	1965.33
1003.949	1964.88
1004.243	1966.23
1004.538	1925.1
1004.832	1947.03
1005.127	1970.08
1005.421	1919.68
1005.715	1929.62
1006.009	1919.68
1006.304	1915.16
1006.598	1887.37
1006.892	1869.06
1007.186	1854.15
1007.48	1822.06
1007.773	1830.19
1008.067	1822.06
1008.361	1821.83
1008.655	1799.23
1008.948	1799.91
1009.242	1807.14
1009.535	1774.15
1009.829	1761.49
1010.122	1771.66
1010.415	1754.71
1010.708	1734.6
1011.001	1732.12
1011.295	1732.34
1011.588	1689.4
1011.881	1697.77
1012.173	1682.17
1012.466	1692.57
1012.759	1671.1
1013.052	1656.86
1013.344	1654.38
1013.637	1619.58
1013.93	1625.23
1014.222	1632.23
1014.514	1619.58
1014.807	1589.07
1015.099	1593.14
1015.391	1610.08
1015.683	1600.82
1015.976	1579.13
1016.268	1540.03
1016.56	1554.27
1016.851	1533.25
1017.143	1536.64
1017.435	1512.23
1017.727	1489.18
1018.018	1500.71
1018.31	1494.38
1018.602	1483.99
1018.893	1499.81
1019.185	1459.13
1019.476	1449.19
1019.767	1435.4
1020.058	1434.72
1020.35	1421.62
1020.641	1401.73
1020.932	1409.41
1021.223	1444.21
1021.514	1408.28
1021.804	1354.72
1022.095	1380.94
1022.386	1358.79
1022.677	1363.31
1022.967	1355.18
1023.258	1334.16
1023.548	1320.6
1023.839	1342.97
1024.129	1310.66
1024.419	1325.12
1024.709	1295.74
1025	1306.14
1025.29	1274.27
1025.58	1259.81
1025.87	1253.94
1026.16	1232.92
1026.449	1230.43
1026.739	1247.61
1027.029	1217.55
1027.319	1233.15
1027.608	1215.07
1027.898	1184.11
1028.187	1197.44
1028.477	1197.44
1028.766	1163.32
1029.055	1162.19
1029.344	1152.7
1029.634	1174.62
1029.923	1165.12
1030.212	1160.38
1030.501	1135.97
1030.79	1132.36
1031.078	1143.88
1031.367	1145.46
1031.656	1089.19
1031.945	1086.48
1032.233	1068.86
1032.522	1113.6
1032.81	1070.44
1033.099	1065.47
1033.387	1071.79
1033.675	1055.52
1033.963	1063.21
1034.251	1036.09
1034.54	1058.23
1034.828	1008.52
1035.116	1027.05
1035.403	1036.09
1035.691	1018.46
1035.979	1033.38
1036.267	1009.2
1036.554	1012.13
1036.842	987.5
1037.129	971.23
1037.417	960.38
1037.704	972.36
1037.992	948.18
1038.279	972.36
1038.566	969.88
1038.853	969.88
1039.14	969.88
