Data from hue_10_FLMS001491_37.txt Node
Date: Mon Feb 06 15:31:49 GMT 2017
User: dcchb
Spectrometer: FLMS00149
Trigger mode: 0
Integration Time (sec): 2.000000E-2
Scans to average: 10
Electric dark correction enabled: true
Nonlinearity correction enabled: false
Boxcar width: 0
XAxis mode: Wavelengths
Number of Pixels in Spectrum: 2048
>>>>>Begin Spectral Data<<<<<
341.393	-2.1
341.776	-2.1
342.16	-2.1
342.543	-63.12
342.927	-74.42
343.31	-60.41
343.693	-80.07
344.077	-69.67
344.46	-43.46
344.843	-52.27
345.226	-36.91
345.61	-52.05
345.993	-1.43
346.376	-10.47
346.759	15.3
347.142	11.23
347.525	41.28
347.908	76.76
348.291	81.51
348.674	91
349.057	89.64
349.44	121.96
349.823	133.26
350.206	160.15
350.588	187.04
350.971	201.73
351.354	225.01
351.737	225.01
352.119	263.43
352.502	273.37
352.884	280.15
353.267	290.54
353.65	284.67
354.032	317.89
354.414	303.65
354.797	308.17
355.179	321.5
355.562	300.26
355.944	334.84
356.326	368.06
356.709	339.81
357.091	319.24
357.473	335.29
357.855	342.07
358.238	352.91
358.62	332.8
359.002	337.77
359.384	339.81
359.766	327.6
360.148	310.2
360.53	332.12
360.912	334.16
361.294	325.57
361.676	325.12
362.057	318.34
362.439	319.92
362.821	318.34
363.203	325.57
363.584	316.53
363.966	325.34
364.348	318.79
364.729	315.63
365.111	319.47
365.493	322.63
365.874	317.66
366.256	290.77
366.637	326.25
367.019	295.51
367.4	313.59
367.781	292.58
368.163	332.12
368.544	320.15
368.925	306.14
369.306	307.72
369.688	321.05
370.069	315.4
370.45	315.18
370.831	309.98
371.212	314.72
371.593	314.27
371.974	308.17
372.355	295.97
372.736	319.24
373.117	314.27
373.498	308.85
373.879	317.66
374.26	330.32
374.641	333.03
375.021	314.72
375.402	332.8
375.783	321.73
376.163	318.11
376.544	324.67
376.925	326.25
377.305	320.15
377.686	335.06
378.066	337.77
378.447	313.59
378.827	335.74
379.208	334.84
379.588	333.03
379.968	333.71
380.349	310.66
380.729	315.85
381.109	316.98
381.489	333.93
381.87	324.44
382.25	360.15
382.63	327.15
383.01	321.73
383.39	335.29
383.77	333.93
384.15	341.84
384.53	351.11
384.91	331.45
385.29	343.2
385.67	338.9
386.049	341.84
386.429	352.01
386.809	338.9
387.189	353.82
387.568	333.03
387.948	344.55
388.328	338.9
388.707	355.63
389.087	354.04
389.466	353.59
389.846	349.3
390.225	358.56
390.605	350.65
390.984	351.33
391.363	366.7
391.743	363.99
392.122	360.82
392.501	340.26
392.881	377.55
393.26	359.24
393.639	351.33
394.018	360.37
394.397	372.12
394.776	347.94
395.155	363.08
395.534	389.52
395.913	375.74
396.292	370.54
396.671	381.61
397.05	371.22
397.429	379.35
397.808	364.67
398.186	398.34
398.565	382.97
398.944	390.88
399.323	403.99
399.701	392.91
400.08	376.42
400.458	381.61
400.837	399.01
401.215	375.74
401.594	369.19
401.972	378.22
402.351	398.34
402.729	403.08
403.107	367.38
403.486	394.27
403.864	409.86
404.242	417.55
404.62	389.98
404.999	384.1
405.377	383.87
405.755	388.62
406.133	396.3
406.511	405.12
406.889	412.8
407.267	434.49
407.645	422.07
408.023	404.66
408.401	415.51
408.779	416.19
409.156	422.52
409.534	435.62
409.912	412.12
410.29	426.36
410.667	410.99
411.045	416.42
411.422	410.54
411.8	453.02
412.178	433.14
412.555	430.88
412.933	437.43
413.31	427.71
413.687	436.53
414.065	459.35
414.442	448.96
414.819	453.93
415.197	445.57
415.574	467.26
415.951	472.23
416.328	476.53
416.705	453.48
417.082	462.97
417.46	471.78
417.837	479.46
418.214	467.04
418.591	458.67
418.967	453.7
419.344	469.52
419.721	479.69
420.098	502.74
420.475	489.63
420.852	489.18
421.228	500.26
421.605	505
421.982	500.71
422.358	502.97
422.735	527.6
423.111	502.52
423.488	509.29
423.864	494.83
424.241	512.01
424.617	526.47
424.994	513.36
425.37	519.69
425.746	516.53
426.123	523.76
426.499	511.33
426.875	542.06
427.251	521.27
427.627	555.4
428.003	536.86
428.379	554.94
428.756	555.4
429.132	544.77
429.507	523.31
429.883	556.52
430.259	586.13
430.635	569.63
431.011	562.4
431.387	599.91
431.763	589.52
432.138	577.09
432.514	592.23
432.89	589.97
433.265	592.23
433.641	594.94
434.016	622.06
434.392	604.43
434.767	633.59
435.143	608.73
435.518	620.03
435.894	616.41
436.269	654.38
436.644	653.02
437.02	644.21
437.395	644.88
437.77	646.47
438.145	647.14
438.52	658.9
438.895	663.87
439.271	656.86
439.646	692.79
440.021	683.98
440.395	673.81
440.77	698.89
441.145	676.3
441.52	701.83
441.895	704.77
442.27	671.32
442.645	703.87
443.019	699.12
443.394	677.43
443.769	698.22
444.143	712
444.518	709.29
444.892	717.88
445.267	721.72
445.641	705.22
446.016	702.74
446.39	728.95
446.764	729.63
447.139	733.92
447.513	726.24
447.887	750.42
448.262	745.22
448.636	735.28
449.01	757.42
449.384	757.65
449.758	749.97
450.132	774.82
450.506	793.81
450.88	775.5
451.254	763.75
451.628	795.39
452.002	802.17
452.376	796.74
452.75	799.46
453.123	812.56
453.497	828.83
453.871	824.09
454.244	839.23
454.618	821.83
454.992	836.74
455.365	843.97
455.739	857.08
456.112	838.55
456.486	857.08
456.859	859.34
457.232	900.24
457.606	867.7
457.979	888.49
458.352	889.4
458.725	895.5
459.099	914.26
459.472	930.07
459.845	898.44
460.218	921.71
460.591	936.63
460.964	944.76
461.337	954.71
461.71	981.82
462.083	974.82
462.456	979.56
462.829	1000.13
463.201	1012.56
463.574	995.61
463.947	1035.61
464.32	1043.29
464.692	1036.51
465.065	1066.34
465.438	1058.43
465.81	1084.19
466.183	1082.39
466.555	1072.67
466.928	1092.33
467.3	1128.26
467.672	1118.77
468.045	1135.72
468.417	1148.37
468.789	1166
469.161	1183.63
469.534	1195.15
469.906	1218.65
470.278	1204.87
470.65	1227.24
471.022	1239.67
471.394	1269.5
471.766	1287.58
472.138	1294.36
472.51	1341.14
472.882	1342.72
473.253	1340.69
473.625	1380.68
473.997	1377.97
474.369	1407.35
474.74	1394.69
475.112	1456.84
475.484	1474.69
475.855	1514.24
476.227	1496.16
476.598	1561.92
476.97	1574.58
477.341	1574.8
477.713	1612.99
478.084	1671.75
478.455	1650.73
478.827	1696.38
479.198	1723.73
479.569	1775.48
479.94	1810.05
480.311	1833.78
480.682	1859.77
481.053	1862.71
481.424	1916.72
481.795	1953.78
482.166	2013.21
482.537	1989.93
482.908	2019.99
483.279	2076.71
483.65	2132.08
484.021	2166.2
484.391	2171.85
484.762	2210.27
485.133	2232.19
485.503	2302.02
485.874	2319.64
486.244	2363.94
486.615	2369.36
486.985	2427.89
487.356	2482.35
487.726	2483.25
488.097	2565.29
488.467	2565.29
488.837	2640.76
489.207	2629.46
489.578	2693.64
489.948	2710.59
490.318	2765.28
490.688	2816.35
491.058	2832.85
491.428	2917.37
491.798	2920.53
492.168	2984.71
492.538	2947.65
492.908	2997.14
493.278	3050.92
493.648	3055.89
494.017	3156.23
494.387	3171.82
494.757	3171.15
495.126	3244.14
495.496	3254.31
495.866	3274.65
496.235	3313.97
496.605	3319.62
496.974	3376.11
497.344	3371.82
497.713	3416.11
498.082	3422.21
498.452	3491.36
498.821	3490.46
499.19	3468.31
499.559	3579.95
499.928	3532.04
500.298	3577.91
500.667	3617.69
501.036	3633.73
501.405	3692.49
501.774	3680.28
502.143	3701.3
502.512	3722.32
502.88	3766.84
503.249	3724.58
503.618	3767.06
503.987	3779.94
504.356	3787.85
504.724	3827.63
505.093	3871.01
505.462	3866.72
505.83	3875.99
506.199	3951.24
506.567	3982.2
506.936	3977.23
507.304	4012.25
507.672	4034.4
508.041	4040.73
508.409	4024.68
508.777	4134.96
509.145	4099.93
509.514	4119.14
509.882	4120.05
510.25	4128.18
510.618	4184.45
510.986	4187.84
511.354	4243.43
511.722	4251.79
512.09	4273.04
512.458	4289.76
512.826	4310.55
513.193	4299.03
513.561	4304
513.929	4352.58
514.297	4361.4
514.664	4374.05
515.032	4430.77
515.4	4418.57
515.767	4420.6
516.135	4469.87
516.502	4472.13
516.869	4501.96
517.237	4539.7
517.604	4548.28
517.972	4571.33
518.339	4582.86
518.706	4574.27
519.073	4597.1
519.44	4645.46
519.808	4642.75
520.175	4664.67
520.542	4691.33
520.909	4658.56
521.276	4709.41
521.643	4725.23
522.009	4807.26
522.376	4776.07
522.743	4826.24
523.11	4848.84
523.477	4855.85
523.843	4890.87
524.21	4913.7
524.577	4985.56
524.943	4932
525.31	5040.25
525.676	5059.68
526.043	5044.32
526.409	5014.03
526.776	5113.92
527.142	5136.74
527.508	5138.33
527.874	5196.18
528.241	5202.96
528.607	5189.85
528.973	5275.95
529.339	5308.04
529.705	5384.42
530.071	5357.3
530.437	5366.12
530.803	5406.79
531.169	5426.45
531.535	5404.99
531.901	5382.16
532.267	5529.28
532.632	5459.9
532.998	5445.44
533.364	5566.56
533.73	5587.35
534.095	5562.72
534.461	5628.93
534.826	5646.56
535.192	5667.58
535.557	5679.55
535.923	5626.22
536.288	5709.61
536.653	5771.76
537.019	5765.2
537.384	5771.08
537.749	5842.49
538.114	5855.37
538.479	5847.01
538.845	5883.16
539.21	5894.69
539.575	5906.44
539.94	5923.39
540.305	5962.71
540.67	5993.44
541.034	6051.07
541.399	5976.72
541.764	6023.05
542.129	6086.1
542.494	6114.8
542.858	6163.16
543.223	6161.8
543.587	6157.28
543.952	6165.42
544.316	6187.56
544.681	6240.9
545.045	6231.63
545.41	6272.98
545.774	6311.63
546.138	6340.1
546.503	6350.72
546.867	6376.48
547.231	6389.59
547.595	6430.04
547.959	6471.85
548.324	6498.74
548.688	6477.5
549.052	6504.17
549.416	6597.95
549.779	6527.67
550.143	6568.8
550.507	6677.72
550.871	6668.91
551.235	6633.88
551.599	6668.45
551.962	6656.7
552.326	6711.84
552.689	6745.29
553.053	6759.98
553.417	6783.71
553.78	6809.24
554.143	6839.75
554.507	6846.98
554.87	6800.2
555.234	6921.33
555.597	6882.46
555.96	6924.72
556.323	6904.15
556.686	6951.39
557.05	7077.26
557.413	7060.99
557.776	7009.69
558.139	7072.06
558.502	7112.51
558.865	7117.93
559.228	7122.68
559.59	7171.27
559.953	7165.16
560.316	7228.21
560.679	7251.49
561.041	7249.91
561.404	7301.21
561.767	7333.97
562.129	7291.49
562.492	7402.9
562.854	7430.47
563.217	7371.49
563.579	7440.64
563.941	7492.61
564.304	7460.3
564.666	7539.17
565.028	7540.52
565.39	7577.36
565.753	7621.65
566.115	7642.21
566.477	7680.41
566.839	7616
567.201	7721.53
567.563	7690.35
567.925	7845.6
568.287	7802.21
568.648	7793.17
569.01	7894.41
569.372	7931.47
569.734	7903.45
570.095	7976.44
570.457	8007.18
570.819	8053.05
571.18	8037.46
571.542	8077.46
571.903	8171.47
572.265	8180.05
572.626	8195.65
572.987	8200.17
573.349	8382.31
573.71	8360.39
574.071	8428.86
574.432	8471.8
574.794	8508.18
575.155	8500.5
575.516	8552.25
575.877	8552.25
576.238	8706.59
576.599	8730.1
576.96	8840.15
577.32	8865.46
577.681	8958.11
578.042	9045.57
578.403	9098.45
578.763	9090.09
579.124	9173.7
579.485	9296.86
579.845	9489.17
580.206	9489.85
580.566	9598.77
580.927	9756.96
581.287	9842.83
581.648	9869.05
582.008	10095.71
582.368	10136.84
582.728	10332.09
583.089	10440.33
583.449	10525.53
583.809	10693.89
584.169	10845.52
584.529	10952.86
584.889	11244.61
585.249	11264.27
585.609	11422
585.969	11689.57
586.329	11855.89
586.688	12048.65
587.048	12187.63
587.408	12456.33
587.768	12607.73
588.127	12821.74
588.487	13023.09
588.846	13378.11
589.206	13422.18
589.565	13644.99
589.925	13946.68
590.284	14256.73
590.643	14391.42
591.003	14741.69
591.362	14973.77
591.721	15144.39
592.08	15445.85
592.44	15749.12
592.799	15981.43
593.158	16250.8
593.517	16546.61
593.876	16875.42
594.235	17108.41
594.593	17304.33
594.952	17636.75
595.311	17839.91
595.67	18145.67
596.029	18509.95
596.387	18803.28
596.746	19088.24
597.104	19219.76
597.463	19506.08
597.822	19871.72
598.18	20148.55
598.538	20419.73
598.897	20845.26
599.255	20946.72
599.613	21539.02
599.972	21652.47
600.33	22016.07
600.688	22120.7
601.046	22440.7
601.404	22844.98
601.762	23165.2
602.12	23457.39
602.478	23718.63
602.836	23943.71
603.194	24096.47
603.552	24444.94
603.91	24736.68
604.268	25015.32
604.625	25198.81
604.983	25491.24
605.341	25604
605.698	25959.47
606.056	26328.5
606.413	26435.84
606.771	26827.02
607.128	27016.85
607.485	27078.54
607.843	27367.12
608.2	27736.38
608.557	27943.83
608.914	28183.82
609.272	28512.4
609.629	28767.76
609.986	29002.56
610.343	29029.45
610.7	29520.96
611.057	29528.87
611.414	29719.15
611.771	29975.64
612.127	30172.92
612.484	30407.04
612.841	30619.69
613.198	30737.65
613.554	30963.41
613.911	31254.25
614.267	31403.4
614.624	31491.98
614.98	31705.08
615.337	32041.35
615.693	32043.15
616.05	32095.13
616.406	32549.58
616.762	32476.59
617.118	32574.21
617.475	32722.91
617.831	33036.8
618.187	33139.62
618.543	33368.54
618.899	33618.03
619.255	33727.63
619.611	33811.24
619.967	34036.77
620.323	34217.11
620.678	34187.73
621.034	34103.89
621.39	34283.1
621.746	34392.92
622.101	34748.62
622.457	34686.93
622.812	34802.63
623.168	34952.23
623.523	34936.86
623.879	35257.99
624.234	35119.46
624.589	35368.72
624.945	35384.99
625.3	35485.1
625.655	35569.62
626.01	35555.83
626.365	35761.25
626.72	35784.07
627.075	35864.07
627.43	35851.19
627.785	35820.91
628.14	35917.4
628.495	36025.42
628.85	36132.31
629.205	36089.15
629.559	36255.47
629.914	36229.49
630.269	36278.3
630.623	36125.99
630.978	36335.7
631.332	36395.13
631.687	36598.74
632.041	36388.8
632.396	36548.12
632.75	36371.63
633.104	36444.85
633.459	36343.38
633.813	36509.48
634.167	36523.04
634.521	36509.7
634.875	36486.43
635.229	36539.31
635.583	36406.66
635.937	36439.88
636.291	36471.29
636.645	36580.44
636.999	36464.73
637.352	36650.94
637.706	36437.16
638.06	36688.68
638.413	36488.91
638.767	36488.69
639.121	36519.2
639.474	36354
639.828	36470.83
640.181	36520.55
640.534	36572.53
640.888	36448.01
641.241	36345.41
641.594	36433.1
641.947	36626.54
642.301	36538.4
642.654	36481.46
643.007	36471.06
643.36	36374.79
643.713	36486.43
644.066	36531.4
644.419	36321.69
644.771	36056.16
645.124	35730.97
645.477	35781.36
645.83	35475.61
646.182	35408.26
646.535	35398.09
646.888	35370.98
647.24	35279
647.593	35542.5
647.945	35347.47
648.298	35230.19
648.65	35111.32
649.002	35091.89
649.355	35194.03
649.707	35204.65
650.059	35262.96
650.411	35623.17
650.763	35833.34
651.115	36197.17
651.467	36008.7
651.819	36095.25
652.171	35910.4
652.523	35964.86
652.875	35851.87
653.227	35874.69
653.578	36105.65
653.93	35907.01
654.282	35791.76
654.633	35747.69
654.985	35877.63
655.337	35912.21
655.688	35822.04
656.039	36061.13
656.391	35502.5
656.742	35659.56
657.094	35690.97
657.445	35858.87
657.796	35764.86
658.147	35675.38
658.498	35766.45
658.849	35845.99
659.2	35624.08
659.551	35785.66
659.902	35848.48
660.253	35729.39
660.604	35716.05
660.955	35647.13
661.306	35687.58
661.656	35639.9
662.007	35621.59
662.358	35577.52
662.708	35726.22
663.059	35641.48
663.409	35421.37
663.76	35780.01
664.11	35622.04
664.461	35742.27
664.811	35582.04
665.161	35650.07
665.511	35430.64
665.862	35546.11
666.212	35531.65
666.562	35683.96
666.912	35666.34
667.262	35541.59
667.612	35543.4
667.962	35581.14
668.312	35558.99
668.662	35659.56
669.011	35525.77
669.361	35509.96
669.711	35508.6
670.06	35488.71
670.41	35409.85
670.76	35270.64
671.109	35412.78
671.459	35441.94
671.808	35292.33
672.157	35385.44
672.507	35218.66
672.856	35249.85
673.205	35312.45
673.554	35356.74
673.904	35181.15
674.253	35283.52
674.602	35229.06
674.951	34726.47
675.3	34585.46
675.649	35169.63
675.998	35040.36
676.346	35131.89
676.695	35284.43
677.044	34933.7
677.393	35061.83
677.741	35046.47
678.09	35002.85
678.438	34910.2
678.787	34966.47
679.135	34954.26
679.484	34731.9
679.832	34826.13
680.181	34752.69
680.529	34771.67
680.877	34620.94
681.225	34705.46
681.573	34839.01
681.922	34618.45
682.27	34512.47
682.618	34460.27
682.966	34496.65
683.314	34553.6
683.661	34276.09
684.009	34215.75
684.357	34269.08
684.705	34243.77
685.053	34341.4
685.4	34140.5
685.748	34006.94
686.095	34006.27
686.443	33853.73
686.79	33909.09
687.138	33895.99
687.485	33915.42
687.832	33782.32
688.18	33836.1
688.527	33566.28
688.874	33683.56
689.221	33583
689.568	33495.55
689.915	33342.1
690.262	33353.85
690.609	33289.45
690.956	32966.07
691.303	33111.83
691.65	32877.26
691.997	32960.87
692.344	32747.09
692.69	32866.64
693.037	32800.87
693.383	32383.94
693.73	32600.2
694.077	32361.11
694.423	32472.3
694.769	32496.02
695.116	32250.83
695.462	32108.92
695.808	32139.65
696.155	32239.53
696.501	31865.76
696.847	31973.55
697.193	31676.38
697.539	31811.52
697.885	31496.73
698.231	31451.98
698.577	31538.76
698.923	31383.06
699.269	31253.57
699.614	31155.27
699.96	31012.22
700.306	31142.16
700.651	31080.02
700.997	30879.12
701.342	30799.12
701.688	30798.44
702.033	30691.1
702.379	30640.93
702.724	30576.07
703.069	30619.92
703.415	30279.81
703.76	30253.82
704.105	30323.88
704.45	30249.08
704.795	30150.32
705.14	29979.48
705.485	30112.81
705.83	29800.28
706.175	29769.09
706.52	29783.55
706.865	29723.22
707.209	29675.08
707.554	29498.81
707.899	29619.04
708.243	29538.14
708.588	29307.63
708.932	29235.09
709.277	29300.63
709.621	29224.7
709.966	29096.79
710.31	29069.22
710.654	28864.71
710.998	28886.18
711.342	28864.48
711.687	28874.88
712.031	28667.88
712.375	28591.95
712.719	28597.82
713.063	28652.28
713.407	28683.47
713.75	28497.26
714.094	28521.21
714.438	28227.89
714.782	28255.23
715.125	28203.26
715.469	28280.32
715.812	28107.89
716.156	27895.92
716.499	28060.66
716.843	27975.24
717.186	27882.59
717.53	27946.54
717.873	27899.08
718.216	27827.9
718.559	27761.69
718.902	27525.31
719.246	27690.05
719.589	27457.51
719.932	27475.59
720.275	27451.64
720.617	27387.68
720.96	27405.76
721.303	27319.44
721.646	27293.45
721.989	27122.15
722.331	27379.55
722.674	27060.91
723.016	27179.55
723.359	27131.65
723.701	27261.81
724.044	26936.4
724.386	26812.78
724.729	26971.42
725.071	26808.26
725.413	26890.52
725.755	26870.41
726.097	26663.86
726.439	26523.75
726.782	26593.81
727.124	26623.18
727.465	26504.77
727.807	26589.06
728.149	26481.04
728.491	26355.39
728.833	26386.58
729.175	26300.25
729.516	26210.77
729.858	26219.58
730.199	26296.64
730.541	26244.89
730.882	26093.71
731.224	26128.06
731.565	26010.77
731.906	26065.68
732.248	26049.87
732.589	25781.4
732.93	25828.18
733.271	25729.87
733.612	25861.4
733.953	25934.61
734.294	25732.81
734.635	25780.27
734.976	25760.83
735.317	25617.79
735.658	25676.09
735.999	25607.84
736.339	25602.65
736.68	25661.85
737.021	25519.03
737.361	25362.88
737.702	25550.67
738.042	25472.71
738.383	25431.58
738.723	25468.41
739.063	25231.13
739.404	25344.57
739.744	25287.63
740.084	25147.74
740.424	25189.32
740.764	25144.35
741.104	25189.55
741.444	25022.1
741.784	25035.66
742.124	25030.68
742.464	25071.81
742.804	24983.23
743.143	24850.35
743.483	24876.11
743.823	24823.68
744.162	24745.49
744.502	24901.87
744.841	24745.04
745.181	24757.92
745.52	24618.04
745.86	24690.58
746.199	24647.64
746.538	24567.87
746.877	24649.22
747.216	24627.3
747.556	24437.25
747.895	24412.85
748.234	24446.52
748.573	24399.74
748.911	24313.19
749.25	24296.69
749.589	24216.24
749.928	24266.18
750.267	24225.51
750.605	24184.83
750.944	24140.99
751.283	24052.86
751.621	24144.15
751.96	23931.73
752.298	24006.3
752.636	23909.81
752.975	23910.94
753.313	23766.54
753.651	23931.73
753.989	23700.32
754.327	23738.97
754.666	23619.87
755.004	23672.3
755.342	23593.66
755.679	23606.77
756.017	23442.7
756.355	23531.51
756.693	23442.02
757.031	23501.91
757.368	23352.31
757.706	23322.71
758.044	23144.63
758.381	23270.96
758.719	23126.33
759.056	23124.97
759.394	22991.64
759.731	22951.42
760.068	22871.19
760.405	22819.89
760.743	22689.05
761.08	22817.86
761.417	22582.61
761.754	22629.62
762.091	22620.58
762.428	22614.7
762.765	22455.84
763.102	22449.28
763.438	22279.34
763.775	22244.32
764.112	22231.21
764.449	22183.53
764.785	22111.89
765.122	21965.23
765.458	21974.49
765.795	21806.14
766.131	21911.22
766.467	21749.87
766.804	21614.5
767.14	21521.4
767.476	21548.74
767.812	21467.61
768.148	21577.67
768.485	21381.74
768.821	21222.65
769.157	21171.35
769.492	21172.71
769.828	21146.72
770.164	20922.77
770.5	20989.43
770.836	20984.01
771.171	20843
771.507	20829.66
771.842	20579.5
772.178	20553.29
772.513	20533.17
772.849	20417.92
773.184	20344.25
773.519	20287.76
773.855	20214.31
774.19	20154.65
774.525	20050.02
774.86	20104.49
775.195	19999.18
775.53	19999.4
775.865	19777.94
776.2	19679.19
776.535	19565.29
776.87	19600.77
777.205	19610.04
777.539	19462.24
777.874	19470.15
778.209	19246.2
778.543	19250.04
778.878	19182.7
779.212	19204.62
779.547	18942.03
779.881	19071.74
780.215	18876.27
780.55	18961.24
780.884	18772.54
781.218	18749.72
781.552	18807.12
781.886	18698.87
782.22	18552.44
782.554	18420.91
782.888	18344.98
783.222	18293.69
783.556	18204.42
783.889	18155.84
784.223	18039
784.557	18000.13
784.89	17995.61
785.224	17918.78
785.557	17711.33
785.891	17784.77
786.224	17666.13
786.558	17660.26
786.891	17542.97
787.224	17503.65
787.557	17466.59
787.891	17339.13
788.224	17322.64
788.557	17435.63
788.89	17211.91
789.223	17200.61
789.556	17102.3
789.888	17059.82
790.221	17036.09
790.554	16948.64
790.887	17024.79
791.219	16833.84
791.552	16764.69
791.884	16721.52
792.217	16690.56
792.549	16686.72
792.882	16411.93
793.214	16464.13
793.546	16461.64
793.879	16429.1
794.211	16317.92
794.543	16269.78
794.875	16259.84
795.207	16217.13
795.539	16158.6
795.871	16062.78
796.203	15954.76
796.535	15841.55
796.867	15827.76
797.198	15772.62
797.53	15830.7
797.862	15738.5
798.193	15783.47
798.525	15656.92
798.856	15723.58
799.188	15512.06
799.519	15476.36
799.85	15333.31
800.182	15420.77
800.513	15473.19
800.844	15116.14
801.175	15297.83
801.506	15258.74
801.837	15176.93
802.168	15176.03
802.499	15027.56
802.83	15058.29
803.161	14933.1
803.491	14967.67
803.822	14959.08
804.153	14859.43
804.483	14741.01
804.814	14661.92
805.145	14726.77
805.475	14660.11
805.805	14586.66
806.136	14585.08
806.466	14583.5
806.796	14504.41
807.126	14477.74
807.457	14418.76
807.787	14379.89
808.117	14315.94
808.447	14284.07
808.777	14240.91
809.107	14207.01
809.436	14208.37
809.766	14166.79
810.096	14088.15
810.426	14024.42
810.755	14046.57
811.085	14037.98
811.414	13989.39
811.744	13929.96
812.073	13804.76
812.403	13848.6
812.732	13817.65
813.061	13797.08
813.39	13746.46
813.719	13597.31
814.049	13705.11
814.378	13681.83
814.707	13613.58
815.036	13601.83
815.365	13459.69
815.693	13453.36
816.022	13364.1
816.351	13309.64
816.68	13367.26
817.008	13324.55
817.337	13202.07
817.665	13216.08
817.994	13267.15
818.322	13218.34
818.651	13178.79
818.979	13126.14
819.307	13134.27
819.636	13082.52
819.964	13026.93
820.292	13033.48
820.62	13074.61
820.948	12993.49
821.276	13021.06
821.604	12995.52
821.932	12998.68
822.259	13002.98
822.587	12978.12
822.915	12909.87
823.243	12998.23
823.57	12957.1
823.898	12918.91
824.225	12900.83
824.553	12905.58
824.88	12817.67
825.207	12990.55
825.535	12917.78
825.862	12848.41
826.189	12845.02
826.516	12879.82
826.843	12974.73
827.17	12911.23
827.497	12896.54
827.824	12870.55
828.151	12934.5
828.478	12844.79
828.805	12946.71
829.131	12909.42
829.458	12854.51
829.785	12829.42
830.111	12868.29
830.438	12907.61
830.764	12878.69
831.09	12837.33
831.417	12779.71
831.743	12827.39
832.069	12835.07
832.395	12804.11
832.722	12806.15
833.048	12768.63
833.374	12715.3
833.7	12749.2
834.026	12837.11
834.351	12761.18
834.677	12721.63
835.003	12750.78
835.329	12626.04
835.654	12666.71
835.98	12630.11
836.306	12664.46
836.631	12563.21
836.956	12617
837.282	12657.9
837.607	12541.52
837.932	12554.4
838.258	12569.54
838.583	12548.07
838.908	12428.98
839.233	12482.54
839.558	12421.07
839.883	12402.99
840.208	12307.63
840.533	12386.5
840.858	12323.45
841.182	12356.21
841.507	12363.45
841.832	12287.74
842.156	12234.41
842.481	12186.05
842.805	12167.29
843.13	12132.27
843.454	12223.56
843.778	12091.59
844.103	12150.8
844.427	12003.68
844.751	12045.04
845.075	11964.36
845.399	11912.84
845.723	11925.94
846.047	11826.06
846.371	11837.81
846.695	11777.02
847.019	11709
847.343	11681.2
847.666	11586.97
847.99	11579.51
848.313	11559.4
848.637	11497.25
848.96	11546.97
849.284	11378.16
849.607	11340.2
849.931	11323.93
850.254	11302.46
850.577	11203.93
850.9	11146.3
851.223	11131.16
851.546	11062.69
851.869	11012.3
852.192	11102.01
852.515	10949.47
852.838	10857.05
853.161	10891.62
853.483	10845.97
853.806	10768.46
854.129	10786.76
854.451	10849.81
854.774	10674.9
855.096	10654.56
855.419	10625.19
855.741	10635.13
856.063	10583.83
856.385	10535.47
856.708	10561.91
857.03	10452.54
857.352	10501.8
857.674	10432.65
857.996	10318.53
858.318	10291.41
858.64	10377.06
858.961	10283.05
859.283	10278.53
859.605	10203.5
859.926	10330.96
860.248	10186.78
860.57	10111.08
860.891	10151.75
861.212	10130.51
861.534	10033.56
861.855	10012.55
862.176	10017.75
862.498	9994.92
862.819	10066.33
863.14	9946.33
863.461	10048.93
863.782	9935.71
864.103	9912.89
864.424	9888.93
864.745	9905.43
865.065	9844.19
865.386	9835.6
865.707	9757.19
866.027	9810.29
866.348	9780.01
866.668	9848.03
866.989	9721.93
867.309	9688.49
867.63	9685.1
867.95	9715.38
868.27	9639.9
868.59	9653.01
868.91	9615.72
869.23	9650.75
869.55	9586.12
869.87	9635.61
870.19	9600.81
870.51	9577.98
870.83	9580.92
871.15	9451.66
871.469	9494.14
871.789	9495.05
872.109	9532.56
872.428	9498.21
872.748	9486.01
873.067	9448.95
873.386	9474.71
873.706	9413.69
874.025	9450.98
874.344	9372.79
874.663	9400.81
874.982	9351.55
875.301	9353.36
875.62	9338.21
875.939	9304.09
876.258	9277.2
876.577	9264.54
876.896	9292.57
877.214	9220.48
877.533	9292.11
877.852	9207.6
878.17	9228.84
878.489	9209.63
878.807	9197.65
879.125	9171.89
879.444	9161.04
879.762	9148.84
880.08	9098.22
880.398	9080.14
880.716	9052.12
881.034	8991.78
881.352	9050.09
881.67	9019.35
881.988	8987.49
882.306	8968.51
882.624	8955.63
882.941	8916.98
883.259	8886.48
883.577	8859.58
883.894	8872.46
884.212	8859.81
884.529	8787.27
884.846	8806.7
885.164	8820.94
885.481	8768.51
885.798	8749.76
886.115	8683.32
886.432	8692.13
886.75	8688.74
887.067	8646.26
887.383	8579.82
887.7	8617.78
888.017	8622.08
888.334	8598.57
888.651	8525.35
888.967	8544.34
889.284	8513.15
889.6	8477.22
889.917	8396.77
890.233	8387.05
890.55	8450.33
890.866	8457.11
891.182	8410.78
891.498	8309.99
891.815	8365.81
892.131	8282.88
892.447	8274.06
892.763	8261.18
893.079	8196.32
893.395	8150
893.71	8208.75
894.026	8156.78
894.342	8133.05
894.657	8001.3
894.973	8075.2
895.289	8088.3
895.604	8006.5
895.92	7985.48
896.235	7959.27
896.55	7940.06
896.865	7922.88
897.181	7943
897.496	7880.4
897.811	7883.11
898.126	7814.87
898.441	7782.78
898.756	7816.9
899.071	7699.84
899.386	7690.57
899.7	7717.69
900.015	7675.66
900.33	7603.8
900.644	7630.24
900.959	7600.18
901.273	7553.18
901.588	7529.45
901.902	7497.59
902.216	7455.33
902.531	7395.89
902.845	7365.61
903.159	7362.9
903.473	7362.22
903.787	7268.44
904.101	7254.2
904.415	7250.13
904.729	7279.06
905.042	7228.67
905.356	7254.65
905.67	7162.23
905.984	7172.17
906.297	7143.47
906.611	7054.66
906.924	7075.9
907.237	7020.54
907.551	6992.29
907.864	6988.9
908.177	7050.82
908.491	6919.3
908.804	6939.18
909.117	6836.81
909.43	6842.24
909.743	6824.38
910.056	6820.54
910.368	6744.16
910.681	6762.46
910.994	6680.88
911.307	6679.3
911.619	6637.04
911.932	6658.74
912.244	6575.35
912.557	6657.38
912.869	6570.38
913.181	6546.42
913.494	6546.42
913.806	6429.36
914.118	6431.17
914.43	6414.9
914.742	6349.14
915.054	6333.1
915.366	6298.97
915.678	6345.3
915.99	6255.13
916.302	6270.95
916.613	6245.87
916.925	6230.05
917.236	6234.12
917.548	6188.92
917.859	6155.47
918.171	6107.79
918.482	6109.6
918.794	6082.71
919.105	6050.62
919.416	5995.03
919.727	5995.7
920.038	6002.71
920.349	5943.73
920.66	5918.19
920.971	5854.01
921.282	5873.45
921.593	5827.12
921.903	5799.78
922.214	5750.74
922.525	5773.79
922.835	5786.9
923.146	5686.33
923.456	5714.81
923.767	5714.13
924.077	5663.06
924.387	5636.62
924.697	5571.99
925.008	5564.53
925.318	5523.85
925.628	5524.98
925.938	5492.67
926.248	5511.65
926.558	5481.37
926.867	5470.75
927.177	5444.76
927.487	5430.3
927.796	5362.27
928.106	5292.9
928.416	5331.77
928.725	5323.86
929.034	5252.67
929.344	5260.13
929.653	5296.51
929.962	5221.49
930.271	5175.39
930.581	5207.7
930.89	5142.85
931.199	5142.62
931.508	5094.03
931.817	5125.44
932.125	5034.37
932.434	5081.6
932.743	4988.05
933.051	5005.22
933.36	4986.46
933.669	4953.02
933.977	4928.84
934.286	4914.38
934.594	4949.63
934.902	4903.08
935.21	4847.94
935.519	4871.44
935.827	4818.11
936.135	4779.92
936.443	4761.84
936.751	4702.4
937.059	4742.4
937.367	4746.47
937.674	4679.35
937.982	4712.57
938.29	4680.03
938.597	4698.11
938.905	4602.29
939.213	4574.72
939.52	4533.37
939.827	4560.71
940.135	4540.83
940.442	4470.32
940.749	4501.28
941.056	4496.99
941.363	4475.74
941.67	4410.89
941.977	4401.85
942.284	4384.67
942.591	4396.88
942.898	4338.35
943.205	4391.68
943.511	4332.24
943.818	4334.05
944.125	4269.87
944.431	4314.17
944.738	4217.9
945.044	4239.59
945.35	4212.7
945.657	4154.62
945.963	4148.75
946.269	4177.45
946.575	4151.46
946.881	4147.39
947.187	4150.78
947.493	4088.86
947.799	4073.27
948.105	4057
948.41	4019.94
948.716	4025.59
949.022	4002.08
949.327	3977.45
949.633	3894.06
949.938	3941.97
950.244	3982.42
950.549	3911.24
950.854	3871.01
951.16	3857.23
951.465	3852.26
951.77	3871.24
952.075	3886.83
952.38	3815.65
952.685	3825.59
952.99	3773.16
953.294	3775.88
953.599	3748.76
953.904	3728.87
954.209	3706.5
954.513	3728.87
954.818	3669.89
955.122	3692.04
955.426	3669.89
955.731	3651.81
956.035	3631.25
956.339	3618.14
956.643	3608.65
956.948	3559.84
957.252	3582.89
957.556	3579.27
957.86	3535.43
958.163	3541.53
958.467	3521.64
958.771	3476
959.075	3485.71
959.378	3467.18
959.682	3454.75
959.985	3414.3
960.289	3399.84
960.592	3414.75
960.896	3428.54
961.199	3353.29
961.502	3353.51
961.805	3330.24
962.108	3325.49
962.411	3325.27
962.714	3349.45
963.017	3283.01
963.32	3311.93
963.623	3286.85
963.926	3264.25
964.228	3245.72
964.531	3194.2
964.833	3224.25
965.136	3182.67
965.438	3177.25
965.741	3163.69
966.043	3129.34
966.345	3151.71
966.648	3106.06
966.95	3071.26
967.252	3108.1
967.554	3085.95
967.856	3054.99
968.158	3019.06
968.46	3056.12
968.761	3061.09
969.063	3011.38
969.365	3018.61
969.666	2989.46
969.968	2996.46
970.269	2987.87
970.571	2968.44
970.872	2942.68
971.174	2919.4
971.475	2938.61
971.776	2938.61
972.077	2891.15
972.378	2874.66
972.679	2880.53
972.98	2837.37
973.281	2849.12
973.582	2815.67
973.883	2845.05
974.183	2817.03
974.484	2765.28
974.785	2798.27
975.085	2759.4
975.386	2792.62
975.686	2738.16
975.986	2733.19
976.287	2756.02
976.587	2676.7
976.887	2693.87
977.187	2695.9
977.487	2695.68
977.787	2675.11
978.087	2636.47
978.387	2619.3
978.687	2622.23
978.987	2619.07
979.286	2603.7
979.586	2558.73
979.885	2595.57
980.185	2588.79
980.484	2571.84
980.784	2566.42
981.083	2538.17
981.382	2540.88
981.682	2519.64
981.981	2502.91
982.28	2514.89
982.579	2450.71
982.878	2464.72
983.177	2483.71
983.475	2442.13
983.774	2469.69
984.073	2415.01
984.372	2425.63
984.67	2408.91
984.969	2407.32
985.267	2379.75
985.566	2408.45
985.864	2362.81
986.162	2393.09
986.461	2341.34
986.759	2396.02
987.057	2353.54
987.355	2323.03
987.653	2331.39
987.951	2282.36
988.249	2291.39
988.547	2275.35
988.844	2277.38
989.142	2248.01
989.44	2248.01
989.737	2264.95
990.035	2250.04
990.332	2212.98
990.63	2237.84
990.927	2169.82
991.224	2203.71
991.521	2172.3
991.819	2187.89
992.116	2158.74
992.413	2131.85
992.71	2160.78
993.006	2098.41
993.303	2097.05
993.6	2113.77
993.897	2114.68
994.193	2060.21
994.49	2088.46
994.787	2096.37
995.083	2061.57
995.379	2060.21
995.676	2042.59
995.972	2005.3
996.268	2060.89
996.565	2003.94
996.861	2046.88
997.157	1979.76
997.453	2015.7
997.749	2008.01
998.044	1967.11
998.34	1945.41
998.636	1945.64
998.932	1952.87
999.227	1930.05
999.523	1923.49
999.818	1898.41
1000.114	1879.43
1000.409	1913.78
1000.704	1863.38
1001	1889.37
1001.295	1865.64
1001.59	1807.57
1001.885	1852.99
1002.18	1831.97
1002.475	1801.92
1002.77	1812.31
1003.065	1813.67
1003.359	1788.13
1003.654	1778.41
1003.949	1746.1
1004.243	1752.43
1004.538	1728.92
1004.832	1767.57
1005.127	1739.77
1005.421	1760.79
1005.715	1728.47
1006.009	1730.73
1006.304	1737.28
1006.598	1682.82
1006.892	1679.43
1007.186	1689.38
1007.48	1644.86
1007.773	1680.79
1008.067	1652.32
1008.361	1624.29
1008.655	1635.59
1008.948	1627.91
1009.242	1643.95
1009.535	1602.6
1009.829	1607.12
1010.122	1590.62
1010.415	1557.4
1010.708	1584.29
1011.001	1556.05
1011.295	1541.58
1011.588	1516.95
1011.881	1523.05
1012.173	1524.41
1012.466	1527.8
1012.759	1482.6
1013.052	1541.36
1013.344	1502.26
1013.637	1493.45
1013.93	1484.41
1014.222	1493
1014.514	1441.93
1014.807	1479.21
1015.099	1418.88
1015.391	1451.87
1015.683	1421.81
1015.976	1420.68
1016.268	1422.94
1016.56	1408.93
1016.851	1387.24
1017.143	1387.92
1017.435	1376.16
1017.727	1361.48
1018.018	1387.24
1018.31	1349.27
1018.602	1349.27
1018.893	1329.84
1019.185	1341.36
1019.476	1310.18
1019.767	1276.73
1020.058	1296.84
1020.35	1246.22
1020.641	1298.43
1020.932	1286.9
1021.223	1282.61
1021.514	1283.29
1021.804	1260.24
1022.095	1260.24
1022.386	1224.53
1022.677	1231.31
1022.967	1222.04
1023.258	1228.6
1023.548	1194.47
1023.839	1188.15
1024.129	1204.19
1024.419	1188.15
1024.709	1167.81
1025	1154.48
1025.29	1151.31
1025.58	1166.45
1025.87	1147.47
1026.16	1142.05
1026.449	1133.91
1026.739	1112.22
1027.029	1138.66
1027.319	1138.2
1027.608	1114.02
1027.898	1117.19
1028.187	1087.13
1028.477	1109.96
1028.766	1101.6
1029.055	1071.31
1029.344	1069.73
1029.634	1046.46
1029.923	1064.31
1030.212	1057.75
1030.501	1055.49
1030.79	1040.13
1031.078	1025.21
1031.367	1044.65
1031.656	1000.13
1031.945	991.32
1032.233	974.37
1032.522	997.42
1032.81	1003.97
1033.099	967.36
1033.387	997.42
1033.675	992.9
1033.963	947.48
1034.251	932.79
1034.54	981.82
1034.828	969.62
1035.116	949.51
1035.403	922.17
1035.691	935.27
1035.979	956.51
1036.267	926.01
1036.554	911.09
1036.842	933.01
1037.129	898.44
1037.417	916.74
1037.704	891.88
1037.992	916.97
1038.279	879.68
1038.566	879.45
1038.853	879.45
1039.14	879.45
