Data from hue_210_FLMS001491_00040.txt Node
Date: Tue Feb 07 16:41:07 GMT 2017
User: dcchb
Spectrometer: FLMS00149
Trigger mode: 0
Integration Time (sec): 2.000000E-2
Scans to average: 10
Electric dark correction enabled: true
Nonlinearity correction enabled: false
Boxcar width: 0
XAxis mode: Wavelengths
Number of Pixels in Spectrum: 2048
>>>>>Begin Spectral Data<<<<<
341.393	-0.32
341.776	-0.32
342.16	-0.32
342.543	-62.7
342.927	-67.89
343.31	-68.12
343.693	-72.87
344.077	-70.38
344.46	-55.69
344.843	-70.15
345.226	-35.8
345.61	-37.39
345.993	-4.17
346.376	-7.78
346.759	-7.78
347.142	27.47
347.525	51.2
347.908	54.81
348.291	84.64
348.674	93.23
349.057	118.77
349.44	123.06
349.823	146.56
350.206	178.43
350.588	187.92
350.971	213.91
351.354	228.82
351.737	237.86
352.119	264.3
352.502	267.92
352.884	257.52
353.267	277.18
353.65	309.05
354.032	278.31
354.414	291.64
354.797	302.49
355.179	323.96
355.562	321.93
355.944	325.32
356.326	312.21
356.709	305.88
357.091	341.81
357.473	337.52
357.855	326.9
358.238	333.23
358.62	339.55
359.002	329.84
359.384	322.38
359.766	352.89
360.148	335.26
360.53	328.93
360.912	335.71
361.294	336.16
361.676	345.2
362.057	327.8
362.439	319.21
362.821	348.59
363.203	315.37
363.584	330.06
363.966	315.15
364.348	325.77
364.729	328.71
365.111	319.89
365.493	317.18
365.874	333.68
366.256	312.21
366.637	298.88
367.019	327.12
367.4	321.25
367.781	293
368.163	310.85
368.544	312.44
368.925	309.05
369.306	322.83
369.688	325.09
370.069	307.01
370.45	309.05
370.831	320.34
371.212	311.31
371.593	301.36
371.974	318.31
372.355	321.93
372.736	322.38
373.117	321.93
373.498	307.24
373.879	316.05
374.26	337.29
374.641	314.7
375.021	319.89
375.402	295.49
375.783	330.06
376.163	322.38
376.544	319.67
376.925	319.89
377.305	319.44
377.686	315.37
378.066	339.55
378.447	342.49
378.827	317.63
379.208	323.06
379.588	325.32
379.968	329.61
380.349	349.72
380.729	333
381.109	334.36
381.489	341.81
381.87	337.97
382.25	357.18
382.63	330.51
383.01	353.79
383.39	338.42
383.77	335.71
384.15	347.24
384.53	335.26
384.91	366.45
385.29	358.31
385.67	347.01
386.049	358.76
386.429	373.68
386.809	371.19
387.189	353.11
387.568	368.7
387.948	369.83
388.328	342.49
388.707	364.41
389.087	368.48
389.466	351.53
389.846	361.02
390.225	371.64
390.605	382.26
390.984	375.26
391.363	386.11
391.743	362.38
392.122	347.01
392.501	382.26
392.881	380.68
393.26	389.27
393.639	393.11
394.018	372.09
394.397	384.75
394.776	396.95
395.155	392.21
395.534	395.82
395.913	387.91
396.292	382.04
396.671	400.79
397.05	387.69
397.429	423.62
397.808	396.05
398.186	409.83
398.565	416.39
398.944	407.8
399.323	411.64
399.701	409.16
400.08	425.43
400.458	441.47
400.837	413.45
401.215	421.13
401.594	435.6
401.972	441.7
402.351	430.4
402.729	439.44
403.107	444.18
403.486	445.99
403.864	472.66
404.242	444.86
404.62	474.46
404.999	447.57
405.377	461.36
405.755	450.28
406.133	478.08
406.511	457.97
406.889	469.27
407.267	484.63
407.645	492.32
408.023	502.71
408.401	485.54
408.779	500
409.156	526.89
409.534	517.4
409.912	544.29
410.29	543.62
410.667	536.84
411.045	548.59
411.422	554.01
411.8	560.79
412.178	573.9
412.555	595.59
412.933	586.78
413.31	605.53
413.687	604.18
414.065	613.67
414.442	630.84
414.819	638.98
415.197	658.64
415.574	678.3
415.951	681.69
416.328	679.88
416.705	697.96
417.082	681.24
417.46	699.54
417.837	713.55
418.214	718.75
418.591	726.44
418.967	729.15
419.344	774.12
419.721	772.54
420.098	762.14
420.475	796.94
420.852	808.24
421.228	807.56
421.605	803.72
421.982	836.26
422.358	848.24
422.735	861.12
423.111	895.47
423.488	873.55
423.864	903.15
424.241	930.95
424.617	943.83
424.994	948.12
425.37	946.54
425.746	951.74
426.123	966.66
426.499	1014.34
426.875	1026.77
427.251	1032.19
427.627	1014.56
428.003	1046.88
428.379	1096.14
428.756	1097.27
429.132	1107.89
429.507	1136.59
429.883	1116.48
430.259	1165.75
430.635	1160.77
431.011	1162.58
431.387	1217.27
431.763	1207.33
432.138	1217.27
432.514	1236.48
432.89	1258.63
433.265	1292.52
433.641	1304.73
434.016	1313.31
434.392	1340.66
434.767	1357.38
435.143	1399.86
435.518	1407.55
435.894	1448.9
436.269	1476.92
436.644	1491.84
437.02	1519.64
437.395	1562.57
437.77	1584.94
438.145	1606.64
438.52	1612.29
438.895	1672.17
439.271	1691.83
439.646	1692.74
440.021	1722.57
440.395	1725.28
440.77	1730.48
441.145	1782.91
441.52	1805.96
441.895	1793.07
442.27	1829.68
442.645	1832.17
443.019	1874.2
443.394	1897.25
443.769	1902
444.143	1891.38
444.518	1970.47
444.892	1956.46
445.267	1965.95
445.641	2001.2
446.016	2018.15
446.39	2018.83
446.764	2037.59
447.139	2059.73
447.513	2104.25
447.887	2106.74
448.262	2127.3
448.636	2103.12
449.01	2153.52
449.384	2175.21
449.758	2177.47
450.132	2196.91
450.506	2264.25
450.88	2224.7
451.254	2237.58
451.628	2291.37
452.002	2300.86
452.376	2344.92
452.75	2340.86
453.123	2372.27
453.497	2387.86
453.871	2440.74
454.244	2463.11
454.618	2471.47
454.992	2511.93
455.365	2483.68
455.739	2555.09
456.112	2597.57
456.486	2628.08
456.859	2632.15
457.232	2688.64
457.606	2664.92
457.979	2706.72
458.352	2760.28
458.725	2791.47
459.099	2811.13
459.472	2850.67
459.845	2885.02
460.218	2880.28
460.591	2901.97
460.964	2922.76
461.337	3002.53
461.71	3045.47
462.083	3071.23
462.456	3097.9
462.829	3128.18
463.201	3169.54
463.574	3168.18
463.947	3203.66
464.32	3292.92
464.692	3319.14
465.065	3359.81
465.438	3359.81
465.81	3426.7
466.183	3429.19
466.555	3538.34
466.928	3557.55
467.3	3556.19
467.672	3566.59
468.045	3689.07
468.417	3690.43
468.789	3744.89
469.161	3747.6
469.534	3817.2
469.906	3885
470.278	3932
470.65	3951.21
471.022	4010.42
471.394	4091.54
471.766	4102.84
472.138	4164.99
472.51	4243.63
472.882	4323.18
473.253	4344.19
473.625	4357.53
473.997	4484.08
474.369	4489.27
474.74	4546.9
475.112	4623.06
475.484	4680.23
475.855	4795.71
476.227	4832.99
476.598	4931.52
476.97	4894.69
477.341	5067.34
477.713	5150.95
478.084	5129.48
478.455	5246.54
478.827	5322.25
479.198	5432.98
479.569	5469.36
479.94	5559.08
480.311	5609.02
480.682	5693.76
481.053	5833.42
481.424	5921.55
481.795	5939.86
482.166	6018.5
482.537	6109.8
482.908	6211.04
483.279	6247.87
483.65	6395.21
484.021	6518.15
484.391	6553.4
484.762	6570.8
485.133	6633.17
485.503	6717.01
485.874	6859.38
486.244	6884.24
486.615	7027.06
486.985	7041.75
487.356	7171.69
487.726	7278.58
488.097	7349.54
488.467	7317.67
488.837	7549.53
489.207	7603.09
489.578	7735.29
489.948	7723.54
490.318	7862.29
490.688	7866.81
491.058	7970.54
491.428	8087.82
491.798	8103.19
492.168	8264.09
492.538	8284.2
492.908	8334.6
493.278	8431.77
493.648	8495.27
494.017	8570.52
494.387	8548.38
494.757	8619.11
495.126	8750.41
495.496	8789.5
495.866	8754.47
496.235	8833.34
496.605	8936.84
496.974	8928.93
497.344	8982.49
497.713	9095.93
498.082	9152.43
498.452	9170.28
498.821	9175.93
499.19	9253.9
499.559	9264.97
499.928	9345.42
500.298	9413.44
500.667	9398.98
501.036	9397.39
501.405	9430.39
501.774	9506.77
502.143	9537.96
502.512	9565.07
502.88	9713.77
503.249	9625.64
503.618	9629.03
503.987	9697.27
504.356	9730.72
504.724	9795.12
505.093	9776.14
505.462	9769.36
505.83	9791.96
506.199	9841
506.567	10032.63
506.936	9939.75
507.304	10029.02
507.672	10038.96
508.041	10044.16
508.409	10095.23
508.777	10155.57
509.145	10197.37
509.514	10151.5
509.882	10235.11
510.25	10289.12
510.618	10206.41
510.986	10234.89
511.354	10372.28
511.722	10324.6
512.09	10463.35
512.458	10354.43
512.826	10440.3
513.193	10498.16
513.561	10429.01
513.929	10535.9
514.297	10540.64
514.664	10559.62
515.032	10538.61
515.4	10607.76
515.767	10684.14
516.135	10600.98
516.502	10467.87
516.869	10726.62
517.237	10713.97
517.604	10631.49
517.972	10702.22
518.339	10687.76
518.706	10717.81
519.073	10750.8
519.44	10687.76
519.808	10792.84
520.175	10736.79
520.542	10847.98
520.909	10835.1
521.276	10757.36
521.643	10732.05
522.009	10805.94
522.376	10894.3
522.743	10906.51
523.11	10989.67
523.477	10968.2
523.843	10988.99
524.21	11086.39
524.577	11114.19
524.943	11083.23
525.31	11073.28
525.676	11083.68
526.043	11087.29
526.409	11116.22
526.776	11090.91
527.142	11109.21
527.508	11167.29
527.874	11125.26
528.241	11110.34
528.607	11167.52
528.973	11177.01
529.339	11178.36
529.705	11304.46
530.071	11207.29
530.437	11243.22
530.803	11112.15
531.169	11244.35
531.535	11191.47
531.901	11148.99
532.267	11122.55
532.632	11092.26
532.998	11113.73
533.364	11080.51
533.73	11089.33
534.095	11171.36
534.461	11076.9
534.826	11177.23
535.192	11096.56
535.557	11105.82
535.923	10969.78
536.288	10966.39
536.653	11071.7
537.019	10988.09
537.384	10987.18
537.749	10970.69
538.114	10908.31
538.479	10858.82
538.845	10870.12
539.21	10834.19
539.575	10800.52
539.94	10756.68
540.305	10880.97
540.67	10771.14
541.034	10767.75
541.399	10715.78
541.764	10641.43
542.129	10735.89
542.494	10604.14
542.858	10538.83
543.223	10551.49
543.587	10562.56
543.952	10519.62
544.316	10446.86
544.681	10444.37
545.045	10464.26
545.41	10492.51
545.774	10427.2
546.138	10363.02
546.503	10384.94
546.867	10286.18
547.231	10250.71
547.595	10292.74
547.959	10243.47
548.324	10169.58
548.688	10141.33
549.052	10156.92
549.416	10109.01
549.779	10045.06
550.143	10027.21
550.507	10055
550.871	10058.17
551.235	9995.8
551.599	10004.84
551.962	9978.85
552.326	9989.69
552.689	9994.67
553.053	9869.02
553.417	9805.97
553.78	9949.24
554.143	9796.48
554.507	9810.04
554.87	9848.46
555.234	9879.87
555.597	9750.38
555.96	9792.19
556.323	9786.76
556.686	9730.49
557.05	9753.32
557.413	9764.39
557.776	9678.06
558.139	9690.27
558.502	9709.48
558.865	9659.53
559.228	9666.99
559.59	9630.61
559.953	9676.03
560.316	9672.42
560.679	9705.86
561.041	9711.96
561.404	9566.2
561.767	9696.37
562.129	9676.93
562.492	9703.37
562.854	9646.88
563.217	9639.42
563.579	9692.53
563.941	9761
564.304	9725.52
564.666	9729.14
565.028	9708.35
565.39	9777.72
565.753	9730.94
566.115	9728.91
566.477	9734.79
566.839	9808.23
567.201	9813.43
567.563	9766.42
567.925	9875.35
568.287	9730.04
568.648	9789.47
569.01	9801.68
569.372	9878.74
569.734	9824.05
570.095	9859.53
570.457	9873.99
570.819	9896.59
571.18	9885.52
571.542	9896.36
571.903	9903.82
572.265	9925.97
572.626	9999.41
572.987	10015.91
573.349	10018.62
573.71	10026.98
574.071	9979.75
574.432	9973.2
574.794	10071.73
575.155	10028.79
575.516	10026.53
575.877	10053.87
576.238	10071.95
576.599	10082.12
576.96	10038.73
577.32	10087.09
577.681	10180.42
578.042	10184.72
578.403	10155.57
578.763	10129.35
579.124	10134.78
579.485	10234.66
579.845	10211.84
580.206	10191.72
580.566	10222.68
580.927	10207.32
581.287	10301.78
581.648	10255.68
582.008	10318.05
582.368	10264.94
582.728	10319.86
583.089	10240.08
583.449	10237.6
583.809	10221.55
584.169	10259.07
584.529	10255.22
584.889	10296.58
585.249	10295.68
585.609	10260.42
585.969	10314.43
586.329	10283.47
586.688	10332.96
587.048	10299.74
587.408	10276.47
587.768	10310.14
588.127	10345.17
588.487	10256.35
588.846	10409.34
589.206	10331.83
589.565	10324.83
589.925	10295.9
590.284	10345.84
590.643	10323.92
591.003	10288.9
591.362	10353.53
591.721	10291.16
592.08	10262.91
592.44	10347.88
592.799	10345.62
593.158	10349.23
593.517	10296.58
593.876	10418.61
594.235	10391.27
594.593	10348.1
594.952	10316.47
595.311	10298.39
595.67	10338.61
596.029	10399.18
596.387	10376.13
596.746	10405.5
597.104	10356.69
597.463	10417.71
597.822	10397.59
598.18	10281.89
598.538	10335.67
598.897	10389.23
599.255	10352.85
599.613	10418.61
599.972	10421.32
600.33	10370.7
600.688	10395.56
601.046	10453.19
601.404	10447.54
601.762	10404.6
602.12	10440.53
602.478	10393.53
602.836	10468.1
603.194	10385.16
603.552	10455.9
603.91	10400.76
604.268	10425.16
604.625	10405.73
604.983	10446.86
605.341	10391.27
605.698	10432.62
606.056	10476.46
606.413	10487.31
606.771	10526.63
607.128	10501.09
607.485	10385.62
607.843	10444.6
608.2	10496.8
608.557	10547.19
608.914	10510.36
609.272	10512.85
609.629	10546.29
609.986	10525.95
610.343	10520.3
610.7	10586.74
611.057	10513.07
611.414	10599.62
611.771	10552.62
612.127	10565.5
612.484	10602.79
612.841	10588.32
613.198	10605.5
613.554	10629.68
613.911	10625.61
614.267	10598.49
614.624	10539.96
614.98	10607.08
615.337	10717.13
615.693	10637.36
616.05	10638.72
616.406	10690.69
616.762	10679.85
617.118	10616.57
617.475	10647.98
617.831	10615.67
618.187	10760.3
618.543	10717.36
618.899	10740.86
619.255	10744.93
619.611	10750.8
619.967	10771.82
620.323	10797.13
620.678	10742.9
621.034	10685.72
621.39	10730.47
621.746	10715.55
622.101	10795.55
622.457	10704.25
622.812	10713.52
623.168	10696.12
623.523	10776.57
623.879	10823.35
624.234	10733.18
624.589	10754.65
624.945	10763.23
625.3	10728.66
625.655	10711.71
626.01	10737.47
626.365	10756.23
626.72	10780.41
627.075	10715.33
627.43	10681.43
627.785	10745.38
628.14	10754.87
628.495	10768.88
628.85	10720.52
629.205	10681.65
629.559	10716.46
629.914	10680.07
630.269	10717.13
630.623	10628.32
630.978	10668.77
631.332	10739.28
631.687	10672.84
632.041	10673.29
632.396	10662.67
632.75	10565.73
633.104	10574.31
633.459	10583.8
633.813	10547.65
634.167	10623.12
634.521	10542.22
634.875	10521.88
635.229	10520.3
635.583	10501.77
635.937	10447.99
636.291	10502.22
636.645	10433.3
636.999	10429.23
637.352	10450.47
637.706	10411.38
638.06	10386.52
638.413	10426.52
638.767	10346.52
639.121	10387.2
639.474	10382.9
639.828	10304.04
640.181	10307.43
640.534	10320.76
640.888	10288.22
641.241	10196.24
641.594	10330.25
641.947	10250.71
642.301	10311.72
642.654	10269.24
643.007	10237.37
643.36	10301.55
643.713	10217.03
644.066	10311.27
644.419	10141.56
644.771	10102.23
645.124	10044.83
645.477	10028.11
645.83	10006.87
646.182	9942.46
646.535	9884.84
646.888	9944.5
647.24	9875.8
647.593	9918.06
647.945	9916.93
648.298	9884.39
648.65	9893.2
649.002	9840.32
649.355	9845.74
649.707	9823.15
650.059	9883.94
650.411	10017.94
650.763	10039.41
651.115	10088.22
651.467	10090.03
651.819	10106.3
652.171	10104.27
652.523	10004.84
652.875	10073.31
653.227	10054.55
653.578	10095.23
653.93	10054.78
654.282	9993.54
654.633	10046.42
654.985	10079.64
655.337	10090.94
655.688	10006.19
656.039	10163.93
656.391	9993.08
656.742	10111.27
657.094	10057.94
657.445	10102.01
657.796	10098.62
658.147	10002.12
658.498	10053.42
658.849	10034.21
659.2	10088.22
659.551	10062.69
659.902	10057.49
660.253	10039.86
660.604	10139.07
660.955	10043.7
661.306	10141.78
661.656	10034.21
662.007	10105.62
662.358	10182.91
662.708	10087.55
663.059	10151.95
663.409	10100.2
663.76	10157.83
664.11	10168.22
664.461	10143.82
664.811	10141.1
665.161	10188.33
665.511	10112.4
665.862	10114.44
666.212	10198.5
666.562	10166.41
666.912	10113.08
667.262	10087.32
667.612	10118.96
667.962	10111.05
668.312	10143.59
668.662	10143.82
669.011	10133.42
669.361	10142.69
669.711	10041.9
670.06	10045.96
670.41	10067.66
670.76	10046.64
671.109	10082.57
671.459	10075.12
671.808	10129.58
672.157	10073.31
672.507	10040.09
672.856	10080.09
673.205	10121.67
673.554	10081.22
673.904	10053.87
674.253	10115.79
674.602	9964.16
674.951	9858.4
675.3	9828.57
675.649	9996.47
675.998	10015.46
676.346	9955.12
676.695	10003.25
677.044	9913.09
677.393	9935.91
677.741	9978.4
678.09	9851.17
678.438	9902.47
678.787	9901.34
679.135	9890.26
679.484	9837.83
679.832	9852.3
680.181	9795.35
680.529	9783.15
680.877	9780.21
681.225	9815.46
681.573	9799.64
681.922	9724.62
682.27	9797.84
682.618	9661.57
682.966	9651.17
683.314	9630.83
683.661	9681.45
684.009	9660.89
684.357	9597.16
684.705	9576.15
685.053	9570.72
685.4	9626.09
685.748	9515.36
686.095	9460.67
686.443	9522.36
686.79	9444.17
687.138	9488.24
687.485	9423.38
687.832	9468.8
688.18	9459.77
688.527	9328.92
688.874	9259.32
689.221	9369.15
689.568	9267.68
689.915	9208.92
690.262	9228.59
690.609	9186.55
690.956	9183.84
691.303	9167.34
691.65	9110.17
691.997	9077.18
692.344	8982.94
692.69	8971.87
693.037	9034.92
693.383	8946.11
693.73	9028.36
694.077	8910.85
694.423	8859.78
694.769	8822.04
695.116	8827.47
695.462	8871.08
695.808	8740.24
696.155	8801.25
696.501	8716.06
696.847	8725.55
697.193	8584.53
697.539	8659.11
697.885	8575.27
698.231	8574.59
698.577	8519
698.923	8502.28
699.269	8496.63
699.614	8422.96
699.96	8406.69
700.306	8450.53
700.651	8428.15
700.997	8356.74
701.342	8280.59
701.688	8311.55
702.033	8272.45
702.379	8265.45
702.724	8264.09
703.069	8193.36
703.415	8039.24
703.76	8115.62
704.105	8092.12
704.45	8090.99
704.795	8036.3
705.14	8010.31
705.485	7979.8
705.83	7986.36
706.175	7933.48
706.52	7930.09
706.865	7896.64
707.209	7782.75
707.554	7826.14
707.899	7806.02
708.243	7718.12
708.588	7781.84
708.932	7711.56
709.277	7733.26
709.621	7718.57
709.966	7658.91
710.31	7654.16
710.654	7667.27
710.998	7609.64
711.342	7580.72
711.687	7576.88
712.031	7504.79
712.375	7519.25
712.719	7589.53
713.063	7501.85
713.407	7460.04
713.75	7450.33
714.094	7440.84
714.438	7383.21
714.782	7457.33
715.125	7408.29
715.469	7440.16
715.812	7476.54
716.156	7306.6
716.499	7374.85
716.843	7326.26
717.186	7289.43
717.53	7373.27
717.873	7374.4
718.216	7346.6
718.559	7284.46
718.902	7291.46
719.246	7268.64
719.589	7235.64
719.932	7216.21
720.275	7221.63
720.617	7219.6
720.96	7176.89
721.303	7160.62
721.646	7213.95
721.989	7177.34
722.331	7171.69
722.674	7120.39
723.016	7164.68
723.359	7153.16
723.701	7210.33
724.044	7117
724.386	7021.64
724.729	7112.26
725.071	7089.88
725.413	7117.91
725.755	7082.65
726.097	7072.71
726.439	7030.22
726.782	7026.61
727.124	7030
727.465	7007.17
727.807	7087.85
728.149	7058.25
728.491	7072.48
728.833	7047.17
729.175	7043.33
729.516	7034.97
729.858	6987.74
730.199	7031.81
730.541	6969.44
730.882	7015.99
731.224	7032.71
731.565	6967.85
731.906	7048.08
732.248	7020.96
732.589	6990.23
732.93	6965.37
733.271	7000.4
733.612	6993.84
733.953	6990.23
734.294	6968.08
734.635	6984.12
734.976	6970.79
735.317	6996.78
735.658	6996.78
735.999	6975.54
736.339	6983.45
736.68	7056.21
737.021	7019.15
737.361	7004.01
737.702	7059.6
738.042	6983.45
738.383	7026.16
738.723	7038.13
739.063	7048.3
739.404	7085.59
739.744	7047.17
740.084	7049.21
740.424	7105.93
740.764	7051.02
741.104	7117.23
741.444	7027.74
741.784	7083.1
742.124	7179.37
742.464	7117.23
742.804	7184.8
743.143	7163.33
743.483	7198.81
743.823	7175.31
744.162	7202.42
744.502	7270.22
744.841	7230.45
745.181	7351.57
745.52	7339.14
745.86	7392.93
746.199	7441.06
746.538	7389.09
746.877	7441.97
747.216	7508.18
747.556	7564.67
747.895	7707.5
748.234	7641.28
748.573	7659.81
748.911	7759.47
749.25	7872.91
749.589	7852.35
749.928	7945.68
750.267	7981.84
750.605	7989.75
750.944	8077.88
751.283	8158.1
751.621	8263.19
751.96	8360.59
752.298	8433.35
752.636	8495.27
752.975	8567.36
753.313	8671.76
753.651	8747.02
753.989	8916.28
754.327	8978.65
754.666	9077.63
755.004	9220
755.342	9311.29
755.679	9424.74
756.017	9574.34
756.355	9716.03
756.693	9810.26
757.031	9946.08
757.368	10024.27
757.706	10219.07
758.044	10332.51
758.381	10519.85
758.719	10676.91
759.056	10880.29
759.394	10938.37
759.731	11080.06
760.068	11305.82
760.405	11413.84
760.743	11572.03
761.08	11842.98
761.417	11995.29
761.754	12114.16
762.091	12365.68
762.428	12413.81
762.765	12602.28
763.102	12824.2
763.438	13006.34
763.775	13068.03
764.112	13349.83
764.449	13523.61
764.785	13663.5
765.122	13745.08
765.458	13927.9
765.795	14079.08
766.131	14363.59
766.467	14441.78
766.804	14595.45
767.14	14659.63
767.476	14885.39
767.812	14918.15
768.148	15239.73
768.485	15276.79
768.821	15416.9
769.157	15497.35
769.492	15707.06
769.828	15829.32
770.164	15819.37
770.5	16070.89
770.836	16144.79
771.171	16300.49
771.507	16293.03
771.842	16429.3
772.178	16559.47
772.513	16687.37
772.849	16766.01
773.184	16818.89
773.519	16887.14
773.855	16937.53
774.19	17083.75
774.525	17151.31
774.86	17229.73
775.195	17331.65
775.53	17373.46
775.865	17383.62
776.2	17381.59
776.535	17530.06
776.87	17575.71
777.205	17559.67
777.539	17685.76
777.874	17736.61
778.209	17653
778.543	17699.32
778.878	17802.82
779.212	17904.52
779.547	17709.94
779.881	17873.78
780.215	17865.87
780.55	17925.98
780.884	17876.27
781.218	18022.93
781.552	17990.61
781.886	17928.47
782.22	18023.83
782.554	18131.85
782.888	17997.17
783.222	17870.17
783.556	17936.15
783.889	18039.2
784.223	17881.69
784.557	17882.59
784.89	17985.87
785.224	17936.38
785.557	17814.12
785.891	17887.57
786.224	17895.48
786.558	17949.71
786.891	17918.53
787.224	17835.59
787.557	17836.72
787.891	17855.48
788.224	17816.83
788.557	17939.32
788.89	17902.48
789.223	17811.86
789.556	17859.09
789.888	17712.43
790.221	17729.83
790.554	17599.21
790.887	17667.01
791.219	17572.09
791.552	17580
791.884	17525.77
792.217	17521.02
792.549	17548.59
792.882	17468.37
793.214	17348.15
793.546	17423.17
793.879	17388.14
794.211	17281.71
794.543	17344.98
794.875	17295.04
795.207	17408.26
795.539	17222.5
795.871	17262.05
796.203	17237.64
796.535	17069.51
796.867	17136.63
797.198	17029.51
797.53	17146.57
797.862	16979.57
798.193	16995.16
798.525	16875.62
798.856	16954.03
799.188	16778.67
799.519	16800.14
799.85	16689.63
800.182	16668.16
800.513	16756.97
800.844	16595.62
801.175	16720.37
801.506	16681.27
801.837	16523.99
802.168	16587.26
802.499	16588.17
802.83	16393.37
803.161	16461.16
803.491	16458.23
803.822	16393.14
804.153	16309.08
804.483	16279.25
804.814	16253.03
805.145	16266.59
805.475	16241.51
805.805	16172.13
806.136	16105.69
806.466	16135.3
806.796	16141.17
807.126	16066.6
807.457	16045.58
807.787	15991.8
808.117	15916.09
808.447	15858.92
808.777	15852.14
809.107	15837.22
809.436	15685.36
809.766	15763.78
810.096	15683.33
810.426	15656.66
810.755	15698.47
811.085	15673.61
811.414	15665.03
811.744	15465.94
812.073	15484.01
812.403	15566.72
812.732	15470.68
813.061	15446.5
813.39	15316.33
813.719	15274.3
814.049	15430
814.378	15297.58
814.707	15253.74
815.036	15251.48
815.365	15127.86
815.693	15118.83
816.022	15081.76
816.351	15138.49
816.68	15005.38
817.008	14993.86
817.337	14951.37
817.665	14935.1
817.994	14964.93
818.322	14888.1
818.651	14803.58
818.979	14860.98
819.307	14881.77
819.636	14832.51
819.964	14804.03
820.292	14876.12
820.62	14794.77
820.948	14796.35
821.276	14779.63
821.604	14764.71
821.932	14851.49
822.259	14792.51
822.587	14746.18
822.915	14791.83
823.243	14856.46
823.57	14780.08
823.898	14782.56
824.225	14670.25
824.553	14717.48
824.88	14745.28
825.207	14741.43
825.535	14772.62
825.862	14792.96
826.189	14745.5
826.516	14783.47
826.843	14879.74
827.17	14887.42
827.497	14827.08
827.824	14848.78
828.151	14853.97
828.478	14799.96
828.805	14925.16
829.131	14827.31
829.458	14902.11
829.785	14790.7
830.111	14805.16
830.438	14857.82
830.764	14924.93
831.09	14830.7
831.417	14874.31
831.743	14855.56
832.069	14836.57
832.395	14712.28
832.722	14734.65
833.048	14710.47
833.374	14731.04
833.7	14587.31
834.026	14674.54
834.351	14665.05
834.677	14714.09
835.003	14742.56
835.329	14651.95
835.654	14617.14
835.98	14566.98
836.306	14670.02
836.631	14592.74
836.956	14649.46
837.282	14591.38
837.607	14525.85
837.932	14472.51
838.258	14525.17
838.583	14500.76
838.908	14386.42
839.233	14465.74
839.558	14337.6
839.883	14376.02
840.208	14256.48
840.533	14276.59
840.858	14297.6
841.182	14232.75
841.507	14233.88
841.832	14226.87
842.156	14151.39
842.481	14103.26
842.805	14186.19
843.13	14062.36
843.454	14044.05
843.778	14006.54
844.103	14050.61
844.427	13933.77
844.751	14021
845.075	13888.8
845.399	13918.18
845.723	13804.28
846.047	13873.89
846.371	13754.57
846.695	13772.42
847.019	13583.05
847.343	13600.22
847.666	13543.27
847.99	13425.08
848.313	13467.57
848.637	13395.71
848.96	13341.92
849.284	13293.34
849.607	13146.9
849.931	13199.78
850.254	13092.66
850.577	13019.9
850.9	13003.4
851.223	12949.84
851.546	12840.02
851.869	12815.16
852.192	12811.99
852.515	12668.95
852.838	12646.8
853.161	12703.52
853.483	12596.41
853.806	12502.17
854.129	12569.97
854.451	12444.32
854.774	12436.41
855.096	12367.49
855.419	12420.82
855.741	12355.73
856.063	12242.97
856.385	12273.02
856.708	12209.75
857.03	12169.98
857.352	12219.47
857.674	12068.06
857.996	12101.73
858.318	11986.25
858.64	12033.71
858.961	11974.28
859.283	11923.88
859.605	11898.8
859.926	11934.05
860.248	11838.01
860.57	11828.74
860.891	11825.8
861.212	11759.14
861.534	11709.42
861.855	11638.47
862.176	11738.58
862.498	11734.06
862.819	11567.05
863.14	11629.88
863.461	11577.22
863.782	11597.56
864.103	11532.25
864.424	11509.2
864.745	11512.37
865.065	11475.53
865.386	11374.29
865.707	11404.12
866.027	11391.92
866.348	11386.95
866.668	11385.82
866.989	11304.69
867.309	11266.72
867.63	11352.15
867.95	11330.68
868.27	11255.2
868.59	11241.87
868.91	11186.95
869.23	11135.88
869.55	11140.4
869.87	11268.08
870.19	11274.18
870.51	11181.75
870.83	11173.84
871.15	11050.68
871.469	11034.64
871.789	11105.15
872.109	11077.12
872.428	10998.03
872.748	11057.69
873.067	10984.7
873.386	10963.45
873.706	10970.46
874.025	10868.54
874.344	10917.35
874.663	10973.62
874.982	10894.08
875.301	10876
875.62	10892.04
875.939	10850.46
876.258	10884.36
876.577	10819.5
876.896	10855.21
877.214	10729.79
877.533	10737.7
877.852	10719.17
878.17	10668.55
878.489	10760.3
878.807	10770.92
879.125	10692.95
879.444	10740.18
879.762	10664.25
880.08	10599.4
880.398	10652.28
880.716	10642.11
881.034	10537.7
881.352	10606.4
881.67	10566.63
881.988	10482.79
882.306	10501.32
882.624	10447.54
882.941	10437.59
883.259	10356.69
883.577	10367.99
883.894	10388.33
884.212	10341.55
884.529	10338.39
884.846	10300.42
885.164	10236.47
885.481	10228.56
885.798	10252.74
886.115	10068.11
886.432	10164.15
886.75	10108.34
887.067	10094.78
887.383	10085.06
887.7	10063.14
888.017	9991.05
888.334	10009.13
888.651	10017.04
888.967	10025.4
889.284	9933.65
889.6	9864.95
889.917	9876.03
890.233	9815.91
890.55	9824.05
890.866	9813.65
891.182	9797.61
891.498	9750.15
891.815	9712.19
892.131	9613.21
892.447	9618.41
892.763	9652.53
893.079	9547.67
893.395	9626.77
893.71	9548.58
894.026	9529.37
894.342	9529.37
894.657	9443.95
894.973	9437.85
895.289	9396.94
895.604	9399.2
895.92	9226.1
896.235	9314.23
896.55	9281.92
896.865	9135.48
897.181	9234.91
897.496	9172.09
897.811	9137.06
898.126	9130.96
898.441	9125.54
898.756	9066.33
899.071	9010.51
899.386	9025.65
899.7	8915.6
900.015	8866.79
900.33	8848.48
900.644	8800.35
900.959	8840.35
901.273	8799.67
901.588	8739.11
901.902	8713.8
902.216	8694.14
902.531	8634.93
902.845	8653.23
903.159	8560.35
903.473	8500.02
903.787	8540.69
904.101	8465.22
904.415	8462.28
904.729	8388.38
905.042	8357.42
905.356	8391.77
905.67	8327.37
905.984	8326.01
906.297	8254.83
906.611	8238.33
906.924	8250.76
907.237	8187.48
907.551	8196.97
907.864	8155.62
908.177	8074.04
908.491	8039.01
908.804	8056.86
909.117	7982.97
909.43	7913.37
909.743	7846.25
910.056	7901.39
910.368	7850.99
910.681	7807.83
910.994	7735.29
911.307	7784.56
911.619	7712.47
911.932	7706.82
912.244	7600.38
912.557	7622.53
912.869	7549.08
913.181	7559.25
913.494	7474.73
913.806	7455.07
914.118	7469.76
914.43	7447.39
914.742	7360.16
915.054	7355.87
915.366	7310.9
915.678	7290.56
915.99	7291.46
916.302	7156.55
916.613	7164.23
916.925	7186.6
917.236	7210.33
917.548	7128.53
917.859	7144.12
918.171	7057.12
918.482	7047.17
918.794	7048.08
919.105	7021.64
919.416	6966.27
919.727	6947.29
920.038	6910.23
920.349	6871.81
920.66	6822.55
920.971	6807.18
921.282	6796.56
921.593	6758.82
921.903	6738.03
922.214	6723.57
922.525	6686.5
922.835	6675.43
923.146	6600.41
923.456	6624.36
923.767	6569.9
924.077	6564.02
924.387	6523.35
924.697	6503.46
925.008	6425.72
925.318	6444.25
925.628	6414.2
925.938	6400.64
926.248	6373.74
926.558	6304.14
926.867	6336.46
927.177	6279.28
927.487	6260.75
927.796	6169
928.106	6214.43
928.416	6163.58
928.725	6144.6
929.034	6135.33
929.344	6124.26
929.653	6075.67
929.962	6010.59
930.271	6006.97
930.581	5973.08
930.89	5968.56
931.199	5912.51
931.508	5938.5
931.817	5945.73
932.125	5902.34
932.434	5886.75
932.743	5814.89
933.051	5755.91
933.36	5767.89
933.669	5705.29
933.977	5725.17
934.286	5724.72
934.594	5715.46
934.902	5602.47
935.21	5625.74
935.519	5656.48
935.827	5595.46
936.135	5595.46
936.443	5536.48
936.751	5541.22
937.059	5544.16
937.367	5439.08
937.674	5463.49
937.982	5440.44
938.29	5388.23
938.597	5405.41
938.905	5346.65
939.213	5303.72
939.52	5270.27
939.827	5277.73
940.135	5298.97
940.442	5223.27
940.749	5236.15
941.056	5184.85
941.363	5140.56
941.67	5171.29
941.977	5079.77
942.284	5115.7
942.591	5122.03
942.898	5000.22
943.205	5040.67
943.511	5033.22
943.818	5008.13
944.125	4930.84
944.431	4975.82
944.738	4938.08
945.044	4926.33
945.35	4948.47
945.657	4858.08
945.963	4838.42
946.269	4793.22
946.575	4769.95
946.881	4810.17
947.187	4790.51
947.493	4784.63
947.799	4734.69
948.105	4717.29
948.41	4670.96
948.716	4699.44
949.022	4666.22
949.327	4676.61
949.633	4627.35
949.938	4612.89
950.244	4605.88
950.549	4522.27
950.854	4515.26
951.16	4505.32
951.465	4491.31
951.77	4462.38
952.075	4450.41
952.38	4467.35
952.685	4454.47
952.99	4366.34
953.294	4403.63
953.599	4383.51
953.904	4359.33
954.209	4326.57
954.513	4335.38
954.818	4295.61
955.122	4260.58
955.426	4266.23
955.731	4221.94
956.035	4251.99
956.339	4279.11
956.643	4229.17
956.948	4156.63
957.252	4129.06
957.556	4173.58
957.86	4091.09
958.163	4097.87
958.467	4058.33
958.771	4073.47
959.075	4056.97
959.378	3988.95
959.682	4029.85
959.985	4028.04
960.289	3995.05
960.592	3938.33
960.896	3954.15
961.199	3927.93
961.502	3897.43
961.805	3881.61
962.108	3881.16
962.411	3871.21
962.714	3851.78
963.017	3856.97
963.32	3787.15
963.623	3779.01
963.926	3785.34
964.228	3797.54
964.531	3754.6
964.833	3708.05
965.136	3730.2
965.438	3718.9
965.741	3698.33
966.043	3680.26
966.345	3620.14
966.648	3609.52
966.95	3632.8
967.252	3593.03
967.554	3537.44
967.856	3564.1
968.158	3548.73
968.46	3510.32
968.761	3507.15
969.063	3489.3
969.365	3512.35
969.666	3471.9
969.968	3438.68
970.269	3506.02
970.571	3450.21
970.872	3442.75
971.174	3395.29
971.475	3418.79
971.776	3363.65
972.077	3345.12
972.378	3371.11
972.679	3315.07
972.98	3306.48
973.281	3274.39
973.582	3321.62
973.883	3294.96
974.183	3231.91
974.484	3254.73
974.785	3266.48
975.085	3254.28
975.386	3220.83
975.686	3189.87
975.986	3193.04
976.287	3185.13
976.587	3143.1
976.887	3128.18
977.187	3090.67
977.487	3100.16
977.787	3086.6
978.087	3042.98
978.387	3012.48
978.687	3006.6
978.987	3044.79
979.286	3043.89
979.586	3034.85
979.885	2988.98
980.185	2998.24
980.484	2955.76
980.784	2932.93
981.083	2912.59
981.382	2955.08
981.682	2916.89
981.981	2872.82
982.28	2885.7
982.579	2862.65
982.878	2799.6
983.177	2866.72
983.475	2852.71
983.774	2835.76
984.073	2810
984.372	2795.53
984.67	2811.58
984.969	2772.94
985.267	2749.89
985.566	2760.73
985.864	2739.26
986.162	2732.94
986.461	2745.59
986.759	2678.02
987.057	2666.27
987.355	2692.49
987.653	2648.87
987.951	2675.99
988.249	2630.34
988.547	2669.89
988.844	2618.59
989.142	2639.15
989.44	2590.79
989.737	2588.53
990.035	2563.22
990.332	2570.91
990.63	2510.57
990.927	2534.07
991.224	2492.49
991.521	2541.08
991.819	2464.24
992.116	2487.97
992.413	2487.07
992.71	2428.31
993.006	2437.8
993.303	2450.91
993.6	2469.89
993.897	2454.98
994.193	2426.5
994.49	2407.52
994.787	2388.09
995.083	2372.72
995.379	2363.45
995.676	2391.7
995.972	2347.64
996.268	2340.63
996.565	2292.95
996.861	2302.89
997.157	2300.41
997.453	2257.02
997.749	2267.86
998.044	2232.61
998.34	2238.49
998.636	2238.26
998.932	2220.86
999.227	2221.76
999.523	2214.31
999.818	2171.37
1000.114	2167.75
1000.409	2146.96
1000.704	2134.76
1001	2144.7
1001.295	2097.7
1001.59	2114.42
1001.885	2113.74
1002.18	2096.34
1002.475	2064.03
1002.77	2091.6
1003.065	2067.64
1003.359	2043.46
1003.654	2046.63
1003.949	2022.45
1004.243	1996.68
1004.538	1989.23
1004.832	2016.8
1005.127	2013.41
1005.421	1973.86
1005.715	1972.96
1006.009	1953.97
1006.304	1939.29
1006.598	1937.93
1006.892	1914.2
1007.186	1907.87
1007.48	1871.26
1007.773	1891.15
1008.067	1857.25
1008.361	1837.59
1008.655	1843.69
1008.948	1817.71
1009.242	1826.52
1009.535	1819.06
1009.829	1805.05
1010.122	1822.68
1010.415	1789.46
1010.708	1754.88
1011.001	1752.4
1011.295	1773.87
1011.588	1744.71
1011.881	1715.79
1012.173	1710.36
1012.466	1732.28
1012.759	1692.06
1013.052	1727.31
1013.344	1674.66
1013.637	1695.68
1013.93	1635.56
1014.222	1678.73
1014.514	1674.21
1014.807	1646.86
1015.099	1633.98
1015.391	1618.84
1015.683	1594.89
1015.976	1576.81
1016.268	1606.86
1016.56	1584.04
1016.851	1546.98
1017.143	1542.69
1017.435	1527.54
1017.727	1549.24
1018.018	1522.12
1018.31	1520.09
1018.602	1503.59
1018.893	1495
1019.185	1495.46
1019.476	1487.32
1019.767	1499.52
1020.058	1471.73
1020.35	1464.95
1020.641	1457.26
1020.932	1456.13
1021.223	1415.68
1021.514	1421.11
1021.804	1402.35
1022.095	1422.01
1022.386	1398.28
1022.677	1389.24
1022.967	1369.58
1023.258	1353.31
1023.548	1361.45
1023.839	1347.44
1024.129	1346.53
1024.419	1337.72
1024.709	1314.67
1025	1318.51
1025.29	1315.35
1025.58	1299.75
1025.87	1310.38
1026.16	1276.93
1026.449	1259.98
1026.739	1273.99
1027.029	1250.49
1027.319	1226.08
1027.608	1233.09
1027.898	1227.21
1028.187	1224.95
1028.477	1214.56
1028.766	1197.16
1029.055	1195.12
1029.344	1192.41
1029.634	1193.99
1029.923	1210.26
1030.212	1157.61
1030.501	1131.4
1030.79	1134.79
1031.078	1143.37
1031.367	1146.31
1031.656	1110.38
1031.945	1116.03
1032.233	1117.84
1032.522	1130.49
1032.81	1083.49
1033.099	1075.13
1033.387	1088.69
1033.675	1093.43
1033.963	1067.44
1034.251	1053.88
1034.54	1059.76
1034.828	1038.74
1035.116	1047.11
1035.403	1035.13
1035.691	1036.03
1035.979	1021.57
1036.267	1007.78
1036.554	1009.82
1036.842	1006.88
1037.129	1017.05
1037.417	960.78
1037.704	994
1037.992	975.02
1038.279	986.54
1038.566	970.5
1038.853	970.5
1039.14	970.5
