Data from hue_10_FLMS001491_47.txt Node
Date: Mon Feb 06 15:31:59 GMT 2017
User: dcchb
Spectrometer: FLMS00149
Trigger mode: 0
Integration Time (sec): 2.000000E-2
Scans to average: 10
Electric dark correction enabled: true
Nonlinearity correction enabled: false
Boxcar width: 0
XAxis mode: Wavelengths
Number of Pixels in Spectrum: 2048
>>>>>Begin Spectral Data<<<<<
341.393	-14.84
341.776	-14.84
342.16	-14.84
342.543	-75.41
342.927	-72.02
343.31	-66.82
343.693	-49.19
344.077	-77.67
344.46	-54.84
344.843	-45.8
345.226	-24.11
345.61	-38.12
345.993	-20.04
346.376	-11
346.759	14.53
347.142	10.92
347.525	39.62
347.908	36.23
348.291	78.03
348.674	105.6
349.057	102.67
349.44	113.51
349.823	118.49
350.206	153.29
350.588	191.93
350.971	204.81
351.354	218.14
351.737	213.85
352.119	256.34
352.502	271.48
352.884	256.56
353.267	288.2
353.65	292.72
354.032	303.34
354.414	296.56
354.797	320.06
355.179	313.51
355.562	308.54
355.944	325.03
356.326	325.94
356.709	338.37
357.091	339.95
357.473	310.12
357.855	331.59
358.238	330.68
358.62	329.55
359.002	315.77
359.384	329.55
359.766	334.3
360.148	312.15
360.53	347.18
360.912	329.1
361.294	339.27
361.676	326.16
362.057	322.32
362.439	341.08
362.821	321.64
363.203	327.52
363.584	315.32
363.966	323.45
364.348	318.71
364.729	305.83
365.111	297.01
365.493	327.75
365.874	306.05
366.256	318.25
366.637	295.88
367.019	295.2
367.4	316.9
367.781	304.02
368.163	301.31
368.544	301.53
368.925	314.64
369.306	308.99
369.688	312.83
370.069	302.21
370.45	308.31
370.831	310.12
371.212	331.36
371.593	318.48
371.974	310.12
372.355	311.93
372.736	313.96
373.117	300.18
373.498	307.63
373.879	301.53
374.26	326.16
374.641	304.7
375.021	293.17
375.402	317.35
375.783	297.01
376.163	316.45
376.544	318.48
376.925	307.41
377.305	328.42
377.686	298.37
378.066	322.32
378.447	331.14
378.827	323
379.208	312.38
379.588	329.78
379.968	328.88
380.349	348.54
380.729	340.4
381.109	334.98
381.489	316.9
381.87	336.11
382.25	312.15
382.63	318.93
383.01	314.41
383.39	329.33
383.77	349.21
384.15	344.47
384.53	342.43
384.91	330.68
385.29	326.84
385.67	354.19
386.049	332.49
386.429	344.92
386.809	355.32
387.189	334.3
387.568	336.33
387.948	353.06
388.328	344.92
388.707	352.6
389.087	364.58
389.466	344.69
389.846	353.96
390.225	339.27
390.605	343.79
390.984	351.47
391.363	349.44
391.743	365.71
392.122	344.02
392.501	359.61
392.881	343.56
393.26	370.23
393.639	346.28
394.018	351.7
394.397	373.85
394.776	362.55
395.155	367.74
395.534	358.48
395.913	364.35
396.292	377.91
396.671	359.16
397.05	350.34
397.429	344.69
397.808	399.38
398.186	370.68
398.565	342.21
398.944	369.78
399.323	371.81
399.701	403
400.08	374.98
400.458	367.29
400.837	375.88
401.215	396.44
401.594	365.26
401.972	376.33
402.351	386.5
402.729	413.62
403.107	382.43
403.486	387.63
403.864	390.12
404.242	415.43
404.62	381.76
404.999	385.82
405.377	424.92
405.755	386.73
406.133	391.47
406.511	411.36
406.889	413.85
407.267	403.45
407.645	404.81
408.023	419.72
408.401	397.57
408.779	412.72
409.156	417.23
409.534	433.28
409.912	427.86
410.29	429.44
410.667	434.41
411.045	428.08
411.422	429.21
411.8	426.95
412.178	455.2
412.555	419.04
412.933	438.03
413.31	448.19
413.687	443.9
414.065	466.05
414.442	452.26
414.819	447.06
415.197	431.7
415.574	468.08
415.951	433.28
416.328	456.56
416.705	471.47
417.082	454.52
417.46	462.66
417.837	466.05
418.214	478.93
418.591	471.02
418.967	469.44
419.344	462.21
419.721	476.22
420.098	488.42
420.475	481.87
420.852	490.23
421.228	488.42
421.605	487.06
421.982	504.46
422.358	489.55
422.735	473.28
423.111	508.53
423.488	500.85
423.864	500.4
424.241	520.06
424.617	505.37
424.994	513.28
425.37	500.4
425.746	529.55
426.123	538.81
426.499	528.42
426.875	519.6
427.251	522.77
427.627	532.94
428.003	544.92
428.379	546.04
428.756	537.68
429.132	572.26
429.507	572.26
429.883	575.65
430.259	561.64
430.635	581.07
431.011	569.77
431.387	574.52
431.763	597.57
432.138	599.83
432.514	592.37
432.89	584.46
433.265	592.37
433.641	609.55
434.016	614.97
434.392	590.56
434.767	623.33
435.143	606.61
435.518	631.69
435.894	651.35
436.269	622.43
436.644	644.8
437.02	646.16
437.395	671.01
437.77	640.51
438.145	666.72
438.52	660.17
438.895	670.11
439.271	658.58
439.646	680.5
440.021	693.61
440.395	685.93
440.77	676.44
441.145	682.09
441.52	679.15
441.895	698.36
442.27	692.71
442.645	704.23
443.019	694.52
443.394	679.6
443.769	728.64
444.143	706.94
444.518	698.36
444.892	694.29
445.267	694.06
445.641	736.1
446.016	708.98
446.39	727.06
446.764	724.12
447.139	709.43
447.513	734.97
447.887	728.19
448.262	739.03
448.636	740.62
449.01	740.84
449.384	745.59
449.758	751.69
450.132	753.72
450.506	799.82
450.88	760.05
451.254	767.73
451.628	784.23
452.002	785.59
452.376	771.35
452.75	793.5
453.123	786.04
453.497	821.52
453.871	798.02
454.244	840.5
454.618	810.44
454.992	837.79
455.365	805.93
455.739	835.53
456.112	869.2
456.486	850.9
456.859	872.59
457.232	867.84
457.606	879.82
457.979	882.99
458.352	888.41
458.725	906.71
459.099	906.49
459.472	906.26
459.845	937.67
460.218	927.73
460.591	932.93
460.964	937.22
461.337	973.6
461.71	992.59
462.083	969.54
462.456	990.1
462.829	972.02
463.201	1009.31
463.574	992.81
463.947	1034.85
464.32	1044.79
464.692	1030.33
465.065	1057.22
465.438	1043.21
465.81	1065.81
466.183	1089.31
466.555	1075.07
466.928	1118.01
467.3	1138.57
467.672	1131.11
468.045	1146.93
468.417	1125.46
468.789	1140.83
469.161	1190.55
469.534	1181.73
469.906	1211.79
470.278	1230.55
470.65	1240.49
471.022	1253.15
471.394	1293.14
471.766	1271.45
472.138	1313.93
472.51	1325.46
472.882	1352.35
473.253	1351.67
473.625	1401.84
473.997	1426.25
474.369	1416.53
474.74	1450.2
475.112	1469.64
475.484	1509.18
475.855	1535.4
476.227	1537.66
476.598	1599.58
476.97	1580.82
477.341	1605.23
477.713	1653.13
478.084	1653.36
478.455	1682.06
478.827	1718.9
479.198	1767.03
479.569	1788.27
479.94	1833.92
480.311	1865.56
480.682	1880.93
481.053	1948.04
481.424	1953.24
481.795	1999.11
482.166	2052.22
482.537	2072.56
482.908	2114.37
483.279	2160.01
483.65	2168.15
484.021	2218.54
484.391	2264.64
484.762	2275.27
485.133	2274.59
485.503	2362.27
485.874	2359.56
486.244	2449.05
486.615	2483.62
486.985	2515.48
487.356	2556.61
487.726	2581.25
488.097	2637.52
488.467	2645.42
488.837	2721.81
489.207	2750.96
489.578	2804.97
489.948	2814.23
490.318	2834.57
490.688	2902.59
491.058	2949.15
491.428	2987.34
491.798	3048.8
492.168	3075.92
492.538	3100.33
492.908	3153.43
493.278	3160.67
493.648	3237.5
494.017	3221.91
494.387	3264.17
494.757	3358.85
495.126	3338.29
495.496	3379.42
495.866	3391.62
496.235	3456.7
496.605	3484.05
496.974	3507.77
497.344	3518.62
497.713	3552.07
498.082	3606.53
498.452	3616.25
498.821	3623.03
499.19	3661.22
499.559	3751.84
499.928	3719.52
500.298	3765.17
500.667	3812.4
501.036	3779.63
501.405	3834.32
501.774	3854.66
502.143	3870.48
502.512	3904.15
502.88	3914.32
503.249	3921.1
503.618	3974.2
503.987	3958.16
504.356	4030.25
504.724	3998.84
505.093	4029.8
505.462	4021.21
505.83	4056.24
506.199	4096.46
506.567	4104.82
506.936	4175.33
507.304	4196.12
507.672	4178.94
508.041	4274.53
508.409	4217.36
508.777	4225.5
509.145	4311.37
509.514	4288.32
509.882	4352.27
510.25	4320.41
510.618	4331.48
510.986	4359.73
511.354	4397.7
511.722	4426.62
512.09	4435.66
512.458	4423.68
512.826	4455.77
513.193	4455.32
513.561	4459.61
513.929	4504.36
514.297	4566.5
514.664	4544.58
515.032	4561.53
515.4	4587.75
515.767	4533.28
516.135	4645.6
516.502	4621.42
516.869	4691.92
517.237	4638.82
517.604	4649.89
517.972	4734.64
518.339	4724.92
518.706	4752.26
519.073	4711.13
519.44	4766.5
519.808	4754.52
520.175	4754.3
520.542	4826.84
520.909	4887.85
521.276	4879.26
521.643	4888.3
522.009	4887.4
522.376	4897.57
522.743	4967.62
523.11	4948.42
523.477	5016.89
523.843	5067.06
524.21	5037.23
524.577	5122.42
524.943	5090.56
525.31	5142.53
525.676	5104.57
526.043	5202.42
526.409	5240.38
526.776	5289.2
527.142	5262.31
527.508	5273.6
527.874	5310.21
528.241	5248.07
528.607	5390.44
528.973	5405.58
529.339	5354.73
529.705	5407.39
530.071	5482.86
530.437	5471.79
530.803	5516.99
531.169	5547.5
531.535	5502.75
531.901	5542.52
532.267	5587.95
532.632	5568.51
532.998	5580.49
533.364	5669.98
533.73	5671.56
534.095	5695.97
534.461	5712.69
534.826	5713.59
535.192	5785
535.557	5768.28
535.923	5831.56
536.288	5827.94
536.653	5874.94
537.019	5868.84
537.384	5859.8
537.749	5891.67
538.114	5933.02
538.479	5959.24
538.845	6013.7
539.21	6037.43
539.575	5987.48
539.94	6013.7
540.305	6097.31
540.67	6119.46
541.034	6118.78
541.399	6140.7
541.764	6170.76
542.129	6218.44
542.494	6151.1
542.858	6249.4
543.223	6253.47
543.587	6363.29
543.952	6371.88
544.316	6339.79
544.681	6328.04
545.045	6388.83
545.41	6406
545.774	6493.01
546.138	6493.91
546.503	6505.21
546.867	6488.94
547.231	6535.04
547.595	6617.52
547.959	6599.67
548.324	6607.58
548.688	6678.77
549.052	6644.64
549.416	6676.05
549.779	6674.47
550.143	6743.62
550.507	6758.31
550.871	6791.3
551.235	6765.32
551.599	6840.79
551.962	6855.94
552.326	6870.4
552.689	6897.52
553.053	6901.36
553.417	6853
553.78	6984.29
554.143	6956.05
554.507	7031.07
554.87	6959.44
555.234	7012.32
555.597	7094.35
555.96	7065.65
556.323	7028.81
556.686	7111.52
557.05	7161.24
557.413	7128.7
557.776	7201.01
558.139	7193.55
558.502	7179.54
558.865	7218.64
559.228	7269.03
559.59	7298.18
559.953	7325.08
560.316	7337.5
560.679	7341.57
561.041	7402.59
561.404	7392.64
561.767	7518.52
562.129	7398.75
562.492	7549.25
562.854	7490.04
563.217	7542.25
563.579	7612.07
563.941	7609.36
564.304	7592.87
564.666	7629.7
565.028	7681.9
565.39	7716.48
565.753	7738.17
566.115	7784.5
566.477	7783.59
566.839	7797.83
567.201	7863.37
567.563	7868.56
567.925	7917.83
568.287	7903.37
568.648	7905.85
569.01	7976.13
569.372	8020.65
569.734	7996.02
570.095	8150.14
570.457	8133.87
570.819	8182.91
571.18	8238.27
571.542	8296.8
571.903	8261.55
572.265	8282.34
572.626	8342.45
572.987	8416.8
573.349	8479.62
573.71	8542.22
574.071	8522.78
574.432	8558.72
574.794	8705.38
575.155	8632.84
575.516	8723.91
575.877	8828.99
576.238	8817.24
576.599	8943.34
576.96	9035.31
577.32	9064.01
577.681	9189.21
578.042	9263.1
578.403	9319.37
578.763	9386.26
579.124	9478.69
579.485	9640.27
579.845	9801.85
580.206	9866.25
580.566	10014.72
580.927	10028.51
581.287	10159.13
581.648	10318.44
582.008	10462.39
582.368	10592.33
582.728	10750.07
583.089	10933.79
583.449	11028.26
583.809	11194.58
584.169	11405.87
584.529	11561.12
584.889	11876.14
585.249	11913.43
585.609	12148.45
585.969	12365.4
586.329	12624.82
586.688	12887.87
587.048	13050.57
587.408	13272.49
587.768	13486.95
588.127	13768.97
588.487	13985.92
588.846	14336.19
589.206	14470.2
589.565	14795.16
589.925	15123.74
590.284	15385.65
590.643	15615.03
591.003	15995.13
591.362	16282.35
591.721	16528.22
592.08	16839.18
592.44	17163.46
592.799	17512.38
593.158	17857.23
593.517	18175.19
593.876	18532.24
594.235	18760.26
594.593	19087.48
594.952	19464.42
595.311	19698.08
595.67	20074.8
596.029	20576.48
596.387	20901.44
596.746	21139.4
597.104	21357.48
597.463	21771.93
597.822	22255.53
598.18	22508.63
598.538	22797.21
598.897	23245.56
599.255	23297.99
599.613	24059.33
599.972	24202.6
600.33	24561.01
600.688	24790.15
601.046	25200.99
601.404	25597.36
601.762	25889.33
602.12	26395.31
602.478	26632.82
602.836	26932.02
603.194	27042.52
603.552	27536.75
603.91	27604.99
604.268	28080.01
604.625	28361.13
604.983	28816.94
605.341	28847.67
605.698	29282.69
606.056	29598.84
606.413	29839.96
606.771	30251.25
607.128	30593.84
607.485	30674.29
607.843	30915.19
608.2	31371.68
608.557	31656.19
608.914	31833.81
609.272	32127.59
609.629	32482.83
609.986	33066.55
610.343	32872.88
610.7	33455.01
611.057	33612.29
611.414	33725.74
611.771	34122.11
612.127	34299.06
612.484	34349.45
612.841	34759.16
613.198	34812.94
613.554	35000.28
613.911	35408.41
614.267	35659.92
614.624	35595.07
614.98	36083.42
615.337	36362.96
615.693	36381.49
616.05	36626.9
616.406	36882.94
616.762	36840.46
617.118	37074.58
617.475	37289.49
617.831	37574
618.187	37809.25
618.543	37870.71
618.899	38196.35
619.255	38262.12
619.611	38339.4
619.967	38557.93
620.323	38743.46
620.678	38773.97
621.034	38858.71
621.39	38983
621.746	39181.64
622.101	39591.8
622.457	39353.61
622.812	39626.83
623.168	39705.92
623.523	39851.68
623.879	40006.93
624.234	39817.1
624.589	40123.08
624.945	40294.83
625.3	40556.52
625.655	40542.28
626.01	40442.62
626.365	40704.09
626.72	40787.7
627.075	40667.02
627.43	40879
627.785	40791.31
628.14	41024.98
628.495	41087.58
628.85	41026.56
629.205	41010.97
629.559	41387.91
629.914	41299.32
630.269	41306.1
630.623	41248.25
630.978	41159.89
631.332	41473.78
631.687	41511.75
632.041	41406.44
632.396	41562.14
632.75	41353.56
633.104	41657.28
633.459	41347.91
633.813	41650.5
634.167	41562.59
634.521	41616.15
634.875	41577.96
635.229	41503.16
635.583	41446.21
635.937	41573.21
636.291	41456.83
636.645	41644.85
636.999	41450.73
637.352	41606.43
637.706	41473.56
638.06	41723.72
638.413	41470.17
638.767	41479.88
639.121	41628.81
639.474	41366.21
639.828	41399.43
640.181	41510.62
640.534	41609.82
640.888	41433.56
641.241	41303.39
641.594	41473.78
641.947	41468.13
642.301	41476.27
642.654	41518.75
643.007	41562.14
643.36	41491.41
643.713	41399.89
644.066	41571.18
644.419	41425.65
644.771	41034.02
645.124	40864.53
645.477	40798.55
645.83	40619.57
646.182	40322.4
646.535	40268.84
646.888	40343.87
647.24	40191.1
647.593	40486.24
647.945	40252.35
648.298	40107.49
648.65	40119.02
649.002	40066.14
649.355	40179.81
649.707	40194.04
650.059	40300.25
650.411	40695.72
650.763	40754.71
651.115	41135.03
651.467	41006
651.819	41155.15
652.171	40864.76
652.523	40957.86
652.875	40980.46
653.227	40759
653.578	41038.09
653.93	41094.81
654.282	40818.43
654.633	40720.81
654.985	40830.86
655.337	40807.13
655.688	40724.2
656.039	40920.12
656.391	40498.21
656.742	40736.17
657.094	40766.46
657.445	40868.6
657.796	40696.4
658.147	40605.78
658.498	40631.54
658.849	40850.52
659.2	40779.79
659.551	40640.81
659.902	40717.19
660.253	40787.92
660.604	40839
660.955	40600.13
661.306	40725.55
661.656	40571.21
662.007	40585.9
662.358	40678.78
662.708	40714.93
663.059	40528.27
663.409	40410.99
663.76	40657.31
664.11	40723.29
664.461	40748.15
664.811	40793.12
665.161	40702.05
665.511	40603.3
665.862	40735.5
666.212	40734.14
666.562	40686.46
666.912	40588.38
667.262	40558.78
667.612	40511.1
667.962	40588.38
668.312	40606.23
668.662	40679.23
669.011	40501.6
669.361	40500.47
669.711	40439.91
670.06	40427.26
670.41	40385.9
670.76	40411.89
671.109	40439.91
671.459	40387.03
671.808	40367.6
672.157	40477.65
672.507	40259.13
672.856	40257.54
673.205	40218.9
673.554	40380.25
673.904	40294.6
674.253	40442.4
674.602	40501.38
674.951	39537.56
675.3	39612.14
675.649	40207.83
675.998	40107.04
676.346	40116.08
676.695	40215.06
677.044	40008.06
677.393	40028.62
677.741	40175.96
678.09	40025.46
678.438	39928.96
678.787	39989.53
679.135	40025.01
679.484	39794.28
679.832	39786.82
680.181	39620.27
680.529	39821.62
680.877	39835.63
681.225	39766.71
681.573	39916.31
681.922	39612.81
682.27	39481.97
682.618	39515.42
682.966	39332.37
683.314	39460.5
683.661	39392.03
684.009	39267.74
684.357	39096.44
684.705	39156.1
685.053	39215.99
685.4	39072.72
685.748	38807.41
686.095	38869.78
686.443	38598.15
686.79	38769.22
687.138	38699.62
687.485	38721.99
687.832	38648.77
688.18	38561.99
688.527	38493.97
688.874	38417.59
689.221	38337.37
689.568	38211.5
689.915	38165.39
690.262	38211.04
690.609	38074.32
690.956	37946.87
691.303	37759.53
691.65	37761.34
691.997	37696.03
692.344	37624.39
692.69	37485.86
693.037	37525.19
693.383	37197.51
693.73	37438.63
694.077	37038.19
694.423	37171.3
694.769	37188.47
695.116	36965.88
695.462	36904.19
695.808	36677.75
696.155	36778.54
696.501	36597.75
696.847	36573.12
697.193	36277.08
697.539	36454.25
697.885	36137.65
698.231	36101.95
698.577	36096.07
698.923	36017.2
699.269	35795.51
699.614	35666.03
699.96	35669.19
700.306	35734.5
700.651	35502.87
700.997	35462.42
701.342	35355.3
701.688	35223.78
702.033	35121.41
702.379	35088.64
702.724	34948.76
703.069	35047.28
703.415	34751.25
703.76	34732.49
704.105	34724.58
704.45	34675.54
704.795	34506.51
705.14	34332.95
705.485	34444.14
705.83	34166.63
706.175	34195.56
706.52	34099.29
706.865	34012.74
707.209	33967.77
707.554	33912.85
707.899	33894.32
708.243	33768.67
708.588	33679.86
708.932	33441.45
709.277	33459.76
709.621	33474.67
709.966	33271.51
710.31	33285.3
710.654	33062.7
710.998	33114.91
711.342	33199.42
711.687	32921.24
712.031	32843.27
712.375	32764.86
712.719	32882.14
713.063	32791.98
713.407	32840.79
713.75	32617.07
714.094	32632.88
714.438	32462.27
714.782	32517.18
715.125	32370.97
715.469	32413.68
715.812	32223.63
716.156	32114.71
716.499	32082.84
716.843	32107.02
717.186	31878.55
717.53	32022.28
717.873	32071.54
718.216	32012.11
718.559	31809.63
718.902	31546.36
719.246	31668.84
719.589	31604.66
719.932	31412.8
720.275	31572.8
720.617	31482.41
720.96	31346.59
721.303	31431.79
721.646	31379.13
721.989	31154.28
722.331	31336.2
722.674	31195.86
723.016	31097.78
723.359	31128.97
723.701	31023.89
724.044	30882.42
724.386	30747.74
724.729	30872.25
725.071	30777.57
725.413	30721.75
725.755	30761.52
726.097	30569.89
726.439	30458.03
726.782	30503.9
727.124	30512.94
727.465	30386.84
727.807	30208.32
728.149	30305.49
728.491	30241.31
728.833	30303
729.175	30119.28
729.516	30079.96
729.858	29986.85
730.199	30102.56
730.541	30004.25
730.882	30076.34
731.224	30075.44
731.565	29851.26
731.906	29933.07
732.248	29818.72
732.589	29700.98
732.93	29693.98
733.271	29602.91
733.612	29611.72
733.953	29599.52
734.294	29518.39
734.635	29597.94
734.976	29467.54
735.317	29275.23
735.658	29438.84
735.999	29309.13
736.339	29354.1
736.68	29343.03
737.021	29208.34
737.361	29129.02
737.702	29274.78
738.042	29198.17
738.383	29112.53
738.723	29105.75
739.063	28988.91
739.404	29026.2
739.744	28913.66
740.084	28743.5
740.424	28963.83
740.764	28806.32
741.104	28799.54
741.444	28663.72
741.784	28571.52
742.124	28647.23
742.464	28493.33
742.804	28463.05
743.143	28563.84
743.483	28484.97
743.823	28299.67
744.162	28486.55
744.502	28317.52
744.841	28370.85
745.181	28339.21
745.52	28123.85
745.86	28312.32
746.199	28168.37
746.538	28109.16
746.877	28136.73
747.216	28269.16
747.556	28205.43
747.895	27980.35
748.234	28000.92
748.573	27874.14
748.911	27942.84
749.25	27940.35
749.589	27729.51
749.928	27773.8
750.267	27763.86
750.605	27643.86
750.944	27736.52
751.283	27553.47
751.621	27662.17
751.96	27416.52
752.298	27440.48
752.636	27432.57
752.975	27285.45
753.313	27176.53
753.651	27399.12
753.989	27111.9
754.327	27138.11
754.666	27170.88
755.004	27110.77
755.342	27158.68
755.679	27056.31
756.017	26904.67
756.355	26903.32
756.693	26824.22
757.031	26793.94
757.368	26552.14
757.706	26678.01
758.044	26623.33
758.381	26631.01
758.719	26425.36
759.056	26458.36
759.394	26371.81
759.731	26165.71
760.068	26210
760.405	26073.51
760.743	26109.67
761.08	26059.95
761.417	25986.28
761.754	25896.79
762.091	25861.09
762.428	25774.53
762.765	25512.39
763.102	25672.84
763.438	25511.72
763.775	25389.23
764.112	25380.87
764.449	25471.49
764.785	25260.42
765.122	25125.96
765.458	25105.17
765.795	24965.06
766.131	24994.22
766.467	24762.36
766.804	24878.29
767.14	24763.49
767.476	24626.54
767.812	24648.01
768.148	24676.94
768.485	24480.33
768.821	24307.23
769.157	24351.97
769.492	24249.38
769.828	24241.02
770.164	23938.2
770.5	23920.12
770.836	23980.23
771.171	23637.19
771.507	23796.51
771.842	23534.37
772.178	23631.99
772.513	23439.45
772.849	23396.74
773.184	23330.3
773.519	23330.76
773.855	23145.45
774.19	23039.46
774.525	23024.78
774.86	23035.17
775.195	22945.23
775.53	22824.1
775.865	22745.91
776.2	22572.58
776.535	22404.91
776.87	22440.16
777.205	22353.16
777.539	22298.92
777.874	22337.79
778.209	22065.93
778.543	22057.8
778.878	21893.96
779.212	21960.85
779.547	21750.69
779.881	21873.39
780.215	21667.07
780.55	21692.83
780.884	21502.1
781.218	21505.04
781.552	21532.84
781.886	21298.49
782.22	21183.24
782.554	21205.16
782.888	20995.22
783.222	20958.16
783.556	20847.21
783.889	20803.82
784.223	20609.92
784.557	20630.71
784.89	20618.51
785.224	20416.48
785.557	20410.16
785.891	20293.1
786.224	20251.74
786.558	20224.85
786.891	20171.07
787.224	20066.21
787.557	19987.34
787.891	19962.48
788.224	19882.71
788.557	19910.28
788.89	19808.36
789.223	19811.75
789.556	19607.24
789.888	19615.37
790.221	19431.42
790.554	19387.13
790.887	19326.57
791.219	19343.97
791.552	19176.29
791.884	19186.01
792.217	19050.87
792.549	19050.42
792.882	18882.74
793.214	18808.16
793.546	18764.55
793.879	18741.72
794.211	18659.92
794.543	18647.94
794.875	18592.35
795.207	18517.78
795.539	18415.41
795.871	18488.85
796.203	18345.8
796.535	18268.97
796.867	18157.11
797.198	18178.58
797.53	18111.01
797.862	17961.18
798.193	18008.18
798.525	17927.06
798.856	17970.9
799.188	17712.6
799.519	17705.14
799.85	17598.03
800.182	17558.03
800.513	17637.12
800.844	17361.2
801.175	17496.11
801.506	17421.99
801.837	17351.93
802.168	17288.43
802.499	17320.97
802.83	17110.36
803.161	17149.9
803.491	17148.32
803.822	17107.42
804.153	17017.02
804.483	16873.3
804.814	16840.53
805.145	16818.84
805.475	16740.87
805.805	16675.79
806.136	16742.91
806.466	16601.67
806.796	16542.01
807.126	16491.39
807.457	16424.05
807.787	16489.81
808.117	16295.69
808.447	16302.47
808.777	16414.55
809.107	16258.85
809.436	16265.18
809.766	16145.86
810.096	16229.02
810.426	16100.66
810.755	16097.27
811.085	15970.95
811.414	16027.67
811.744	15875.59
812.073	15799.2
812.403	15756.27
812.732	15658.42
813.061	15741.35
813.39	15675.14
813.719	15577.06
814.049	15679.21
814.378	15615.71
814.707	15506.56
815.036	15564.63
815.365	15433.34
815.693	15314.02
816.022	15313.79
816.351	15299.78
816.68	15231.99
817.008	15209.39
817.337	15144.08
817.665	15117.41
817.994	15157.86
818.322	15093.46
818.651	15010.98
818.979	15033.57
819.307	15051.88
819.636	14973.91
819.964	14876.74
820.292	14895.05
820.62	14935.95
820.948	14810.53
821.276	14868.15
821.604	14881.71
821.932	14768.5
822.259	14889.85
822.587	14854.14
822.915	14749.97
823.243	14864.31
823.57	14775.05
823.898	14857.31
824.225	14754.48
824.553	14654.83
824.88	14795.84
825.207	14683.07
825.535	14763.98
825.862	14828.83
826.189	14677.2
826.516	14778.89
826.843	14825.9
827.17	14735.95
827.497	14789.74
827.824	14773.92
828.151	14765.56
828.478	14650.76
828.805	14845.78
829.131	14707.93
829.458	14711.55
829.785	14640.14
830.111	14626.13
830.438	14700.93
830.764	14677.65
831.09	14771.89
831.417	14681.72
831.743	14672.23
832.069	14704.77
832.395	14663.19
832.722	14639.91
833.048	14635.62
833.374	14568.28
833.7	14570.08
834.026	14608.73
834.351	14569.63
834.677	14603.53
835.003	14597.2
835.329	14548.61
835.654	14535.96
835.98	14399.24
836.306	14436.53
836.631	14403.08
836.956	14398.79
837.282	14414.15
837.607	14384.55
837.932	14350.43
838.258	14225.01
838.583	14299.13
838.908	14180.04
839.233	14338
839.558	14288.06
839.883	14178.91
840.208	14102.75
840.533	14194.5
840.858	14083.54
841.182	14137.78
841.507	14115.86
841.832	13972.13
842.156	14001.74
842.481	13983.66
842.805	13868.41
843.13	13878.58
843.454	13901.17
843.778	13902.53
844.103	13864.56
844.427	13811.46
844.751	13747.51
845.075	13665.25
845.399	13661.86
845.723	13658.02
846.047	13691.91
846.371	13464.12
846.695	13488.3
847.019	13359.49
847.343	13371.7
847.666	13307.29
847.99	13136
848.313	13261.87
848.637	13101.2
848.96	13143
849.284	13054.64
849.607	13028.2
849.931	12904.82
850.254	12898.04
850.577	12837.93
850.9	12655.33
851.223	12689.45
851.546	12685.61
851.869	12565.16
852.192	12598.16
852.515	12491.95
852.838	12451.27
853.161	12450.82
853.483	12346.19
853.806	12292.85
854.129	12332.63
854.451	12257.6
854.774	12128.79
855.096	12194.33
855.419	12172.41
855.741	12033.2
856.063	12070.04
856.385	12045.63
856.708	11907.78
857.03	11972.64
857.352	11870.27
857.674	11856.93
857.996	11845.18
858.318	11749.59
858.64	11716.37
858.961	11703.94
859.283	11679.31
859.605	11656.04
859.926	11645.41
860.248	11502.59
860.57	11490.16
860.891	11572.87
861.212	11540.33
861.534	11412.2
861.855	11466.89
862.176	11473.67
862.498	11491.97
862.819	11457.17
863.14	11395.48
863.461	11356.83
863.782	11356.83
864.103	11278.19
864.424	11309.6
864.745	11285.42
865.065	11296.5
865.386	11151.87
865.707	11245.88
866.027	11214.01
866.348	11110.96
866.668	11112.32
866.989	11085.65
867.309	11034.81
867.63	11123.39
867.95	11071.64
868.27	10982.15
868.59	11059.89
868.91	11002.95
869.23	11016.05
869.55	10933.79
869.87	11006.11
870.19	10937.18
870.51	10906.45
870.83	10929.95
871.15	10894.93
871.469	10803.63
871.789	10831.88
872.109	10863.29
872.428	10708.94
872.748	10856.96
873.067	10769.28
873.386	10821.71
873.706	10730.86
874.025	10713.46
874.344	10679.79
874.663	10686.57
874.982	10607.25
875.301	10652.22
875.62	10644.08
875.939	10587.81
876.258	10567.93
876.577	10495.16
876.896	10559.79
877.214	10498.1
877.533	10514.82
877.852	10539.23
878.17	10484.99
878.489	10479.12
878.807	10478.44
879.125	10387.59
879.444	10423.53
879.762	10381.49
880.08	10369.52
880.398	10324.09
880.716	10315.73
881.034	10329.97
881.352	10304.88
881.67	10169.29
881.988	10255.17
882.306	10285
882.624	10220.82
882.941	10090.2
883.259	10147.37
883.577	10112.12
883.894	10079.35
884.212	10113.48
884.529	10063.76
884.846	9998.68
885.164	9983.08
885.481	9922.07
885.798	9970.2
886.115	9962.07
886.432	9894.05
886.75	9875.29
887.067	9902.64
887.383	9811.79
887.7	9849.53
888.017	9786.71
888.334	9784.9
888.651	9767.05
888.967	9719.82
889.284	9684.34
889.6	9640.95
889.917	9591.68
890.233	9531.8
890.55	9575.19
890.866	9532.48
891.182	9486.83
891.498	9476.88
891.815	9539.93
892.131	9465.81
892.447	9468.97
892.763	9386.04
893.079	9382.2
893.395	9351.24
893.71	9307.85
894.026	9261.52
894.342	9310.56
894.657	9190.79
894.973	9170.68
895.289	9150.34
895.604	9221.75
895.92	9131.13
896.235	9053.62
896.55	9061.08
896.865	9022.43
897.181	8993.51
897.496	8980.4
897.811	8934.07
898.126	8929.33
898.441	8850.23
898.756	8833.51
899.071	8832.61
899.386	8815.88
899.7	8752.16
900.015	8727.98
900.33	8673.97
900.644	8610.92
900.959	8606.85
901.273	8583.35
901.588	8533.18
901.902	8476.68
902.216	8479.62
902.531	8484.59
902.845	8427.19
903.159	8342.45
903.473	8353.07
903.787	8334.09
904.101	8276.92
904.415	8295.67
904.729	8250.48
905.042	8171.16
905.356	8199.18
905.67	8150.14
905.984	8192.85
906.297	8112.4
906.611	8038.28
906.924	8070.59
907.237	8045.96
907.551	8032.63
907.864	7973.65
908.177	7975.68
908.491	7926.19
908.804	7856.59
909.117	7783.14
909.43	7754.67
909.743	7742.92
910.056	7720.32
910.368	7705.18
910.681	7660.43
910.994	7649.59
911.307	7611.17
911.619	7572.3
911.932	7540.66
912.244	7474.9
912.557	7542.02
912.869	7415.47
913.181	7417.73
913.494	7417.5
913.806	7406.66
914.118	7334.12
914.43	7235.81
914.742	7272.42
915.054	7137.74
915.366	7206.43
915.678	7204.85
915.99	7155.14
916.302	7064.97
916.613	7057.29
916.925	6997.85
917.236	7027
917.548	6966.44
917.859	6981.81
918.171	6949.49
918.482	6891.64
918.794	6875.82
919.105	6860.68
919.416	6822.49
919.727	6835.15
920.038	6796.05
920.349	6735.49
920.66	6725.09
920.971	6675.15
921.282	6655.26
921.593	6621.82
921.903	6612.1
922.214	6554.02
922.525	6551.08
922.835	6500.01
923.146	6442.39
923.456	6499.11
923.767	6427.47
924.077	6419.79
924.387	6347.47
924.697	6368.49
925.008	6335.5
925.318	6346.34
925.628	6298.44
925.938	6306.12
926.248	6225.44
926.558	6159.91
926.867	6171.21
927.177	6124.43
927.487	6040.36
927.796	5989.74
928.106	6078.33
928.416	6015.05
928.725	6037.2
929.034	6036.97
929.344	5937.77
929.653	5973.7
929.962	5928.05
930.271	5917.66
930.581	5857.77
930.89	5877.43
931.199	5766.47
931.508	5805.34
931.817	5813.48
932.125	5751.11
932.434	5742.29
932.743	5650.09
933.051	5665.23
933.36	5620.94
933.669	5604.67
933.977	5574.84
934.286	5550.43
934.594	5523.32
934.902	5502.3
935.21	5466.14
935.519	5460.72
935.827	5487.16
936.135	5401.06
936.443	5358.35
936.751	5339.59
937.059	5358.35
937.367	5318.57
937.674	5322.87
937.982	5319.03
938.29	5273.15
938.597	5295.98
938.905	5209.43
939.213	5185.25
939.52	5173.04
939.827	5158.81
940.135	5100.73
940.442	5087.17
940.749	5093.27
941.056	5114.51
941.363	5040.39
941.67	5053.72
941.977	4994.97
942.284	4999.49
942.591	4928.98
942.898	4928.3
943.205	4881.98
943.511	4873.84
943.818	4858.47
944.125	4838.36
944.431	4823.9
944.738	4855.99
945.044	4819.15
945.35	4737.8
945.657	4717.01
945.963	4728.76
946.269	4682.43
946.575	4704.13
946.881	4681.98
947.187	4627.29
947.493	4585.71
947.799	4591.36
948.105	4577.8
948.41	4568.76
948.716	4543
949.022	4541.65
949.327	4517.01
949.633	4472.5
949.938	4477.69
950.244	4439.73
950.549	4384.81
950.854	4382.1
951.16	4379.39
951.465	4367.64
951.77	4332.84
952.075	4332.84
952.38	4318.83
952.685	4285.61
952.99	4252.39
953.294	4248.32
953.599	4200.41
953.904	4255.78
954.209	4174.88
954.513	4237.02
954.818	4190.02
955.122	4112.28
955.426	4117.93
955.731	4087.65
956.035	4061.21
956.339	4050.13
956.643	4125.84
956.948	4062.79
957.252	4047.42
957.556	4008.78
957.86	4010.59
958.163	4003.13
958.467	3953.86
958.771	3972.4
959.075	3925.39
959.378	3899.4
959.682	3879.29
959.985	3860.31
960.289	3851.49
960.592	3849.69
960.896	3811.27
961.199	3796.13
961.502	3801.33
961.805	3776.47
962.108	3727.66
962.411	3732.18
962.714	3702.57
963.017	3685.4
963.32	3689.24
963.623	3656.25
963.926	3659.64
964.228	3625.74
964.531	3608.34
964.833	3585.51
965.136	3580.77
965.438	3582.12
965.741	3499.19
966.043	3535.12
966.345	3518.17
966.648	3548.9
966.95	3504.16
967.252	3475.46
967.554	3444.27
967.856	3446.08
968.158	3433.2
968.46	3399.76
968.761	3413.54
969.063	3348.68
969.365	3348.01
969.666	3387.78
969.968	3339.64
970.269	3357.5
970.571	3293.09
970.872	3317.72
971.174	3258.29
971.475	3290.38
971.776	3268.91
972.077	3265.07
972.378	3231.17
972.679	3238.4
972.98	3230.49
973.281	3214.45
973.582	3226.43
973.883	3215.58
974.183	3155.02
974.484	3111.63
974.785	3130.16
975.085	3100.33
975.386	3119.08
975.686	3079.76
975.986	3062.81
976.287	3060.78
976.587	3024.17
976.887	3007
977.187	3014.91
977.487	3014
977.787	2976.04
978.087	2971.74
978.387	2960.9
978.687	2942.37
978.987	2961.35
979.286	2928.58
979.586	2902.37
979.885	2901.69
980.185	2885.19
980.484	2857.4
980.784	2849.94
981.083	2844.29
981.382	2826.21
981.682	2815.82
981.981	2796.16
982.28	2768.13
982.579	2764.29
982.878	2779.21
983.177	2756.61
983.475	2769.04
983.774	2763.16
984.073	2705.31
984.372	2717.97
984.67	2680
984.969	2714.8
985.267	2682.71
985.566	2657.63
985.864	2642.94
986.162	2652.88
986.461	2603.84
986.759	2597.97
987.057	2611.75
987.355	2550.29
987.653	2575.6
987.951	2577.18
988.249	2543.05
988.547	2554.35
988.844	2548.93
989.142	2514.81
989.44	2494.69
989.737	2498.76
990.035	2486.11
990.332	2443.62
990.63	2473.45
990.927	2486.33
991.224	2451.08
991.521	2421.25
991.819	2441.14
992.116	2392.1
992.413	2415.37
992.71	2368.82
993.006	2375.15
993.303	2374.02
993.6	2339.9
993.897	2382.15
994.193	2304.87
994.49	2318.43
994.787	2324.98
995.083	2303.29
995.379	2278.65
995.676	2320.24
995.972	2259.9
996.268	2243.18
996.565	2238.43
996.861	2225.55
997.157	2218.32
997.453	2196.85
997.749	2220.35
998.044	2186.45
998.34	2188.49
998.636	2209.5
998.932	2151.43
999.227	2154.59
999.523	2147.13
999.818	2113.69
1000.114	2105.33
1000.409	2084.31
1000.704	2080.92
1001	2099.68
1001.295	2061.26
1001.59	2077.08
1001.885	2030.75
1002.18	2034.59
1002.475	2045.67
1002.77	2021.94
1003.065	1999.11
1003.359	1980.13
1003.654	1965.22
1003.949	1976.06
1004.243	1955.5
1004.538	1934.26
1004.832	1964.54
1005.127	1921.38
1005.421	1912.56
1005.715	1909.17
1006.009	1918.21
1006.304	1913.47
1006.598	1866.69
1006.892	1873.02
1007.186	1852.45
1007.48	1854.71
1007.773	1830.08
1008.067	1813.58
1008.361	1823.98
1008.655	1790.76
1008.948	1779.68
1009.242	1781.04
1009.535	1765.22
1009.829	1780.36
1010.122	1748.05
1010.415	1758.22
1010.708	1732.23
1011.001	1695.62
1011.295	1687.48
1011.588	1680.25
1011.881	1697.2
1012.173	1649.07
1012.466	1690.42
1012.759	1660.14
1013.052	1674.6
1013.344	1632.57
1013.637	1628.05
1013.93	1632.34
1014.222	1607.71
1014.514	1583.31
1014.807	1605.9
1015.099	1577.43
1015.391	1585.11
1015.683	1578.79
1015.976	1577.66
1016.268	1562.29
1016.56	1539.47
1016.851	1535.17
1017.143	1519.35
1017.435	1529.07
1017.727	1515.29
1018.018	1481.16
1018.31	1465.12
1018.602	1478
1018.893	1473.7
1019.185	1450.43
1019.476	1456.53
1019.767	1420.6
1020.058	1451.33
1020.35	1432.12
1020.641	1397.1
1020.932	1422.41
1021.223	1411.33
1021.514	1400.71
1021.804	1374.05
1022.095	1365.91
1022.386	1361.62
1022.677	1360.26
1022.967	1318.91
1023.258	1333.82
1023.548	1348.74
1023.839	1330.66
1024.129	1305.35
1024.419	1266.7
1024.709	1284.33
1025	1315.97
1025.29	1290.21
1025.58	1269.87
1025.87	1265.8
1026.16	1254.5
1026.449	1240.26
1026.739	1231.68
1027.029	1228.51
1027.319	1216.76
1027.608	1233.03
1027.898	1208.63
1028.187	1225.8
1028.477	1175.86
1028.766	1186.71
1029.055	1178.12
1029.344	1148.51
1029.634	1153.26
1029.923	1152.36
1030.212	1141.28
1030.501	1120.49
1030.79	1155.07
1031.078	1110.78
1031.367	1110.32
1031.656	1109.65
1031.945	1107.84
1032.233	1089.76
1032.522	1072.13
1032.81	1080.04
1033.099	1090.44
1033.387	1049.31
1033.675	1060.38
1033.963	1045.01
1034.251	1049.08
1034.54	1046.37
1034.828	1036.2
1035.116	1019.48
1035.403	1034.39
1035.691	1007.73
1035.979	998.01
1036.267	994.85
1036.554	974.06
1036.842	976.99
1037.129	976.32
1037.417	959.82
1037.704	954.4
1037.992	948.07
1038.279	939.03
1038.566	946.26
1038.853	946.26
1039.14	946.26
