Data from hue_50_FLMS001491_47.txt Node
Date: Mon Feb 06 15:10:12 GMT 2017
User: dcchb
Spectrometer: FLMS00149
Trigger mode: 0
Integration Time (sec): 2.000000E-2
Scans to average: 10
Electric dark correction enabled: true
Nonlinearity correction enabled: false
Boxcar width: 0
XAxis mode: Wavelengths
Number of Pixels in Spectrum: 2048
>>>>>Begin Spectral Data<<<<<
341.393	-5.58
341.776	-5.58
342.16	-5.58
342.543	-85.8
342.927	-67.27
343.31	-56.88
343.693	-76.54
344.077	-71.34
344.46	-61.17
344.843	-60.04
345.226	-39.25
345.61	-38.57
345.993	10.24
346.376	-23.66
346.759	-6.26
347.142	26.28
347.525	47.75
347.908	63.35
348.291	68.09
348.674	92.72
349.057	125.27
349.44	138.6
349.823	159.61
350.206	146.28
350.588	209.78
350.971	206.39
351.354	213.85
351.737	227.86
352.119	254.3
352.502	236.45
352.884	271.02
353.267	263.34
353.65	289.78
354.032	297.01
354.414	310.34
354.797	311.7
355.179	324.81
355.562	325.26
355.944	332.72
356.326	340.4
356.709	326.16
357.091	334.3
357.473	340.4
357.855	349.89
358.238	322.77
358.62	352.38
359.002	328.88
359.384	340.17
359.766	337.01
360.148	347.63
360.53	343.11
360.912	327.29
361.294	331.14
361.676	342.21
362.057	348.08
362.439	323
362.821	331.36
363.203	318.93
363.584	338.37
363.966	316.9
364.348	304.47
364.729	334.75
365.111	321.87
365.493	329.33
365.874	339.95
366.256	312.6
366.637	310.8
367.019	299.5
367.4	316.22
367.781	327.52
368.163	322.32
368.544	304.92
368.925	298.59
369.306	327.52
369.688	323
370.069	316.45
370.45	310.57
370.831	327.75
371.212	299.72
371.593	306.73
371.974	299.72
372.355	314.19
372.736	327.75
373.117	299.27
373.498	320.06
373.879	323.23
374.26	299.05
374.641	302.66
375.021	334.53
375.402	332.49
375.783	306.5
376.163	317.8
376.544	310.34
376.925	324.58
377.305	327.29
377.686	324.81
378.066	309.22
378.447	319.38
378.827	332.49
379.208	315.77
379.588	354.41
379.968	304.02
380.349	350.34
380.729	344.47
381.109	329.33
381.489	330.46
381.87	323.68
382.25	350.8
382.63	328.42
383.01	326.62
383.39	339.95
383.77	340.4
384.15	337.01
384.53	339.5
384.91	341.76
385.29	343.11
385.67	344.47
386.049	342.21
386.429	369.78
386.809	349.67
387.189	340.4
387.568	357.35
387.948	340.17
388.328	345.82
388.707	351.93
389.087	351.25
389.466	367.97
389.846	353.06
390.225	375.2
390.605	363.68
390.984	362.77
391.363	359.16
391.743	356.67
392.122	353.73
392.501	365.71
392.881	343.56
393.26	390.12
393.639	368.2
394.018	386.5
394.397	368.87
394.776	367.07
395.155	359.61
395.534	380.63
395.913	365.48
396.292	375.2
396.671	373.85
397.05	372.49
397.429	373.17
397.808	366.16
398.186	373.17
398.565	372.94
398.944	378.14
399.323	388.53
399.701	366.39
400.08	396.67
400.458	369.33
400.837	384.92
401.215	397.8
401.594	379.5
401.972	380.85
402.351	393.73
402.729	378.37
403.107	401.19
403.486	399.83
403.864	391.02
404.242	399.83
404.62	383.11
404.999	377.01
405.377	408.42
405.755	408.42
406.133	412.26
406.511	415.65
406.889	413.39
407.267	412.04
407.645	406.84
408.023	398.48
408.401	404.13
408.779	420.17
409.156	407.29
409.534	431.92
409.912	430.12
410.29	426.73
410.667	433.51
411.045	426.95
411.422	439.83
411.8	436.44
412.178	443.45
412.555	428.53
412.933	435.77
413.31	447.06
413.687	437.12
414.065	451.58
414.442	434.41
414.819	455.65
415.197	469.66
415.574	460.4
415.951	452.71
416.328	453.39
416.705	451.36
417.082	477.57
417.46	458.59
417.837	477.12
418.214	490
418.591	465.14
418.967	463.56
419.344	485.03
419.721	480.06
420.098	490.23
420.475	495.65
420.852	496.78
421.228	494.75
421.605	486.84
421.982	492.71
422.358	512.15
422.735	493.16
423.111	479.15
423.488	506.72
423.864	504.69
424.241	501.07
424.617	517.57
424.994	506.27
425.37	508.98
425.746	515.09
426.123	525.25
426.499	528.19
426.875	520.96
427.251	522.54
427.627	546.04
428.003	557.8
428.379	545.14
428.756	554.86
429.132	562.32
429.507	576.33
429.883	576.55
430.259	560.06
430.635	587.4
431.011	588.98
431.387	577.23
431.763	570.45
432.138	604.57
432.514	586.95
432.89	573.61
433.265	600.51
433.641	603.22
434.016	604.57
434.392	596.21
434.767	625.36
435.143	602.09
435.518	622.88
435.894	646.16
436.269	632.14
436.644	656.78
437.02	652.48
437.395	646.83
437.77	654.52
438.145	665.82
438.52	626.95
438.895	627.62
439.271	655.65
439.646	670.34
440.021	704.91
440.395	676.44
440.77	672.37
441.145	678.47
441.52	716.89
441.895	692.48
442.27	685.93
442.645	714.4
443.019	699.26
443.394	686.83
443.769	691.13
444.143	699.26
444.518	714.4
444.892	725.02
445.267	721.86
445.641	723.89
446.016	729.09
446.39	720.73
446.764	725.02
447.139	721.63
447.513	736.55
447.887	711.46
448.262	758.92
448.636	744.91
449.01	730.67
449.384	766.83
449.758	773.61
450.132	758.69
450.506	781.29
450.88	765.47
451.254	797.79
451.628	760.73
452.002	792.59
452.376	795.53
452.75	785.59
453.123	822.2
453.497	831.69
453.871	838.92
454.244	820.39
454.618	820.16
454.992	855.87
455.365	849.54
455.739	851.57
456.112	877.79
456.486	851.8
456.859	879.37
457.232	882.99
457.606	894.28
457.979	898.35
458.352	931.57
458.725	922.08
459.099	926.6
459.472	958.01
459.845	977.9
460.218	957.79
460.591	965.92
460.964	949.65
461.337	1004.56
461.71	1011.12
462.083	1031
462.456	1036.43
462.829	1002.3
463.201	1044.34
463.574	1052.02
463.947	1076.43
464.32	1062.87
464.692	1102.87
465.065	1111.23
465.438	1109.42
465.81	1140.83
466.183	1160.72
466.555	1159.14
466.928	1192.13
467.3	1173.6
467.672	1202.07
468.045	1240.49
468.417	1235.29
468.789	1279.36
469.161	1262.64
469.534	1309.19
469.906	1343.76
470.278	1369.98
470.65	1357.1
471.022	1389.19
471.394	1423.54
471.766	1442.97
472.138	1443.65
472.51	1515.96
472.882	1525.68
473.253	1582.85
473.625	1596.41
473.997	1646.58
474.369	1650.42
474.74	1663.3
475.112	1733.58
475.484	1745.34
475.855	1795.28
476.227	1822.85
476.598	1913.01
476.97	1907.37
477.341	1983.75
477.713	2030.53
478.084	2068.94
478.455	2153.91
478.827	2205.21
479.198	2287.24
479.569	2316.17
479.94	2409.95
480.311	2426.9
480.682	2531.76
481.053	2577.18
481.424	2659.89
481.795	2734.46
482.166	2848.13
482.537	2911.41
482.908	2942.37
483.279	3038.86
483.65	3139.42
484.021	3218.07
484.391	3318.63
484.762	3352.75
485.133	3485.18
485.503	3572.86
485.874	3722.46
486.244	3733.53
486.615	3928.33
486.985	4012.85
487.356	4097.14
487.726	4165.38
488.097	4334.87
488.467	4426.62
488.837	4611.02
489.207	4679.72
489.578	4774.41
489.948	4867.97
490.318	5049.66
490.688	5136.43
491.058	5252.36
491.428	5428.63
491.798	5523.32
492.168	5681.28
492.538	5773.03
492.908	5900.93
493.278	6023.42
493.648	6088.27
494.017	6234.93
494.387	6366.23
494.757	6566.9
495.126	6684.41
495.496	6752.21
495.866	6876.5
496.235	7000.79
496.605	7127.11
496.974	7290.73
497.344	7359.88
497.713	7493.43
498.082	7650.72
498.452	7744.27
498.821	7851.62
499.19	7982.91
499.559	8071.95
499.928	8259.74
500.298	8353.75
500.667	8464.93
501.036	8524.82
501.405	8699.5
501.774	8746.28
502.143	8858.14
502.512	8985.37
502.88	9108.98
503.249	9172.48
503.618	9309.66
503.987	9414.51
504.356	9532.48
504.724	9584.23
505.093	9685.01
505.462	9809.76
505.83	9903.77
506.199	10035.74
506.567	10210.65
506.936	10215.62
507.304	10381.72
507.672	10507.36
508.041	10620.36
508.409	10679.79
508.777	10772.89
509.145	10930.63
509.514	10938.09
509.882	11138.53
510.25	11183.28
510.618	11336.04
510.986	11419.66
511.354	11507.34
511.722	11690.84
512.09	11786.88
512.458	11739.65
512.826	11903.26
513.193	12100.77
513.561	12027.1
513.929	12170.6
514.297	12239.3
514.664	12406.07
515.032	12439.97
515.4	12700.53
515.767	12679.29
516.135	12840.18
516.502	12737.14
516.869	12991.59
517.237	13049.9
517.604	13007.41
517.972	13199.27
518.339	13358.36
518.706	13401.98
519.073	13483.11
519.44	13690.11
519.808	13708.18
520.175	13709.31
520.542	13932.36
520.909	13982.53
521.276	14108.4
521.643	14269.53
522.009	14351.11
522.376	14479.46
522.743	14535.06
523.11	14661.83
523.477	14820.25
523.843	14818.89
524.21	15077.87
524.577	15195.6
524.943	15207.35
525.31	15333.9
525.676	15506.56
526.043	15579.1
526.409	15587.23
526.776	15709.49
527.142	15808.47
527.508	15906.09
527.874	16076.71
528.241	16153.54
528.607	16281.22
528.973	16452.07
529.339	16331.84
529.705	16536.13
530.071	16704.49
530.437	16791.04
530.803	16913.3
531.169	17031.26
531.535	16974.09
531.901	17001.66
532.267	17196.23
532.632	17304.25
532.998	17408.2
533.364	17432.61
533.73	17496.56
534.095	17681.64
534.461	17724.12
534.826	17771.81
535.192	17929.77
535.557	17988.98
535.923	17933.84
536.288	18044.57
536.653	18195.3
537.019	18180.61
537.384	18242.08
537.749	18400.04
538.114	18374.05
538.479	18557.77
538.845	18563.88
539.21	18513.93
539.575	18724.55
539.94	18664.21
540.305	18896.75
540.67	18849.52
541.034	18854.04
541.399	18959.12
541.764	19167.25
542.129	19098.78
542.494	19178.78
542.858	19281.82
543.223	19285.89
543.587	19414.7
543.952	19388.26
544.316	19466.68
544.681	19532.89
545.045	19567.01
545.41	19814.69
545.774	19821.92
546.138	19728.82
546.503	19853.33
546.867	19897.17
547.231	20228.01
547.595	20063.72
547.959	20203.83
548.324	20196.15
548.688	20176.04
549.052	20394.56
549.416	20410.83
549.779	20511.17
550.143	20578.74
550.507	20666.19
550.871	20753.2
551.235	20705.06
551.599	20912.52
551.962	20882.01
552.326	20937.37
552.689	21129.23
553.053	21126.97
553.417	21147.99
553.78	21405.38
554.143	21237.93
554.507	21349.79
554.87	21578.94
555.234	21722.66
555.597	21633.63
555.96	21763.34
556.323	21863.22
556.686	21816.22
557.05	21993.62
557.413	22013.05
557.776	22153.84
558.139	22280.39
558.502	22410.33
558.865	22385.24
559.228	22571.45
559.59	22627.27
559.953	22627.27
560.316	22860.94
560.679	22894.16
561.041	22929.19
561.404	23166.47
561.767	23262.74
562.129	23182.96
562.492	23376.41
562.854	23309.74
563.217	23432.9
563.579	23539.79
563.941	23691.65
564.304	23864.3
564.666	23854.36
565.028	23977.97
565.39	24008.7
565.753	24186.1
566.115	24214.8
566.477	24290.96
566.839	24363.27
567.201	24542.25
567.563	24555.81
567.925	24799.64
568.287	24772.53
568.648	24823.15
569.01	24988.34
569.372	25107.21
569.734	25122.8
570.095	25331.16
570.457	25332.51
570.819	25313.76
571.18	25443.47
571.542	25558.95
571.903	25648.66
572.265	25937.24
572.626	25914.42
572.987	25963.46
573.349	26057.46
573.71	26243
574.071	26243.9
574.432	26388.76
574.794	26485.7
575.155	26609.77
575.516	26532.71
575.877	26721.4
576.238	26730.89
576.599	26934.28
576.96	26996.65
577.32	27046.82
577.681	27178.11
578.042	27303.99
578.403	27282.74
578.763	27421.5
579.124	27530.87
579.485	27695.16
579.845	27863.29
580.206	27753.69
580.566	27887.47
580.927	28019.9
581.287	28107.81
581.648	28069.84
582.008	28389.15
582.368	28283.17
582.728	28437.74
583.089	28456.5
583.449	28568.58
583.809	28569.04
584.169	28727.9
584.529	28677.06
584.889	29014.9
585.249	28868.92
585.609	29029.14
585.969	29344.38
586.329	29220.09
586.688	29350.49
587.048	29451.5
587.408	29425.06
587.768	29496.92
588.127	29672.06
588.487	29719.29
588.846	30040.18
589.206	29774.43
589.565	29875.22
589.925	30327.86
590.284	30245.15
590.643	30323.34
591.003	30536.67
591.362	30649.43
591.721	30691.47
592.08	30809.88
592.44	30947.51
592.799	30937.34
593.158	31000.84
593.517	31128.74
593.876	31255.75
594.235	31192.47
594.593	31319.47
594.952	31449.19
595.311	31342.3
595.67	31543.2
596.029	31680.14
596.387	31925.56
596.746	31973.47
597.104	31933.47
597.463	32007.36
597.822	32206
598.18	32169.39
598.538	32177.98
598.897	32481.48
599.255	32224.99
599.613	32851.41
599.972	32503.4
600.33	32756.95
600.688	32669.95
601.046	33035.81
601.404	33043.72
601.762	32922.82
602.12	33168.92
602.478	33278.74
602.836	33296.37
603.194	33261.34
603.552	33422.92
603.91	33383.15
604.268	33661.78
604.625	33570.71
604.983	33786.98
605.341	33593.31
605.698	33970.02
606.056	33883.02
606.413	33838.95
606.771	34115.11
607.128	34201.66
607.485	34102.22
607.843	34045.96
608.2	34389.22
608.557	34547.64
608.914	34433.06
609.272	34630.8
609.629	34716.22
609.986	34668.76
610.343	34742.66
610.7	35065.59
611.057	34937.68
611.414	35049.54
611.771	35087.06
612.127	35132.71
612.484	35322.08
612.841	35426.26
613.198	35252.25
613.554	35353.49
613.911	35604.33
614.267	35580.38
614.624	35614.5
614.98	35590.55
615.337	35956.41
615.693	35889.3
616.05	35821.5
616.406	35954.61
616.762	35916.64
617.118	36090.65
617.475	35998.67
617.831	36183.3
618.187	36153.02
618.543	36251.32
618.899	36506.68
619.255	36447.02
619.611	36472.56
619.967	36561.14
620.323	36680.24
620.678	36619.9
621.034	36528.15
621.39	36636.62
621.746	36564.53
622.101	37035.03
622.457	36611.31
622.812	36832.32
623.168	36937.4
623.523	36902.6
623.879	37156.61
624.234	36857.86
624.589	37135.14
624.945	37020.34
625.3	37107.57
625.655	37141.24
626.01	37086.55
626.365	37191.86
626.72	37140.56
627.075	37183.95
627.43	37132.43
627.785	37205.65
628.14	37157.06
628.495	37243.39
628.85	37250.16
629.205	37155.03
629.559	37333.55
629.914	37113.9
630.269	37231.63
630.623	37088.13
630.978	37036.38
631.332	37201.13
631.687	37249.49
632.041	37200.45
632.396	37204.29
632.75	37113.45
633.104	37122.94
633.459	37083.62
633.813	37093.56
634.167	37108.93
634.521	36963.39
634.875	37097.17
635.229	37056.5
635.583	37011.53
635.937	37124.74
636.291	36963.39
636.645	36869.84
636.999	36795.71
637.352	36934.47
637.706	36745.09
638.06	36922.72
638.413	36985.31
638.767	36750.06
639.121	36852.21
639.474	36666.68
639.828	36759.33
640.181	36691.99
640.534	36697.86
640.888	36673.68
641.241	36570.41
641.594	36667.58
641.947	36644.53
642.301	36542.39
642.654	36668.48
643.007	36510.75
643.36	36478.43
643.713	36624.64
644.066	36652.21
644.419	36499.22
644.771	36153.7
645.124	35929.52
645.477	35749.19
645.83	35654.73
646.182	35381.97
646.535	35385.35
646.888	35586.93
647.24	35346.94
647.593	35500.83
647.945	35437.1
648.298	35237.56
648.65	35226.04
649.002	35067.62
649.355	35215.42
649.707	35239.6
650.059	35320.27
650.411	35712.58
650.763	35767.72
651.115	35969.97
651.467	35909.63
651.819	35958.9
652.171	35961.16
652.523	35891.1
652.875	35861.27
653.227	35707.83
653.578	36048.84
653.93	35830.77
654.282	35689.08
654.633	35652.01
654.985	35765.68
655.337	35820.82
655.688	35797.32
656.039	35921.84
656.391	35627.61
656.742	35641.39
657.094	35620.83
657.445	35866.7
657.796	35712.13
658.147	35449.99
658.498	35646.36
658.849	35695.18
659.2	35542.64
659.551	35472.13
659.902	35581.73
660.253	35636.65
660.604	35582.86
660.955	35446.6
661.306	35515.07
661.656	35487.73
662.007	35358.91
662.358	35303.1
662.708	35415.64
663.059	35484.11
663.409	35174.06
663.76	35453.83
664.11	35336.77
664.461	35454.05
664.811	35365.92
665.161	35392.59
665.511	35297.45
665.862	35444.11
666.212	35555.07
666.562	35386.94
666.912	35329.31
667.262	35415.86
667.612	35503.32
667.962	35413.38
668.312	35393.94
668.662	35499.7
669.011	35320.27
669.361	35275.75
669.711	35228.97
670.06	35252.48
670.41	35081.86
670.76	35110.56
671.109	35162.76
671.459	35128.41
671.808	35269.2
672.157	35239.6
672.507	35054.74
672.856	35078.7
673.205	35033.95
673.554	35177.45
673.904	35061.52
674.253	35348.29
674.602	35109.2
674.951	34574.53
675.3	34430.58
675.649	34901.75
675.998	34926.84
676.346	34925.25
676.695	35064.01
677.044	34781.75
677.393	34904.01
677.741	34836.67
678.09	34812.26
678.438	34704.24
678.787	34809.32
679.135	34711.02
679.484	34604.36
679.832	34626.5
680.181	34481.42
680.529	34600.52
680.877	34623.79
681.225	34500.63
681.573	34666.73
681.922	34364.14
682.27	34418.6
682.618	34319.39
682.966	34299.51
683.314	34345.38
683.661	34186.97
684.009	34035.11
684.357	33989.69
684.705	34024.49
685.053	34124.37
685.4	33898.39
685.748	33714.66
686.095	33850.93
686.443	33634.21
686.79	33550.83
687.138	33677.83
687.485	33566.87
687.832	33664.27
688.18	33544.27
688.527	33420.21
688.874	33471.51
689.221	33334.56
689.568	33197.62
689.915	33245.52
690.262	33165.53
690.609	33073.1
690.956	33085.75
691.303	32859.77
691.65	32749.49
691.997	32762.15
692.344	32557.18
692.69	32577.52
693.037	32608.03
693.383	32307.7
693.73	32438.54
694.077	32256.17
694.423	32308.6
694.769	32030.87
695.116	31964.88
695.462	32007.82
695.808	31994.48
696.155	32001.72
696.501	31647.37
696.847	31789.52
697.193	31549.75
697.539	31618.67
697.885	31435.18
698.231	31268.18
698.577	31312.92
698.923	31217.1
699.269	31071.8
699.614	30971.91
699.96	30855.53
700.306	30947.28
700.651	30780.28
700.997	30829.99
701.342	30688.3
701.688	30570.34
702.033	30560.62
702.379	30622.99
702.724	30389.55
703.069	30516.1
703.415	30190.24
703.76	30131.03
704.105	30241.31
704.45	30023.01
704.795	29745.73
705.14	29883.35
705.485	29831.6
705.83	29678.84
706.175	29718.84
706.52	29734.2
706.865	29567.88
707.209	29486.07
707.554	29273.88
707.899	29474.32
708.243	29248.57
708.588	29270.04
708.932	29109.81
709.277	29065.75
709.621	29068.23
709.966	28826.66
710.31	28954.79
710.654	28670.73
710.998	28822.14
711.342	28692.2
711.687	28626.66
712.031	28502.37
712.375	28446.55
712.719	28467.12
713.063	28394.58
713.407	28481.58
713.75	28327.91
714.094	28305.99
714.438	28127.92
714.782	28137.64
715.125	28056.96
715.469	28049.05
715.812	27752.34
716.156	27792.11
716.499	27872.11
716.843	27906.46
717.186	27661.94
717.53	27779.91
717.873	27819.68
718.216	27684.54
718.559	27703.3
718.902	27345.79
719.246	27475.73
719.589	27320.71
719.932	27296.3
720.275	27204.33
720.617	27289.52
720.96	27119.58
721.303	27231.9
721.646	27048.85
721.989	27106.48
722.331	27141.05
722.674	27038.46
723.016	27006.14
723.359	26915.3
723.701	26991
724.044	26744
724.386	26642.08
724.729	26874.84
725.071	26612.7
725.413	26705.36
725.755	26578.35
726.097	26637.79
726.439	26297.01
726.782	26388.53
727.124	26462.43
727.465	26526.6
727.807	26392.37
728.149	26250.68
728.491	26290.45
728.833	26260.17
729.175	26143.34
729.516	26175.65
729.858	26150.8
730.199	26224.01
730.541	26095.66
730.882	25988.31
731.224	26128.2
731.565	25954.64
731.906	25913.74
732.248	25963.23
732.589	25824.7
732.93	25753.52
733.271	25681.2
733.612	25698.6
733.953	25717.59
734.294	25735.44
734.635	25569.12
734.976	25662.67
735.317	25505.16
735.658	25573.41
735.999	25435.56
736.339	25489.34
736.68	25539.96
737.021	25391.04
737.361	25290.71
737.702	25472.62
738.042	25317.37
738.383	25271.04
738.723	25213.42
739.063	25136.58
739.404	25208.45
739.744	25132.07
740.084	25089.81
740.424	25038.28
740.764	24874.44
741.104	25020.43
741.444	24804.16
741.784	24883.94
742.124	24932.97
742.464	24812.75
742.804	24789.25
743.143	24724.17
743.483	24777.5
743.823	24567.11
744.162	24627.67
744.502	24622.93
744.841	24494.57
745.181	24639.42
745.52	24427
745.86	24437.62
746.199	24463.83
746.538	24468.58
746.877	24430.84
747.216	24350.62
747.556	24306.1
747.895	24307.91
748.234	24153.56
748.573	24156.95
748.911	24124.18
749.25	24101.58
749.589	24035.37
749.928	24048.25
750.267	24097.74
750.605	23984.52
750.944	23965.99
751.283	23746.11
751.621	23936.39
751.96	23773
752.298	23666.12
752.636	23762.61
752.975	23615.04
753.313	23449.4
753.651	23711.76
753.989	23508.61
754.327	23496.85
754.666	23267.03
755.004	23425.67
755.342	23394.71
755.679	23336.86
756.017	23255.05
756.355	23361.94
756.693	23232
757.031	23186.35
757.368	23098.22
757.706	22999.01
758.044	22942.07
758.381	22921.5
758.719	22879.02
759.056	22914.04
759.394	22696.87
759.731	22601.96
760.068	22598.57
760.405	22465.69
760.743	22367.17
761.08	22470.21
761.417	22349.54
761.754	22262.99
762.091	22217.79
762.428	22249.66
762.765	22019.38
763.102	22000.62
763.438	22000.17
763.775	21898.03
764.112	21912.71
764.449	21998.14
764.785	21742.1
765.122	21729.44
765.458	21542.33
765.795	21592.72
766.131	21485.38
766.467	21462.11
766.804	21328.78
767.14	21156.12
767.476	21280.87
767.812	21149.57
768.148	21116.13
768.485	20873.19
768.821	20898.96
769.157	20783.93
769.492	20747.32
769.828	20761.56
770.164	20658.51
770.5	20585.97
770.836	20526.08
771.171	20343.26
771.507	20390.27
771.842	20244.28
772.178	20222.36
772.513	20179.2
772.849	20131.29
773.184	19983.5
773.519	19916.84
773.855	19907.12
774.19	19778.08
774.525	19730.4
774.86	19670.06
775.195	19746.22
775.53	19597.97
775.865	19466.23
776.2	19365.21
776.535	19264.65
776.87	19119.79
777.205	19162.96
777.539	19165.44
777.874	19110.53
778.209	18913.92
778.543	18920.03
778.878	18859.69
779.212	18866.24
779.547	18689.07
779.881	18751.67
780.215	18582.18
780.55	18627.15
780.884	18534.05
781.218	18441.17
781.552	18414.28
781.886	18262.87
782.22	18199.59
782.554	18162.08
782.888	17971.58
783.222	17953.5
783.556	17805.7
783.889	17774.74
784.223	17661.75
784.557	17739.04
784.89	17700.17
785.224	17642.32
785.557	17541.76
785.891	17451.36
786.224	17395.32
786.558	17328.65
786.891	17299.5
787.224	17263.35
787.557	17145.61
787.891	17061.32
788.224	17080.53
788.557	17002.11
788.89	16925.28
789.223	17020.64
789.556	16826.97
789.888	16735.9
790.221	16763.7
790.554	16581.56
790.887	16628.56
791.219	16476.25
791.552	16542.23
791.884	16428.34
792.217	16339.98
792.549	16257.27
792.882	16162.58
793.214	16158.97
793.546	16145.41
793.879	15950.16
794.211	15895.7
794.543	15961.23
794.875	15927.79
795.207	15968.01
795.539	15878.75
795.871	15841.69
796.203	15673.78
796.535	15625.2
796.867	15587.23
797.198	15552.2
797.53	15550.17
797.862	15387.69
798.193	15419.55
798.525	15267.47
798.856	15332.1
799.188	15227.24
799.519	15143.85
799.85	15074.7
800.182	15064.08
800.513	15074.25
800.844	14923.75
801.175	14965.55
801.506	14920.58
801.837	14825.22
802.168	14772.34
802.499	14730.53
802.83	14690.08
803.161	14684.2
803.491	14704.77
803.822	14700.7
804.153	14516.75
804.483	14502.74
804.814	14440.82
805.145	14349.75
805.475	14370.09
805.805	14300.03
806.136	14335.51
806.466	14338.45
806.796	14231.33
807.126	14198.79
807.457	14201.73
807.787	14120.83
808.117	14077.44
808.447	14063.88
808.777	14019.59
809.107	14053.03
809.436	13940.72
809.766	13946.14
810.096	13916.54
810.426	13850.55
810.755	13868.63
811.085	13759.93
811.414	13755.42
811.744	13625.02
812.073	13586.61
812.403	13667.28
812.732	13498.25
813.061	13517.23
813.39	13388.87
813.719	13378.25
814.049	13479.04
814.378	13416.89
814.707	13424.58
815.036	13265.48
815.365	13310.23
815.693	13113.4
816.022	13263.9
816.351	13091.7
816.68	13068.88
817.008	13080.63
817.337	12978.26
817.665	12966.74
817.994	13024.13
818.322	12960.86
818.651	12915.66
818.979	12806.51
819.307	12936.91
819.636	12872.5
819.964	12709.57
820.292	12852.39
820.62	12830.02
820.948	12704.6
821.276	12745.27
821.604	12697.59
821.932	12823.01
822.259	12766.97
822.587	12656.01
822.915	12701.88
823.243	12685.61
823.57	12690.13
823.898	12659.85
824.225	12593.41
824.553	12615.33
824.88	12616.69
825.207	12691.26
825.535	12660.75
825.862	12689.91
826.189	12619.17
826.516	12680.42
826.843	12732.17
827.17	12706.86
827.497	12682.67
827.824	12671.83
828.151	12734.65
828.478	12609.46
828.805	12703.47
829.131	12578.27
829.458	12648.78
829.785	12557.48
830.111	12514.09
830.438	12611.72
830.764	12616.46
831.09	12559.74
831.417	12508.22
831.743	12574.43
832.069	12597.03
832.395	12462.79
832.722	12536.46
833.048	12573.3
833.374	12532.4
833.7	12477.26
834.026	12489.01
834.351	12530.81
834.677	12566.07
835.003	12583.92
835.329	12480.87
835.654	12442.23
835.98	12432.29
836.306	12476.13
836.631	12395.22
836.956	12459.86
837.282	12383.93
837.607	12337.83
837.932	12281.1
838.258	12288.11
838.583	12312.52
838.908	12229.81
839.233	12208.79
839.558	12207.43
839.883	12111.84
840.208	12130.6
840.533	12124.05
840.858	12120.88
841.182	12112.07
841.507	12159.52
841.832	12011.28
842.156	12051.28
842.481	11977.38
842.805	11970.83
843.13	11983.26
843.454	11905.97
843.778	11869.14
844.103	11886.76
844.427	11804.96
844.751	11825.3
845.075	11803.83
845.399	11719.99
845.723	11655.81
846.047	11729.71
846.371	11534.46
846.695	11606.77
847.019	11490.84
847.343	11477.28
847.666	11372.65
847.99	11365.2
848.313	11364.29
848.637	11217.18
848.96	11234.35
849.284	11350.96
849.607	11147.35
849.931	11134.92
850.254	11054.02
850.577	11015.83
850.9	10981.02
851.223	10900.35
851.546	10880.01
851.869	10796.62
852.192	10833.46
852.515	10693.57
852.838	10703.97
853.161	10678.21
853.483	10646.34
853.806	10630.98
854.129	10592.56
854.451	10541.49
854.774	10495.61
855.096	10506.01
855.419	10430.53
855.741	10443.19
856.063	10334.49
856.385	10334.94
856.708	10270.31
857.03	10323.87
857.352	10278.22
857.674	10208.16
857.996	10158.22
858.318	10072.12
858.64	10140.59
858.961	10057.66
859.283	10108.28
859.605	10020.37
859.926	10018.79
860.248	10014.04
860.57	9868.06
860.891	9958.45
861.212	9910.54
861.534	9915.29
861.855	9829.19
862.176	9873.03
862.498	9843.2
862.819	9833.94
863.14	9758.68
863.461	9808.85
863.782	9777.21
864.103	9759.59
864.424	9740.61
864.745	9785.35
865.065	9696.76
865.386	9658.12
865.707	9619.93
866.027	9628.07
866.348	9654.51
866.668	9624.22
866.989	9587.16
867.309	9493.38
867.63	9517.56
867.95	9484.34
868.27	9510.78
868.59	9507.39
868.91	9469.65
869.23	9440.73
869.55	9448.64
869.87	9455.87
870.19	9464.23
870.51	9358.47
870.83	9429.65
871.15	9282.99
871.469	9336.32
871.789	9372.03
872.109	9362.54
872.428	9231.69
872.748	9299.26
873.067	9266.27
873.386	9217
873.706	9234.86
874.025	9238.47
874.344	9155.76
874.663	9203.9
874.982	9210
875.301	9142.66
875.62	9113.73
875.939	9140.85
876.258	9139.27
876.577	9100.4
876.896	9068.98
877.214	8992.83
877.533	9025.6
877.852	9080.06
878.17	9008.65
878.489	9022.21
878.807	9057.69
879.125	8967.07
879.444	8985.37
879.762	8914.64
880.08	8945.37
880.398	8907.18
880.716	8905.37
881.034	8914.86
881.352	8897.24
881.67	8777.92
881.988	8854.53
882.306	8865.83
882.624	8757.13
882.941	8794.87
883.259	8720.07
883.577	8723.68
883.894	8670.58
884.212	8700.41
884.529	8684.81
884.846	8641.88
885.164	8619.05
885.481	8575.89
885.798	8638.71
886.115	8503.35
886.432	8582.22
886.75	8561.43
887.067	8624.93
887.383	8463.12
887.7	8493.18
888.017	8438.49
888.334	8440.98
888.651	8395.78
888.967	8404.14
889.284	8380.64
889.6	8391.26
889.917	8245.28
890.233	8237.82
890.55	8290.02
890.866	8272.4
891.182	8250.48
891.498	8178.39
891.815	8202.57
892.131	8077.6
892.447	8135.9
892.763	8074.89
893.079	8072.63
893.395	8057.71
893.71	7995.79
894.026	7998.5
894.342	7965.28
894.657	7944.27
894.973	7895.68
895.289	7886.87
895.604	7897.94
895.92	7843.03
896.235	7811.16
896.55	7776.59
896.865	7779.08
897.181	7770.71
897.496	7738.17
897.811	7689.36
898.126	7710.6
898.441	7649.59
898.756	7649.36
899.071	7626.76
899.386	7553.32
899.7	7497.5
900.015	7463.83
900.33	7422.25
900.644	7424.06
900.959	7485.98
901.273	7401.23
901.588	7329.6
901.902	7399.88
902.216	7265.64
902.531	7291.4
902.845	7256.15
903.159	7208.69
903.473	7196.94
903.787	7153.55
904.101	7110.17
904.415	7154.23
904.729	7098.42
905.042	6997.4
905.356	7022.26
905.67	7036.04
905.984	7016.16
906.297	7005.54
906.611	6890.28
906.924	6937.52
907.237	6943.16
907.551	6874.24
907.864	6828.37
908.177	6784.75
908.491	6817.52
908.804	6746.79
909.117	6708.59
909.43	6705.66
909.743	6642.16
910.056	6620.91
910.368	6653
910.681	6599.22
910.994	6584.3
911.307	6575.04
911.619	6475.83
911.932	6514.93
912.244	6516.06
912.557	6451.88
912.869	6431.31
913.181	6415.27
913.494	6431.31
913.806	6295.95
914.118	6380.92
914.43	6287.14
914.742	6298.44
915.054	6261.37
915.366	6211.21
915.678	6198.55
915.99	6212.56
916.302	6105.45
916.613	6124.43
916.925	6121.94
917.236	6088.27
917.548	6076.3
917.859	6032
918.171	6003.3
918.482	5953.36
918.794	5943.64
919.105	5953.13
919.416	5884.66
919.727	5849.41
920.038	5853.93
920.349	5786.36
920.66	5768.28
920.971	5831.78
921.282	5751.33
921.593	5726.25
921.903	5695.06
922.214	5707.94
922.525	5664.55
922.835	5590.88
923.146	5632.01
923.456	5639.7
923.767	5564.44
924.077	5578.68
924.387	5540.49
924.697	5512.24
925.008	5475.18
925.318	5452.58
925.628	5473.15
925.938	5425.92
926.248	5388.4
926.558	5342.53
926.867	5351.12
927.177	5265.24
927.487	5293.72
927.796	5227.5
928.106	5232.25
928.416	5204.45
928.725	5196.54
929.034	5223.44
929.344	5220.05
929.653	5105.7
929.962	5098.69
930.271	5080.16
930.581	5067.73
930.89	5009.66
931.199	5015.76
931.508	5048.3
931.817	4941.86
932.125	4982.76
932.434	4919.04
932.743	4937.79
933.051	4856.89
933.36	4883.11
933.669	4863.45
933.977	4864.8
934.286	4820.28
934.594	4799.72
934.902	4779.15
935.21	4752.26
935.519	4679.95
935.827	4703
936.135	4729.21
936.443	4687.4
936.751	4691.47
937.059	4626.62
937.367	4659.84
937.674	4592.49
937.982	4565.6
938.29	4556.79
938.597	4575.32
938.905	4507.97
939.213	4519.73
939.52	4425.26
939.827	4474.76
940.135	4465.26
940.442	4417.36
940.749	4428.65
941.056	4416.23
941.363	4383.23
941.67	4351.37
941.977	4344.59
942.284	4329
942.591	4276.79
942.898	4269.79
943.205	4294.87
943.511	4227.53
943.818	4234.54
944.125	4223.69
944.431	4185.27
944.738	4193.41
945.044	4166.29
945.35	4143.69
945.657	4067.99
945.963	4077.7
946.269	4091.71
946.575	4024.15
946.881	4017.82
947.187	4016.01
947.493	3988.21
947.799	4031.83
948.105	3953.19
948.41	3940.31
948.716	3930.14
949.022	3924.49
949.327	3905.96
949.633	3871.83
949.938	3922.91
950.244	3858.5
950.549	3831.38
950.854	3812.17
951.16	3813.53
951.465	3787.09
951.77	3812.85
952.075	3736.02
952.38	3748.9
952.685	3742.35
952.99	3703.02
953.294	3701.22
953.599	3694.21
953.904	3675.23
954.209	3634.1
954.513	3601.33
954.818	3641.1
955.122	3581.45
955.426	3633.87
955.731	3615.12
956.035	3568.34
956.339	3553.42
956.643	3534.67
956.948	3489.24
957.252	3498.06
957.556	3524.95
957.86	3451.51
958.163	3445.4
958.467	3455.12
958.771	3456.48
959.075	3453.31
959.378	3438.17
959.682	3397.04
959.985	3363.82
960.289	3338.97
960.592	3370.6
960.896	3327.67
961.199	3298.74
961.502	3292.41
961.805	3280.66
962.108	3288.12
962.411	3216.03
962.714	3259.19
963.017	3223.49
963.32	3266.88
963.623	3188.69
963.926	3161.34
964.228	3188.46
964.531	3177.61
964.833	3118.86
965.136	3091.74
965.438	3097.84
965.741	3106.2
966.043	3112.08
966.345	3069.59
966.648	3079.76
966.95	3057.39
967.252	3040.67
967.554	3068.92
967.856	3034.12
968.158	2975.81
968.46	2997.51
968.761	2979.65
969.063	2995.7
969.365	2903.72
969.666	2921.12
969.968	2913.67
970.269	2931.07
970.571	2911.86
970.872	2877.51
971.174	2857.17
971.475	2871.41
971.776	2835.7
972.077	2842.26
972.378	2869.6
972.679	2796.38
972.98	2774.91
973.281	2793.44
973.582	2784.63
973.883	2747.12
974.183	2784.18
974.484	2733.78
974.785	2733.78
975.085	2719.1
975.386	2698.53
975.686	2688.36
975.986	2709.83
976.287	2718.42
976.587	2636.61
976.887	2649.27
977.187	2640.68
977.487	2618.31
977.787	2580.57
978.087	2599.55
978.387	2573.34
978.687	2590.28
978.987	2555.94
979.286	2545.54
979.586	2542.38
979.885	2531.76
980.185	2581.25
980.484	2536.73
980.784	2480.68
981.083	2512.77
981.382	2506.9
981.682	2489.04
981.981	2463.73
982.28	2468.03
982.579	2419.67
982.878	2452.44
983.177	2417.41
983.475	2417.18
983.774	2367.92
984.073	2386.67
984.372	2397.3
984.67	2371.53
984.969	2376.73
985.267	2355.94
985.566	2313
985.864	2341.93
986.162	2324.98
986.461	2310.74
986.759	2308.71
987.057	2280.46
987.355	2245.44
987.653	2293.12
987.951	2259.45
988.249	2291.31
988.547	2262.38
988.844	2194.82
989.142	2221.71
989.44	2225.1
989.737	2204.76
990.035	2194.59
990.332	2178.54
990.63	2188.49
990.927	2162.73
991.224	2126.57
991.521	2150.07
991.819	2127.25
992.116	2113.69
992.413	2088.6
992.71	2095.61
993.006	2099
993.303	2092.9
993.6	2053.12
993.897	2068.04
994.193	2055.84
994.49	2058.1
994.787	2016.51
995.083	2004.54
995.379	1997.31
995.676	2003.18
995.972	1991.66
996.268	1994.59
996.565	1943.07
996.861	1975.61
997.157	1966.12
997.453	1947.36
997.749	1926.35
998.044	1924.54
998.34	1918.44
998.636	1893.58
998.932	1902.85
999.227	1854.03
999.523	1872.79
999.818	1838.44
1000.114	1861.72
1000.409	1844.77
1000.704	1854.03
1001	1822.85
1001.295	1824.66
1001.59	1804.54
1001.885	1808.61
1002.18	1797.31
1002.475	1802.74
1002.77	1763.19
1003.065	1750.53
1003.359	1747.14
1003.654	1761.38
1003.949	1729.06
1004.243	1710.31
1004.538	1723.42
1004.832	1722.96
1005.127	1722.29
1005.421	1713.47
1005.715	1683.42
1006.009	1694.49
1006.304	1677.99
1006.598	1683.19
1006.892	1652.91
1007.186	1649.52
1007.48	1611.33
1007.773	1644.55
1008.067	1621.5
1008.361	1607.94
1008.655	1595.28
1008.948	1605.45
1009.242	1612.46
1009.535	1580.82
1009.829	1558
1010.122	1539.47
1010.415	1559.13
1010.708	1513.93
1011.001	1526.36
1011.295	1524.78
1011.588	1537.88
1011.881	1515.96
1012.173	1522.06
1012.466	1487.26
1012.759	1462.86
1013.052	1487.72
1013.344	1488.39
1013.637	1446.36
1013.93	1443.2
1014.222	1438
1014.514	1405.68
1014.807	1417.66
1015.099	1440.94
1015.391	1398.68
1015.683	1387.6
1015.976	1416.98
1016.268	1365.01
1016.56	1382.86
1016.851	1374.05
1017.143	1366.14
1017.435	1364.55
1017.727	1339.7
1018.018	1344.67
1018.31	1380.83
1018.602	1324.33
1018.893	1313.93
1019.185	1305.12
1019.476	1273.71
1019.767	1286.59
1020.058	1267.61
1020.35	1258.12
1020.641	1266.7
1020.932	1269.64
1021.223	1267.16
1021.514	1239.59
1021.804	1221.96
1022.095	1224.67
1022.386	1207.27
1022.677	1215.63
1022.967	1213.37
1023.258	1186.48
1023.548	1179.93
1023.839	1172.24
1024.129	1158.46
1024.419	1160.04
1024.709	1163.88
1025	1159.36
1025.29	1149.42
1025.58	1150.1
1025.87	1144
1026.16	1118.91
1026.449	1126.37
1026.739	1084.56
1027.029	1106.93
1027.319	1098.12
1027.608	1100.61
1027.898	1078.46
1028.187	1083.66
1028.477	1029.65
1028.766	1075.07
1029.055	1027.39
1029.344	1047.27
1029.634	1071.23
1029.923	1070.78
1030.212	1039.59
1030.501	1018.35
1030.79	1026.03
1031.078	1028.07
1031.367	1004.34
1031.656	997.33
1031.945	975.19
1032.233	988.07
1032.522	967.95
1032.81	1003.66
1033.099	991.91
1033.387	961.18
1033.675	952.59
1033.963	984.68
1034.251	908.97
1034.54	939.25
1034.828	923.89
1035.116	936.32
1035.403	908.3
1035.691	894.51
1035.979	889.31
1036.267	897.22
1036.554	900.84
1036.842	877.79
1037.129	909.88
1037.417	873.04
1037.704	881.4
1037.992	884.79
1038.279	852.93
1038.566	895.41
1038.853	895.41
1039.14	895.41
