Data from hue_150_FLMS001491_00042.txt Node
Date: Tue Feb 07 16:54:05 GMT 2017
User: dcchb
Spectrometer: FLMS00149
Trigger mode: 0
Integration Time (sec): 2.000000E-2
Scans to average: 10
Electric dark correction enabled: true
Nonlinearity correction enabled: false
Boxcar width: 0
XAxis mode: Wavelengths
Number of Pixels in Spectrum: 2048
>>>>>Begin Spectral Data<<<<<
341.393	-12.82
341.776	-12.82
342.16	-12.82
342.543	-55.31
342.927	-55.99
343.31	-60.05
343.693	-75.42
344.077	-55.99
344.46	-62.31
344.843	-64.12
345.226	-37.68
345.61	-47.17
345.993	-27.06
346.376	-6.5
346.759	19.94
347.142	43.22
347.525	54.52
347.908	56.1
348.291	66.27
348.674	71.47
349.057	124.8
349.44	125.02
349.823	141.07
350.206	171.8
350.588	202.54
350.971	225.59
351.354	232.37
351.737	221.29
352.119	257
352.502	257.22
352.884	268.52
353.267	300.61
353.65	289.99
354.032	300.84
354.414	307.85
354.797	326.38
355.179	337.9
355.562	317.56
355.944	336.77
356.326	323.66
356.709	333.61
357.091	346.04
357.473	344.45
357.855	336.77
358.238	362.08
358.62	345.36
359.002	328.86
359.384	348.52
359.766	342.65
360.148	348.75
360.53	326.6
360.912	339.93
361.294	337
361.676	341.06
362.057	316.66
362.439	328.41
362.821	329.99
363.203	318.92
363.584	326.83
363.966	324.79
364.348	332.25
364.729	313.95
365.111	319.37
365.493	301.29
365.874	313.72
366.256	313.27
366.637	333.83
367.019	306.49
367.4	331.57
367.781	315.08
368.163	311.01
368.544	312.82
368.925	303.1
369.306	336.32
369.688	318.69
370.069	325.02
370.45	317.56
370.831	324.57
371.212	333.83
371.593	329.99
371.974	315.3
372.355	314.85
372.736	311.23
373.117	302.2
373.498	329.09
373.879	306.72
374.26	326.15
374.641	326.6
375.021	330.44
375.402	324.57
375.783	339.26
376.163	346.94
376.544	311.01
376.925	324.34
377.305	325.7
377.686	343.55
378.066	337.22
378.447	311.69
378.827	318.01
379.208	334.96
379.588	334.28
379.968	332.03
380.349	333.83
380.729	331.35
381.109	322.08
381.489	340.84
381.87	348.75
382.25	349.43
382.63	326.83
383.01	332.93
383.39	339.26
383.77	360.5
384.15	356.66
384.53	356.88
384.91	349.88
385.29	336.32
385.67	365.7
386.049	345.81
386.429	363.66
386.809	337.67
387.189	367.73
387.568	365.7
387.948	386.04
388.328	346.71
388.707	338.8
389.087	357.34
389.466	372.02
389.846	344.68
390.225	379.03
390.605	367.28
390.984	372.48
391.363	363.44
391.743	372.7
392.122	368.63
392.501	366.83
392.881	357.11
393.26	367.73
393.639	398.24
394.018	397.56
394.397	385.58
394.776	372.7
395.155	367.5
395.534	385.36
395.913	379.48
396.292	395.07
396.671	390.78
397.05	400.72
397.429	404.34
397.808	385.58
398.186	370.22
398.565	401.4
398.944	398.01
399.323	402.98
399.701	387.16
400.08	407.28
400.458	417.9
400.837	421.06
401.215	398.92
401.594	413.6
401.972	441.85
402.351	410.22
402.729	416.09
403.107	418.35
403.486	419.71
403.864	411.12
404.242	442.53
404.62	417.22
404.999	406.83
405.377	416.32
405.755	428.75
406.133	442.3
406.511	445.47
406.889	435.98
407.267	443.21
407.645	418.35
408.023	439.59
408.401	438.69
408.779	451.12
409.156	461.06
409.534	472.13
409.912	423.77
410.29	450.21
410.667	456.99
411.045	468.97
411.422	469.65
411.8	477.78
412.178	480.95
412.555	460.38
412.933	480.27
413.31	477.11
413.687	489.54
414.065	490.67
414.442	510.1
414.819	498.8
415.197	508.07
415.574	493.6
415.951	515.3
416.328	526.14
416.705	497.67
417.082	529.99
417.46	523.21
417.837	522.98
418.214	511
418.591	536.99
418.967	529.08
419.344	535.18
419.721	532.47
420.098	538.35
420.475	549.87
420.852	546.71
421.228	551.23
421.605	561.17
421.982	555.75
422.358	550.1
422.735	578.57
423.111	575.18
423.488	577.44
423.864	584.67
424.241	582.41
424.617	584.45
424.994	607.5
425.37	584.67
425.746	592.81
426.123	593.49
426.499	611.11
426.875	590.55
427.251	640.27
427.627	621.74
428.003	630.55
428.379	632.58
428.756	636.2
429.132	631.23
429.507	649.3
429.883	650.89
430.259	632.81
430.635	655.63
431.011	680.94
431.387	658.57
431.763	673.71
432.138	694.5
432.514	686.14
432.89	699.02
433.265	703.99
433.641	726.37
434.016	731.56
434.392	697.44
434.767	731.11
435.143	727.27
435.518	739.25
435.894	758.23
436.269	764.1
436.644	781.5
437.02	770.21
437.395	746.48
437.77	784.22
438.145	786.7
438.52	773.14
438.895	807.27
439.271	800.71
439.646	796.42
440.021	841.62
440.395	809.53
440.77	813.14
441.145	829.87
441.52	820.37
441.895	852.01
442.27	856.53
442.645	848.62
443.019	852.24
443.394	872.12
443.769	882.97
444.143	877.77
444.518	892.91
444.892	855.85
445.267	878
445.641	894.95
446.016	908.51
446.39	906.93
446.764	897.21
447.139	911.67
447.513	918.9
447.887	909.64
448.262	941.05
448.636	938.56
449.01	962.74
449.384	979.92
449.758	960.94
450.132	977.21
450.506	984.44
450.88	1012.23
451.254	1013.59
451.628	995.96
452.002	1015.62
452.376	1042.97
452.75	1033.7
453.123	1038.22
453.497	1054.27
453.871	1040.26
454.244	1089.07
454.618	1058.11
454.992	1082.97
455.365	1091.1
455.739	1127.94
456.112	1135.62
456.486	1115.51
456.859	1157.77
457.232	1189.86
457.606	1180.59
457.979	1192.12
458.352	1186.47
458.725	1226.24
459.099	1226.92
459.472	1248.16
459.845	1263.53
460.218	1248.16
460.591	1291.77
460.964	1269.85
461.337	1346.01
461.71	1333.35
462.083	1357.08
462.456	1409.06
462.829	1381.49
463.201	1400.02
463.574	1399.12
463.947	1427.14
464.32	1454.71
464.692	1478.89
465.065	1491.99
465.438	1517.76
465.81	1555.27
466.183	1548.94
466.555	1570.86
466.928	1604.53
467.3	1623.97
467.672	1658.54
468.045	1692.89
468.417	1704.87
468.789	1713.23
469.161	1755.94
469.534	1799.56
469.906	1805.21
470.278	1826
470.65	1841.14
471.022	1908.48
471.394	1939.44
471.766	1967.01
472.138	2001.36
472.51	2042.94
472.882	2095.59
473.253	2139.44
473.625	2197.74
473.997	2184.41
474.369	2258.98
474.74	2295.36
475.112	2337.17
475.484	2423.04
475.855	2476.38
476.227	2516.37
476.598	2640.44
476.97	2666.2
477.341	2683.6
477.713	2782.13
478.084	2827.78
478.455	2922.92
478.827	2975.35
479.198	3102.12
479.569	3119.97
479.94	3232.29
480.311	3302.79
480.682	3423.24
481.053	3518.83
481.424	3578.04
481.795	3648.1
482.166	3720.86
482.537	3790.01
482.908	3979.16
483.279	4034.3
483.65	4094.41
484.021	4241.98
484.391	4339.15
484.762	4440.17
485.133	4547.73
485.503	4650.78
485.874	4824.56
486.244	4858.91
486.615	5042.41
486.985	5159.02
487.356	5328.73
487.726	5373.47
488.097	5544.54
488.467	5632
488.837	5801.94
489.207	5876.06
489.578	6042.38
489.948	6150.18
490.318	6285.54
490.688	6330.29
491.058	6537.06
491.428	6725.98
491.798	6801.01
492.168	6948.35
492.538	7092.53
492.908	7259.07
493.278	7375.46
493.648	7442.8
494.017	7591.95
494.387	7796.24
494.757	7890.24
495.126	7979.06
495.496	8081.88
495.866	8281.65
496.235	8376.33
496.605	8495.2
496.974	8545.82
497.344	8690.22
497.713	8754.18
498.082	8890.9
498.452	8965.7
498.821	9123.43
499.19	9156.88
499.559	9342.41
499.928	9429.64
500.298	9527.04
500.667	9651.33
501.036	9670.08
501.405	9759.35
501.774	9826.24
502.143	9948.5
502.512	10054.03
502.88	10228.94
503.249	10190.3
503.618	10268.71
503.987	10337.41
504.356	10445.88
504.724	10508.48
505.093	10550.51
505.462	10619.21
505.83	10640.68
506.199	10785.54
506.567	10944.18
506.936	10933.1
507.304	11050.39
507.672	11140.33
508.041	11171.51
508.409	11346.65
508.777	11352.75
509.145	11459.64
509.514	11444.28
509.882	11564.05
510.25	11435.24
510.618	11656.7
510.986	11678.39
511.354	11760.65
511.722	11872.29
512.09	11945.96
512.458	11937.14
512.826	12026.63
513.193	12022.57
513.561	12056.01
513.929	12133.75
514.297	12168.78
514.664	12308.89
515.032	12241.09
515.4	12337.36
515.767	12371.26
516.135	12420.75
516.502	12348.88
516.869	12569.22
517.237	12552.27
517.604	12511.37
517.972	12672.94
518.339	12608.54
518.706	12664.58
519.073	12671.81
519.44	12695.32
519.808	12842.2
520.175	12761.75
520.542	12888.53
520.909	12926.04
521.276	12915.65
521.643	12971.47
522.009	13080.39
522.376	13048.07
522.743	13077
523.11	13139.82
523.477	13207.84
523.843	13131.01
524.21	13296.66
524.577	13377.11
524.943	13386.82
525.31	13344.79
525.676	13444.9
526.043	13408.29
526.409	13514.5
526.776	13474.05
527.142	13419.14
527.508	13532.81
527.874	13570.77
528.241	13646.25
528.607	13572.35
528.973	13631.11
529.339	13532.13
529.705	13653.71
530.071	13734.16
530.437	13747.49
530.803	13730.09
531.169	13801.5
531.535	13673.14
531.901	13698.45
532.267	13688.74
532.632	13739.13
532.998	13695.97
533.364	13654.61
533.73	13660.71
534.095	13756.3
534.461	13717.44
534.826	13739.13
535.192	13706.36
535.557	13694.39
535.923	13725.35
536.288	13618.46
536.653	13687.61
537.019	13643.31
537.384	13646.03
537.749	13558.12
538.114	13500.72
538.479	13512.24
538.845	13518.35
539.21	13375.52
539.575	13436.31
539.94	13418.46
540.305	13552.92
540.67	13318.58
541.034	13318.35
541.399	13433.15
541.764	13325.58
542.129	13325.58
542.494	13234.06
542.858	13280.84
543.223	13152.93
543.587	13273.38
543.952	13135.76
544.316	13168.75
544.681	13093.05
545.045	13152.48
545.41	13065.48
545.774	13117.68
546.138	13098.7
546.503	12996.32
546.867	13011.24
547.231	12986.38
547.595	12895.99
547.959	12954.74
548.324	12801.3
548.688	12820.28
549.052	12838.36
549.416	12736.9
549.779	12765.6
550.143	12735.99
550.507	12785.48
550.871	12760.85
551.235	12669.55
551.599	12735.09
551.962	12683.11
552.326	12619.84
552.689	12672.27
553.053	12565.6
553.417	12615.54
553.78	12659.84
554.143	12499.16
554.507	12621.65
554.87	12518.37
555.234	12622.78
555.597	12458.03
555.96	12513.63
556.323	12477.69
556.686	12474.08
557.05	12522.89
557.413	12475.43
557.776	12470.24
558.139	12456.9
558.502	12396.34
558.865	12498.48
559.228	12505.94
559.59	12511.14
559.953	12499.61
560.316	12523.12
560.679	12499.16
561.041	12465.27
561.404	12505.26
561.767	12502.55
562.129	12491.93
562.492	12566.28
562.854	12465.72
563.217	12468.66
563.579	12529.44
563.941	12456.9
564.304	12495.55
564.666	12569.44
565.028	12536
565.39	12587.3
565.753	12567.18
566.115	12631.14
566.477	12623.45
566.839	12597.01
567.201	12687.86
567.563	12579.16
567.925	12729.89
568.287	12693.06
568.648	12644.02
569.01	12710.68
569.372	12795.43
569.734	12774.18
570.095	12727.41
570.457	12738.7
570.819	12752.49
571.18	12731.25
571.542	12831.13
571.903	12850.57
572.265	12865.03
572.626	12865.48
572.987	12865.25
573.349	12927.63
573.71	12957.46
574.071	12849.66
574.432	12945.7
574.794	13006.72
575.155	12959.49
575.516	12885.59
575.877	12994.07
576.238	12961.75
576.599	12983.9
576.96	12982.54
577.32	12988.42
577.681	12971.47
578.042	13034.74
578.403	12929.21
578.763	12990.45
579.124	13029.09
579.485	13058.47
579.845	13073.61
580.206	13009.43
580.566	12995.42
580.927	12974.4
581.287	12974.4
581.648	12965.82
582.008	13015.99
582.368	13040.62
582.728	12962.43
583.089	12990
583.449	12996.32
583.809	12966.04
584.169	13002.2
584.529	13007.85
584.889	12991.13
585.249	12930.79
585.609	12872.26
585.969	13038.13
586.329	12974.63
586.688	12954.74
587.048	12920.62
587.408	12921.75
587.768	12873.84
588.127	12883.56
588.487	12844.24
588.846	12918.36
589.206	12799.95
589.565	12873.16
589.925	12891.47
590.284	12869.55
590.643	12913.39
591.003	12893.95
591.362	12854.41
591.721	12920.85
592.08	12861.19
592.44	12852.37
592.799	12922.88
593.158	12791.13
593.517	12888.31
593.876	12823.22
594.235	12813.73
594.593	12766.5
594.952	12728.31
595.311	12683.56
595.67	12721.53
596.029	12808.76
596.387	12802.66
596.746	12793.62
597.104	12750.91
597.463	12744.58
597.822	12722.21
598.18	12691.7
598.538	12736.44
598.897	12832.49
599.255	12648.09
599.613	12825.71
599.972	12790
600.33	12833.84
600.688	12734.41
601.046	12843.11
601.404	12789.1
601.762	12766.05
602.12	12824.13
602.478	12808.99
602.836	12868.87
603.194	12789.32
603.552	12772.38
603.91	12736.44
604.268	12714.52
604.625	12823.45
604.983	12790.23
605.341	12736.67
605.698	12713.39
606.056	12818.25
606.413	12756.78
606.771	12786.16
607.128	12845.14
607.485	12720.85
607.843	12757.69
608.2	12804.24
608.557	12844.92
608.914	12782.32
609.272	12873.39
609.629	12879.27
609.986	12953.84
610.343	12829.1
610.7	12949.09
611.057	12867.51
611.414	12867.51
611.771	12968.3
612.127	13012.37
612.484	13006.27
612.841	12982.31
613.198	12910.9
613.554	12951.81
613.911	13006.27
614.267	12967.17
614.624	13008.53
614.98	12911.13
615.337	13075.64
615.693	13046.95
616.05	13017.79
616.406	13086.94
616.762	13090.11
617.118	13018.02
617.475	13014.4
617.831	13077
618.187	13118.36
618.543	13101.41
618.899	13199.71
619.255	13221.86
619.611	13081.52
619.967	13245.13
620.323	13180.27
620.678	13139.6
621.034	13118.13
621.39	13163.33
621.746	13125.59
622.101	13287.16
622.457	13151.58
622.812	13111.35
623.168	13297.33
623.523	13162.2
623.879	13202.87
624.234	13108.86
624.589	13119.94
624.945	13141.63
625.3	13195.87
625.655	13145.02
626.01	13231.8
626.365	13178.24
626.72	13103.67
627.075	13131.46
627.43	13076.77
627.785	13136.21
628.14	13178.02
628.495	13132.59
628.85	13032.93
629.205	13009.66
629.559	13201.07
629.914	13121.97
630.269	13154.51
630.623	13055.76
630.978	13028.19
631.332	13152.48
631.687	13035.42
632.041	13012.6
632.396	13061.18
632.75	12978.02
633.104	13023.67
633.459	12965.37
633.813	12961.3
634.167	12890.57
634.521	12924.24
634.875	12954.29
635.229	12906.61
635.583	12880.17
635.937	12902.77
636.291	12751.59
636.645	12865.03
636.999	12804.92
637.352	12761.98
637.706	12684.02
638.06	12815.31
638.413	12775.54
638.767	12698.25
639.121	12679.27
639.474	12754.07
639.828	12666.16
640.181	12728.76
640.534	12721.08
640.888	12637.69
641.241	12603.57
641.594	12660.97
641.947	12623.68
642.301	12655.09
642.654	12706.84
643.007	12647.63
643.36	12609.67
643.713	12548.43
644.066	12596.79
644.419	12494.42
644.771	12458.26
645.124	12385.72
645.477	12401.31
645.83	12241.09
646.182	12161.54
646.535	12204.71
646.888	12182.79
647.24	12118.38
647.593	12165.61
647.945	12122
648.298	12151.6
648.65	12062.56
649.002	12125.39
649.355	12183.24
649.707	12175.56
650.059	12299.85
650.411	12383.69
650.763	12328.32
651.115	12489.9
651.467	12456.45
651.819	12497.13
652.171	12481.54
652.523	12509.78
652.875	12476.56
653.227	12413.29
653.578	12507.98
653.93	12448.99
654.282	12415.55
654.633	12308.43
654.985	12392.72
655.337	12453.29
655.688	12465.94
656.039	12425.27
656.391	12383.91
656.742	12369.22
657.094	12393.85
657.445	12312.5
657.796	12411.93
658.147	12258.04
658.498	12349.11
658.849	12268.43
659.2	12420.52
659.551	12312.73
659.902	12432.05
660.253	12384.82
660.604	12296
660.955	12386.62
661.306	12428.2
661.656	12451.71
662.007	12416
662.358	12436.57
662.708	12389.56
663.059	12478.6
663.409	12386.4
663.76	12438.6
664.11	12384.59
664.461	12493.74
664.811	12495.32
665.161	12423.23
665.511	12402.67
665.862	12511.59
666.212	12481.99
666.562	12478.15
666.912	12413.97
667.262	12406.28
667.612	12439.05
667.962	12421.42
668.312	12384.82
668.662	12558.6
669.011	12367.19
669.361	12305.95
669.711	12350.47
670.06	12356.12
670.41	12327.64
670.76	12359.73
671.109	12429.56
671.459	12395.44
671.808	12309.34
672.157	12380.97
672.507	12277.02
672.856	12312.28
673.205	12291.03
673.554	12384.36
673.904	12294.42
674.253	12372.61
674.602	12310.24
674.951	12126.97
675.3	12088.1
675.649	12265.72
675.998	12200.64
676.346	12276.57
676.695	12263.24
677.044	12227.76
677.393	12253.97
677.741	12260.75
678.09	12196.8
678.438	12213.75
678.787	12147.31
679.135	12140.3
679.484	12058.27
679.832	12211.03
680.181	12059.85
680.529	12071.38
680.877	12046.29
681.225	12035.67
681.573	12069.57
681.922	11971.04
682.27	11967.65
682.618	11965.17
682.966	11778.5
683.314	11934.43
683.661	11846.07
684.009	11797.26
684.357	11733.76
684.705	11771.95
685.053	11731.27
685.4	11814.66
685.748	11706.19
686.095	11630.94
686.443	11650.37
686.79	11590.71
687.138	11602.92
687.485	11689.69
687.832	11648.11
688.18	11581.67
688.527	11453.54
688.874	11523.6
689.221	11452.86
689.568	11433.65
689.915	11409.25
690.262	11404.05
690.609	11323.6
690.956	11353.66
691.303	11280.89
691.65	11204.06
691.997	11263.94
692.344	11204.28
692.69	11130.16
693.037	11153.21
693.383	10969.03
693.73	11136.94
694.077	10998.41
694.423	11061.69
694.769	10957.51
695.116	10959.32
695.462	10872.99
695.808	10760
696.155	10805.87
696.501	10691.98
696.847	10811.07
697.193	10629.38
697.539	10750.06
697.885	10616.73
698.231	10671.19
698.577	10628.03
698.923	10529.72
699.269	10482.72
699.614	10424.87
699.96	10325.89
700.306	10371.08
700.651	10342.38
700.997	10294.25
701.342	10266
701.688	10242.73
702.033	10153.46
702.379	10172.44
702.724	10070.98
703.069	10168.15
703.415	10025.1
703.76	9978.78
704.105	10022.17
704.45	10000.25
704.795	9885.22
705.14	9878.44
705.485	9893.13
705.83	9854.03
706.175	9888.16
706.52	9761.38
706.865	9753.47
707.209	9775.39
707.554	9732.23
707.899	9753.47
708.243	9658.33
708.588	9645
708.932	9613.59
709.277	9619.92
709.621	9549.41
709.966	9575.85
710.31	9499.02
710.654	9391.67
710.998	9453.82
711.342	9500.37
711.687	9460.6
712.031	9352.13
712.375	9380.6
712.719	9331.79
713.063	9332.69
713.407	9386.02
713.75	9298.57
714.094	9301.73
714.438	9240.72
714.782	9326.59
715.125	9239.81
715.469	9263.99
715.812	9195.29
716.156	9160.49
716.499	9104.22
716.843	9121.17
717.186	9046.37
717.53	9118.69
717.873	9045.02
718.216	9144.67
718.559	9088.18
718.902	9014.96
719.246	9071.23
719.589	9002.76
719.932	8958.01
720.275	8924.12
720.617	8905.59
720.96	8945.81
721.303	8972.7
721.646	8957.79
721.989	8936.09
722.331	8831.91
722.674	8891.12
723.016	8850.22
723.359	8868.75
723.701	8904.46
724.044	8825.81
724.386	8804.8
724.729	8871.91
725.071	8884.79
725.413	8770.22
725.755	8845.25
726.097	8793.27
726.439	8736.32
726.782	8725.02
727.124	8808.86
727.465	8715.76
727.807	8736.78
728.149	8727.06
728.491	8694.52
728.833	8699.26
729.175	8668.53
729.516	8788.3
729.858	8713.27
730.199	8689.77
730.541	8675.53
730.882	8732.71
731.224	8761.63
731.565	8674.63
731.906	8699.71
732.248	8742.88
732.589	8665.82
732.93	8630.11
733.271	8714.86
733.612	8683.9
733.953	8714.4
734.294	8634.41
734.635	8720.51
734.976	8675.76
735.317	8661.07
735.658	8652.03
735.999	8633.5
736.339	8639.83
736.68	8708.75
737.021	8670.79
737.361	8680.51
737.702	8662.43
738.042	8659.04
738.383	8639.83
738.723	8640.28
739.063	8671.47
739.404	8719.83
739.744	8703.33
740.084	8654.52
740.424	8785.81
740.764	8675.08
741.104	8795.76
741.444	8727.28
741.784	8744.69
742.124	8780.39
742.464	8761.18
742.804	8821.07
743.143	8868.75
743.483	8871.46
743.823	8852.71
744.162	8854.29
744.502	8911.69
744.841	8840.95
745.181	8981.29
745.52	9017.22
745.86	9073.72
746.199	9103.09
746.538	9081.63
746.877	9172.7
747.216	9173.37
747.556	9182.87
747.895	9275.29
748.234	9224.45
748.573	9260.6
748.911	9374.95
749.25	9384.22
749.589	9451.11
749.928	9461.5
750.267	9567.26
750.605	9666.92
750.944	9677.54
751.283	9690.2
751.621	9852.9
751.96	9912.56
752.298	9981.26
752.636	10081.6
752.975	10155.04
753.313	10243.4
753.651	10315.49
753.989	10409.05
754.327	10522.72
754.666	10585.77
755.004	10722.03
755.342	10882.93
755.679	10990.95
756.017	11018.52
756.355	11166.54
756.693	11290.38
757.031	11388.46
757.368	11544.84
757.706	11669.81
758.044	11900.53
758.381	12033.64
758.719	12100.53
759.056	12208.78
759.394	12353.18
759.731	12490.58
760.068	12727.41
760.405	12816.22
760.743	12953.84
761.08	13199.03
761.417	13218.69
761.754	13464.56
762.091	13538.68
762.428	13752.69
762.765	13785
763.102	14029.29
763.438	14195.84
763.775	14332.56
764.112	14509.28
764.449	14664.76
764.785	14739.56
765.122	14882.6
765.458	15036.95
765.795	15099.09
766.131	15317.17
766.467	15376.38
766.804	15434.68
767.14	15634
767.476	15799.64
767.812	15925.29
768.148	16072.85
768.485	16098.39
768.821	16253.87
769.157	16285.73
769.492	16516.01
769.828	16679.62
770.164	16580.86
770.5	16682.78
770.836	16876.67
771.171	16891.14
771.507	16899.95
771.842	17098.14
772.178	17116.22
772.513	17232.6
772.849	17335.87
773.184	17359.83
773.519	17469.65
773.855	17496.09
774.19	17467.39
774.525	17603.66
774.86	17679.37
775.195	17799.14
775.53	17756.43
775.865	17766.37
776.2	17794.39
776.535	17755.52
776.87	17859.93
777.205	17806.59
777.539	17925.01
777.874	18003.2
778.209	17891.56
778.543	18045.01
778.878	18003.42
779.212	18049.3
779.547	17986.48
779.881	18075.06
780.215	18087.72
780.55	18141.95
780.884	18149.41
781.218	18073.03
781.552	18080.03
781.886	18067.15
782.22	18097.89
782.554	18161.39
782.888	18070.99
783.222	17981.28
783.556	17969.08
783.889	17970.21
784.223	17954.39
784.557	17956.65
784.89	18028.96
785.224	17846.37
785.557	17906.93
785.891	17855.63
786.224	17962.75
786.558	17972.47
786.891	17835.29
787.224	17816.76
787.557	17836.88
787.891	17882.98
788.224	17829.42
788.557	17823.99
788.89	17737.44
789.223	17786.71
789.556	17731.12
789.888	17638.46
790.221	17582.65
790.554	17518.24
790.887	17569.09
791.219	17559.82
791.552	17415.42
791.884	17449.32
792.217	17501.52
792.549	17468.07
792.882	17294.97
793.214	17247.29
793.546	17310.11
793.879	17137.23
794.211	17116.89
794.543	17230.79
794.875	17104.69
795.207	17238.7
795.539	17111.02
795.871	17209.32
796.203	16927.52
796.535	16890.23
796.867	16868.54
797.198	16820.86
797.53	16868.09
797.862	16755.77
798.193	16837.35
798.525	16731.14
798.856	16779.05
799.188	16518.94
799.519	16451.15
799.85	16486.63
800.182	16539.06
800.513	16479.85
800.844	16404.82
801.175	16433.97
801.506	16468.55
801.837	16324.82
802.168	16423.13
802.499	16268.78
802.83	16169.57
803.161	16158.95
803.491	16202.79
803.822	16144.04
804.153	16149.24
804.483	15974.33
804.814	15979.3
805.145	15907.21
805.475	15866.53
805.805	15960.31
806.136	15851.62
806.466	15827.21
806.796	15767.1
807.126	15768.23
807.457	15702.92
807.787	15706.08
808.117	15642.58
808.447	15587.22
808.777	15531.4
809.107	15502.47
809.436	15483.94
809.766	15519.65
810.096	15402.82
810.426	15338.18
810.755	15367.79
811.085	15283.95
811.414	15266.32
811.744	15251.41
812.073	15206.21
812.403	15151.07
812.732	15184.52
813.061	15159.88
813.39	15060.45
813.719	14997.63
814.049	15004.18
814.378	15083.73
814.707	14947.01
815.036	14949.72
815.365	14852.1
815.693	14728.71
816.022	14853.68
816.351	14791.08
816.68	14708.6
817.008	14782.04
817.337	14715.38
817.665	14666.11
817.994	14642.38
818.322	14649.16
818.651	14547.92
818.979	14516.96
819.307	14577.75
819.636	14480.58
819.964	14462.95
820.292	14468.6
820.62	14454.59
820.948	14456.4
821.276	14500.69
821.604	14451.43
821.932	14553.35
822.259	14525.1
822.587	14399.9
822.915	14428.6
823.243	14381.83
823.57	14381.6
823.898	14442.84
824.225	14350.64
824.553	14398.55
824.88	14400.58
825.207	14462.95
825.535	14389.96
825.862	14548.6
826.189	14388.6
826.516	14580.46
826.843	14536.62
827.17	14535.95
827.497	14457.3
827.824	14464.53
828.151	14529.17
828.478	14505.89
828.805	14528.49
829.131	14427.47
829.458	14345.44
829.785	14340.47
830.111	14455.27
830.438	14483.29
830.764	14454.14
831.09	14399.9
831.417	14397.87
831.743	14461.37
832.069	14403.97
832.395	14337.98
832.722	14437.19
833.048	14385.89
833.374	14410.75
833.7	14341.6
834.026	14289.62
834.351	14334.14
834.677	14308.15
835.003	14325.78
835.329	14302.96
835.654	14224.99
835.98	14200.14
836.306	14288.49
836.631	14160.59
836.956	14229.74
837.282	14244.88
837.607	14098.22
837.932	14147.71
838.258	14176.18
838.583	14126.69
838.908	14044.88
839.233	14069.29
839.558	13984.1
839.883	14006.69
840.208	14009.18
840.533	13973.93
840.858	13956.53
841.182	13945.45
841.507	13946.13
841.832	13887.6
842.156	13851.44
842.481	13827.04
842.805	13795.85
843.13	13870.43
843.454	13695.06
843.778	13773.93
844.103	13740.03
844.427	13634.73
844.751	13618.68
845.075	13636.53
845.399	13511.57
845.723	13465.47
846.047	13419.14
846.371	13338.24
846.695	13340.04
847.019	13200.84
847.343	13211.91
847.666	13105.93
847.99	13135.08
848.313	13086.27
848.637	12982.54
848.96	13022.76
849.284	12985.48
849.607	12872.71
849.931	12884.24
850.254	12753.62
850.577	12661.87
850.9	12733.51
851.223	12573.96
851.546	12566.73
851.869	12448.77
852.192	12555.66
852.515	12395.44
852.838	12364.93
853.161	12333.74
853.483	12249
853.806	12212.39
854.129	12197.25
854.451	12151.83
854.774	12100.98
855.096	12095.78
855.419	12058.5
855.741	11990.7
856.063	11945.28
856.385	11930.59
856.708	11870.93
857.03	11845.85
857.352	11828.45
857.674	11777.6
857.996	11721.56
858.318	11674.1
858.64	11684.5
858.961	11644.5
859.283	11605.85
859.605	11590.26
859.926	11539.87
860.248	11496.25
860.57	11446.08
860.891	11463.48
861.212	11429.36
861.534	11438.4
861.855	11387.1
862.176	11403.37
862.498	11350.49
862.819	11341.23
863.14	11266.2
863.461	11243.6
863.782	11267.1
864.103	11255.35
864.424	11247.22
864.745	11185.53
865.065	11194.79
865.386	11137.16
865.707	11061.91
866.027	11132.19
866.348	11161.34
866.668	11040.9
866.989	11054
867.309	10961.35
867.63	11057.39
867.95	10972.42
868.27	10931.75
868.59	10980.56
868.91	11009.94
869.23	10934.23
869.55	10925.64
869.87	10968.13
870.19	10828.47
870.51	10916.61
870.83	10947.57
871.15	10809.72
871.469	10806.1
871.789	10779.66
872.109	10802.94
872.428	10772.43
872.748	10782.37
873.067	10734.01
873.386	10753.9
873.706	10697.4
874.025	10649.72
874.344	10625.09
874.663	10647.69
874.982	10660.34
875.301	10668.48
875.62	10581.93
875.939	10510.51
876.258	10534.24
876.577	10573.56
876.896	10493.11
877.214	10526.33
877.533	10489.72
877.852	10485.88
878.17	10425.77
878.489	10489.95
878.807	10444.75
879.125	10366.79
879.444	10411.76
879.762	10438.2
880.08	10408.14
880.398	10341.93
880.716	10352.78
881.034	10287.47
881.352	10294.02
881.67	10161.15
881.988	10223.29
882.306	10165.66
882.624	10176.74
882.941	10132.45
883.259	10130.86
883.577	10071.43
883.894	10086.34
884.212	9985.1
884.529	10052
884.846	9984.88
885.164	9942.62
885.481	9918.21
885.798	9950.53
886.115	9944.88
886.432	9865.11
886.75	9845
887.067	9822.4
887.383	9873.47
887.7	9823.98
888.017	9793.7
888.334	9805.9
888.651	9680.25
888.967	9726.81
889.284	9653.14
889.6	9671.89
889.917	9568.62
890.233	9662.63
890.55	9474.16
890.866	9537.43
891.182	9478.9
891.498	9503.99
891.815	9465.34
892.131	9473.25
892.447	9368.85
892.763	9334.05
893.079	9323.2
893.395	9271.45
893.71	9289.98
894.026	9265.8
894.342	9262.41
894.657	9181.06
894.973	9183.32
895.289	9160.72
895.604	9134.28
895.92	9069.2
896.235	9058.35
896.55	9070.78
896.865	9027.62
897.181	8969.76
897.496	8943.32
897.811	8900.61
898.126	8843.89
898.441	8826.04
898.756	8792.37
899.071	8762.54
899.386	8743.78
899.7	8711.01
900.015	8651.58
900.33	8519.83
900.644	8545.14
900.959	8580.62
901.273	8546.27
901.588	8471.7
901.902	8462.43
902.216	8424.24
902.531	8413.17
902.845	8399.16
903.159	8329.1
903.473	8255.88
903.787	8301.76
904.101	8306.28
904.415	8252.04
904.729	8212.72
905.042	8135.66
905.356	8100.86
905.67	8132.5
905.984	8054.53
906.297	8052.73
906.611	7964.59
906.924	7981.99
907.237	7944.03
907.551	7908.55
907.864	7839.4
908.177	7838.72
908.491	7892.5
908.804	7814.77
909.117	7715.11
909.43	7694.54
909.743	7662.23
910.056	7682.79
910.368	7653.19
910.681	7613.19
910.994	7581.1
911.307	7491.16
911.619	7472.85
911.932	7549.01
912.244	7422.91
912.557	7359.19
912.869	7334.33
913.181	7372.74
913.494	7337.49
913.806	7238.96
914.118	7284.61
914.43	7204.84
914.742	7202.8
915.054	7159.64
915.366	7212.75
915.678	7130.04
915.99	7095.69
916.302	7075.58
916.613	6967.78
916.925	6969.14
917.236	6985.86
917.548	6877.39
917.859	6964.85
918.171	6880.1
918.482	6853.89
918.794	6826.54
919.105	6855.92
919.416	6721.91
919.727	6768.69
920.038	6688.69
920.349	6702.71
920.66	6689.6
920.971	6665.64
921.282	6632.42
921.593	6562.14
921.903	6495.48
922.214	6546.55
922.525	6535.93
922.835	6449.83
923.146	6441.24
923.456	6425.65
923.767	6388.59
924.077	6397.85
924.387	6368.25
924.697	6316.95
925.008	6269.72
925.318	6311.75
925.628	6269.27
925.938	6247.8
926.248	6185.2
926.558	6140.91
926.867	6139.56
927.177	6122.16
927.487	6110.63
927.796	6071.76
928.106	6053.91
928.416	6031.54
928.725	6071.54
929.034	5948.83
929.344	5997.19
929.653	5968.71
929.962	5851.65
930.271	5852.56
930.581	5824.76
930.89	5792.9
931.199	5799.68
931.508	5825.67
931.817	5787.25
932.125	5756.74
932.434	5765.1
932.743	5666.12
933.051	5616.18
933.36	5648.27
933.669	5595.16
933.977	5581.6
934.286	5605.78
934.594	5535.28
934.902	5551.1
935.21	5485.11
935.519	5468.16
935.827	5438.33
936.135	5430.87
936.443	5359.24
936.751	5369.86
937.059	5363.53
937.367	5303.19
937.674	5350.88
937.982	5313.82
938.29	5265.45
938.597	5289.18
938.905	5199.92
939.213	5173.71
939.52	5180.94
939.827	5171.45
940.135	5135.51
940.442	5120.83
940.749	5091.67
941.056	5091.9
941.363	5060.04
941.67	5021.62
941.977	5020.04
942.284	4976.87
942.591	4972.81
942.898	4933.26
943.205	4919.7
943.511	4912.24
943.818	4891.23
944.125	4860.49
944.431	4855.97
944.738	4870.44
945.044	4825.01
945.35	4820.04
945.657	4733.04
945.963	4702.31
946.269	4713.83
946.575	4704.57
946.881	4711.57
947.187	4696.43
947.493	4632.03
947.799	4648.75
948.105	4624.34
948.41	4563.55
948.716	4589.77
949.022	4545.47
949.327	4559.03
949.633	4495.76
949.938	4526.72
950.244	4509.77
950.549	4422.99
950.854	4395.42
951.16	4431.8
951.465	4394.97
951.77	4381.64
952.075	4361.75
952.38	4343.45
952.685	4314.29
952.99	4296.89
953.294	4259.83
953.599	4254.63
953.904	4227.52
954.209	4223.45
954.513	4251.7
954.818	4200.85
955.122	4198.14
955.426	4191.36
955.731	4152.94
956.035	4120.17
956.339	4075.43
956.643	4124.47
956.948	4066.39
957.252	4027.52
957.556	4023.68
957.86	4009.67
958.163	4033.85
958.467	4002.89
958.771	3940.29
959.075	3951.59
959.378	3924.47
959.682	3921.54
959.985	3915.89
960.289	3882.44
960.592	3889.45
960.896	3827.07
961.199	3785.04
961.502	3814.65
961.805	3773.06
962.108	3748.88
962.411	3765.83
962.714	3726.29
963.017	3747.98
963.32	3729.22
963.623	3651.03
963.926	3680.86
964.228	3636.57
964.531	3654.88
964.833	3645.16
965.136	3617.14
965.438	3607.42
965.741	3572.84
966.043	3527.87
966.345	3588.44
966.648	3530.81
966.95	3543.47
967.252	3524.94
967.554	3500.76
967.856	3448.33
968.158	3480.87
968.46	3436.12
968.761	3459.85
969.063	3434.99
969.365	3402.23
969.666	3411.04
969.968	3359.06
970.269	3376.01
970.571	3338.5
970.872	3340.99
971.174	3310.48
971.475	3314.77
971.776	3296.69
972.077	3293.98
972.378	3279.52
972.679	3286.52
972.98	3229.8
973.281	3218.95
973.582	3196.58
973.883	3187.09
974.183	3182.12
974.484	3193.42
974.785	3178.96
975.085	3149.8
975.386	3162.23
975.686	3136.02
975.986	3134.89
976.287	3084.72
976.587	3049.92
976.887	3072.97
977.187	3037.04
977.487	3035.46
977.787	3033.65
978.087	3010.82
978.387	2995.23
978.687	2976.02
978.987	2928.34
979.286	2939.41
979.586	2960.88
979.885	2930.6
980.185	2904.84
980.484	2859.42
980.784	2872.52
981.083	2887.66
981.382	2870.94
981.682	2864.84
981.981	2837.04
982.28	2824.84
982.579	2817.61
982.878	2788.01
983.177	2785.75
983.475	2776.03
983.774	2736.93
984.073	2765.63
984.372	2733.54
984.67	2686.54
984.969	2738.97
985.267	2702.58
985.566	2663.26
985.864	2698.06
986.162	2648.8
986.461	2634.56
986.759	2650.16
987.057	2614.45
987.355	2630.27
987.653	2602.93
987.951	2598.63
988.249	2588.46
988.547	2592.98
988.844	2578.52
989.142	2530.84
989.44	2544.4
989.737	2510.95
990.035	2505.75
990.332	2495.81
990.63	2528.58
990.927	2491.74
991.224	2451.74
991.521	2462.82
991.819	2439.09
992.116	2458.07
992.413	2418.75
992.71	2437.51
993.006	2404.74
993.303	2360.22
993.6	2388.69
993.897	2343.27
994.193	2351.41
994.49	2329.94
994.787	2308.92
995.083	2306.44
995.379	2288.13
995.676	2302.14
995.972	2286.32
996.268	2308.92
996.565	2255.14
996.861	2259.21
997.157	2238.64
997.453	2229.15
997.749	2205.42
998.044	2212.65
998.34	2222.14
998.636	2182.6
998.932	2207.68
999.227	2136.27
999.523	2164.52
999.818	2121.36
1000.114	2159.55
1000.409	2120.68
1000.704	2113.67
1001	2076.84
1001.295	2089.04
1001.59	2085.2
1001.885	2063.51
1002.18	2057.86
1002.475	2052.66
1002.77	2033
1003.065	2034.35
1003.359	2016.73
1003.654	2003.39
1003.949	2004.75
1004.243	1954.36
1004.538	1968.14
1004.832	1974.02
1005.127	1953.23
1005.421	1928.59
1005.715	1918.65
1006.009	1915.94
1006.304	1891.53
1006.598	1916.16
1006.892	1865.77
1007.186	1861.25
1007.48	1872.1
1007.773	1881.59
1008.067	1842.27
1008.361	1830.74
1008.655	1798.88
1008.948	1773.12
1009.242	1809.95
1009.535	1785.32
1009.829	1784.64
1010.122	1747.58
1010.415	1770.18
1010.708	1741.93
1011.001	1740.12
1011.295	1717.98
1011.588	1732.21
1011.881	1694.25
1012.173	1674.81
1012.466	1723.18
1012.759	1677.75
1013.052	1666.68
1013.344	1661.03
1013.637	1656.51
1013.93	1662.16
1014.222	1629.39
1014.514	1612.22
1014.807	1613.35
1015.099	1599.11
1015.391	1577.87
1015.683	1583.29
1015.976	1563.86
1016.268	1547.81
1016.56	1547.13
1016.851	1568.15
1017.143	1517.53
1017.435	1531.99
1017.727	1522.05
1018.018	1499.9
1018.31	1478.66
1018.602	1475.05
1018.893	1481.15
1019.185	1477.76
1019.476	1456.29
1019.767	1443.41
1020.058	1441.83
1020.35	1405.67
1020.641	1412.9
1020.932	1383.97
1021.223	1391.66
1021.514	1392.11
1021.804	1378.1
1022.095	1372.45
1022.386	1383.97
1022.677	1356.63
1022.967	1351.43
1023.258	1352.11
1023.548	1342.39
1023.839	1325.9
1024.129	1329.74
1024.419	1317.99
1024.709	1328.38
1025	1297.2
1025.29	1290.19
1025.58	1283.64
1025.87	1262.17
1026.16	1268.5
1026.449	1251.32
1026.739	1244.32
1027.029	1205.67
1027.319	1226.69
1027.608	1210.42
1027.898	1209.52
1028.187	1208.61
1028.477	1213.81
1028.766	1181.49
1029.055	1196.18
1029.344	1184.88
1029.634	1176.75
1029.923	1173.13
1030.212	1143.3
1030.501	1136.98
1030.79	1137.2
1031.078	1138.33
1031.367	1121.83
1031.656	1100.37
1031.945	1127.26
1032.233	1105.34
1032.522	1119.12
1032.81	1088.16
1033.099	1065.57
1033.387	1061.27
1033.675	1080.03
1033.963	1068.5
1034.251	1070.99
1034.54	1034.15
1034.828	1045.23
1035.116	1030.09
1035.403	1015.85
1035.691	1024.66
1035.979	1025.79
1036.267	1035.96
1036.554	1018.33
1036.842	999.35
1037.129	995.96
1037.417	983.08
1037.704	1011.78
1037.992	980.14
1038.279	948.05
1038.566	953.48
1038.853	953.48
1039.14	953.48
