Data from hue_120_FLMS001491_00059.txt Node
Date: Tue Feb 07 16:59:41 GMT 2017
User: dcchb
Spectrometer: FLMS00149
Trigger mode: 0
Integration Time (sec): 2.000000E-2
Scans to average: 10
Electric dark correction enabled: true
Nonlinearity correction enabled: false
Boxcar width: 0
XAxis mode: Wavelengths
Number of Pixels in Spectrum: 2048
>>>>>Begin Spectral Data<<<<<
341.393	-6.16
341.776	-6.16
342.16	-6.16
342.543	-82.09
342.927	-65.59
343.31	-59.04
343.693	-54.07
344.077	-54.52
344.46	-56.78
344.843	-63.56
345.226	-42.32
345.61	-22.88
345.993	-19.27
346.376	-9.55
346.759	18.47
347.142	15.31
347.525	36.55
347.908	46.72
348.291	66.83
348.674	101.41
349.057	96.66
349.44	128.75
349.823	130.79
350.206	156.1
350.588	186.15
350.971	211.24
351.354	202.65
351.737	240.16
352.119	233.84
352.502	242.2
352.884	269.99
353.267	281.29
353.65	273.16
354.032	316.09
354.414	303.44
354.797	318.13
355.179	330.33
355.562	323.1
355.944	324.23
356.326	335.75
356.709	330.56
357.091	331.23
357.473	326.26
357.855	321.97
358.238	331.01
358.62	323.55
359.002	331.01
359.384	335.53
359.766	350.89
360.148	342.08
360.53	348.18
360.912	329.88
361.294	352.7
361.676	324.68
362.057	316.77
362.439	322.42
362.821	337.79
363.203	331.23
363.584	328.07
363.966	324.45
364.348	327.62
364.729	313.83
365.111	315.87
365.493	319.03
365.874	321.97
366.256	305.7
366.637	315.42
367.019	313.83
367.4	305.7
367.781	302.99
368.163	314.96
368.544	316.77
368.925	296.21
369.306	318.58
369.688	297.79
370.069	318.81
370.45	309.77
370.831	309.77
371.212	317.45
371.593	302.99
371.974	343.44
372.355	320.39
372.736	313.83
373.117	323.55
373.498	344.12
373.879	316.55
374.26	317.45
374.641	298.69
375.021	312.93
375.402	323.78
375.783	336.43
376.163	321.29
376.544	324.91
376.925	317.68
377.305	336.43
377.686	335.53
378.066	318.35
378.447	330.56
378.827	330.78
379.208	328.52
379.588	335.98
379.968	335.08
380.349	341.18
380.729	338.92
381.109	318.81
381.489	335.08
381.87	341.18
382.25	333.27
382.63	327.62
383.01	330.33
383.39	356.77
383.77	343.21
384.15	339.37
384.53	338.92
384.91	328.07
385.29	345.7
385.67	358.8
386.049	347.96
386.429	369.2
386.809	343.66
387.189	338.47
387.568	361.06
387.948	368.52
388.328	359.71
388.707	351.8
389.087	361.52
389.466	379.37
389.846	371.01
390.225	354.51
390.605	365.36
390.984	365.58
391.363	386.6
391.743	372.59
392.122	358.8
392.501	370.33
392.881	371.46
393.26	396.32
393.639	374.4
394.018	368.52
394.397	385.24
394.776	370.78
395.155	381.4
395.534	380.27
395.913	386.6
396.292	407.84
396.671	385.24
397.05	378.69
397.429	391.35
397.808	410.78
398.186	394.96
398.565	394.06
398.944	383.89
399.323	390.67
399.701	383.89
400.08	407.84
400.458	398.35
400.837	412.81
401.215	396.32
401.594	396.54
401.972	405.13
402.351	400.84
402.729	410.78
403.107	412.36
403.486	418.92
403.864	414.17
404.242	411.46
404.62	427.5
404.999	406.94
405.377	415.3
405.755	402.64
406.133	418.01
406.511	425.92
406.889	434.51
407.267	414.4
407.645	427.5
408.023	445.58
408.401	434.06
408.779	443.1
409.156	426.37
409.534	444.23
409.912	458.01
410.29	454.39
410.667	444.45
411.045	479.93
411.422	451.23
411.8	468.86
412.178	462.3
412.555	473.38
412.933	481.96
413.31	492.36
413.687	465.02
414.065	469.76
414.442	476.77
414.819	483.09
415.197	484.45
415.574	504.11
415.951	523.32
416.328	506.14
416.705	508.4
417.082	500.72
417.46	494.39
417.837	505.24
418.214	502.76
418.591	506.82
418.967	530.1
419.344	531.45
419.721	538.01
420.098	518.57
420.475	512.7
420.852	547.05
421.228	525.81
421.605	527.84
421.982	556.77
422.358	528.97
422.735	519.25
423.111	524
423.488	557.67
423.864	549.99
424.241	575.07
424.617	569.65
424.994	561.28
425.37	592.24
425.746	569.65
426.123	589.08
426.499	600.15
426.875	577.1
427.251	585.92
427.627	592.47
428.003	606.71
428.379	611
428.756	578.01
429.132	611.68
429.507	635.63
429.883	629.98
430.259	621.4
430.635	621.62
431.011	641.06
431.387	653.03
431.763	636.76
432.138	676.31
432.514	653.71
432.89	666.14
433.265	686.71
433.641	669.98
434.016	665.46
434.392	691.45
434.767	698.23
435.143	697.78
435.518	696.2
435.894	711.11
436.269	719.47
436.644	711.34
437.02	731
437.395	729.64
437.77	738.46
438.145	749.98
438.52	735.29
438.895	770.77
439.271	745.23
439.646	749.98
440.021	780.49
440.395	754.05
440.77	795.85
441.145	790.66
441.52	762.18
441.895	775.74
442.27	803.99
442.645	802.18
443.019	817.55
443.394	795.85
443.769	797.66
444.143	804.89
444.518	854.38
444.892	819.36
445.267	846.25
445.641	837.89
446.016	833.59
446.39	823.65
446.764	858.23
447.139	881.28
447.513	850.09
447.887	838.34
448.262	860.94
448.636	892.12
449.01	888.96
449.384	876.3
449.758	861.62
450.132	879.02
450.506	911.11
450.88	907.49
451.254	894.84
451.628	915.4
452.002	928.96
452.376	937.55
452.75	944.1
453.123	937.55
453.497	975.74
453.871	971.67
454.244	974.83
454.618	1002.18
454.992	975.96
455.365	1001.95
455.739	1003.31
456.112	1024.32
456.486	1027.04
456.859	1054.15
457.232	1049.63
457.606	1067.71
457.979	1046.24
458.352	1070.88
458.725	1128.73
459.099	1116.75
459.472	1120.59
459.845	1159.24
460.218	1168.73
460.591	1152.46
460.964	1146.58
461.337	1209.63
461.71	1201.72
462.083	1242.17
462.456	1222.51
462.829	1227.03
463.201	1260.02
463.574	1273.36
463.947	1288.05
464.32	1286.01
464.692	1304.77
465.065	1331.89
465.438	1362.85
465.81	1380.47
466.183	1383.86
466.555	1405.33
466.928	1449.17
467.3	1434.71
467.672	1481.26
468.045	1520.36
468.417	1513.35
468.789	1523.52
469.161	1559.9
469.534	1588.6
469.906	1632.22
470.278	1672.67
470.65	1649.62
471.022	1705.89
471.394	1698.43
471.766	1739.56
472.138	1770.07
472.51	1815.94
472.882	1853
473.253	1888.48
473.625	1941.81
473.997	1956.05
474.369	1992.89
474.74	2027.69
475.112	2088.25
475.484	2138.64
475.855	2178.64
476.227	2196.04
476.598	2309.26
476.97	2325.76
477.341	2377.73
477.713	2485.3
478.084	2472.19
478.455	2552.64
478.827	2612.53
479.198	2703.38
479.569	2782.47
479.94	2858.4
480.311	2913.54
480.682	3014.78
481.053	3114.21
481.424	3187.43
481.795	3219.29
482.166	3325.28
482.537	3415.67
482.908	3530.92
483.279	3624.25
483.65	3717.81
484.021	3808.43
484.391	3867.86
484.762	3977.69
485.133	4092.04
485.503	4168.65
485.874	4300.4
486.244	4353.95
486.615	4516.66
486.985	4645.7
487.356	4771.8
487.726	4829.2
488.097	5002.07
488.467	5124.1
488.837	5275.96
489.207	5323.42
489.578	5506.47
489.948	5621.49
490.318	5776.29
490.688	5854.48
491.058	5968.15
491.428	6145.77
491.798	6275.03
492.168	6459.21
492.538	6524.29
492.908	6705.53
493.278	6826.43
493.648	6897.84
494.017	6992.08
494.387	7116.14
494.757	7251.5
495.126	7363.14
495.496	7494.89
495.866	7580.31
496.235	7694.2
496.605	7939.17
496.974	8013.29
497.344	8062.33
497.713	8236.79
498.082	8288.09
498.452	8410.8
498.821	8601.98
499.19	8635.42
499.559	8729.66
499.928	8833.16
500.298	8969.65
500.667	9084
501.036	9107.95
501.405	9292.81
501.774	9381.84
502.143	9412.8
502.512	9559.24
502.88	9545
503.249	9626.13
503.618	9697.99
503.987	9831.55
504.356	9925.11
504.724	9980.02
505.093	10072.67
505.462	10152.44
505.83	10189.96
506.199	10304.53
506.567	10471.76
506.936	10480.8
507.304	10543.85
507.672	10607.57
508.041	10702.94
508.409	10783.39
508.777	10816.16
509.145	10935.93
509.514	10955.36
509.882	11067.9
510.25	11064.96
510.618	11123.27
510.986	11201.23
511.354	11243.72
511.722	11390.15
512.09	11479.19
512.458	11411.17
512.826	11594.44
513.193	11545.4
513.561	11640.09
513.929	11767.77
514.297	11682.57
514.664	11773.65
515.032	11821.55
515.4	11936.35
515.767	11920.53
516.135	11987.42
516.502	11831.72
516.869	12049.34
517.237	12094.54
517.604	11984.26
517.972	12124.14
518.339	12170.92
518.706	12250.47
519.073	12197.81
519.44	12239.62
519.808	12302.9
520.175	12261.99
520.542	12458.37
520.909	12403.46
521.276	12367.98
521.643	12456.57
522.009	12493.17
522.376	12561.87
522.743	12547.86
523.11	12657.01
523.477	12679.84
523.843	12795.31
524.21	12837.8
524.577	12862.88
524.943	12877.12
525.31	12920.51
525.676	12974.52
526.043	12973.61
526.409	12974.74
526.776	13140.61
527.142	13072.82
527.508	13022.65
527.874	13068.75
528.241	13126.15
528.607	13078.24
528.973	13092.48
529.339	12993.5
529.705	13251.8
530.071	13254.28
530.437	13198.92
530.803	13203.44
531.169	13276.43
531.535	13174.06
531.901	13099.26
532.267	13142.87
532.632	13226.04
532.998	13092.25
533.364	13140.16
533.73	13153.27
534.095	13175.64
534.461	13099.03
534.826	13168.41
535.192	13233.04
535.557	13190.78
535.923	13110.33
536.288	13105.36
536.653	13108.98
537.019	12985.82
537.384	13078.47
537.749	13004.12
538.114	12999.6
538.479	12986.27
538.845	12971.13
539.21	12889.77
539.575	12820.17
539.94	12842.54
540.305	12869.66
540.67	12663.79
541.034	12778.82
541.399	12798.93
541.764	12701.3
542.129	12701.53
542.494	12682.32
542.858	12652.72
543.223	12662.89
543.587	12684.13
543.952	12587.64
544.316	12553.29
544.681	12512.83
545.045	12534.76
545.41	12482.78
545.774	12482.55
546.138	12387.41
546.503	12426.96
546.867	12378.15
547.231	12447.75
547.595	12275.33
547.959	12378.38
548.324	12195.78
548.688	12218.61
549.052	12195.1
549.416	12204.37
549.779	12131.38
550.143	12110.13
550.507	12148.55
550.871	12103.58
551.235	12058.84
551.599	12109.23
551.962	12083.02
552.326	11985.62
552.689	11973.64
553.053	11995.33
553.417	11908.1
553.78	11946.52
554.143	11913.98
554.507	11982.91
554.87	11892.74
555.234	11959.86
555.597	11844.6
555.96	11873.98
556.323	11847.77
556.686	11761.89
557.05	11828.33
557.413	11832.63
557.776	11838.95
558.139	11824.49
558.502	11796.24
558.865	11854.55
559.228	11827.88
559.59	11840.76
559.953	11827.88
560.316	11909.46
560.679	11817.71
561.041	11814.1
561.404	11871.27
561.767	11827.2
562.129	11785.17
562.492	11925.51
562.854	11832.63
563.217	11816.58
563.579	11830.37
563.941	11917.82
564.304	11906.75
564.666	11913.08
565.028	11843.02
565.39	11834.21
565.753	12005.5
566.115	11868.56
566.477	12008.67
566.839	11917.82
567.201	12054.32
567.563	11975.22
567.925	11949.69
568.287	12018.61
568.648	11969.57
569.01	12077.37
569.372	12077.37
569.734	11985.84
570.095	12056.35
570.457	12109.23
570.819	12113.75
571.18	12072.39
571.542	12149.68
571.903	12149.68
572.265	12246.85
572.626	12148.55
572.987	12174.54
573.349	12216.12
573.71	12182.67
574.071	12119.4
574.432	12223.12
574.794	12233.52
575.155	12320.3
575.516	12181.09
575.877	12303.35
576.238	12231.71
576.599	12319.62
576.96	12276.23
577.32	12236.68
577.681	12274.2
578.042	12344.03
578.403	12282.56
578.763	12281.43
579.124	12319.62
579.485	12330.92
579.845	12431.26
580.206	12326.17
580.566	12309.68
580.927	12304.03
581.287	12303.57
581.648	12187.19
582.008	12311.26
582.368	12249.56
582.728	12299.73
583.089	12359.84
583.449	12354.19
583.809	12358.49
584.169	12305.38
584.529	12267.64
584.889	12400.75
585.249	12229.9
585.609	12220.64
585.969	12337.02
586.329	12202.56
586.688	12181.09
587.048	12167.53
587.408	12173.41
587.768	12213.86
588.127	12172.28
588.487	12181.54
588.846	12187.19
589.206	12175.67
589.565	12190.58
589.925	12226.74
590.284	12123.92
590.643	12181.09
591.003	12148.32
591.362	12110.36
591.721	12120.53
592.08	12106.74
592.44	12118.49
592.799	12142
593.158	12018.84
593.517	12107.87
593.876	12151.71
594.235	12040.3
594.593	12081.43
594.952	12068.55
595.311	11979.29
595.67	12139.29
596.029	12119.85
596.387	12169.79
596.746	12120.53
597.104	12042.11
597.463	12105.61
597.822	12140.64
598.18	12084.15
598.538	11999.4
598.897	11978.39
599.255	11979.06
599.613	12120.98
599.972	12066.29
600.33	12088.44
600.688	11997.82
601.046	12109.91
601.404	12084.15
601.762	12043.92
602.12	12074.65
602.478	12082.79
602.836	12007.09
603.194	11993.53
603.552	11982.23
603.91	11963.47
604.268	12050.25
604.625	12045.28
604.983	11994.88
605.341	12044.6
605.698	11935.45
606.056	12113.3
606.413	12089.34
606.771	12084.82
607.128	12150.58
607.485	12130.47
607.843	12004.15
608.2	12073.52
608.557	12069.68
608.914	12139.29
609.272	12130.25
609.629	12197.36
609.986	12176.57
610.343	12097.03
610.7	12131.15
611.057	12177.25
611.414	12137.93
611.771	12119.85
612.127	12311.94
612.484	12211.6
612.841	12242.33
613.198	12210.24
613.554	12248.89
613.911	12248.89
614.267	12231.71
614.624	12255.89
614.98	12198.49
615.337	12289.11
615.693	12379.73
616.05	12316.46
616.406	12349
616.762	12318.94
617.118	12363.46
617.475	12286.63
617.831	12478.26
618.187	12287.98
618.543	12402.33
618.899	12365.27
619.255	12304.7
619.611	12324.37
619.967	12506.51
620.323	12461.76
620.678	12426.96
621.034	12374.99
621.39	12371.6
621.746	12345.38
622.101	12535.66
622.457	12413.18
622.812	12387.41
623.168	12436.45
623.523	12345.16
623.879	12499.28
624.234	12415.44
624.589	12430.35
624.945	12486.17
625.3	12471.71
625.655	12473.29
626.01	12448.2
626.365	12455.44
626.72	12403.91
627.075	12431.03
627.43	12377.47
627.785	12415.89
628.14	12369.34
628.495	12431.93
628.85	12341.99
629.205	12334.99
629.559	12437.58
629.914	12366.17
630.269	12307.19
630.623	12266.06
630.978	12215.22
631.332	12325.95
631.687	12373.4
632.041	12324.59
632.396	12337.25
632.75	12179.28
633.104	12192.17
633.459	12200.53
633.813	12241.2
634.167	12218.61
634.521	12212.5
634.875	12209.11
635.229	12192.62
635.583	12098.16
635.937	12140.19
636.291	12090.47
636.645	12128.89
636.999	12066.74
637.352	12104.48
637.706	12059.29
638.06	12075.11
638.413	12020.87
638.767	11993.53
639.121	12006.86
639.474	11931.38
639.828	12000.31
640.181	11979.97
640.534	11954.43
640.888	11942.45
641.241	11874.43
641.594	11932.51
641.947	11883.92
642.301	11939.06
642.654	11895
643.007	11860.87
643.36	11866.07
643.713	11823.36
644.066	11889.57
644.419	11813.64
644.771	11756.02
645.124	11608.45
645.477	11562.8
645.83	11528.23
646.182	11501.34
646.535	11447.78
646.888	11551.96
647.24	11564.16
647.593	11510.38
647.945	11535.46
648.298	11499.98
648.65	11480.09
649.002	11404.84
649.355	11540.88
649.707	11481.22
650.059	11545.63
650.411	11662.24
650.763	11658.17
651.115	11765.06
651.467	11711.73
651.819	11649.81
652.171	11657.26
652.523	11656.36
652.875	11660.43
653.227	11561.9
653.578	11790.59
653.93	11716.47
654.282	11621.33
654.633	11600.54
654.985	11587.21
655.337	11748.79
655.688	11725.74
656.039	11752.18
656.391	11689.81
656.742	11682.12
657.094	11686.87
657.445	11709.01
657.796	11741.1
658.147	11681.9
658.498	11679.18
658.849	11782.23
659.2	11719.86
659.551	11706.75
659.902	11748.34
660.253	11667.43
660.604	11651.61
660.955	11707.43
661.306	11727.77
661.656	11715.57
662.007	11802.57
662.358	11709.92
662.708	11756.7
663.059	11778.39
663.409	11727.32
663.76	11797.83
664.11	11830.14
664.461	11814.77
664.811	11721.67
665.161	11798.96
665.511	11784.94
665.862	11787.43
666.212	11795.11
666.562	11812.29
666.912	11723.7
667.262	11818.16
667.612	11749.92
667.962	11705.62
668.312	11723.25
668.662	11749.24
669.011	11737.04
669.361	11758.73
669.711	11729.8
670.06	11734.32
670.41	11703.36
670.76	11673.31
671.109	11697.26
671.459	11756.7
671.808	11700.43
672.157	11660.2
672.507	11610.49
672.856	11655.46
673.205	11646.42
673.554	11663.37
673.904	11661.11
674.253	11648.9
674.602	11651.39
674.951	11466.08
675.3	11467.44
675.649	11601.67
675.998	11589.92
676.346	11582.92
676.695	11587.89
677.044	11504.73
677.393	11499.53
677.741	11625.63
678.09	11548.57
678.438	11448.46
678.787	11451.17
679.135	11516.7
679.484	11398.74
679.832	11433.09
680.181	11433.32
680.529	11391.73
680.877	11351.06
681.225	11339.98
681.573	11479.42
681.922	11384.05
682.27	11268.35
682.618	11316.26
682.966	11259.76
683.314	11244.62
683.661	11195.81
684.009	11179.31
684.357	11175.24
684.705	11078.97
685.053	11143.15
685.4	11058.64
685.748	11029.03
686.095	11078.75
686.443	10985.19
686.79	10966.43
687.138	11037.17
687.485	11056.15
687.832	11000.33
688.18	10904.52
688.527	10940.22
688.874	10942.03
689.221	10857.74
689.568	10828.81
689.915	10840.79
690.262	10739.32
690.609	10729.83
690.956	10697.06
691.303	10638.76
691.65	10685.09
691.997	10603.96
692.344	10554.24
692.69	10494.81
693.037	10546.33
693.383	10461.14
693.73	10430.4
694.077	10406.9
694.423	10402.38
694.769	10378.65
695.116	10342.95
695.462	10329.39
695.808	10248.71
696.155	10248.71
696.501	10207.36
696.847	10160.13
697.193	10092.33
697.539	10071.77
697.885	10064.09
698.231	10018.89
698.577	9969.62
698.923	9989.29
699.269	9904.54
699.614	9896.86
699.96	9760.36
700.306	9851.66
700.651	9719.91
700.997	9762.17
701.342	9758.78
701.688	9737.09
702.033	9673.14
702.379	9624.1
702.724	9576.64
703.069	9624.55
703.415	9508.85
703.76	9484.44
704.105	9441.28
704.45	9509.52
704.795	9316.08
705.14	9414.61
705.485	9380.49
705.83	9275.63
706.175	9333.26
706.52	9234.05
706.865	9195.41
707.209	9187.27
707.554	9178.91
707.899	9222.53
708.243	9120.61
708.588	9133.49
708.932	9067.73
709.277	9035.86
709.621	9059.82
709.966	8953.15
710.31	9033.6
710.654	8959.26
710.998	8912.93
711.342	8937.34
711.687	8868.41
712.031	8887.85
712.375	8782.09
712.719	8903.44
713.063	8879.26
713.407	8871.12
713.75	8791.8
714.094	8748.87
714.438	8748.64
714.782	8753.39
715.125	8712.26
715.469	8701.86
715.812	8661.41
716.156	8647.85
716.499	8673.16
716.843	8637.46
717.186	8568.98
717.53	8583.22
717.873	8596.55
718.216	8622.99
718.559	8582.99
718.902	8468.2
719.246	8529.66
719.589	8544.8
719.932	8443.11
720.275	8522.21
720.617	8406.73
720.96	8566.72
721.303	8528.76
721.646	8484.69
721.989	8373.73
722.331	8447.86
722.674	8451.47
723.016	8420.51
723.359	8413.28
723.701	8454.41
724.044	8386.16
724.386	8349.78
724.729	8419.16
725.071	8392.72
725.413	8323.34
725.755	8326.5
726.097	8293.06
726.439	8272.04
726.782	8284.47
727.124	8327.41
727.465	8260.97
727.807	8327.86
728.149	8295.77
728.491	8262.33
728.833	8259.16
729.175	8254.64
729.516	8257.13
729.858	8267.52
730.199	8240.63
730.541	8206.28
730.882	8219.84
731.224	8243.34
731.565	8188.43
731.906	8185.49
732.248	8310.91
732.589	8214.87
732.93	8198.15
733.271	8229.56
733.612	8240.18
733.953	8269.1
734.294	8248.54
734.635	8213.29
734.976	8306.17
735.317	8157.24
735.658	8189.78
735.999	8211.03
736.339	8211.93
736.68	8225.04
737.021	8162.44
737.361	8205.38
737.702	8221.42
738.042	8195.43
738.383	8198.15
738.723	8288.31
739.063	8278.6
739.404	8291.93
739.744	8282.66
740.084	8241.99
740.424	8307.75
740.764	8294.64
741.104	8313.62
741.444	8294.64
741.784	8296.9
742.124	8333.74
742.464	8361.98
742.804	8395.88
743.143	8411.25
743.483	8379.38
743.823	8432.49
744.162	8446.95
744.502	8532.15
744.841	8467.97
745.181	8545.93
745.52	8535.54
745.86	8573.05
746.199	8586.16
746.538	8599.72
746.877	8673.16
747.216	8798.81
747.556	8737.11
747.895	8830.22
748.234	8907.73
748.573	8874.74
748.911	8959.03
749.25	9001.06
749.589	9016.2
749.928	9079.25
750.267	9194.96
750.605	9273.37
750.944	9276.99
751.283	9306.14
751.621	9431.79
751.96	9508.62
752.298	9601.5
752.636	9719.24
752.975	9790.42
753.313	9829.74
753.651	10017.08
753.989	10051.43
754.327	10185.89
754.666	10233.35
755.004	10398.54
755.342	10517.18
755.679	10660.68
756.017	10728.25
756.355	10850.05
756.693	11021.12
757.031	11128.92
757.368	11293.43
757.706	11348.12
758.044	11558.28
758.381	11638.96
758.719	11827.66
759.056	11911.95
759.394	12008.67
759.731	12247.31
760.068	12355.55
760.405	12436.23
760.743	12586.51
761.08	12851.36
761.417	12920.28
761.754	13041.63
762.091	13216.77
762.428	13424
762.765	13476.88
763.102	13771.78
763.438	13815.63
763.775	13988.73
764.112	14210.19
764.449	14257.2
764.785	14534.93
765.122	14534.7
765.458	14723.85
765.795	14897.63
766.131	15075.93
766.467	15099.66
766.804	15131.98
767.14	15294.46
767.476	15460.33
767.812	15662.58
768.148	15753.2
768.485	15733.54
768.821	15838.4
769.157	16038.62
769.492	16114.32
769.828	16272.51
770.164	16285.84
770.5	16455.33
770.836	16572.62
771.171	16525.16
771.507	16698.49
771.842	16681.31
772.178	16738.94
772.513	17025.71
772.849	17020.51
773.184	17021.87
773.519	17215.31
773.855	17190.45
774.19	17238.81
774.525	17249.21
774.86	17366.94
775.195	17479.03
775.53	17509.31
775.865	17517.22
776.2	17526.49
776.535	17528.07
776.87	17500.05
777.205	17621.63
777.539	17603.32
777.874	17722.42
778.209	17603.32
778.543	17779.36
778.878	17676.09
779.212	17717.44
779.547	17777.33
779.881	17876.31
780.215	17705.24
780.55	17963.09
780.884	17803.32
781.218	17850.55
781.552	17906.59
781.886	17845.12
782.22	17750.89
782.554	17830.44
782.888	17702.08
783.222	17776.2
783.556	17702.3
783.889	17733.26
784.223	17630.89
784.557	17641.51
784.89	17710.21
785.224	17603.32
785.557	17633.38
785.891	17598.12
786.224	17555.64
786.558	17649.2
786.891	17495.08
787.224	17500.73
787.557	17492.14
787.891	17488.98
788.224	17423.21
788.557	17477.9
788.89	17531.46
789.223	17467.05
789.556	17395.64
789.888	17333.73
790.221	17293.5
790.554	17134.63
790.887	17257.34
791.219	17119.72
791.552	17170.57
791.884	17138.48
792.217	17046.95
792.549	17073.62
792.882	17010.34
793.214	16911.82
793.546	16927.41
793.879	16917.24
794.211	16834.08
794.543	16934.64
794.875	16850.12
795.207	16898.93
795.539	16782.78
795.871	16809.9
796.203	16683.57
796.535	16594.08
796.867	16658.71
797.198	16498.94
797.53	16573.29
797.862	16414.43
798.193	16512.73
798.525	16454.65
798.856	16450.58
799.188	16336.92
799.519	16286.75
799.85	16218.73
800.182	16169.01
800.513	16231.61
800.844	16041.56
801.175	16229.35
801.506	16140.76
801.837	16082.46
802.168	15985.06
802.499	15915.01
802.83	15940.09
803.161	15866.87
803.491	15906.87
803.822	15856.25
804.153	15786.65
804.483	15704.84
804.814	15673.88
805.145	15588.69
805.475	15639.31
805.805	15563.83
806.136	15553.21
806.466	15649.48
806.796	15544.39
807.126	15446.54
807.457	15411.52
807.787	15448.8
808.117	15388.24
808.447	15255.59
808.777	15228.7
809.107	15273.67
809.436	15201.8
809.766	15214.46
810.096	15155.03
810.426	15083.84
810.755	15174.01
811.085	15074.8
811.414	15101.92
811.744	14888.82
812.073	14883.62
812.403	14882.04
812.732	14858.54
813.061	14859.67
813.39	14762.04
813.719	14737.64
814.049	14852.21
814.378	14740.57
814.707	14715.94
815.036	14706
815.365	14702.61
815.693	14459
816.022	14609.95
816.351	14518.43
816.68	14505.1
817.008	14524.76
817.337	14360.7
817.665	14414.71
817.994	14358.89
818.322	14446.12
818.651	14245.67
818.979	14211.32
819.307	14344.65
819.636	14303.75
819.964	14163.86
820.292	14346.01
820.62	14259
820.948	14207.03
821.276	14256.29
821.604	14150.08
821.932	14152.57
822.259	14207.93
822.587	14219
822.915	14200.7
823.243	14230.98
823.57	14137.88
823.898	14153.02
824.225	14163.19
824.553	14143.53
824.88	14120.48
825.207	14085.67
825.535	14214.49
825.862	14272.34
826.189	14151.44
826.516	14275.73
826.843	14214.71
827.17	14237.99
827.497	14230.76
827.824	14161.15
828.151	14164.99
828.478	14274.37
828.805	14327.48
829.131	14144.2
829.458	14132.23
829.785	14096.75
830.111	14116.63
830.438	14241.15
830.764	14178.1
831.09	14273.47
831.417	14126.8
831.743	14148.72
832.069	14125.45
832.395	14119.35
832.722	14182.85
833.048	14070.31
833.374	14065.11
833.7	14053.81
834.026	14035.28
834.351	14097.2
834.677	14136.52
835.003	14017.2
835.329	14100.36
835.654	14045.68
835.98	13954.15
836.306	14033.25
836.631	13983.76
836.956	13984.21
837.282	13981.72
837.607	13819.47
837.932	13873.7
838.258	13864.21
838.583	13802.74
838.908	13800.48
839.233	13864.89
839.558	13741.5
839.883	13696.76
840.208	13694.27
840.533	13640.94
840.858	13686.36
841.182	13744.67
841.507	13713.26
841.832	13595.29
842.156	13572.69
842.481	13593.48
842.805	13591.22
843.13	13502.87
843.454	13501.06
843.778	13435.3
844.103	13451.34
844.427	13380.61
844.751	13344.23
845.075	13259.71
845.399	13330.44
845.723	13216.09
846.047	13307.39
846.371	13078.92
846.695	13080.73
847.019	13013.39
847.343	12891.36
847.666	12966.83
847.99	12892.03
848.313	12873.73
848.637	12803.45
848.96	12678.48
849.284	12700.17
849.607	12629.44
849.931	12662.44
850.254	12540.18
850.577	12456.57
850.9	12406.62
851.223	12417.92
851.546	12292.05
851.869	12240.07
852.192	12280.52
852.515	12142.68
852.838	12121.21
853.161	12034.88
853.483	12054.32
853.806	12014.09
854.129	11991.04
854.451	11922.12
854.774	11863.36
855.096	11804.38
855.419	11778.84
855.741	11788.11
856.063	11645.74
856.385	11722.8
856.708	11689.35
857.03	11618.62
857.352	11679.41
857.674	11561.67
857.996	11545.63
858.318	11484.39
858.64	11469.25
858.961	11412.07
859.283	11377.5
859.605	11408.01
859.926	11374.33
860.248	11392.19
860.57	11290.95
860.891	11330.04
861.212	11217.95
861.534	11209.59
861.855	11135.47
862.176	11193.55
862.498	11174.56
862.819	11147.22
863.14	11082.82
863.461	11013.67
863.782	11090.73
864.103	11149.71
864.424	11037.62
864.745	11039.65
865.065	10920.33
865.386	10978.19
865.707	10887.34
866.027	10874.69
866.348	10800.11
866.668	10932.09
866.989	10865.19
867.309	10781.13
867.63	10859.54
867.95	10868.13
868.27	10697.06
868.59	10797.17
868.91	10680.79
869.23	10726.22
869.55	10716.5
869.87	10691.87
870.19	10668.82
870.51	10641.25
870.83	10655.26
871.15	10635.37
871.469	10587.46
871.789	10568.48
872.109	10595.37
872.428	10485.54
872.748	10582.49
873.067	10596.5
873.386	10562.6
873.706	10488.03
874.025	10469.05
874.344	10414.36
874.663	10474.7
874.982	10420.01
875.301	10476.28
875.62	10413.91
875.939	10292.1
876.258	10324.19
876.577	10303.4
876.896	10329.16
877.214	10265.21
877.533	10256.4
877.852	10192.44
878.17	10277.41
878.489	10192.9
878.807	10218.66
879.125	10229.73
879.444	10151.99
879.762	10187.02
880.08	10118.55
880.398	10154.7
880.716	10161.71
881.034	10103.86
881.352	10046.91
881.67	9959.91
881.988	10062.05
882.306	9986.8
882.624	9931.43
882.941	9947.48
883.259	9879.46
883.577	9877.2
883.894	9922.17
884.212	9888.05
884.529	9853.92
884.846	9872.68
885.164	9832.23
885.481	9790.42
885.798	9749.07
886.115	9711.78
886.432	9680.59
886.75	9680.37
887.067	9623.42
887.383	9632.46
887.7	9610.76
888.017	9537.77
888.334	9656.64
888.651	9589.3
888.967	9516.53
889.284	9496.87
889.6	9468.85
889.917	9434.27
890.233	9448.28
890.55	9340.04
890.866	9352.69
891.182	9339.58
891.498	9283.32
891.815	9280.6
892.131	9245.8
892.447	9171.68
892.763	9171.68
893.079	9193.83
893.395	9091.91
893.71	9130.78
894.026	9111.12
894.342	9093.49
894.657	9018.69
894.973	8999.48
895.289	8936.66
895.604	8969.2
895.92	8837.45
896.235	8839.03
896.55	8840.39
896.865	8838.36
897.181	8804.23
897.496	8798.13
897.811	8745.02
898.126	8711.13
898.441	8661.41
898.756	8622.54
899.071	8564.24
899.386	8579.38
899.7	8508.42
900.015	8520.62
900.33	8420.06
900.644	8457.12
900.959	8427.97
901.273	8431.81
901.588	8312.72
901.902	8311.82
902.216	8297.35
902.531	8267.75
902.845	8285.83
903.159	8194.3
903.473	8149.11
903.787	8149.11
904.101	8136.9
904.415	8084.7
904.729	7994.31
905.042	8001.32
905.356	8006.51
905.67	7963.8
905.984	7968.32
906.297	7976.23
906.611	7903.46
906.924	7870.92
907.237	7832.51
907.551	7800.87
907.864	7670.93
908.177	7697.14
908.491	7714.09
908.804	7664.6
909.117	7616.01
909.43	7575.34
909.743	7534.66
910.056	7478.84
910.368	7485.4
910.681	7464.61
910.994	7467.09
911.307	7384.61
911.619	7378.73
911.932	7378.96
912.244	7304.84
912.557	7295.57
912.869	7277.27
913.181	7178.74
913.494	7221.45
913.806	7167.66
914.118	7151.17
914.43	7103.71
914.742	7093.99
915.054	7046.99
915.366	7052.19
915.678	6970.83
915.99	6968.35
916.302	6855.58
916.613	6935.81
916.925	6902.36
917.236	6852.42
917.548	6785.98
917.859	6864.17
918.171	6788.69
918.482	6735.81
918.794	6788.69
919.105	6671.41
919.416	6679.77
919.727	6660.79
920.038	6582.6
920.349	6609.71
920.66	6600.45
920.971	6573.1
921.282	6537.17
921.593	6502.15
921.903	6471.19
922.214	6468.25
922.525	6390.74
922.835	6345.77
923.146	6318.65
923.456	6342.83
923.767	6263.96
924.077	6241.36
924.387	6273.22
924.697	6155.26
925.008	6218.31
925.318	6208.37
925.628	6132.44
925.938	6096.51
926.248	6070.97
926.558	6064.19
926.867	6089.27
927.177	5955.27
927.487	5975.38
927.796	5922.27
928.106	5940.58
928.416	5876.85
928.725	5886.34
929.034	5803.18
929.344	5876.85
929.653	5864.65
929.962	5773.58
930.271	5770.87
930.581	5721.6
930.89	5698.1
931.199	5624.43
931.508	5641.83
931.817	5648.83
932.125	5598.89
932.434	5637.31
932.743	5567.25
933.051	5534.04
933.36	5538.1
933.669	5514.15
933.977	5466.24
934.286	5442.51
934.594	5475.05
934.902	5398.67
935.21	5355.06
935.519	5356.19
935.827	5386.69
936.135	5350.09
936.443	5309.41
936.751	5268.05
937.059	5231.44
937.367	5256.3
937.674	5198.68
937.982	5171.56
938.29	5185.34
938.597	5182.41
938.905	5123.42
939.213	5070.32
939.52	5076.87
939.827	5096.76
940.135	5028.51
940.442	5043.88
940.749	4998.46
941.056	4971.56
941.363	4966.59
941.67	4938.57
941.977	4904.67
942.284	4833.94
942.591	4864
942.898	4843.88
943.205	4855.41
943.511	4840.95
943.818	4838.69
944.125	4747.84
944.431	4723.44
944.738	4749.2
945.044	4678.46
945.35	4703.77
945.657	4607.28
945.963	4678.69
946.269	4655.64
946.575	4612.93
946.881	4604.12
947.187	4557.34
947.493	4534.06
947.799	4522.08
948.105	4520.28
948.41	4497
948.716	4481.41
949.022	4407.96
949.327	4459.71
949.633	4398.47
949.938	4409.32
950.244	4424.01
950.549	4336.1
950.854	4357.12
951.16	4310.11
951.465	4285.25
951.77	4266.95
952.075	4281.86
952.38	4240.51
952.685	4277.8
952.99	4243
953.294	4201.41
953.599	4156.9
953.904	4148.08
954.209	4166.16
954.513	4136.78
954.818	4052.94
955.122	4120.29
955.426	4067.41
955.731	4046.39
956.035	4014.3
956.339	4008.88
956.643	4010.91
956.948	3966.17
957.252	3931.37
957.556	3923
957.86	3923.23
958.163	3950.57
958.467	3910.8
958.771	3867.41
959.075	3896.56
959.378	3793.97
959.682	3840.52
959.985	3788.32
960.289	3785.61
960.592	3743.8
960.896	3788.54
961.199	3747.19
961.502	3744.93
961.805	3741.77
962.108	3720.98
962.411	3698.38
962.714	3656.8
963.017	3670.36
963.32	3645.95
963.623	3619.28
963.926	3588.1
964.228	3584.93
964.531	3600.98
964.833	3542.9
965.136	3537.7
965.438	3530.7
965.741	3501.32
966.043	3480.53
966.345	3498.61
966.648	3435.79
966.95	3448.44
967.252	3451.83
967.554	3396.92
967.856	3419.74
968.158	3353.98
968.46	3419.06
968.761	3398.05
969.063	3371.83
969.365	3328.9
969.666	3349.69
969.968	3324.38
970.269	3335.22
970.571	3283.25
970.872	3264.72
971.174	3243.25
971.475	3238.95
971.776	3268.56
972.077	3208.9
972.378	3211.84
972.679	3188.11
972.98	3192.85
973.281	3153.08
973.582	3140.43
973.883	3137.04
974.183	3112.4
974.484	3137.04
974.785	3106.3
975.085	3094.78
975.386	3063.14
975.686	3062.46
975.986	3047.1
976.287	2977.27
976.587	3004.84
976.887	2983.59
977.187	2986.31
977.487	2981.79
977.787	2968.45
978.087	2947.89
978.387	2964.39
978.687	2948.34
978.987	2884.16
979.286	2902.69
979.586	2865.86
979.885	2853.88
980.185	2847.78
980.484	2849.59
980.784	2820.43
981.083	2797.16
981.382	2860.21
981.682	2804.16
981.981	2775.46
982.28	2739.98
982.579	2750.15
982.878	2742.7
983.177	2765.97
983.475	2714.9
983.774	2715.13
984.073	2687.56
984.372	2699.08
984.67	2691.17
984.969	2675.13
985.267	2688.69
985.566	2636.48
985.864	2639.42
986.162	2604.62
986.461	2629.25
986.759	2584.73
987.057	2578.18
987.355	2558.29
987.653	2557.84
987.951	2542.7
988.249	2555.58
988.547	2502.7
988.844	2530.27
989.142	2485.3
989.44	2504.74
989.737	2456.83
990.035	2467.9
990.332	2459.31
990.63	2430.61
990.927	2455.25
991.224	2428.58
991.521	2436.04
991.819	2395.13
992.116	2383.38
992.413	2368.47
992.71	2368.47
993.006	2357.62
993.303	2343.16
993.6	2323.05
993.897	2324.18
994.193	2354.23
994.49	2309.49
994.787	2297.96
995.083	2263.16
995.379	2284.18
995.676	2267.91
995.972	2234.91
996.268	2222.26
996.565	2256.61
996.861	2238.53
997.157	2234.69
997.453	2160.56
997.749	2179.1
998.044	2180.45
998.34	2160.11
998.636	2159.66
998.932	2151.75
999.227	2111.3
999.523	2118.53
999.818	2111.3
1000.114	2109.72
1000.409	2073.79
1000.704	2060
1001	2088.25
1001.295	2089.15
1001.59	2035.6
1001.885	1991.98
1002.18	2032.88
1002.475	2031.53
1002.77	1968.93
1003.065	2004.64
1003.359	1956.28
1003.654	1967.8
1003.949	1960.57
1004.243	1932.1
1004.538	1925.99
1004.832	1918.76
1005.127	1920.57
1005.421	1898.65
1005.715	1881.7
1006.009	1880.8
1006.304	1877.86
1006.598	1852.55
1006.892	1847.35
1007.186	1842.61
1007.48	1848.93
1007.773	1799.9
1008.067	1816.62
1008.361	1830.18
1008.655	1781.14
1008.948	1779.56
1009.242	1749.28
1009.535	1742.27
1009.829	1746.79
1010.122	1711.08
1010.415	1712.44
1010.708	1714.25
1011.001	1689.39
1011.295	1714.25
1011.588	1697.07
1011.881	1685.32
1012.173	1668.83
1012.466	1658.88
1012.759	1615.49
1013.052	1631.09
1013.344	1620.01
1013.637	1628.15
1013.93	1598.32
1014.222	1626.79
1014.514	1604.42
1014.807	1586.79
1015.099	1549.73
1015.391	1532.33
1015.683	1564.87
1015.976	1550.86
1016.268	1545.21
1016.56	1513.12
1016.851	1526.91
1017.143	1498.89
1017.435	1493.92
1017.727	1476.29
1018.018	1497.53
1018.31	1466.8
1018.602	1455.27
1018.893	1455.27
1019.185	1445.33
1019.476	1439.45
1019.767	1433.8
1020.058	1430.19
1020.35	1397.87
1020.641	1373.24
1020.932	1401.04
1021.223	1409.17
1021.514	1369.85
1021.804	1349.96
1022.095	1336.41
1022.386	1329.17
1022.677	1349.06
1022.967	1325.11
1023.258	1315.39
1023.548	1285.33
1023.839	1295.28
1024.129	1285.56
1024.419	1266.58
1024.709	1288.27
1025	1270.42
1025.29	1229.74
1025.58	1255.5
1025.87	1241.72
1026.16	1229.74
1026.449	1223.41
1026.739	1214.6
1027.029	1195.62
1027.319	1250.53
1027.608	1173.92
1027.898	1186.35
1028.187	1178.9
1028.477	1167.6
1028.766	1172.12
1029.055	1129.18
1029.344	1143.64
1029.634	1138.9
1029.923	1113.81
1030.212	1128.28
1030.501	1129.63
1030.79	1115.85
1031.078	1108.16
1031.367	1102.29
1031.656	1117.2
1031.945	1097.77
1032.233	1082.85
1032.522	1055.51
1032.81	1070.42
1033.099	1083.53
1033.387	1048.96
1033.675	1037.88
1033.963	1042.85
1034.251	1040.37
1034.54	1014.61
1034.828	1018.45
1035.116	1007.83
1035.403	993.59
1035.691	1007.6
1035.979	1010.99
1036.267	983.65
1036.554	971.9
1036.842	975.29
1037.129	965.79
1037.417	940.94
1037.704	949.52
1037.992	963.76
1038.279	933.48
1038.566	948.85
1038.853	948.85
1039.14	948.85
