Data from hue_160_FLMS001491_00010.txt Node
Date: Tue Feb 07 16:50:41 GMT 2017
User: dcchb
Spectrometer: FLMS00149
Trigger mode: 0
Integration Time (sec): 2.000000E-2
Scans to average: 10
Electric dark correction enabled: true
Nonlinearity correction enabled: false
Boxcar width: 0
XAxis mode: Wavelengths
Number of Pixels in Spectrum: 2048
>>>>>Begin Spectral Data<<<<<
341.393	1.13
341.776	1.13
342.16	1.13
342.543	-52.2
342.927	-86.55
343.31	-79.77
343.693	-78.19
344.077	-55.82
344.46	-63.5
344.843	-51.3
345.226	-55.14
345.61	-18.3
345.993	-34.35
346.376	-9.49
346.759	4.97
347.142	30.51
347.525	47
347.908	70.51
348.291	85.2
348.674	96.04
349.057	111.64
349.44	120.22
349.823	130.62
350.206	161.13
350.588	204.51
350.971	226.89
351.354	216.04
351.737	243.61
352.119	243.84
352.502	247.68
352.884	285.19
353.267	273.67
353.65	294.46
354.032	295.59
354.414	306.66
354.797	301.46
355.179	321.12
355.562	303.04
355.944	308.24
356.326	315.47
356.709	331.74
357.091	341.01
357.473	340.33
357.855	340.56
358.238	323.83
358.62	326.09
359.002	327.45
359.384	336.26
359.766	323.38
360.148	327.9
360.53	326.09
360.912	339.88
361.294	321.35
361.676	330.39
362.057	351.86
362.439	336.71
362.821	303.72
363.203	319.77
363.584	326.09
363.966	324.51
364.348	324.06
364.729	301.69
365.111	319.77
365.493	322.48
365.874	310.95
366.256	302.59
366.637	306.43
367.019	293.55
367.4	315.47
367.781	316.15
368.163	314.57
368.544	307.34
368.925	303.49
369.306	327
369.688	313.89
370.069	308.92
370.45	305.3
370.831	303.72
371.212	314.12
371.593	306.88
371.974	326.09
372.355	312.31
372.736	301.69
373.117	326.32
373.498	325.64
373.879	294.46
374.26	331.06
374.641	322.7
375.021	305.3
375.402	308.92
375.783	305.3
376.163	316.6
376.544	327.9
376.925	329.48
377.305	322.25
377.686	336.04
378.066	313.89
378.447	308.24
378.827	319.99
379.208	327
379.588	327.9
379.968	324.74
380.349	326.55
380.729	321.8
381.109	328.35
381.489	326.09
381.87	345.98
382.25	328.13
382.63	349.6
383.01	356.83
383.39	334.91
383.77	352.53
384.15	344.17
384.53	338.97
384.91	347.56
385.29	331.97
385.67	356.83
386.049	348.92
386.429	359.09
386.809	332.65
387.189	378.07
387.568	344.4
387.948	344.62
388.328	353.66
388.707	334.91
389.087	349.14
389.466	365.64
389.846	327.22
390.225	348.69
390.605	363.15
390.984	358.86
391.363	365.64
391.743	332.65
392.122	375.36
392.501	368.8
392.881	360.67
393.26	394.11
393.639	375.13
394.018	359.54
394.397	365.64
394.776	368.35
395.155	372.65
395.534	396.15
395.913	398.41
396.292	380.78
396.671	387.33
397.05	375.58
397.429	371.97
397.808	374
398.186	371.06
398.565	379.65
398.944	378.52
399.323	387.79
399.701	383.94
400.08	393.89
400.458	387.11
400.837	388.69
401.215	401.35
401.594	413.32
401.972	385.98
402.351	408.8
402.729	399.99
403.107	420.33
403.486	408.58
403.864	398.41
404.242	403.83
404.62	407.22
404.999	420.1
405.377	413.32
405.755	432.31
406.133	414.23
406.511	432.98
406.889	431.18
407.267	446.99
407.645	416.71
408.023	444.06
408.401	450.61
408.779	444.51
409.156	448.12
409.534	435.02
409.912	444.28
410.29	458.74
410.667	467.56
411.045	471.63
411.422	464.62
411.8	453.55
412.178	477.5
412.555	478.86
412.933	474.56
413.31	493.09
413.687	472.76
414.065	476.6
414.442	481.8
414.819	496.03
415.197	499.2
415.574	512.3
415.951	495.81
416.328	502.36
416.705	494.9
417.082	517.27
417.46	515.69
417.837	485.18
418.214	521.34
418.591	528.12
418.967	516.6
419.344	556.6
419.721	543.26
420.098	541.45
420.475	569.02
420.852	530.38
421.228	546.65
421.605	551.62
421.982	559.31
422.358	554.79
422.735	564.5
423.111	546.65
423.488	581.68
423.864	586.88
424.241	553.88
424.617	582.13
424.994	585.52
425.37	585.52
425.746	588.23
426.123	589.14
426.499	575.8
426.875	600.44
427.251	617.16
427.627	632.75
428.003	642.47
428.379	626.88
428.756	639.31
429.132	651.96
429.507	647.89
429.883	626.2
430.259	644.95
430.635	649.93
431.011	663.71
431.387	671.62
431.763	682.69
432.138	649.7
432.514	687.89
432.89	692.41
433.265	697.83
433.641	703.26
434.016	726.08
434.392	719.98
434.767	732.86
435.143	723.6
435.518	728.57
435.894	745.29
436.269	760.21
436.644	762.24
437.02	776.25
437.395	754.33
437.77	776.25
438.145	788.68
438.52	787.1
438.895	803.37
439.271	773.76
439.646	804.05
440.021	808.79
440.395	818.06
440.77	817.15
441.145	850.37
441.52	853.54
441.895	820.32
442.27	827.32
442.645	858.73
443.019	849.47
443.394	882.46
443.769	874.1
444.143	860.32
444.518	898.51
444.892	862.58
445.267	919.52
445.641	900.32
446.016	912.52
446.39	927.66
446.764	942.57
447.139	946.42
447.513	954.1
447.887	966.53
448.262	938.73
448.636	971.27
449.01	964.95
449.384	966.75
449.758	956.13
450.132	997.49
450.506	964.04
450.88	998.17
451.254	1013.98
451.628	1011.05
452.002	1007.43
452.376	1025.51
452.75	1030.26
453.123	1040.65
453.497	1044.04
453.871	1069.8
454.244	1068.67
454.618	1096.47
454.992	1107.54
455.365	1103.7
455.739	1136.02
456.112	1152.96
456.486	1162.46
456.859	1163.36
457.232	1206.52
457.606	1159.29
457.979	1214.21
458.352	1254.66
458.725	1225.28
459.099	1265.96
459.472	1287.42
459.845	1296.24
460.218	1307.31
460.591	1294.2
460.964	1297.37
461.337	1362
461.71	1333.75
462.083	1388.66
462.456	1378.04
462.829	1397.93
463.201	1416.23
463.574	1415.78
463.947	1450.58
464.32	1498.94
464.692	1499.62
465.065	1549.56
465.438	1547.76
465.81	1525.84
466.183	1595.21
466.555	1604.25
466.928	1621.65
467.3	1632.27
467.672	1676.57
468.045	1723.8
468.417	1712.72
468.789	1726.06
469.161	1789.56
469.534	1803.79
469.906	1837.47
470.278	1869.78
470.65	1902.1
471.022	1967.41
471.394	1981.87
471.766	2000.63
472.138	2056.67
472.51	2126.05
472.882	2139.83
473.253	2173.5
473.625	2249.88
473.997	2292.37
474.369	2310
474.74	2349.32
475.112	2410.78
475.484	2486.26
475.855	2523.32
476.227	2554.96
476.598	2660.72
476.97	2697.1
477.341	2791.57
477.713	2828.17
478.084	2877.89
478.455	2990.88
478.827	3031.11
479.198	3149.97
479.569	3185.45
479.94	3281.72
480.311	3339.35
480.682	3445.33
481.053	3591.32
481.424	3665.21
481.795	3720.58
482.166	3788.6
482.537	3886.9
482.908	4007.58
483.279	4111.08
483.65	4163.05
484.021	4355.59
484.391	4374.12
484.762	4495.25
485.133	4597.17
485.503	4697.05
485.874	4850.27
486.244	4939.98
486.615	5047.1
486.985	5198.51
487.356	5327.32
487.726	5393.98
488.097	5592.85
488.467	5656.8
488.837	5844.82
489.207	5920.75
489.578	6101.53
489.948	6189.22
490.318	6355.77
490.688	6408.19
491.058	6572.93
491.428	6730.9
491.798	6765.02
492.168	7050.21
492.538	7085.46
492.908	7218.79
493.278	7400.71
493.648	7454.49
494.017	7567.48
494.387	7743.3
494.757	7801.15
495.126	7964.76
495.496	8028.26
495.866	8195.26
496.235	8318.65
496.605	8440.46
496.974	8475.94
497.344	8694.69
497.713	8757.28
498.082	8884.29
498.452	8959.09
498.821	9072.08
499.19	9141.91
499.559	9255.8
499.928	9387.55
500.298	9444.27
500.667	9592.74
501.036	9603.82
501.405	9684.04
501.774	9763.59
502.143	9921.77
502.512	9926.97
502.88	10044.03
503.249	10101.88
503.618	10205.61
503.987	10341.87
504.356	10353.63
504.724	10448.09
505.093	10563.79
505.462	10507.29
505.83	10649.66
506.199	10782.77
506.567	10870.67
506.936	10844.23
507.304	11005.36
507.672	11078.35
508.041	11077.22
508.409	11122.42
508.777	11227.5
509.145	11297.1
509.514	11347.72
509.882	11444.67
510.25	11478.34
510.618	11524.89
510.986	11542.07
511.354	11627.94
511.722	11712.01
512.09	11820.71
512.458	11818.45
512.826	11873.81
513.193	11875.85
513.561	11955.39
513.929	12016.41
514.297	12081.72
514.664	12160.13
515.032	12113.81
515.4	12215.05
515.767	12192
516.135	12243.07
516.502	12163.75
516.869	12362.16
517.237	12368.71
517.604	12338.88
517.972	12425.21
518.339	12426.34
518.706	12448.49
519.073	12531.42
519.44	12551.08
519.808	12574.58
520.175	12609.16
520.542	12665.66
520.909	12757.63
521.276	12689.38
521.643	12804.18
522.009	12778.2
522.376	12840.11
522.743	12847.12
523.11	12884.86
523.477	13003.95
523.843	12954.46
524.21	13045.08
524.577	13184.51
524.943	13098.19
525.31	13117.85
525.676	13252.31
526.043	13215.25
526.409	13102.71
526.776	13258.18
527.142	13224.51
527.508	13261.12
527.874	13328.46
528.241	13247.56
528.607	13227.45
528.973	13274.68
529.339	13235.58
529.705	13325.53
530.071	13340.44
530.437	13343.6
530.803	13339.31
531.169	13416.14
531.535	13283.49
531.901	13316.49
532.267	13265.41
532.632	13292.08
532.998	13324.85
533.364	13280.1
533.73	13311.29
534.095	13302.7
534.461	13306.54
534.826	13329.37
535.192	13186.77
535.557	13344.06
535.923	13148.81
536.288	13205.98
536.653	13302.48
537.019	13140.9
537.384	13105.87
537.749	13141.35
538.114	13067.45
538.479	12970.96
538.845	13003.27
539.21	12960.34
539.575	12927.12
539.94	12861.36
540.305	12982.94
540.67	12792.43
541.034	12856.84
541.399	12780.45
541.764	12723.51
542.129	12683.51
542.494	12697.75
542.858	12707.91
543.223	12587.92
543.587	12655.03
543.952	12587.47
544.316	12588.82
544.681	12496.39
545.045	12510.18
545.41	12452.78
545.774	12471.76
546.138	12438.32
546.503	12400.35
546.867	12365.1
547.231	12418.2
547.595	12403.29
547.959	12241.03
548.324	12180.47
548.688	12242.84
549.052	12207.59
549.416	12164.2
549.779	12152.22
550.143	12002.62
550.507	12047.59
550.871	12012.11
551.235	12028.84
551.599	12012.11
551.962	11929.4
552.326	11925.11
552.689	11940.93
553.053	11845.56
553.417	11772.35
553.78	11909.52
554.143	11831.1
554.507	11823.87
554.87	11778.67
555.234	11812.34
555.597	11662.74
555.96	11705.23
556.323	11706.36
556.686	11632.69
557.05	11747.04
557.413	11752.01
557.776	11691.22
558.139	11723.31
558.502	11667.04
558.865	11703.65
559.228	11664.78
559.59	11721.95
559.953	11610.99
560.316	11781.16
560.679	11681.73
561.041	11686.25
561.404	11729.41
561.767	11737.32
562.129	11647.15
562.492	11727.15
562.854	11678.11
563.217	11639.24
563.579	11675.4
563.941	11666.36
564.304	11683.08
564.666	11708.84
565.028	11694.83
565.39	11690.09
565.753	11696.19
566.115	11640.6
566.477	11767.83
566.839	11768.5
567.201	11781.61
567.563	11741.39
567.925	11878.56
568.287	11797.43
568.648	11768.73
569.01	11805.11
569.372	11861.16
569.734	11789.97
570.095	11854.83
570.457	11867.71
570.819	11806.7
571.18	11823.19
571.542	11863.87
571.903	11902.06
572.265	11883.53
572.626	11921.04
572.987	11936.86
573.349	11928.95
573.71	11883.08
574.071	11982.06
574.432	11995.62
574.794	11992.45
575.155	12056.63
575.516	11942.96
575.877	12050.53
576.238	12027.71
576.599	12007.14
576.96	11970.08
577.32	11958.56
577.681	12049.4
578.042	12039.91
578.403	11976.41
578.763	11982.06
579.124	12079.23
579.485	12068.61
579.845	12064.32
580.206	12036.52
580.566	12050.08
580.927	12070.19
581.287	12091.21
581.648	12109.06
582.008	12052.11
582.368	12067.71
582.728	12024.99
583.089	11983.41
583.449	12010.76
583.809	12026.12
584.169	11995.16
584.529	11883.53
584.889	12019.57
585.249	11932.34
585.609	11914.04
585.969	11999.46
586.329	11858.9
586.688	11968.5
587.048	11929.63
587.408	11888.95
587.768	11847.37
588.127	11902.74
588.487	11838.78
588.846	11872.23
589.206	11894.38
589.565	11867.03
589.925	11882.17
590.284	11891.21
590.643	11807.6
591.003	11877.65
591.362	11840.59
591.721	11796.98
592.08	11872.68
592.44	11913.13
592.799	11806.92
593.158	11754.27
593.517	11783.42
593.876	11739.13
594.235	11735.96
594.593	11702.97
594.952	11759.92
595.311	11740.03
595.67	11774.15
596.029	11830.88
596.387	11785.45
596.746	11782.74
597.104	11730.99
597.463	11744.55
597.822	11727.15
598.18	11678.34
598.538	11666.36
598.897	11723.08
599.255	11586.59
599.613	11822.29
599.972	11738.45
600.33	11762.18
600.688	11711.33
601.046	11729.86
601.404	11740.26
601.762	11689.18
602.12	11768.5
602.478	11801.27
602.836	11816.64
603.194	11728.05
603.552	11767.6
603.91	11684.66
604.268	11741.39
604.625	11722.63
604.983	11701.84
605.341	11638.34
605.698	11716.3
606.056	11707.49
606.413	11694.61
606.771	11724.89
607.128	11751.1
607.485	11686.02
607.843	11729.41
608.2	11763.53
608.557	11758.11
608.914	11736.19
609.272	11875.62
609.629	11798.56
609.986	11756.3
610.343	11790.88
610.7	11860.03
611.057	11810.99
611.414	11759.01
611.771	11808.96
612.127	11898.22
612.484	11767.15
612.841	11922.85
613.198	11853.25
613.554	11863.19
613.911	11905.9
614.267	11940.7
614.624	11860.48
614.98	11938.44
615.337	12035.39
615.693	12007.37
616.05	11885.56
616.406	12005.79
616.762	11908.84
617.118	11849.63
617.475	11950.65
617.831	11984.54
618.187	11979.57
618.543	11981.61
618.899	12071.55
619.255	12034.71
619.611	12031.32
619.967	12107.25
620.323	12102.28
620.678	11971.66
621.034	11994.03
621.39	12042.85
621.746	11980.48
622.101	12072.22
622.457	12042.62
622.812	12003.75
623.168	12098.44
623.523	12042.62
623.879	12067.03
624.234	12003.07
624.589	12031.77
624.945	12022.96
625.3	12027.25
625.655	12031.55
626.01	12022.51
626.365	12030.19
626.72	12020.7
627.075	12061.15
627.43	12043.98
627.785	11949.52
628.14	11991.32
628.495	11991.55
628.85	12035.16
629.205	11967.37
629.559	12004.43
629.914	11976.63
630.269	11985.45
630.623	11964.21
630.978	11944.09
631.332	11914.26
631.687	11953.58
632.041	11914.71
632.396	11931.44
632.75	11902.29
633.104	11916.3
633.459	11884.66
633.813	11902.06
634.167	11836.75
634.521	11865.9
634.875	11894.6
635.229	11885.11
635.583	11806.92
635.937	11848.95
636.291	11815.28
636.645	11739.13
636.999	11675.63
637.352	11766.24
637.706	11605.8
638.06	11759.69
638.413	11663.87
638.767	11699.58
639.121	11687.6
639.474	11546.14
639.828	11658.9
640.181	11688.73
640.534	11637.43
640.888	11503.65
641.241	11492.81
641.594	11581.39
641.947	11620.03
642.301	11459.81
642.654	11572.8
643.007	11588.85
643.36	11591.33
643.713	11502.07
644.066	11505.01
644.419	11451.45
644.771	11435.41
645.124	11264.11
645.477	11246.26
645.83	11238.57
646.182	11205.36
646.535	11208.52
646.888	11180.5
647.24	11101.4
647.593	11163.55
647.945	11156.54
648.298	11106.6
648.65	11086.94
649.002	11061.18
649.355	11139.59
649.707	11198.12
650.059	11140.05
650.411	11368.29
650.763	11266.14
651.115	11342.53
651.467	11335.07
651.819	11366.25
652.171	11408.29
652.523	11286.26
652.875	11356.54
653.227	11353.83
653.578	11362.64
653.93	11421.17
654.282	11366.71
654.633	11307.5
654.985	11295.07
655.337	11347.27
655.688	11319.48
656.039	11391.11
656.391	11390.66
656.742	11375.52
657.094	11298.23
657.445	11390.89
657.796	11399.25
658.147	11310.89
658.498	11373.94
658.849	11334.84
659.2	11359.02
659.551	11311.57
659.902	11331.91
660.253	11385.46
660.604	11387.5
660.955	11406.03
661.306	11442.86
661.656	11432.02
662.007	11365.35
662.358	11430.66
662.708	11388.18
663.059	11411.68
663.409	11344.11
663.76	11403.32
664.11	11385.01
664.461	11391.79
664.811	11445.8
665.161	11396.54
665.511	11439.93
665.862	11416.65
666.212	11404.67
666.562	11434.95
666.912	11385.24
667.262	11393.6
667.612	11415.07
667.962	11360.38
668.312	11409.42
668.662	11495.29
669.011	11423.88
669.361	11419.13
669.711	11413.94
670.06	11376.42
670.41	11404.9
670.76	11320.61
671.109	11439.47
671.459	11354.96
671.808	11358.35
672.157	11334.17
672.507	11289.65
672.856	11249.65
673.205	11334.17
673.554	11301.62
673.904	11314.05
674.253	11345.24
674.602	11319.25
674.951	11168.29
675.3	11076.32
675.649	11333.04
675.998	11233.6
676.346	11213.04
676.695	11288.52
677.044	11174.62
677.393	11220.5
677.741	11263.88
678.09	11171.46
678.438	11126.26
678.787	11165.13
679.135	11094.62
679.484	11041.74
679.832	11104.34
680.181	11044.46
680.529	11086.94
680.877	11124.68
681.225	11036.32
681.573	11092.82
681.922	10963.55
682.27	10939.37
682.618	10992.93
682.966	10950.67
683.314	10912.93
683.661	10939.6
684.009	10921.52
684.357	10795.87
684.705	10867.28
685.053	10858.25
685.4	10792.71
685.748	10726.5
686.095	10790
686.443	10706.84
686.79	10772.6
687.138	10682.66
687.485	10728.08
687.832	10578.7
688.18	10666.84
688.527	10538.48
688.874	10511.36
689.221	10454.87
689.568	10497.58
689.915	10498.03
690.262	10429.1
690.609	10430.23
690.956	10398.14
691.303	10336.9
691.65	10372.38
691.997	10379.84
692.344	10223.91
692.69	10189.56
693.037	10278.6
693.383	10127.87
693.73	10176.91
694.077	10117.7
694.423	10164.7
694.769	10075.44
695.116	10030.47
695.462	10046.29
695.808	10009.68
696.155	10012.62
696.501	9897.59
696.847	9873.19
697.193	9807.88
697.539	9783.47
697.885	9758.39
698.231	9781.44
698.577	9711.38
698.923	9661.67
699.269	9583.48
699.614	9505.51
699.96	9501.22
700.306	9557.94
700.651	9495.8
700.997	9492.86
701.342	9441.56
701.688	9366.53
702.033	9299.87
702.379	9326.08
702.724	9288.34
703.069	9357.04
703.415	9181.45
703.76	9245.63
704.105	9158.18
704.45	9167.22
704.795	9085.86
705.14	9060.33
705.485	9025.75
705.83	9025.53
706.175	8966.77
706.52	8969.26
706.865	8978.75
707.209	8893.55
707.554	8884.29
707.899	8963.15
708.243	8813.1
708.588	8859.2
708.932	8811.75
709.277	8790.28
709.621	8774.01
709.966	8720
710.31	8760
710.654	8634.58
710.998	8638.42
711.342	8658.08
711.687	8635.25
712.031	8579.89
712.375	8593.45
712.719	8599.32
713.063	8576.5
713.407	8578.98
713.75	8534.46
714.094	8505.54
714.438	8503.96
714.782	8472.55
715.125	8442.72
715.469	8534.24
715.812	8397.97
716.156	8371.08
716.499	8316.17
716.843	8385.99
717.186	8355.26
717.53	8396.16
717.873	8381.7
718.216	8353
718.559	8343.51
718.902	8263.96
719.246	8206.11
719.589	8194.81
719.932	8232.55
720.275	8169.5
720.617	8163.63
720.96	8182.84
721.303	8158.66
721.646	8143.97
721.989	8134.93
722.331	8137.64
722.674	8119.11
723.016	8185.1
723.359	8156.62
723.701	8212.89
724.044	8121.59
724.386	8021.26
724.729	8150.29
725.071	8130.41
725.413	8103.06
725.755	8152.1
726.097	8113.01
726.439	8009.51
726.782	8101.03
727.124	8176.96
727.465	8029.85
727.807	8023.29
728.149	8095.15
728.491	8026
728.833	8033.69
729.175	7986
729.516	8058.09
729.858	7995.95
730.199	7989.85
730.541	8026
730.882	8018.77
731.224	8036.17
731.565	7968.83
731.906	7959.79
732.248	8004.08
732.589	7893.35
732.93	8023.74
733.271	7955.5
733.612	8052.44
733.953	7933.35
734.294	7977.19
734.635	7961.15
734.976	7964.99
735.317	7938.32
735.658	7943.75
735.999	7963.41
736.339	7995.27
736.68	8000.47
737.021	7985.33
737.361	7908.72
737.702	8020.81
738.042	7991.65
738.383	7935.38
738.723	8037.08
739.063	8032.56
739.404	7990.52
739.744	8003.86
740.084	7974.48
740.424	8000.92
740.764	8020.81
741.104	8094.25
741.444	8035.49
741.784	8004.31
742.124	8067.13
742.464	8128.6
742.804	8115.04
743.143	8109.84
743.483	8166.79
743.823	8142.61
744.162	8129.28
744.502	8238.65
744.841	8212.89
745.181	8367.24
745.52	8308.48
745.86	8401.14
746.199	8361.81
746.538	8467.8
746.877	8482.04
747.216	8534.24
747.556	8533.33
747.895	8646.1
748.234	8647.68
748.573	8662.37
748.911	8794.57
749.25	8787.79
749.589	8808.36
749.928	8940.78
750.267	8996.83
750.605	9058.07
750.944	9131.29
751.283	9183.94
751.621	9281.56
751.96	9369.7
752.298	9373.09
752.636	9539.86
752.975	9623.02
753.313	9661.44
753.651	9809.91
753.989	9894.66
754.327	9989.79
754.666	10102.11
755.004	10247.41
755.342	10361.76
755.679	10553.39
756.017	10542.77
756.355	10728.98
756.693	10938.92
757.031	10983.21
757.368	11123.55
757.706	11280.83
758.044	11358.12
758.381	11550.2
758.719	11706.36
759.056	11918.56
759.394	12043.75
759.731	12178.44
760.068	12313.57
760.405	12371.43
760.743	12588.14
761.08	12751.98
761.417	12938.42
761.754	13030.39
762.091	13212.08
762.428	13334.11
762.765	13484.39
763.102	13690.71
763.438	13885.06
763.775	13956.47
764.112	14230.59
764.449	14341.54
764.785	14537.92
765.122	14610.92
765.458	14760.97
765.795	14927.07
766.131	14973.39
766.467	15224.91
766.804	15342.42
767.14	15305.13
767.476	15614.5
767.812	15760.04
768.148	15903.54
768.485	16016.75
768.821	16102.85
769.157	16327.48
769.492	16339.01
769.828	16538.55
770.164	16422.39
770.5	16644.99
770.836	16820.35
771.171	16885.66
771.507	16864.87
771.842	16948.25
772.178	17109.38
772.513	17214.24
772.849	17372.65
773.184	17311.18
773.519	17413.33
773.855	17508.92
774.19	17553.44
774.525	17684.05
774.86	17723.83
775.195	17822.36
775.53	17803.37
775.865	17851.73
776.2	17890.83
776.535	17817.84
776.87	17935.8
777.205	17904.61
777.539	17978.74
777.874	18108.45
778.209	18062.58
778.543	18089.92
778.878	18011.5
779.212	18143.7
779.547	18101.22
779.881	18227.77
780.215	18178.96
780.55	18258.73
780.884	18234.32
781.218	18223.02
781.552	18221.44
781.886	18313.64
782.22	18198.17
782.554	18373.75
782.888	18178.05
783.222	18151.39
783.556	18216.7
783.889	18112.07
784.223	18037.94
784.557	18095.12
784.89	18216.47
785.224	18082.69
785.557	18037.27
785.891	18128.79
786.224	17968.12
786.558	18088.79
786.891	17973.76
787.224	17931.96
787.557	17961.11
787.891	18048.11
788.224	17979.41
788.557	18001.11
788.89	17956.36
789.223	17916.14
789.556	17913.2
789.888	17746.88
790.221	17835.92
790.554	17701.46
790.887	17742.58
791.219	17628.91
791.552	17708.46
791.884	17623.94
792.217	17623.94
792.549	17646.99
792.882	17443.61
793.214	17431.86
793.546	17536.49
793.879	17522.25
794.211	17308.02
794.543	17486.55
794.875	17435.25
795.207	17449.26
795.539	17350.96
795.871	17333.56
796.203	17228.02
796.535	17087.01
796.867	17173.11
797.198	17048.82
797.53	17073.68
797.862	16967.01
798.193	16988.71
798.525	16912.1
798.856	16920.91
799.188	16771.31
799.519	16750.75
799.85	16683.86
800.182	16711.43
800.513	16732.22
800.844	16527.25
801.175	16720.46
801.506	16681.6
801.837	16574.25
802.168	16540.81
802.499	16444.09
802.83	16341.27
803.161	16348.04
803.491	16351.43
803.822	16412.22
804.153	16367.48
804.483	16223.53
804.814	16158.45
805.145	16171.78
805.475	16134.27
805.805	16032.35
806.136	16088.62
806.466	16030.76
806.796	15986.92
807.126	15916.64
807.457	15855.18
807.787	15947.6
808.117	15694.28
808.447	15765.46
808.777	15711.68
809.107	15735.18
809.436	15721.39
809.766	15720.04
810.096	15531.57
810.426	15601.17
810.755	15552.13
811.085	15536.31
811.414	15551.23
811.744	15482.53
812.073	15373.38
812.403	15414.74
812.732	15244.57
813.061	15390.78
813.39	15293.16
813.719	15229.43
814.049	15341.29
814.378	15262.2
814.707	15281.63
815.036	15209.09
815.365	15152.14
815.693	14993.28
816.022	15052.71
816.351	14962.54
816.68	14873.96
817.008	15037.12
817.337	14841.87
817.665	14836.22
817.994	14864.92
818.322	14796.22
818.651	14723.91
818.979	14705.6
819.307	14792.61
819.636	14829.44
819.964	14668.31
820.292	14715.77
820.62	14717.81
820.948	14674.64
821.276	14727.52
821.604	14691.82
821.932	14730.23
822.259	14685.49
822.587	14671.48
822.915	14611.14
823.243	14653.63
823.57	14634.87
823.898	14662.21
824.225	14643.91
824.553	14564.14
824.88	14652.04
825.207	14659.95
825.535	14664.47
825.862	14694.53
826.189	14628.09
826.516	14699.27
826.843	14735.21
827.17	14700.86
827.497	14608.88
827.824	14754.87
828.151	14717.35
828.478	14630.12
828.805	14772.27
829.131	14566.4
829.458	14645.94
829.785	14539.73
830.111	14641.2
830.438	14684.59
830.764	14679.84
831.09	14744.02
831.417	14601.42
831.743	14651.59
832.069	14659.73
832.395	14596.9
832.722	14638.26
833.048	14608.88
833.374	14547.64
833.7	14509.45
834.026	14510.8
834.351	14625.6
834.677	14576.34
835.003	14553.97
835.329	14520.07
835.654	14525.27
835.98	14427.42
836.306	14497.25
836.631	14442.56
836.956	14513.74
837.282	14449.56
837.607	14338.38
837.932	14371.15
838.258	14325.27
838.583	14465.16
838.908	14208.21
839.233	14292.28
839.558	14272.17
839.883	14238.95
840.208	14108.78
840.533	14243.24
840.858	14189.46
841.182	14184.49
841.507	14193.75
841.832	14066.52
842.156	14033.3
842.481	14044.15
842.805	13950.37
843.13	13939.07
843.454	13924.38
843.778	13927.77
844.103	13842.8
844.427	13867.88
844.751	13902.69
845.075	13768.45
845.399	13765.06
845.723	13708.34
846.047	13721.45
846.371	13613.2
846.695	13568
847.019	13494.33
847.343	13395.35
847.666	13319.88
847.99	13290.72
848.313	13261.8
848.637	13179.09
848.96	13205.53
849.284	13185.87
849.607	13146.77
849.931	13094.8
850.254	12914.24
850.577	12909.49
850.9	12844.86
851.223	12797.86
851.546	12752.21
851.869	12689.61
852.192	12700.01
852.515	12603.28
852.838	12533
853.161	12577.3
853.483	12448.03
853.806	12409.39
854.129	12444.64
854.451	12340.92
854.774	12310.64
855.096	12220.47
855.419	12217.31
855.741	12165.33
856.063	12177.98
856.385	12096.41
856.708	12074.03
857.03	12048.5
857.352	12038.1
857.674	11966.24
857.996	11930.08
858.318	11849.41
858.64	11870.87
858.961	11787.94
859.283	11811.89
859.605	11690.31
859.926	11716.08
860.248	11714.27
860.57	11638.34
860.891	11691.67
861.212	11606.25
861.534	11610.99
861.855	11565.57
862.176	11570.32
862.498	11513.6
862.819	11551.56
863.14	11507.95
863.461	11457.1
863.782	11441.06
864.103	11401.06
864.424	11351.11
864.745	11328.29
865.065	11317.67
865.386	11323.32
865.707	11311.34
866.027	11159.25
866.348	11266.6
866.668	11237.9
866.989	11202.87
867.309	11207.39
867.63	11270.66
867.95	11177.56
868.27	11068.64
868.59	11106.83
868.91	11121.97
869.23	11080.16
869.55	11060.73
869.87	11137.79
870.19	11035.19
870.51	10967.4
870.83	11036.32
871.15	10964.01
871.469	10984.8
871.789	10943.67
872.109	10961.29
872.428	10935.98
872.748	10965.36
873.067	10840.62
873.386	10898.02
873.706	10858.25
874.025	10792.26
874.344	10685.82
874.663	10746.16
874.982	10818.25
875.301	10755.88
875.62	10738.93
875.939	10728.31
876.258	10723.56
876.577	10714.29
876.896	10653.73
877.214	10694.18
877.533	10654.86
877.852	10628.2
878.17	10581.64
878.489	10540.06
878.807	10531.7
879.125	10592.72
879.444	10561.98
879.762	10503.23
880.08	10566.5
880.398	10491.93
880.716	10485.15
881.034	10451.25
881.352	10413.51
881.67	10398.37
881.988	10381.42
882.306	10385.72
882.624	10313.4
882.941	10202.22
883.259	10256.68
883.577	10256.68
883.894	10223.01
884.212	10230.24
884.529	10221.43
884.846	10186.62
885.164	10201.77
885.481	10112.28
885.798	10089.9
886.115	10009.91
886.432	10086.29
886.75	10099.62
887.067	9959.06
887.383	9947.31
887.7	9938.27
888.017	9933.75
888.334	9908.67
888.651	9872.73
888.967	9846.75
889.284	9865.73
889.6	9814.43
889.917	9755
890.233	9716.13
890.55	9699.41
890.866	9693.3
891.182	9657.37
891.498	9542.35
891.815	9564.27
892.131	9588.9
892.447	9523.14
892.763	9506.19
893.079	9489.69
893.395	9422.8
893.71	9427.32
894.026	9401.11
894.342	9387.55
894.657	9377.38
894.973	9233.66
895.289	9284.95
895.604	9283.82
895.92	9116.37
896.235	9109.36
896.55	9117.5
896.865	9198.85
897.181	9057.84
897.496	9027.33
897.811	9011.06
898.126	8941.69
898.441	8933.78
898.756	8842.93
899.071	8909.37
899.386	8883.16
899.7	8749.83
900.015	8772.88
900.33	8683.61
900.644	8723.16
900.959	8666.89
901.273	8672.77
901.588	8602.49
901.902	8601.13
902.216	8585.54
902.531	8543.5
902.845	8514.8
903.159	8506.67
903.473	8412.43
903.787	8347.58
904.101	8342.38
904.415	8357.97
904.729	8316.84
905.042	8234.81
905.356	8279.1
905.67	8200.46
905.984	8236.39
906.297	8190.97
906.611	8105.55
906.924	8085.21
907.237	8078.66
907.551	8056.29
907.864	8016.74
908.177	8006.12
908.491	7950.53
908.804	7913.24
909.117	7841.6
909.43	7835.05
909.743	7729.97
910.056	7734.71
910.368	7796.41
910.681	7670.76
910.994	7646.13
911.307	7629.86
911.619	7570.87
911.932	7626.47
912.244	7576.52
912.557	7525.9
912.869	7432.8
913.181	7480.48
913.494	7410.88
913.806	7383.99
914.118	7426.02
914.43	7332.69
914.742	7295.4
915.054	7315.74
915.366	7246.82
915.678	7191.22
915.99	7182.18
916.302	7129.08
916.613	7092.02
916.925	7053.6
917.236	7051.79
917.548	7027.61
917.859	7019.93
918.171	7022.87
918.482	6957.11
918.794	6948.74
919.105	6893.38
919.416	6849.31
919.727	6863.32
920.038	6814.96
920.349	6819.93
920.66	6713.04
920.971	6777.45
921.282	6733.83
921.593	6686.38
921.903	6640.73
922.214	6680.5
922.525	6650.9
922.835	6586.72
923.146	6574.97
923.456	6511.69
923.767	6434.86
924.077	6461.75
924.387	6423.56
924.697	6409.55
925.008	6402.09
925.318	6338.36
925.628	6336.33
925.938	6318.25
926.248	6251.81
926.558	6213.17
926.867	6200.29
927.177	6231.7
927.487	6142.89
927.796	6090.24
928.106	6103.12
928.416	6095.21
928.725	6136.11
929.034	6059.5
929.344	6017.69
929.653	5964.81
929.962	5978.37
930.271	5905.38
930.581	5916.23
930.89	5890.24
931.199	5881.88
931.508	5849.34
931.817	5846.17
932.125	5822.9
932.434	5843.01
932.743	5762.33
933.051	5740.64
933.36	5679.62
933.669	5711.94
933.977	5690.02
934.286	5656.57
934.594	5662.9
934.902	5604.15
935.21	5567.99
935.519	5566.63
935.827	5536.35
936.135	5485.28
936.443	5449.35
936.751	5464.04
937.059	5452.29
937.367	5398.5
937.674	5399.18
937.982	5367.54
938.29	5378.84
938.597	5365.51
938.905	5290.48
939.213	5279.86
939.52	5261.1
939.827	5229.24
940.135	5204.61
940.442	5189.69
940.749	5179.98
941.056	5160.09
941.363	5115.12
941.67	5118.51
941.977	5064.27
942.284	5032.18
942.591	5054.78
942.898	4984.28
943.205	5034.22
943.511	4959.87
943.818	4982.47
944.125	4909.93
944.431	4907.22
944.738	4896.37
945.044	4850.27
945.35	4834.9
945.657	4780.21
945.963	4781.34
946.269	4788.12
946.575	4761.68
946.881	4708.35
947.187	4726.66
947.493	4686.43
947.799	4680.78
948.105	4641.23
948.41	4600.11
948.716	4660.22
949.022	4589.94
949.327	4547.68
949.633	4522.37
949.938	4519.88
950.244	4522.82
950.549	4473.1
950.854	4457.74
951.16	4432.65
951.465	4429.94
951.77	4400.34
952.075	4388.13
952.38	4349.26
952.685	4372.09
952.99	4341.81
953.294	4363.28
953.599	4328.7
953.904	4269.72
954.209	4324.18
954.513	4244.41
954.818	4181.13
955.122	4207.8
955.426	4180.91
955.731	4178.2
956.035	4166.67
956.339	4147.69
956.643	4153.11
956.948	4112.43
957.252	4097.97
957.556	4082.83
957.86	4055.71
958.163	4059.78
958.467	4086.22
958.771	4016.84
959.075	3995.15
959.378	3972.55
959.682	3990.18
959.985	3897.3
960.289	3928.48
960.592	3911.08
960.896	3893.91
961.199	3834.25
961.502	3866.56
961.805	3827.02
962.108	3828.37
962.411	3811.2
962.714	3818.2
963.017	3793.57
963.32	3774.14
963.623	3729.17
963.926	3740.92
964.228	3690.52
964.531	3703.18
964.833	3686.46
965.136	3657.98
965.438	3642.84
965.741	3624.76
966.043	3647.14
966.345	3632.9
966.648	3598.78
966.95	3563.97
967.252	3515.84
967.554	3520.13
967.856	3533.24
968.158	3492.11
968.46	3498.21
968.761	3479.68
969.063	3462.73
969.365	3458.21
969.666	3457.54
969.968	3414.15
970.269	3425.9
970.571	3398.55
970.872	3406.01
971.174	3358.33
971.475	3338.44
971.776	3350.42
972.077	3312.23
972.378	3300.48
972.679	3255.06
972.98	3278.11
973.281	3224.55
973.582	3238.78
973.883	3283.98
974.183	3228.39
974.484	3231.55
974.785	3172.57
975.085	3201.95
975.386	3162.63
975.686	3100.48
975.986	3117.43
976.287	3149.75
976.587	3100.71
976.887	3086.7
977.187	3072.24
977.487	3068.85
977.787	3055.51
978.087	3021.39
978.387	3032.69
978.687	3006.02
978.987	2981.62
979.286	2954.5
979.586	2945.69
979.885	2969.87
980.185	2992.92
980.484	2920.15
980.784	2901.39
981.083	2901.62
981.382	2902.75
981.682	2892.35
981.981	2854.84
982.28	2855.29
982.579	2836.99
982.878	2806.93
983.177	2843.99
983.475	2819.36
983.774	2771.23
984.073	2774.39
984.372	2793.15
984.67	2773.94
984.969	2713.6
985.267	2748.63
985.566	2724.45
985.864	2734.84
986.162	2688.52
986.461	2711.79
986.759	2669.31
987.057	2644.68
987.355	2629.76
987.653	2616.43
987.951	2617.56
988.249	2620.04
988.547	2593.15
988.844	2560.38
989.142	2590.89
989.44	2603.32
989.737	2531.46
990.035	2569.88
990.332	2548.18
990.63	2524.68
990.927	2500.27
991.224	2499.37
991.521	2481.52
991.819	2476.55
992.116	2440.39
992.413	2456.43
992.71	2421.18
993.006	2421.18
993.303	2346.15
993.6	2399.48
993.897	2416.89
994.193	2366.49
994.49	2388.19
994.787	2348.19
995.083	2333.27
995.379	2305.7
995.676	2305.25
995.972	2307.51
996.268	2310.9
996.565	2295.31
996.861	2281.97
997.157	2256.21
997.453	2266.16
997.749	2242.65
998.044	2211.69
998.34	2232.94
998.636	2215.76
998.932	2168.3
999.227	2192.26
999.523	2154.75
999.818	2145.93
1000.114	2150
1000.409	2152.49
1000.704	2116.1
1001	2057.35
1001.295	2119.27
1001.59	2077.01
1001.885	2095.09
1002.18	2082.66
1002.475	2051.02
1002.77	2055.31
1003.065	1997.69
1003.359	2012.38
1003.654	2019.83
1003.949	2009.21
1004.243	2020.74
1004.538	1959.04
1004.832	1954.98
1005.127	1938.25
1005.421	1947.52
1005.715	1910.01
1006.009	1928.99
1006.304	1893.51
1006.598	1887.63
1006.892	1884.7
1007.186	1902.77
1007.48	1877.92
1007.773	1832.04
1008.067	1817.13
1008.361	1817.13
1008.655	1864.36
1008.948	1820.74
1009.242	1810.57
1009.535	1778.03
1009.829	1807.64
1010.122	1750.69
1010.415	1797.24
1010.708	1761.99
1011.001	1738.03
1011.295	1717.92
1011.588	1722.21
1011.881	1726.28
1012.173	1685.15
1012.466	1658.94
1012.759	1707.3
1013.052	1687.87
1013.344	1652.39
1013.637	1673.4
1013.93	1672.5
1014.222	1638.6
1014.514	1657.13
1014.807	1625.49
1015.099	1611.03
1015.391	1613.52
1015.683	1559.51
1015.976	1588.66
1016.268	1560.18
1016.56	1562.22
1016.851	1540.07
1017.143	1511.82
1017.435	1565.61
1017.727	1526.06
1018.018	1514.99
1018.31	1501.43
1018.602	1492.16
1018.893	1514.08
1019.185	1487.87
1019.476	1450.81
1019.767	1477.25
1020.058	1430.47
1020.35	1407.42
1020.641	1417.59
1020.932	1411.94
1021.223	1395.67
1021.514	1388.44
1021.804	1383.69
1022.095	1389.34
1022.386	1369.68
1022.677	1383.01
1022.967	1373.98
1023.258	1343.47
1023.548	1324.26
1023.839	1342.56
1024.129	1353.18
1024.419	1324.71
1024.709	1294.43
1025	1322
1025.29	1268.67
1025.58	1289.01
1025.87	1296.46
1026.16	1253.53
1026.449	1261.44
1026.739	1227.99
1027.029	1237.93
1027.319	1231.61
1027.608	1241.1
1027.898	1204.26
1028.187	1230.48
1028.477	1219.85
1028.766	1183.92
1029.055	1178.95
1029.344	1152.06
1029.634	1187.77
1029.923	1162
1030.212	1140.08
1030.501	1132.85
1030.79	1141.66
1031.078	1119.29
1031.367	1097.37
1031.656	1105.51
1031.945	1090.59
1032.233	1105.28
1032.522	1098.95
1032.81	1092.4
1033.099	1085.85
1033.387	1090.37
1033.675	1067.99
1033.963	1059.86
1034.251	1052.85
1034.54	1032.97
1034.828	1047.66
1035.116	1055.34
1035.403	1033.65
1035.691	1011.5
1035.979	996.81
1036.267	1025.74
1036.554	995.45
1036.842	989.58
1037.129	997.49
1037.417	1002.01
1037.704	966.53
1037.992	950.03
1038.279	967.43
1038.566	960.2
1038.853	960.2
1039.14	960.2
