Data from hue_350_FLMS001491_29.txt Node
Date: Mon Feb 06 15:37:49 GMT 2017
User: dcchb
Spectrometer: FLMS00149
Trigger mode: 0
Integration Time (sec): 2.000000E-2
Scans to average: 10
Electric dark correction enabled: true
Nonlinearity correction enabled: false
Boxcar width: 0
XAxis mode: Wavelengths
Number of Pixels in Spectrum: 2048
>>>>>Begin Spectral Data<<<<<
341.393	-13.63
341.776	-13.63
342.16	-13.63
342.543	-43.01
342.927	-69.9
343.31	-72.84
343.693	-67.87
344.077	-69
344.46	-63.57
344.843	-55.21
345.226	-45.49
345.61	-62.22
345.993	-16.57
346.376	4
346.759	9.19
347.142	39.48
347.525	53.71
347.908	55.97
348.291	86.25
348.674	99.59
349.057	104.56
349.44	122.86
349.823	144.33
350.206	158.57
350.588	193.14
350.971	225.91
351.354	218.68
351.737	244.67
352.119	248.06
352.502	247.61
352.884	270.88
353.267	300.03
353.65	276.53
354.032	299.58
354.414	332.35
354.797	286.25
355.179	305.46
355.562	332.12
355.944	343.42
356.326	325.12
356.709	335.51
357.091	332.35
357.473	355.85
357.855	355.17
358.238	343.88
358.62	328.28
359.002	335.06
359.384	339.58
359.766	321.73
360.148	324.44
360.53	355.17
360.912	350.2
361.294	328.06
361.676	330.77
362.057	328.96
362.439	331.45
362.821	321.05
363.203	325.12
363.584	319.47
363.966	330.09
364.348	317.44
364.729	337.32
365.111	334.16
365.493	309.3
365.874	300.49
366.256	322.86
366.637	317.44
367.019	332.58
367.4	300.71
367.781	313.37
368.163	315.63
368.544	311.11
368.925	307.94
369.306	330.77
369.688	325.8
370.069	324.44
370.45	300.03
370.831	303.42
371.212	323.76
371.593	292.13
371.974	316.98
372.355	327.6
372.736	307.27
373.117	337.32
373.498	305.91
373.879	305.46
374.26	302.07
374.641	310.43
375.021	314.95
375.402	329.41
375.783	314.5
376.163	338
376.544	309.3
376.925	333.48
377.305	332.58
377.686	314.27
378.066	334.16
378.447	321.5
378.827	337.1
379.208	321.5
379.588	333.25
379.968	319.69
380.349	324.44
380.729	327.38
381.109	338.23
381.489	324.89
381.87	322.18
382.25	333.48
382.63	361.95
383.01	360.6
383.39	344.33
383.77	359.92
384.15	342.97
384.53	341.16
384.91	366.25
385.29	329.41
385.67	339.81
386.049	355.17
386.429	342.29
386.809	342.29
387.189	347.26
387.568	345.23
387.948	369.19
388.328	363.99
388.707	355.85
389.087	342.52
389.466	379.58
389.846	373.7
390.225	350.88
390.605	350.88
390.984	349.75
391.363	381.39
391.743	356.53
392.122	357.21
392.501	362.41
392.881	362.41
393.26	360.6
393.639	370.09
394.018	369.19
394.397	368.96
394.776	371.22
395.155	368.06
395.534	396.53
395.913	378.9
396.292	369.86
396.671	391.33
397.05	378.45
397.429	368.28
397.808	366.7
398.186	403.31
398.565	360.82
398.944	383.42
399.323	375.51
399.701	392.46
400.08	392.46
400.458	392.01
400.837	391.33
401.215	384.55
401.594	403.31
401.972	399.47
402.351	420.26
402.729	406.92
403.107	396.98
403.486	403.76
403.864	394.5
404.242	392.69
404.62	407.6
404.999	405.12
405.377	402.18
405.755	409.18
406.133	423.2
406.511	407.6
406.889	419.58
407.267	432.01
407.645	425.45
408.023	417.55
408.401	421.16
408.779	441.73
409.156	438.11
409.534	450.31
409.912	433.82
410.29	441.5
410.667	455.51
411.045	450.09
411.422	428.17
411.8	459.8
412.178	466.13
412.555	457.09
412.933	475.17
413.31	475.62
413.687	470.88
414.065	475.62
414.442	487.15
414.819	488.05
415.197	456.41
415.574	482.85
415.951	486.47
416.328	493.7
416.705	492.57
417.082	483.53
417.46	499.13
417.837	499.13
418.214	509.07
418.591	478.33
418.967	506.81
419.344	514.72
419.721	513.59
420.098	503.64
420.475	512.23
420.852	530.54
421.228	551.33
421.605	532.8
421.982	550.2
422.358	546.81
422.735	526.24
423.111	562.63
423.488	540.25
423.864	541.16
424.241	569.63
424.617	572.34
424.994	582.29
425.37	571.44
425.746	554.04
426.123	572.8
426.499	564.21
426.875	565.79
427.251	584.77
427.627	591.78
428.003	578.45
428.379	595.62
428.756	608.5
429.132	622.06
429.507	607.15
429.883	618.44
430.259	622.51
430.635	606.02
431.011	648.27
431.387	641.49
431.763	666.35
432.138	643.98
432.514	633.36
432.89	655.28
433.265	663.87
433.641	670.65
434.016	667.26
434.392	690.53
434.767	712.68
435.143	705.45
435.518	706.58
435.894	693.24
436.269	690.98
436.644	711.32
437.02	713.13
437.395	721.04
437.77	716.07
438.145	734.37
438.52	728.5
438.895	757.2
439.271	736.18
439.646	778.21
440.021	770.76
440.395	763.53
440.77	764.2
441.145	768.5
441.52	761.04
441.895	795.16
442.27	807.37
442.645	780.47
443.019	799.46
443.394	783.86
443.769	800.13
444.143	786.35
444.518	834.26
444.892	826.8
445.267	834.26
445.641	808.72
446.016	837.2
446.39	821.6
446.764	832.68
447.139	849.62
447.513	813.92
447.887	830.64
448.262	850.98
448.636	874.26
449.01	858.21
449.384	869.06
449.758	857.53
450.132	871.54
450.506	894.37
450.88	889.4
451.254	872
451.628	871.77
452.002	920.36
452.376	890.3
452.75	915.39
453.123	885.78
453.497	918.78
453.871	940.7
454.244	921.49
454.618	957.19
454.992	935.5
455.365	952.9
455.739	971.2
456.112	972.33
456.486	968.49
456.859	981.82
457.232	998.32
457.606	1012.33
457.979	997.42
458.352	1025.21
458.725	1015.5
459.099	1015.27
459.472	1049.85
459.845	1067.92
460.218	1055.95
460.591	1084.42
460.964	1079
461.337	1092.56
461.71	1130.75
462.083	1137.53
462.456	1131.2
462.829	1129.39
463.201	1142.27
463.574	1145.44
463.947	1183.18
464.32	1193.34
464.692	1206.9
465.065	1205.1
465.438	1216.85
465.81	1274.47
466.183	1248.94
466.555	1254.81
466.928	1277.18
467.3	1261.59
467.672	1282.83
468.045	1327.8
468.417	1316.5
468.789	1328.93
469.161	1318.09
469.534	1359.44
469.906	1366
470.278	1397.18
470.65	1417.52
471.022	1401.02
471.394	1443.73
471.766	1490.74
472.138	1493.22
472.51	1500.45
472.882	1522.6
473.253	1554.92
473.625	1561.02
473.997	1607.34
474.369	1625.2
474.74	1601.24
475.112	1644.63
475.484	1694.35
475.855	1713.78
476.227	1727.34
476.598	1780
476.97	1798.75
477.341	1830.16
477.713	1819.09
478.084	1851.63
478.455	1899.99
478.827	1922.36
479.198	1991.97
479.569	1994.45
479.94	2038.75
480.311	2025.64
480.682	2101.8
481.053	2126.65
481.424	2164.62
481.795	2181.11
482.166	2201.23
482.537	2238.29
482.908	2296.37
483.279	2258.63
483.65	2331.17
484.021	2416.14
484.391	2423.82
484.762	2447.55
485.133	2502.46
485.503	2521.22
485.874	2550.6
486.244	2577.94
486.615	2623.82
486.985	2700.2
487.356	2720.99
487.726	2726.64
488.097	2796.92
488.467	2803.7
488.837	2853.87
489.207	2928.44
489.578	2982.22
489.948	2946.07
490.318	3014.54
490.688	3025.39
491.058	3061.09
491.428	3115.78
491.798	3158.94
492.168	3221.99
492.538	3206.4
492.908	3284.14
493.278	3305.15
493.648	3315.77
494.017	3400.07
494.387	3407.3
494.757	3417.69
495.126	3482.32
495.496	3481.19
495.866	3521.42
496.235	3508.09
496.605	3566.84
496.974	3613.17
497.344	3583.56
497.713	3664.47
498.082	3691.58
498.452	3770.45
498.821	3704.46
499.19	3721.19
499.559	3809.55
499.928	3804.8
500.298	3823.11
500.667	3868.98
501.036	3806.83
501.405	3838.92
501.774	3859.26
502.143	3936.32
502.512	3909.88
502.88	4013.61
503.249	4002.08
503.618	4037.56
503.987	4038.47
504.356	4042.31
504.724	4056.09
505.093	4090.67
505.462	4086.6
505.83	4129.54
506.199	4158.69
506.567	4234.17
506.936	4227.84
507.304	4226.03
507.672	4254.05
508.041	4262.42
508.409	4294.73
508.777	4289.76
509.145	4319.59
509.514	4364.11
509.882	4319.59
510.25	4386.03
510.618	4433.71
510.986	4367.05
511.354	4416.31
511.722	4486.37
512.09	4498.79
512.458	4485.24
512.826	4494.73
513.193	4547.38
513.561	4548.06
513.929	4573.14
514.297	4576.76
514.664	4595.29
515.032	4652.24
515.4	4633.93
515.767	4656.53
516.135	4655.85
516.502	4723.87
516.869	4736.98
517.237	4736.75
517.604	4722.29
517.972	4774.04
518.339	4771.78
518.706	4827.37
519.073	4763.19
519.44	4859.01
519.808	4888.16
520.175	4826.24
520.542	4917.54
520.909	4946.47
521.276	4903.98
521.643	5004.54
522.009	4991.66
522.376	4991.44
522.743	4992.11
523.11	5056.07
523.477	5100.13
523.843	5110.08
524.21	5150.53
524.577	5185.33
524.943	5220.13
525.31	5216.97
525.676	5241.15
526.043	5301.03
526.409	5240.24
526.776	5321.15
527.142	5316.4
527.508	5393.23
527.874	5344.65
528.241	5435.04
528.607	5452.22
528.973	5470.97
529.339	5477.75
529.705	5513.68
530.071	5579.44
530.437	5588.26
530.803	5639.78
531.169	5657.86
531.535	5639.33
531.901	5685.2
532.267	5669.38
532.632	5735.15
532.998	5800.23
533.364	5818.99
533.73	5786.22
534.095	5836.61
534.461	5905.08
534.826	5915.71
535.192	5904.86
535.557	5977.4
535.923	5975.37
536.288	5976.95
536.653	5979.66
537.019	6024.4
537.384	6086.32
537.749	6075.25
538.114	6094.23
538.479	6115.7
538.845	6106.89
539.21	6198.86
539.575	6181.91
539.94	6188.47
540.305	6243.61
540.67	6265.53
541.034	6272.98
541.399	6300.78
541.764	6381.68
542.129	6359.31
542.494	6369.25
542.858	6465.52
543.223	6379.42
543.587	6446.31
543.952	6502.36
544.316	6476.37
544.681	6520.89
545.045	6579.42
545.41	6612.18
545.774	6539.19
546.138	6606.08
546.503	6632.98
546.867	6678.62
547.231	6661.22
547.595	6688.79
547.959	6767.44
548.324	6796.59
548.688	6799.3
549.052	6772.63
549.416	6804.04
549.779	6855.79
550.143	6868.9
550.507	6900.31
550.871	6945.06
551.235	6900.76
551.599	6968.11
551.962	6962.23
552.326	6995.68
552.689	7074.55
553.053	7088.33
553.417	7084.26
553.78	7123.13
554.143	7121.1
554.507	7107.99
554.87	7178.72
555.234	7211.04
555.597	7239.29
555.96	7220.76
556.323	7284.48
556.686	7292.62
557.05	7306.18
557.413	7320.64
557.776	7261.21
558.139	7343.01
558.502	7381.43
558.865	7380.75
559.228	7420.07
559.59	7485.38
559.953	7502.11
560.316	7578.04
560.679	7576.91
561.041	7613.29
561.404	7627.75
561.767	7677.24
562.129	7685.83
562.492	7669.11
562.854	7716.34
563.217	7674.3
563.579	7729.67
563.941	7829.33
564.304	7809.22
564.666	7867.29
565.028	7840.18
565.39	7902.55
565.753	7982.77
566.115	8001.3
566.477	7959.27
566.839	7965.14
567.201	8101.19
567.563	8088.76
567.925	8110.22
568.287	8107.96
568.648	8196.55
569.01	8207.17
569.372	8302.08
569.734	8246.49
570.095	8276.55
570.457	8299.15
570.819	8348.86
571.18	8396.77
571.542	8406.94
571.903	8475.19
572.265	8536.88
572.626	8576.65
572.987	8631.11
573.349	8623.21
573.71	8695.97
574.071	8727.61
574.432	8788.62
574.794	8903.65
575.155	8896.42
575.516	8927.38
575.877	8988.62
576.238	9036.08
576.599	9124.44
576.96	9147.03
577.32	9205.34
577.681	9273.13
578.042	9346.8
578.403	9458.44
578.763	9471.54
579.124	9572.56
579.485	9697.98
579.845	9802.84
580.206	9913.79
580.566	10095.26
580.927	10142.49
581.287	10247.8
581.648	10392.42
582.008	10493.44
582.368	10653.66
582.728	10754.67
583.089	10899.3
583.449	11019.3
583.809	11160.31
584.169	11391.27
584.529	11473.98
584.889	11721.88
585.249	11809.56
585.609	11917.81
585.969	12184.02
586.329	12343.11
586.688	12563.67
587.048	12735.64
587.408	12905.8
587.768	13103.31
588.127	13322.97
588.487	13531.33
588.846	13917.08
589.206	13980.13
589.565	14215.37
589.925	14565.2
590.284	14715.47
590.643	15072.75
591.003	15266.42
591.362	15502.8
591.721	15765.16
592.08	16029.56
592.44	16340.29
592.799	16571.47
593.158	16851.24
593.517	17067.5
593.876	17312.69
594.235	17627.71
594.593	17901.83
594.952	18227.47
595.311	18493.91
595.67	18771.41
596.029	19162.59
596.387	19426.76
596.746	19708.56
597.104	19844.38
597.463	20181.32
597.822	20626.28
598.18	20678.71
598.538	20964.35
598.897	21306.71
599.255	21495.41
599.613	22113.7
599.972	22274.82
600.33	22459.9
600.688	22637.98
601.046	23137.85
601.404	23375.13
601.762	23505.3
602.12	24060.77
602.478	24209.91
602.836	24355.9
603.194	24662.56
603.552	24943.45
603.91	25164.01
604.268	25509.77
604.625	25531.69
604.983	25933.48
605.341	25933.03
605.698	26478.1
606.056	26625.22
606.413	26881.26
606.771	27248.7
607.128	27420.23
607.485	27581.13
607.843	27718.07
608.2	28133.43
608.557	28487.32
608.914	28468.11
609.272	28751.72
609.629	29324.36
609.986	29318.93
610.343	29420.62
610.7	29742.88
611.057	29898.13
611.414	30175.86
611.771	30253.6
612.127	30675.51
612.484	30723.42
612.841	30930.42
613.198	31020.36
613.554	31266
613.911	31616.05
614.267	31582.83
614.624	31777.62
614.98	32069.14
615.337	32176.48
615.693	32229.36
616.05	32493.99
616.406	32669.8
616.762	32704.83
617.118	32958.61
617.475	33035.44
617.831	33312.27
618.187	33430.46
618.543	33660.51
618.899	33894.41
619.255	33867.97
619.611	34005.36
619.967	34253.94
620.323	34394.28
620.678	34315.19
621.034	34410.78
621.39	34438.12
621.746	34604.22
622.101	35132.34
622.457	34917.88
622.812	34961.5
623.168	35205.56
623.523	35327.14
623.879	35505.44
624.234	35282.39
624.589	35567.81
624.945	35615.72
625.3	35738.2
625.655	35781.14
626.01	35777.07
626.365	35946.1
626.72	36028.36
627.075	35945.2
627.43	36141.35
627.785	36053.44
628.14	36193.1
628.495	36189.94
628.85	36309.48
629.205	36134.57
629.559	36604.39
629.914	36436.26
630.269	36497.27
630.623	36323.27
630.978	36370.95
631.332	36557.84
631.687	36594.9
632.041	36576.59
632.396	36745.4
632.75	36684.16
633.104	36761.22
633.459	36596.48
633.813	36654.78
634.167	36600.55
634.521	36641.68
634.875	36850.03
635.229	36668.8
635.583	36784.72
635.937	36683.48
636.291	36689.36
636.645	36741.79
636.999	36725.52
637.352	36902.91
637.706	36573.66
638.06	36724.16
638.413	36707.21
638.767	36638.74
639.121	36747.89
639.474	36495.24
639.828	36638.06
640.181	36783.59
640.534	36733.65
640.888	36661.34
641.241	36525.3
641.594	36568.01
641.947	36653.2
642.301	36632.64
642.654	36618.63
643.007	36737.04
643.36	36565.07
643.713	36472.87
644.066	36703.37
644.419	36537.73
644.771	36266.09
645.124	35850.06
645.477	35989.49
645.83	35746.33
646.182	35551.99
646.535	35536.62
646.888	35597.41
647.24	35302.5
647.593	35674.25
647.945	35634.7
648.298	35437.87
648.65	35330.75
649.002	35342.95
649.355	35481.26
649.707	35319.23
650.059	35490.3
650.411	36029.72
650.763	35973.9
651.115	36370.72
651.467	36118.08
651.819	36189.94
652.171	36127.57
652.523	36231.97
652.875	36121.92
653.227	36051.86
653.578	36243.5
653.93	36131.18
654.282	35993.11
654.633	35894.8
654.985	36008.93
655.337	35964.86
655.688	36059.77
656.039	36072.43
656.391	35848.03
656.742	35765.09
657.094	35913.11
657.445	36034.91
657.796	35996.27
658.147	35739.33
658.498	35784.98
658.849	35998.53
659.2	35775.03
659.551	35845.77
659.902	35946.1
660.253	35957.85
660.604	35874.01
660.955	35813.45
661.306	35885.77
661.656	35770.06
662.007	35838.54
662.358	35714.02
662.708	35798.54
663.059	35777.29
663.409	35549.28
663.76	35850.51
664.11	35762.83
664.461	35642.83
664.811	35807.12
665.161	35741.59
665.511	35721.7
665.862	35749.72
666.212	35910.85
666.562	35852.55
666.912	35803.28
667.262	35645.77
667.612	35825.43
667.962	35887.57
668.312	35730.74
668.662	35990.62
669.011	35677.41
669.361	35657.3
669.711	35732.1
670.06	35785.66
670.41	35536.62
670.76	35417.08
671.109	35510.18
671.459	35581.82
671.808	35607.13
672.157	35736.84
672.507	35460.69
672.856	35437.19
673.205	35458.66
673.554	35523.52
673.904	35428.38
674.253	35661.14
674.602	35620.46
674.951	35028.39
675.3	34878.11
675.649	35419.79
675.998	35394.25
676.346	35361.03
676.695	35396.96
677.044	35183.41
677.393	35387.02
677.741	35421.6
678.09	35270.87
678.438	35227.93
678.787	35333.92
679.135	35285.33
679.484	34962.85
679.832	35207.82
680.181	34986.58
680.529	35095.5
680.877	34900.48
681.225	34954.04
681.573	35183.41
681.922	34896.19
682.27	34818.67
682.618	34743.42
682.966	34735.06
683.314	34938.67
683.661	34717.89
684.009	34518.57
684.357	34483.77
684.705	34528.51
685.053	34532.13
685.4	34394.28
685.748	34288.97
686.095	34244.45
686.443	34038.81
686.79	34131.91
687.138	34080.16
687.485	34161.29
687.832	34099.82
688.18	34042.2
688.527	33882.88
688.874	33807.85
689.221	33834.75
689.568	33670.68
689.915	33637.24
690.262	33648.08
690.609	33530.12
690.956	33491.7
691.303	33341.65
691.65	33261.88
691.997	33297.36
692.344	33012.85
692.69	32986.63
693.037	33134.88
693.383	32824.83
693.73	32851.27
694.077	32686.75
694.423	32894.66
694.769	32635.68
695.116	32575.34
695.462	32511.62
695.808	32299.19
696.155	32476.36
696.501	32159.54
696.847	32117.05
697.193	31974
697.539	32025.98
697.885	31909.6
698.231	31799.77
698.577	31785.76
698.923	31688.59
699.269	31624.18
699.614	31364.08
699.96	31375.6
700.306	31474.81
700.651	31169.51
700.997	31226.68
701.342	31135.61
701.688	31166.34
702.033	30923.64
702.379	30904.88
702.724	30682.74
703.069	30960.25
703.415	30513.25
703.76	30569.97
704.105	30535.17
704.45	30522.06
704.795	30404.78
705.14	30285.91
705.485	30282.07
705.83	30049.99
706.175	30193.26
706.52	30016.77
706.865	29942.42
707.209	29975.64
707.554	29878.24
707.899	29894.06
708.243	29763.44
708.588	29698.81
708.932	29437.12
709.277	29333.4
709.621	29514.86
709.966	29286.16
710.31	29305.83
710.654	29057.7
710.998	29187.18
711.342	29192.16
711.687	29134.3
712.031	28910.13
712.375	28957.13
712.719	28920.07
713.063	28885.5
713.407	28920.3
713.75	28649.57
714.094	28694.32
714.438	28566.41
714.782	28658.84
715.125	28458.62
715.469	28433.08
715.812	28410.71
716.156	28242.35
716.499	28218.85
716.843	28344.27
717.186	28085.07
717.53	28251.39
717.873	28171.84
718.216	28104.28
718.559	28037.61
718.902	27817.28
719.246	27878.29
719.589	27816.15
719.932	27684.63
720.275	27684.17
720.617	27760.33
720.96	27686.21
721.303	27443.05
721.646	27535.48
721.989	27407.57
722.331	27518.98
722.674	27400.11
723.016	27353.33
723.359	27268.36
723.701	27373.45
724.044	27182.04
724.386	26998.99
724.729	27277.86
725.071	27209.16
725.413	27137.97
725.755	27049.84
726.097	27020.24
726.439	26846
726.782	26702.05
727.124	27009.84
727.465	26713.13
727.807	26898.43
728.149	26675.61
728.491	26655.73
728.833	26778.66
729.175	26582.96
729.516	26487.14
729.858	26473.81
730.199	26533.24
730.541	26400.59
730.882	26374.6
731.224	26412.34
731.565	26232.46
731.906	26325.56
732.248	26301.84
732.589	26092.35
732.93	25986.36
733.271	26062.29
733.612	26165.57
733.953	26121.73
734.294	25994.5
734.635	25926.93
734.976	25977.1
735.317	25943.88
735.658	25872.47
735.999	25832.02
736.339	25891.23
736.68	25902.98
737.021	25782.75
737.361	25693.49
737.702	25709.99
738.042	25646.03
738.383	25542.99
738.723	25665.47
739.063	25438.36
739.404	25679.93
739.744	25367.62
740.084	25385.93
740.424	25468.41
740.764	25420.28
741.104	25506.15
741.444	25220.74
741.784	25214.63
742.124	25343.44
742.464	25131.02
742.804	25114.75
743.143	25101.42
743.483	25099.38
743.823	24940.52
744.162	24959.95
744.502	25137.35
744.841	24893.06
745.181	25091.7
745.52	24904.81
745.86	24840.86
746.199	24863.23
746.538	24776.91
746.877	24663.24
747.216	24716.57
747.556	24764.02
747.895	24708.88
748.234	24649
748.573	24571.49
748.911	24419.63
749.25	24434.09
749.589	24409.68
749.928	24489
750.267	24441.77
750.605	24297.82
750.944	24363.58
751.283	24205.62
751.621	24210.37
751.96	24136.24
752.298	24199.07
752.636	24155.45
752.975	23976.02
753.313	23942.12
753.651	24089.01
753.989	23930.6
754.327	23910.26
754.666	23893.76
755.004	23700.32
755.342	23852.41
755.679	23731.51
756.017	23606.09
756.355	23657.61
756.693	23541.23
757.031	23561.34
757.368	23449.48
757.706	23442.02
758.044	23304.4
758.381	23272.31
758.719	23261.92
759.056	23202.26
759.394	23206.1
759.731	23031.87
760.068	22993.45
760.405	22907.12
760.743	22834.36
761.08	22802.49
761.417	22778.31
761.754	22683.4
762.091	22600.92
762.428	22602.5
762.765	22330.64
763.102	22526.79
763.438	22314.14
763.775	22334.71
764.112	22242.51
764.449	22278.67
764.785	22184.88
765.122	22034.38
765.458	21982.4
765.795	22009.75
766.131	21921.39
766.467	21861.05
766.804	21714.39
767.14	21701.05
767.476	21627.38
767.812	21659.7
768.148	21578.12
768.485	21435.52
768.821	21270.33
769.157	21292.02
769.492	21230.56
769.828	21151.92
770.164	20922.09
770.5	20967.06
770.836	20954.86
771.171	20854.07
771.507	20879.38
771.842	20698.37
772.178	20604.36
772.513	20577.24
772.849	20589.9
773.184	20437.58
773.519	20412.5
773.855	20304.25
774.19	20154.65
774.525	20198.04
774.86	20197.36
775.195	20099.29
775.53	20003.92
775.865	19926.41
776.2	19793.53
776.535	19615.23
776.87	19574.78
777.205	19538.85
777.539	19459.98
777.874	19525.29
778.209	19334.56
778.543	19296.37
778.878	19197.62
779.212	19159.88
779.547	19064.51
779.881	19139.09
780.215	18993.78
780.55	18937.28
780.884	18849.38
781.218	18804.41
781.552	18811.19
781.886	18606.67
782.22	18647.35
782.554	18512.66
782.888	18371.2
783.222	18313.35
783.556	18260.47
783.889	18149.96
784.223	18049.62
784.557	18088.27
784.89	18051.66
785.224	17916.97
785.557	17808.73
785.891	17785.22
786.224	17698.9
786.558	17761.04
786.891	17541.16
787.224	17554.04
787.557	17565.8
787.891	17427.49
788.224	17354.05
788.557	17427.72
788.89	17312.47
789.223	17315.63
789.556	17089.42
789.888	17164
790.221	17014.17
790.554	16881.75
790.887	17029.54
791.219	16919.03
791.552	16841.29
791.884	16777.34
792.217	16738.7
792.549	16671.36
792.882	16568.31
793.214	16503.68
793.546	16508.65
793.879	16408.31
794.211	16258.94
794.543	16372.15
794.875	16337.58
795.207	16248.77
795.539	16143.01
795.871	16222.55
796.203	15993.86
796.535	15950.24
796.867	15890.36
797.198	15898.49
797.53	15872.05
797.862	15768.33
798.193	15811.27
798.525	15620.54
798.856	15742.11
799.188	15497.83
799.519	15435.46
799.85	15378.06
800.182	15397.72
800.513	15430.94
800.844	15286.76
801.175	15403.37
801.506	15306.87
801.837	15091.51
802.168	15086.31
802.499	15107.55
802.83	14976.71
803.161	14908.24
803.491	14955.92
803.822	14914.11
804.153	14833.89
804.483	14795.92
804.814	14617.85
805.145	14618.75
805.475	14619.21
805.805	14648.81
806.136	14576.27
806.466	14625.76
806.796	14547.12
807.126	14458.98
807.457	14386.67
807.787	14441.58
808.117	14305.54
808.447	14296.28
808.777	14289.5
809.107	14210.18
809.436	14185.09
809.766	14249.05
810.096	14181.25
810.426	14036.17
810.755	14096.06
811.085	14004.31
811.414	14054.48
811.744	13916.85
812.073	13956.4
812.403	13851.77
812.732	13749.17
813.061	13855.61
813.39	13755.5
813.719	13609.74
814.049	13729.74
814.378	13626.01
814.707	13656.97
815.036	13533.81
815.365	13564.54
815.693	13482.06
816.022	13454.72
816.351	13402.06
816.68	13286.81
817.008	13385.11
817.337	13281.84
817.665	13235.97
817.994	13263.54
818.322	13177.21
818.651	13079.13
818.979	13127.04
819.307	13143.54
819.636	13147.83
819.964	13056.76
820.292	13066.25
820.62	13086.59
820.948	12924.11
821.276	13051.56
821.604	13007.27
821.932	13040.26
822.259	13000.04
822.587	13016.54
822.915	13014.28
823.243	13016.54
823.57	12940.83
823.898	12943.32
824.225	12932.47
824.553	12950.55
824.88	12991.45
825.207	12956.42
825.535	12852.7
825.862	12891.79
826.189	12812.25
826.516	12952.58
826.843	12928.4
827.17	12861.74
827.497	12926.6
827.824	12980.15
828.151	12899.7
828.478	12920.04
828.805	12892.02
829.131	12908.52
829.458	12886.37
829.785	12842.3
830.111	12814.28
830.438	12885.69
830.764	12887.95
831.09	12861.96
831.417	12901.74
831.743	12922.75
832.069	12846.37
832.395	12806.82
832.722	12865.81
833.048	12811.57
833.374	12820.38
833.7	12764.79
834.026	12687.96
834.351	12808.41
834.677	12776.32
835.003	12839.14
835.329	12705.13
835.654	12711.23
835.98	12665.81
836.306	12776.32
836.631	12611.35
836.956	12692.93
837.282	12704.45
837.607	12564.34
837.932	12577.23
838.258	12551.24
838.583	12582.88
838.908	12471.47
839.233	12463.56
839.558	12502.2
839.883	12413.16
840.208	12369.32
840.533	12317.8
840.858	12404.8
841.182	12422.43
841.507	12368.64
841.832	12266.5
842.156	12261.53
842.481	12252.49
842.805	12204.81
843.13	12142.21
843.454	12225.82
843.778	12137.92
844.103	12018.6
844.427	12051.59
844.751	11956.23
845.075	11979.73
845.399	12018.14
845.723	11918.71
846.047	11960.74
846.371	11819.73
846.695	11843.91
847.019	11773.18
847.343	11637.82
847.666	11586.97
847.99	11617.48
848.313	11564.15
848.637	11447.99
848.96	11504.26
849.284	11471.27
849.607	11276.02
849.931	11306.07
850.254	11194.66
850.577	11205.96
850.9	11187.43
851.223	11126.64
851.546	11077.83
851.869	11070.82
852.192	11040.54
852.515	10976.82
852.838	10894.56
853.161	10914.44
853.483	10849.36
853.806	10835.58
854.129	10819.53
854.451	10713.55
854.774	10702.25
855.096	10756.93
855.419	10639.2
855.741	10665.64
856.063	10570.27
856.385	10531.4
856.708	10514.23
857.03	10492.08
857.352	10468.35
857.674	10470.61
857.996	10390.39
858.318	10245.31
858.64	10370.5
858.961	10270.39
859.283	10288.7
859.605	10270.17
859.926	10298.42
860.248	10228.36
860.57	10133.45
860.891	10175.26
861.212	10101.81
861.534	10104.75
861.855	10123.51
862.176	10069.95
862.498	10040.57
862.819	10056.16
863.14	9976.16
863.461	9941.14
863.782	9893
864.103	9998.76
864.424	9906.34
864.745	9941.14
865.065	9851.42
865.386	9787.47
865.707	9760.35
866.027	9817.3
866.348	9756.96
866.668	9818.43
866.989	9737.53
867.309	9668.15
867.63	9752.22
867.95	9739.56
868.27	9728.94
868.59	9685.78
868.91	9654.14
869.23	9668.15
869.55	9616.4
869.87	9680.58
870.19	9570.53
870.51	9615.04
870.83	9549.96
871.15	9562.62
871.469	9535.05
871.789	9578.21
872.109	9562.16
872.428	9428.38
872.748	9511.09
873.067	9533.92
873.386	9434.03
873.706	9502.28
874.025	9383.41
874.344	9414.15
874.663	9371.66
874.982	9332.79
875.301	9376.63
875.62	9366.91
875.939	9341.6
876.258	9297.09
876.577	9260.02
876.896	9274.49
877.214	9215.96
877.533	9247.6
877.852	9235.39
878.17	9243.3
878.489	9173.02
878.807	9237.88
879.125	9169.41
879.444	9184.77
879.762	9093.7
880.08	9116.3
880.398	9090.99
880.716	9109.52
881.034	9082.63
881.352	9072.23
881.67	9008.51
881.988	9015.74
882.306	8990.43
882.624	8840.6
882.941	8954.95
883.259	8918.56
883.577	8928.73
883.894	8863.65
884.212	8925.12
884.529	8867.72
884.846	8802.18
885.164	8805.35
885.481	8746.37
885.798	8813.03
886.115	8749.3
886.432	8716.54
886.75	8661.85
887.067	8666.14
887.383	8691.9
887.7	8651.91
888.017	8582.98
888.334	8599.7
888.651	8575.3
888.967	8569.65
889.284	8514.96
889.6	8534.62
889.917	8410.78
890.233	8487.39
890.55	8420.95
890.866	8481.51
891.182	8367.39
891.498	8399.26
891.815	8267.28
892.131	8324.68
892.447	8264.34
892.763	8198.58
893.079	8195.42
893.395	8166.49
893.71	8209.21
894.026	8200.84
894.342	8179.83
894.657	8058.02
894.973	8076.1
895.289	8112.26
895.604	7991.36
895.92	8055.99
896.235	8013.96
896.55	7982.54
896.865	7902.77
897.181	7926.95
897.496	7900.96
897.811	7836.33
898.126	7812.38
898.441	7824.36
898.756	7754.75
899.071	7719.27
899.386	7747.75
899.7	7669.33
900.015	7631.37
900.33	7532.61
900.644	7525.38
900.959	7600.18
901.273	7537.58
901.588	7512.73
901.902	7427.53
902.216	7458.49
902.531	7475.21
902.845	7451.71
903.159	7384.37
903.473	7344.14
903.787	7326.29
904.101	7282.68
904.415	7336.01
904.729	7279.74
905.042	7186.86
905.356	7193.64
905.67	7159.29
905.984	7126.52
906.297	7112.28
906.611	7061.44
906.924	7078.84
907.237	7068.67
907.551	7068.44
907.864	6950.71
908.177	6919.97
908.491	6957.49
908.804	6955.68
909.117	6840.43
909.43	6814.21
909.743	6824.83
910.056	6843.59
910.368	6721.56
910.681	6749.81
910.994	6684.05
911.307	6649.7
911.619	6652.41
911.932	6662.35
912.244	6623.94
912.557	6564.95
912.869	6541.45
913.181	6557.05
913.494	6554.11
913.806	6461.91
914.118	6477.27
914.43	6366.99
914.742	6370.16
915.054	6321.12
915.366	6337.62
915.678	6302.59
915.99	6298.52
916.302	6272.31
916.613	6251.29
916.925	6222.59
917.236	6236.15
917.548	6167
917.859	6172.87
918.171	6099.66
918.482	6068.24
918.794	6065.31
919.105	6092.42
919.416	5997.74
919.727	6003.61
920.038	6000.68
920.349	5958.19
920.66	5922.49
920.971	5895.59
921.282	5896.27
921.593	5833
921.903	5886.1
922.214	5814.01
922.525	5780.79
922.835	5759.78
923.146	5693.56
923.456	5722.94
923.767	5691.53
924.077	5609.73
924.387	5671.87
924.697	5594.36
925.008	5602.49
925.318	5574.25
925.628	5557.75
925.938	5507.58
926.248	5464.64
926.558	5464.87
926.867	5385.55
927.177	5458.54
927.487	5410.63
927.796	5356.4
928.106	5383.29
928.416	5313.69
928.725	5266.68
929.034	5224.65
929.344	5306.23
929.653	5284.99
929.962	5232.56
930.271	5202.5
930.581	5164.54
930.89	5183.75
931.199	5075.95
931.508	5160.02
931.817	5063.3
932.125	5078.67
932.434	5080.02
932.743	5014.03
933.051	4973.13
933.36	4951.44
933.669	4935.84
933.977	4927.48
934.286	4905.11
934.594	4885.45
934.902	4894.49
935.21	4836.19
935.519	4817.66
935.827	4849.97
936.135	4791.44
936.443	4768.39
936.751	4743.53
937.059	4720.48
937.367	4650.43
937.674	4718.9
937.982	4672.35
938.29	4627.15
938.597	4653.14
938.905	4603.2
939.213	4592.8
939.52	4550.77
939.827	4602.07
940.135	4520.71
940.442	4561.62
940.749	4515.52
941.056	4491.34
941.363	4471
941.67	4454.95
941.977	4455.18
942.284	4384.9
942.591	4460.6
942.898	4368.18
943.205	4367.72
943.511	4324.56
943.818	4335.18
944.125	4305.35
944.431	4280.72
944.738	4243.66
945.044	4254.96
945.35	4223.77
945.657	4161.63
945.963	4179.71
946.269	4150.55
946.575	4141.97
946.881	4131.12
947.187	4088.86
947.493	4093.61
947.799	4059.48
948.105	4038.92
948.41	4087.51
948.716	4009.77
949.022	3980.16
949.327	3975.19
949.633	3917.79
949.938	3955.53
950.244	3908.98
950.549	3947.4
950.854	3875.99
951.16	3887.74
951.465	3875.76
951.77	3861.3
952.075	3826.27
952.38	3798.02
952.685	3806.61
952.99	3807.74
953.294	3763.22
953.599	3743.79
953.904	3759.15
954.209	3755.76
954.513	3699.95
954.818	3648.42
955.122	3708.98
955.426	3668.99
955.731	3673.05
956.035	3632.15
956.339	3634.86
956.643	3616.78
956.948	3554.41
957.252	3583.79
957.556	3587.63
957.86	3501.31
958.163	3530.01
958.467	3471.25
958.771	3548.31
959.075	3460.63
959.378	3496.79
959.682	3446.62
959.985	3428.54
960.289	3369.78
960.592	3412.95
960.896	3411.14
961.199	3393.29
961.502	3331.37
961.805	3336.11
962.108	3291.37
962.411	3325.72
962.714	3361.2
963.017	3302.22
963.32	3250.24
963.623	3276.23
963.926	3266.74
964.228	3236.23
964.531	3285.94
964.833	3192.16
965.136	3190.13
965.438	3159.62
965.741	3190.58
966.043	3159.85
966.345	3092.28
966.648	3133.41
966.95	3107.19
967.252	3119.62
967.554	3072.62
967.856	3087.31
968.158	3021.54
968.46	3024.48
968.761	3078.49
969.063	3025.61
969.365	2992.17
969.666	2984.26
969.968	2967.99
970.269	2976.57
970.571	2979.51
970.872	2939.51
971.174	2921.21
971.475	2894.32
971.776	2899.74
972.077	2866.97
972.378	2907.2
972.679	2869.01
972.98	2867.65
973.281	2885.5
973.582	2849.8
973.883	2811.83
974.183	2832.62
974.484	2792.17
974.785	2766.86
975.085	2796.47
975.386	2782
975.686	2713.98
975.986	2747.65
976.287	2714.21
976.587	2711.5
976.887	2739.97
977.187	2719.18
977.487	2665.62
977.787	2641.89
978.087	2612.52
978.387	2648.45
978.687	2634.89
978.987	2634.21
979.286	2604.15
979.586	2584.49
979.885	2601.44
980.185	2605.28
980.484	2557.83
980.784	2540.88
981.083	2551.5
981.382	2523.48
981.682	2514.67
981.981	2525.29
982.28	2495.68
982.579	2471.28
982.878	2461.33
983.177	2475.57
983.475	2435.57
983.774	2460.43
984.073	2458.4
984.372	2403.93
984.67	2463.14
984.969	2407.1
985.267	2405.06
985.566	2381.34
985.864	2357.38
986.162	2341.34
986.461	2336.82
986.759	2321.9
987.057	2308.12
987.355	2358.29
987.653	2288.23
987.951	2294.56
988.249	2299.08
988.547	2280.1
988.844	2256.82
989.142	2263.37
989.44	2213.43
989.737	2236.03
990.035	2226.76
990.332	2238.51
990.63	2207.33
990.927	2244.39
991.224	2200.55
991.521	2164.62
991.819	2197.61
992.116	2188.35
992.413	2180.21
992.71	2156.71
993.006	2104.05
993.303	2118.52
993.6	2104.51
993.897	2118.97
994.193	2094.11
994.49	2105.18
994.787	2069.03
995.083	2050.04
995.379	2066.54
995.676	2009.37
995.972	2003.27
996.268	2013.44
996.565	2003.94
996.861	1992.87
997.157	2001.01
997.453	1973.66
997.749	1979.99
998.044	1971.18
998.34	1979.76
998.636	1945.19
998.932	1962.14
999.227	1909.26
999.523	1934.12
999.818	1938.18
1000.114	1892.08
1000.409	1850.28
1000.704	1866.1
1001	1893.89
1001.295	1863.16
1001.59	1874.91
1001.885	1858.64
1002.18	1843.95
1002.475	1821.12
1002.77	1813.89
1003.065	1806.44
1003.359	1778.41
1003.654	1795.81
1003.949	1751.3
1004.243	1761.01
1004.538	1731.41
1004.832	1736.15
1005.127	1734.57
1005.421	1701.13
1005.715	1732.31
1006.009	1723.5
1006.304	1713.33
1006.598	1706.1
1006.892	1677.4
1007.186	1652.99
1007.48	1669.04
1007.773	1657.51
1008.067	1673.33
1008.361	1624.29
1008.655	1633.11
1008.948	1605.76
1009.242	1630.62
1009.535	1629.27
1009.829	1593.33
1010.122	1582.71
1010.415	1570.96
1010.708	1561.24
1011.001	1549.04
1011.295	1552.66
1011.588	1563.5
1011.881	1512.21
1012.173	1529.15
1012.466	1502.04
1012.759	1508.14
1013.052	1502.71
1013.344	1511.75
1013.637	1468.14
1013.93	1467.46
1014.222	1473.34
1014.514	1441.7
1014.807	1467.91
1015.099	1451.64
1015.391	1443.28
1015.683	1442.15
1015.976	1418.42
1016.268	1420.68
1016.56	1380.23
1016.851	1368.93
1017.143	1389.27
1017.435	1356.96
1017.727	1368.71
1018.018	1358.09
1018.31	1350.63
1018.602	1345.43
1018.893	1311.08
1019.185	1321.93
1019.476	1332.1
1019.767	1300.01
1020.058	1295.94
1020.35	1288.48
1020.641	1288.48
1020.932	1267.47
1021.223	1252.33
1021.514	1253.68
1021.804	1227.24
1022.095	1232.89
1022.386	1241.7
1022.677	1241.03
1022.967	1182.72
1023.258	1214.13
1023.548	1211.87
1023.839	1211.87
1024.129	1197.41
1024.419	1180.46
1024.709	1182.72
1025	1168.49
1025.29	1171.42
1025.58	1173.01
1025.87	1156.28
1026.16	1158.54
1026.449	1132.33
1026.739	1127.36
1027.029	1128.71
1027.319	1112.67
1027.608	1099.56
1027.898	1099.11
1028.187	1095.49
1028.477	1109.5
1028.766	1069.51
1029.055	1054.59
1029.344	1065.66
1029.634	1063.86
1029.923	1074.93
1030.212	1041.94
1030.501	1042.16
1030.79	1041.48
1031.078	1043.74
1031.367	1017.3
1031.656	1032.67
1031.945	1007.59
1032.233	1005.55
1032.522	1011.2
1032.81	1010.52
1033.099	963.97
1033.387	968.49
1033.675	973.24
1033.963	974.14
1034.251	957.42
1034.54	979.34
1034.828	953.12
1035.116	951.54
1035.403	974.59
1035.691	936.85
1035.979	923.07
1036.267	907.48
1036.554	909.06
1036.842	906.12
1037.129	913.35
1037.417	888.49
1037.704	893.92
1037.992	888.72
1038.279	884.88
1038.566	890.75
1038.853	890.75
1039.14	890.75
