Data from hue_28_FLMS001491_00070.txt Node
Date: Tue Feb 07 17:17:37 GMT 2017
User: dcchb
Spectrometer: FLMS00149
Trigger mode: 0
Integration Time (sec): 2.000000E-2
Scans to average: 10
Electric dark correction enabled: true
Nonlinearity correction enabled: false
Boxcar width: 0
XAxis mode: Wavelengths
Number of Pixels in Spectrum: 2048
>>>>>Begin Spectral Data<<<<<
341.393	-13.64
341.776	-13.64
342.16	-13.64
342.543	-59.07
342.927	-67.43
343.31	-62.23
343.693	-76.69
344.077	-78.73
344.46	-53.64
344.843	-61.33
345.226	-20.65
345.61	-46.86
345.993	-8.9
346.376	-5.51
346.759	1.05
347.142	32.46
347.525	30.42
347.908	68.61
348.291	66.35
348.674	96.41
349.057	119.23
349.44	140.02
349.823	149.06
350.206	155.84
350.588	205.79
350.971	202.85
351.354	216.86
351.737	226.58
352.119	265.9
352.502	254.6
352.884	272.68
353.267	297.99
353.65	306.35
354.032	309.74
354.414	308.83
354.797	316.74
355.179	333.69
355.562	325.33
355.944	317.2
356.326	336.18
356.709	331.43
357.091	329.62
357.473	336.86
357.855	342.28
358.238	349.28
358.62	333.24
359.002	316.74
359.384	358.1
359.766	346.35
360.148	337.76
360.53	348.38
360.912	341.15
361.294	326.01
361.676	332.34
362.057	333.92
362.439	336.86
362.821	342.73
363.203	312.45
363.584	326.91
363.966	330.75
364.348	324.65
364.729	328.49
365.111	314.48
365.493	322.17
365.874	321.26
366.256	322.84
366.637	311.32
367.019	327.36
367.4	301.38
367.781	310.42
368.163	329.17
368.544	304.09
368.925	312.22
369.306	320.36
369.688	317.42
370.069	312.22
370.45	337.76
370.831	308.38
371.212	317.87
371.593	307.7
371.974	307.93
372.355	324.88
372.736	311.55
373.117	314.48
373.498	318.78
373.879	315.39
374.26	308.38
374.641	315.39
375.021	321.49
375.402	337.53
375.783	327.59
376.163	316.07
376.544	346.8
376.925	324.2
377.305	327.82
377.686	323.97
378.066	322.62
378.447	313.35
378.827	303.64
379.208	329.17
379.588	336.18
379.968	332.11
380.349	357.19
380.729	334.82
381.109	356.06
381.489	344.76
381.87	332.11
382.25	330.75
382.63	338.89
383.01	349.28
383.39	345.22
383.77	340.7
384.15	342.28
384.53	340.47
384.91	352.9
385.29	356.52
385.67	320.58
386.049	343.86
386.429	362.84
386.809	327.82
387.189	344.54
387.568	351.54
387.948	349.74
388.328	338.66
388.707	354.93
389.087	362.62
389.466	358.1
389.846	353.8
390.225	345.89
390.605	359.45
390.984	358.1
391.363	348.15
391.743	362.62
392.122	352.22
392.501	362.39
392.881	380.92
393.26	361.26
393.639	379.57
394.018	383.41
394.397	356.74
394.776	359
395.155	363.07
395.534	387.25
395.913	382.05
396.292	380.47
396.671	378.89
397.05	370.08
397.429	382.73
397.808	391.54
398.186	376.4
398.565	385.67
398.944	391.54
399.323	413.01
399.701	380.24
400.08	392
400.458	396.51
400.837	396.29
401.215	384.99
401.594	401.49
401.972	410.98
402.351	395.39
402.729	397.42
403.107	405.33
403.486	411.43
403.864	389.51
404.242	407.36
404.62	416.18
404.999	416.63
405.377	399
405.755	406.01
406.133	400.58
406.511	415.5
406.889	408.04
407.267	397.87
407.645	429.96
408.023	428.6
408.401	420.92
408.779	409.85
409.156	434.25
409.534	429.28
409.912	439
410.29	447.81
410.667	448.49
411.045	447.59
411.422	444.65
411.8	450.52
412.178	439.68
412.555	446.01
412.933	479.9
413.31	438.1
413.687	485.33
414.065	451.43
414.442	479.45
414.819	460.92
415.197	477.64
415.574	467.93
415.951	449.85
416.328	477.64
416.705	460.24
417.082	470.86
417.46	483.97
417.837	488.49
418.214	489.85
418.591	480.13
418.967	495.72
419.344	518.55
419.721	499.11
420.098	486.23
420.475	471.77
420.852	503.18
421.228	502.27
421.605	510.18
421.982	534.82
422.358	516.29
422.735	530.52
423.111	530.3
423.488	541.6
423.864	540.01
424.241	534.14
424.617	563.29
424.994	547.47
425.37	525.1
425.746	525.78
426.123	523.29
426.499	575.95
426.875	535.95
427.251	548.38
427.627	556.28
428.003	574.59
428.379	569.62
428.756	591.54
429.132	589.96
429.507	613.23
429.883	577.3
430.259	598.54
430.635	607.58
431.011	601.26
431.387	611.2
431.763	607.13
432.138	608.03
432.514	617.3
432.89	629.73
433.265	620.01
433.641	630.18
434.016	636.06
434.392	649.39
434.767	651.65
435.143	642.61
435.518	649.84
435.894	675.6
436.269	671.54
436.644	674.02
437.02	671.31
437.395	674.02
437.77	671.54
438.145	685.55
438.52	702.04
438.895	700.01
439.271	720.12
439.646	709.28
440.021	726.9
440.395	737.3
440.77	701.37
441.145	702.04
441.52	715.38
441.895	737.52
442.27	749.95
442.645	730.97
443.019	718.99
443.394	751.99
443.769	759.44
444.143	741.36
444.518	765.32
444.892	771.42
445.267	789.5
445.641	789.05
446.016	774.58
446.39	780.91
446.764	786.11
447.139	787.47
447.513	765.54
447.887	769.84
448.262	798.09
448.636	806.45
449.01	810.29
449.384	811.42
449.758	821.59
450.132	838.54
450.506	829.05
450.88	822.49
451.254	838.99
451.628	836.05
452.002	850.29
452.376	850.51
452.75	848.71
453.123	841.02
453.497	857.29
453.871	865.88
454.244	895.94
454.618	901.81
454.992	916.95
455.365	920.12
455.739	899.1
456.112	927.57
456.486	951.75
456.859	933.22
457.232	961.25
457.606	960.79
457.979	952.66
458.352	988.36
458.725	987.69
459.099	985.88
459.472	1008.02
459.845	1033.11
460.218	1031.75
460.591	1023.62
460.964	1019.78
461.337	1042.15
461.71	1091.19
462.083	1075.82
462.456	1071.07
462.829	1097.29
463.201	1118.3
463.574	1112.65
463.947	1119.21
464.32	1156.04
464.692	1149.94
465.065	1159.66
465.438	1181.35
465.81	1204.63
466.183	1203.27
466.555	1233.56
466.928	1241.92
467.3	1230.62
467.672	1245.98
468.045	1291.63
468.417	1295.25
468.789	1298.86
469.161	1319.2
469.534	1327.56
469.906	1346.77
470.278	1376.38
470.65	1390.39
471.022	1397.39
471.394	1456.37
471.766	1443.27
472.138	1460.67
472.51	1519.88
472.882	1517.62
473.253	1539.76
473.625	1562.59
473.997	1583.38
474.369	1589.03
474.74	1664.05
475.112	1668.12
475.484	1701.11
475.855	1713.77
476.227	1737.04
476.598	1786.76
476.97	1818.85
477.341	1850.04
477.713	1885.06
478.084	1918.28
478.455	1959.19
478.827	1985.63
479.198	2048.45
479.569	2030.82
479.94	2105.4
480.311	2153.76
480.682	2194.66
481.053	2217.71
481.424	2282.57
481.795	2315.33
482.166	2335.67
482.537	2386.52
482.908	2474.88
483.279	2462.22
483.65	2521.66
484.021	2578.6
484.391	2633.52
484.762	2665.61
485.133	2723.01
485.503	2759.84
485.874	2833.74
486.244	2898.6
486.615	2933.62
486.985	2988.31
487.356	3053.17
487.726	3095.88
488.097	3134.97
488.467	3199.61
488.837	3301.07
489.207	3289.32
489.578	3380.39
489.948	3428.3
490.318	3498.81
490.688	3514.17
491.058	3569.76
491.428	3627.62
491.798	3652.02
492.168	3790.1
492.538	3765.92
492.908	3838.91
493.278	3946.03
493.648	3942.86
494.017	4003.65
494.387	4075.74
494.757	4125.91
495.126	4131.56
495.496	4183.53
495.866	4197.09
496.235	4259.24
496.605	4293.36
496.974	4347.6
497.344	4365.45
497.713	4425.79
498.082	4426.47
498.452	4577.87
498.821	4567.7
499.19	4593.92
499.559	4630.08
499.928	4655.39
500.298	4713.46
500.667	4743.97
501.036	4772.67
501.405	4867.36
501.774	4824.65
502.143	4862.61
502.512	4886.34
502.88	4922.95
503.249	4957.75
503.618	5026.68
503.987	4988.71
504.356	5027.58
504.724	5073
505.093	5079.33
505.462	5163.4
505.83	5189.61
506.199	5187.58
506.567	5284.52
506.936	5289.49
507.304	5313.67
507.672	5379.66
508.041	5406.1
508.409	5448.81
508.777	5466.66
509.145	5499.88
509.514	5474.57
509.882	5554.57
510.25	5570.62
510.618	5626.66
510.986	5611.52
511.354	5633.21
511.722	5715.47
512.09	5726.32
512.458	5776.94
512.826	5784.62
513.193	5819.88
513.561	5828.01
513.929	5879.31
514.297	5893.09
514.664	5902.81
515.032	5958.85
515.4	5961.11
515.767	6027.33
516.135	6011.73
516.502	6005.86
516.869	6118.17
517.237	6064.39
517.604	6104.84
517.972	6187.32
518.339	6178.28
518.706	6159.75
519.073	6177.15
519.44	6269.13
519.808	6294.89
520.175	6272.52
520.542	6347.54
520.909	6300.54
521.276	6362.46
521.643	6449.24
522.009	6441.33
522.376	6492.63
522.743	6480.65
523.11	6559.97
523.477	6641.55
523.843	6657.37
524.21	6660.31
524.577	6758.38
524.943	6758.83
525.31	6782.56
525.676	6849.23
526.043	6860.98
526.409	6897.14
526.776	6998.6
527.142	6969.68
527.508	7029.11
527.874	7044.02
528.241	7095.55
528.607	7111.59
528.973	7189.33
529.339	7161.53
529.705	7198.14
530.071	7263
530.437	7352.72
530.803	7295.99
531.169	7395.88
531.535	7420.74
531.901	7399.72
532.267	7402.88
532.632	7484.46
532.998	7571.24
533.364	7557.68
533.73	7622.99
534.095	7616.21
534.461	7730.33
534.826	7734.4
535.192	7705.48
535.557	7811.01
535.923	7796.32
536.288	7837.9
536.653	7896.2
537.019	7833.83
537.384	7925.36
537.749	7870.44
538.114	7960.16
538.479	8017.11
538.845	8051.23
539.21	7995.86
539.575	8019.14
539.94	8127.61
540.305	8161.51
540.67	8175.29
541.034	8185.91
541.399	8352.69
541.764	8259.13
542.129	8309.3
542.494	8366.02
542.858	8327.83
543.223	8429.98
543.587	8526.7
543.952	8459.13
544.316	8514.27
544.681	8487.83
545.045	8607.82
545.41	8601.72
545.774	8634.94
546.138	8617.09
546.503	8725.79
546.867	8723.98
547.231	8800.81
547.595	8810.53
547.959	8798.55
548.324	8804.66
548.688	8865.67
549.052	8893.92
549.416	8888.5
549.779	8978.21
550.143	8937.31
550.507	9024.76
550.871	9095.04
551.235	9001.03
551.599	9156.28
551.962	9172.56
552.326	9135.95
552.689	9222.5
553.053	9187.7
553.417	9245.32
553.78	9334.81
554.143	9274.7
554.507	9323.51
554.87	9426.33
555.234	9418.42
555.597	9451.42
555.96	9437.63
556.323	9461.81
556.686	9487.35
557.05	9634.24
557.413	9545.43
557.776	9614.8
558.139	9623.84
558.502	9722.15
558.865	9684.18
559.228	9770.28
559.59	9813.67
559.953	9817.06
560.316	9922.37
560.679	9930.95
561.041	9996.49
561.404	9962.82
561.767	10012.76
562.129	10011.4
562.492	10124.17
562.854	10097.28
563.217	10027.9
563.579	10165.75
563.941	10160.33
564.304	10265.63
564.666	10219.76
565.028	10334.78
565.39	10330.27
565.753	10408.46
566.115	10361
566.477	10513.76
566.839	10562.8
567.201	10566.19
567.563	10582.24
567.925	10635.79
568.287	10610.26
568.648	10661.33
569.01	10710.82
569.372	10769.35
569.734	10785.85
570.095	10873.98
570.457	10848.22
570.819	10942.23
571.18	10993.98
571.542	11079.62
571.903	11044.14
572.265	11203.01
572.626	11096.57
572.987	11202.56
573.349	11316
573.71	11360.52
574.071	11409.56
574.432	11533.85
574.794	11649.33
575.155	11583.57
575.516	11676.9
575.877	11741.53
576.238	11817.46
576.599	11918.02
576.96	11965.02
577.32	12026.49
577.681	12192.59
578.042	12247.5
578.403	12284.79
578.763	12441.4
579.124	12518
579.485	12722.97
579.845	12806.36
580.206	12859.69
580.566	13033.24
580.927	13183.75
581.287	13333.12
581.648	13402.73
582.008	13532.89
582.368	13795.94
582.728	13887.23
583.089	13974.46
583.449	14176.72
583.809	14384.85
584.169	14467.78
584.529	14724.95
584.889	14960.43
585.249	15189.12
585.609	15183.7
585.969	15526.96
586.329	15665.49
586.688	15952.49
587.048	16094.86
587.408	16421.63
587.768	16616.43
588.127	16772.58
588.487	17086.47
588.846	17483.07
589.206	17493.69
589.565	17843.51
589.925	18232.66
590.284	18320.56
590.643	18670.38
591.003	18977.27
591.362	19374.32
591.721	19624.48
592.08	19756.23
592.44	20146.96
592.799	20439.15
593.158	20640.05
593.517	20873.26
593.876	21192.58
594.235	21388.51
594.593	21782.17
594.952	22181.48
595.311	22267.13
595.67	22656.72
596.029	22990.5
596.387	23401.11
596.746	23652.63
597.104	23873.64
597.463	24135.1
597.822	24561.98
598.18	24709.32
598.538	25089.43
598.897	25433.82
599.255	25533.71
599.613	26201.49
599.972	26316.96
600.33	26608.03
600.688	26775.26
601.046	27160.78
601.404	27578.17
601.762	27780.65
602.12	28055.9
602.478	28345.61
602.836	28576.11
603.194	28632.16
603.552	29093.16
603.91	29218.36
604.268	29552.81
604.625	29706.7
604.983	30123.19
605.341	30132.23
605.698	30657.41
606.056	30797.98
606.413	31093.33
606.771	31331.29
607.128	31611.97
607.485	31659.2
607.843	31967.66
608.2	32302.12
608.557	32577.14
608.914	32663.24
609.272	33097.8
609.629	33201.75
609.986	33506.38
610.343	33606.49
610.7	33963.99
611.057	34039.47
611.414	34278.56
611.771	34561.94
612.127	34796.51
612.484	34843.29
612.841	35215.94
613.198	35082.16
613.554	35464.75
613.911	35660.22
614.267	35837.17
614.624	36006.88
614.98	36133.43
615.337	36480.09
615.693	36567.32
616.05	36562.34
616.406	36938.83
616.762	36986.29
617.118	37090.01
617.475	37388.99
617.831	37533.84
618.187	37719.6
618.543	37880.05
618.899	38004.79
619.255	38031.68
619.611	38151.45
619.967	38327.27
620.323	38504.21
620.678	38539.69
621.034	38564.1
621.39	38586.25
621.746	38707.82
622.101	39200.24
622.457	38777.2
622.812	39088.83
623.168	39294.7
623.523	39343.29
623.879	39480.23
624.234	39408.82
624.589	39532.21
624.945	39642.26
625.3	39896.95
625.655	39857.4
626.01	39820.11
626.365	40066.21
626.72	39802.94
627.075	40084.29
627.43	40138.52
627.785	40060.78
628.14	40143.04
628.495	40223.26
628.85	40322.7
629.205	40315.24
629.559	40486.31
629.914	40507.32
630.269	40460.32
630.623	40419.42
630.978	40395.46
631.332	40744.61
631.687	40650.37
632.041	40637.49
632.396	40646.3
632.75	40673.65
633.104	40750.26
633.459	40598.62
633.813	40534.89
634.167	40752.29
634.521	40720.65
634.875	40683.59
635.229	40697.83
635.583	40623.03
635.937	40630.94
636.291	40644.27
636.645	40642.01
636.999	40737.6
637.352	40864.6
637.706	40471.62
638.06	40742.12
638.413	40668
638.767	40639.75
639.121	40677.49
639.474	40489.47
639.828	40573.31
640.181	40617.6
640.534	40630.71
640.888	40490.6
641.241	40303.04
641.594	40481.79
641.947	40527.66
642.301	40541.45
642.654	40554.1
643.007	40588.23
643.36	40503.93
643.713	40464.84
644.066	40720.65
644.419	40444.73
644.771	40231.85
645.124	39970.39
645.477	39767.23
645.83	39538.54
646.182	39369.95
646.535	39354.13
646.888	39488.82
647.24	39263.74
647.593	39452.66
647.945	39480.01
648.298	39360.24
648.65	39235.27
649.002	39155.72
649.355	39365.66
649.707	39253.35
650.059	39537.86
650.411	39799.77
650.763	39942.14
651.115	40336.71
651.467	40157.96
651.819	40114.79
652.171	40079.54
652.523	40034.12
652.875	40002.25
653.227	39818.3
653.578	40038.86
653.93	40124.51
654.282	39923.61
654.633	39835.03
654.985	39871.18
655.337	39957.96
655.688	39981.69
656.039	40180.1
656.391	39795.25
656.742	39936.49
657.094	39821.47
657.445	40127.9
657.796	40023.72
658.147	39897.17
658.498	39774.91
658.849	39936.04
659.2	39721.81
659.551	39764.97
659.902	39891.07
660.253	39810.62
660.604	39914.57
660.955	39621.25
661.306	39900.79
661.656	39678.87
662.007	39777.17
662.358	39664.64
662.708	39842.48
663.059	39751.41
663.409	39607.91
663.76	39740.34
664.11	39803.39
664.461	39854.01
664.811	39879.09
665.161	39755.93
665.511	39665.54
665.862	39590.74
666.212	39671.41
666.562	39708.02
666.912	39723.84
667.262	39655.6
667.612	39556.39
667.962	39588.48
668.312	39622.6
668.662	39776.27
669.011	39732.2
669.361	39612.88
669.711	39623.51
670.06	39541.93
670.41	39481.14
670.76	39304.87
671.109	39517.97
671.459	39554.81
671.808	39553
672.157	39614.69
672.507	39242.05
672.856	39270.07
673.205	39412.44
673.554	39564.75
673.904	39417.41
674.253	39534.47
674.602	39485.43
674.951	38956.86
675.3	38715.73
675.649	39262.16
675.998	39326.11
676.346	39312.78
676.695	39440.91
677.044	39141.48
677.393	39369.5
677.741	39287.24
678.09	39253.57
678.438	39123.63
678.787	39174.7
679.135	39110.98
679.484	39010.19
679.832	39118.66
680.181	38759.35
680.529	39038.66
680.877	38883.41
681.225	38865.56
681.573	39002.51
681.922	38791.44
682.27	38664.21
682.618	38709.63
682.966	38553.93
683.314	38686.13
683.661	38533.37
684.009	38324.11
684.357	38423.76
684.705	38262.86
685.053	38274.16
685.4	38236.88
685.748	38061.97
686.095	38036.66
686.443	37980.16
686.79	38102.87
687.138	37957.56
687.485	37995.07
687.832	37826.94
688.18	37909.2
688.527	37716.44
688.874	37777.68
689.221	37609.55
689.568	37543.33
689.915	37362.55
690.262	37473.05
690.609	37248.2
690.956	37123.01
691.303	37156.68
691.65	36906.97
691.997	36945.38
692.344	36742.45
692.69	36804.37
693.037	36665.62
693.383	36574.32
693.73	36537.71
694.077	36302.46
694.423	36340.2
694.769	36217.95
695.116	36253.65
695.462	36257.04
695.808	36016.82
696.155	36102.02
696.501	35849.59
696.847	35779.09
697.193	35631.75
697.539	35761.69
697.885	35478.08
698.231	35383.17
698.577	35460.45
698.923	35415.26
699.269	35141.82
699.614	35002.16
699.96	34971.2
700.306	35058.2
700.651	34866.12
700.997	34674.94
701.342	34685.78
701.688	34566.24
702.033	34529.85
702.379	34450.53
702.724	34425.45
703.069	34421.84
703.415	34033.14
703.76	34135.06
704.105	34182.07
704.45	34044.9
704.795	33858.91
705.14	33741.85
705.485	33606.04
705.83	33502.09
706.175	33475.19
706.52	33500.28
706.865	33382.77
707.209	33329.43
707.554	33268.19
707.899	33304.58
708.243	32985.49
708.588	33201.3
708.932	32915.43
709.277	33032.72
709.621	32917.24
709.966	32625.05
710.31	32746.17
710.654	32388.89
710.998	32564.03
711.342	32569
711.687	32516.57
712.031	32366.3
712.375	32212.18
712.719	32338.73
713.063	32201.78
713.407	32216.47
713.75	32038.62
714.094	32112.29
714.438	31925.63
714.782	31944.84
715.125	31764.96
715.469	31745.3
715.812	31696.03
716.156	31428.92
716.499	31525.64
716.843	31543.94
717.186	31317.51
717.53	31519.99
717.873	31495.36
718.216	31227.79
718.559	31198.42
718.902	31012.66
719.246	31058.53
719.589	30997.97
719.932	30962.72
720.275	31063.96
720.617	30864.87
720.96	30789.16
721.303	30760.46
721.646	30821.03
721.989	30624.19
722.331	30792.33
722.674	30530.64
723.016	30555.72
723.359	30478.21
723.701	30576.74
724.044	30329.74
724.386	30259.46
724.729	30363.41
725.071	30391.43
725.413	30320.02
725.755	30177.2
726.097	30084.55
726.439	29937.43
726.782	30081.38
727.124	30130.65
727.465	29922.29
727.807	29892.69
728.149	29883.88
728.491	29799.58
728.833	29824.22
729.175	29686.14
729.516	29600.72
729.858	29598.69
730.199	29710.32
730.541	29571.12
730.882	29486.82
731.224	29482.76
731.565	29410.44
731.906	29381.52
732.248	29438.46
732.589	29268.3
732.93	29167.28
733.271	29269.43
733.612	29282.99
733.953	29120.05
734.294	29158.24
734.635	29021.3
734.976	29131.35
735.317	28879.16
735.658	29081.86
735.999	28890.46
736.339	28927.52
736.68	28950.57
737.021	28732.95
737.361	28648.88
737.702	28739.5
738.042	28666.28
738.383	28635.55
738.723	28556
739.063	28518.49
739.404	28655.66
739.744	28461.31
740.084	28358.49
740.424	28436.46
740.764	28214.54
741.104	28362.56
741.444	28145.16
741.784	28359.62
742.124	28294.54
742.464	28174.77
742.804	28207.54
743.143	28071.72
743.483	28074.43
743.823	27966.86
744.162	27920.99
744.502	28058.39
744.841	27930.48
745.181	27979.07
745.52	27793.08
745.86	27876.7
746.199	27859.75
746.538	27775.68
746.877	27715.8
747.216	27893.42
747.556	27653.65
747.895	27620.21
748.234	27614.78
748.573	27576.82
748.911	27464.5
749.25	27563.26
749.589	27368.69
749.928	27373.66
750.267	27438.74
750.605	27349.48
750.944	27296.6
751.283	27261.57
751.621	27296.37
751.96	27058.64
752.298	27116.04
752.636	27074.46
752.975	26918.76
753.313	26854.12
753.651	26988.81
753.989	26821.36
754.327	26761.47
754.666	26654.58
755.004	26635.83
755.342	26665.88
755.679	26584.53
756.017	26380.92
756.355	26588.14
756.693	26484.87
757.031	26461.14
757.368	26265.67
757.706	26137.53
758.044	26157.42
758.381	26127.14
758.719	26121.04
759.056	26031.77
759.394	25927.37
759.731	25880.14
760.068	25830.87
760.405	25707.71
760.743	25641.27
761.08	25624.55
761.417	25554.95
761.754	25515.4
762.091	25509.75
762.428	25279.25
762.765	25329.87
763.102	25341.4
763.438	25224.34
763.775	24990.22
764.112	25036.09
764.449	25165.36
764.785	25039.71
765.122	24747.29
765.458	24864.12
765.795	24756.33
766.131	24707.51
766.467	24518.37
766.804	24432.04
767.14	24300.07
767.476	24368.99
767.812	24176.23
768.148	24151.14
768.485	24082.45
768.821	23965.16
769.157	23987.53
769.492	23793.87
769.828	23792.51
770.164	23673.87
770.5	23573.53
770.836	23617.37
771.171	23354.78
771.507	23370.15
771.842	23194.79
772.178	23172.64
772.513	23172.87
772.849	23020.33
773.184	22993.43
773.519	22964.96
773.855	22833.89
774.19	22703.05
774.525	22676.38
774.86	22683.16
775.195	22600.22
775.53	22416.95
775.865	22353
776.2	22164.53
776.535	22104.42
776.87	22101.48
777.205	22007.25
777.539	21993.24
777.874	22028.26
778.209	21702.85
778.543	21708.5
778.878	21564.77
779.212	21586.01
779.547	21393.03
779.881	21386.92
780.215	21242.52
780.55	21270.77
780.884	21215.85
781.218	21227.38
781.552	21150.09
781.886	21104.9
782.22	20940.38
782.554	20807.96
782.888	20669.43
783.222	20587.4
783.556	20545.14
783.889	20544.01
784.223	20237.58
784.557	20292.04
784.89	20319.61
785.224	20175.43
785.557	20091.59
785.891	20065.6
786.224	19996.23
786.558	20005.72
786.891	19843.24
787.224	19693.86
787.557	19599.63
787.891	19657.25
788.224	19609.8
788.557	19647.76
788.89	19466.3
789.223	19543.36
789.556	19270.14
789.888	19247.09
790.221	19119.41
790.554	19082.58
790.887	19090.03
791.219	18963.94
791.552	18961.9
791.884	18748.57
792.217	18822.02
792.549	18785.86
792.882	18601.46
793.214	18603.95
793.546	18666.54
793.879	18385.65
794.211	18429.04
794.543	18395.14
794.875	18238.53
795.207	18304.97
795.539	18229.72
795.871	18239.44
796.203	17994.02
796.535	17860.01
796.867	17982.72
797.198	17860.91
797.53	17837.41
797.862	17869.5
798.193	17817.3
798.525	17625.44
798.856	17742.5
799.188	17454.82
799.519	17516.97
799.85	17350.42
800.182	17352.23
800.513	17365.33
800.844	17306.35
801.175	17309.74
801.506	17266.58
801.837	17081.5
802.168	17126.24
802.499	17058.9
802.83	16998.11
803.161	16942.97
803.491	16881.96
803.822	16919.92
804.153	16766.25
804.483	16647.16
804.814	16602.19
805.145	16578.46
805.475	16540.95
805.805	16565.58
806.136	16527.62
806.466	16530.78
806.796	16301.18
807.126	16395.42
807.457	16234.29
807.787	16215.08
808.117	16198.81
808.447	16138.47
808.777	16185.25
809.107	16125.59
809.436	16071.58
809.766	15950.68
810.096	15871.14
810.426	15829.1
810.755	15868.88
811.085	15799.05
811.414	15685.15
811.744	15614.87
812.073	15630.01
812.403	15594.99
812.732	15524.7
813.061	15555.89
813.39	15441.32
813.719	15470.69
814.049	15526.51
814.378	15371.26
814.707	15312.28
815.036	15280.87
815.365	15282
815.693	15108.9
816.022	15162.23
816.351	15138.73
816.68	14986.41
817.008	15013.08
817.337	14919.97
817.665	14877.72
817.994	14930.37
818.322	14855.57
818.651	14851.95
818.979	14850.82
819.307	14778.96
819.636	14759.3
819.964	14574
820.292	14788.45
820.62	14690.83
820.948	14691.96
821.276	14717.95
821.604	14696.7
821.932	14765.18
822.259	14606.99
822.587	14672.07
822.915	14638.85
823.243	14680.66
823.57	14550.72
823.898	14571.51
824.225	14536.26
824.553	14531.74
824.88	14569.02
825.207	14576.03
825.535	14546.88
825.862	14595.92
826.189	14533.54
826.516	14530.61
826.843	14566.09
827.17	14656.25
827.497	14632.98
827.824	14620.1
828.151	14595.92
828.478	14647.89
828.805	14689.92
829.131	14577.39
829.458	14479.99
829.785	14463.72
830.111	14478.63
830.438	14568.8
830.764	14580.32
831.09	14592.3
831.417	14479.99
831.743	14502.36
832.069	14541.45
832.395	14465.75
832.722	14528.35
833.048	14459.65
833.374	14467.11
833.7	14332.87
834.026	14377.62
834.351	14431.63
834.677	14411.29
835.003	14358.41
835.329	14294.68
835.654	14377.62
835.98	14254.91
836.306	14294.91
836.631	14256.72
836.956	14308.24
837.282	14241.8
837.607	14198.41
837.932	14152.54
838.258	14082.71
838.583	14170.84
838.908	13926.78
839.233	14051.07
839.558	14039.32
839.883	13963.39
840.208	13970.4
840.533	13966.78
840.858	13957.06
841.182	13896.5
841.507	13964.29
841.832	13870.29
842.156	13815.15
842.481	13877.29
842.805	13801.13
843.13	13755.26
843.454	13677.3
843.778	13662.38
844.103	13704.64
844.427	13682.27
844.751	13574.02
845.075	13611.76
845.399	13565.43
845.723	13415.83
846.047	13506.45
846.371	13306.01
846.695	13345.33
847.019	13269.4
847.343	13166.57
847.666	13141.72
847.99	13031.66
848.313	13115.05
848.637	13045.9
848.96	12969.74
849.284	12862.18
849.607	12835.28
849.931	12779.47
850.254	12738.56
850.577	12629.19
850.9	12522.3
851.223	12557.55
851.546	12490.21
851.869	12437.55
852.192	12470.55
852.515	12377.89
852.838	12276.88
853.161	12272.81
853.483	12241.18
853.806	12123.66
854.129	12134.74
854.451	12121.63
854.774	12033.5
855.096	12026.94
855.419	12008.87
855.741	11960.5
856.063	11888.19
856.385	11857.23
856.708	11829.89
857.03	11824.46
857.352	11802.09
857.674	11774.75
857.996	11687.07
858.318	11505.15
858.64	11606.84
858.961	11575.66
859.283	11638.03
859.605	11464.47
859.926	11542.21
860.248	11482.55
860.57	11510.57
860.891	11424.47
861.212	11360.97
861.534	11353.29
861.855	11370.46
862.176	11395.77
862.498	11364.14
862.819	11300.41
863.14	11340.41
863.461	11197.81
863.782	11259.05
864.103	11238.26
864.424	11176.34
864.745	11221.09
865.065	11099.06
865.386	11073.75
865.707	11103.35
866.027	11053.18
866.348	11022.68
866.668	11020.42
866.989	11006.86
867.309	10888.89
867.63	10945.84
867.95	10975.9
868.27	10826.07
868.59	10870.36
868.91	10901.78
869.23	10805.73
869.55	10761.89
869.87	10877.6
870.19	10787.88
870.51	10758.73
870.83	10809.12
871.15	10723.93
871.469	10763.02
871.789	10677.37
872.109	10706.3
872.428	10602.8
872.748	10655.45
873.067	10688.9
873.386	10561.22
873.706	10612.07
874.025	10513.54
874.344	10551.73
874.663	10580.2
874.982	10551.05
875.301	10554.89
875.62	10499.3
875.939	10475.8
876.258	10464.05
876.577	10337.5
876.896	10417.27
877.214	10362.58
877.533	10433.77
877.852	10325.07
878.17	10382.47
878.489	10438.51
878.807	10294.33
879.125	10324.39
879.444	10314.22
879.762	10298.4
880.08	10255.46
880.398	10226.76
880.716	10225.86
881.034	10224.96
881.352	10204.62
881.67	10116.26
881.988	10192.42
882.306	10169.82
882.624	10061.8
882.941	10029.93
883.259	10067.22
883.577	10010.73
883.894	10015.47
884.212	9973.44
884.529	9991.29
884.846	9990.84
885.164	9961.01
885.481	9926.43
885.798	9874.23
886.115	9870.84
886.432	9772.54
886.75	9800.11
887.067	9783.61
887.383	9723.05
887.7	9727.12
888.017	9649.83
888.334	9691.64
888.651	9638.08
888.967	9682.15
889.284	9600.79
889.6	9582.94
889.917	9505.65
890.233	9544.3
890.55	9464.3
890.866	9508.59
891.182	9451.42
891.498	9401.93
891.815	9323.51
892.131	9310.86
892.447	9333.46
892.763	9215.72
893.079	9280.58
893.395	9223.63
893.71	9222.95
894.026	9190.86
894.342	9213.68
894.657	9076.74
894.973	9053.46
895.289	9088.94
895.604	9076.51
895.92	9007.59
896.235	8944.99
896.55	8959.91
896.865	8962.39
897.181	8935.05
897.496	8872.9
897.811	8872.9
898.126	8884.65
898.441	8800.81
898.756	8797.88
899.071	8674.26
899.386	8749.97
899.7	8659.57
900.015	8625
900.33	8635.39
900.644	8586.13
900.959	8575.06
901.273	8502.97
901.588	8482.86
901.902	8433.82
902.216	8422.97
902.531	8362.18
902.845	8410.99
903.159	8313.82
903.473	8248.06
903.787	8229.98
904.101	8192.92
904.415	8238.34
904.729	8189.76
905.042	8119.48
905.356	8104.11
905.67	8054.62
905.984	8058.91
906.297	8075.18
906.611	7979.59
906.924	8015.3
907.237	7857.79
907.551	7948.63
907.864	7911.12
908.177	7834.51
908.491	7869.99
908.804	7733.05
909.117	7749.09
909.43	7680.39
909.743	7669.32
910.056	7612.37
910.368	7637.23
910.681	7584.8
910.994	7557.23
911.307	7516.1
911.619	7525.37
911.932	7456.89
912.244	7421.87
912.557	7426.39
912.869	7331.93
913.181	7285.83
913.494	7339.16
913.806	7284.7
914.118	7252.83
914.43	7243.11
914.742	7253.96
915.054	7183.91
915.366	7192.27
915.678	7091.93
915.99	7104.14
916.302	7037.47
916.613	7017.81
916.925	6983.23
917.236	6987.3
917.548	6886.29
917.859	6891.71
918.171	6823.46
918.482	6818.27
918.794	6821.2
919.105	6766.74
919.416	6752.96
919.727	6724.71
920.038	6692.85
920.349	6605.17
920.66	6665.95
920.971	6659.4
921.282	6611.27
921.593	6586.18
921.903	6536.24
922.214	6515
922.525	6515.45
922.835	6432.29
923.146	6414.21
923.456	6435.68
923.767	6333.31
924.077	6328.56
924.387	6294.21
924.697	6308.9
925.008	6252.41
925.318	6232.97
925.628	6196.14
925.938	6154.78
926.248	6161.56
926.558	6082.92
926.867	6139.87
927.177	6023.94
927.487	6071.85
927.796	5992.75
928.106	6011.51
928.416	5955.01
928.725	5927.89
929.034	5909.59
929.344	5901.23
929.653	5851.29
929.962	5820.55
930.271	5775.58
930.581	5723.38
930.89	5726.32
931.199	5741.46
931.508	5715.7
931.817	5720.89
932.125	5693.78
932.434	5659.43
932.743	5642.03
933.051	5611.75
933.36	5557.28
933.669	5534.91
933.977	5517.96
934.286	5492.2
934.594	5469.6
934.902	5500.79
935.21	5393.22
935.519	5480.45
935.827	5452.43
936.135	5334.24
936.443	5301.92
936.751	5315.26
937.059	5249.27
937.367	5231.19
937.674	5295.14
937.982	5190.29
938.29	5199.55
938.597	5225.31
938.905	5124.75
939.213	5163.62
939.52	5169.04
939.827	5146.45
940.135	5084.75
940.442	5067.58
940.749	5033
941.056	5059.44
941.363	5032.1
941.67	4952.78
941.977	4941.93
942.284	4924.31
942.591	4889.05
942.898	4899.67
943.205	4926.57
943.511	4864.42
943.818	4838.43
944.125	4809.28
944.431	4802.95
944.738	4782.61
945.044	4753.01
945.35	4734.25
945.657	4713.69
945.963	4669.62
946.269	4667.36
946.575	4669.4
946.881	4655.16
947.187	4567.93
947.493	4649.96
947.799	4589.4
948.105	4564.77
948.41	4500.14
948.716	4518.44
949.022	4459.91
949.327	4484.54
949.633	4397.09
949.938	4438.89
950.244	4403.42
950.549	4356.41
950.854	4376.3
951.16	4313.7
951.465	4328.84
951.77	4304.89
952.075	4288.39
952.38	4265.57
952.685	4272.35
952.99	4242.29
953.294	4174.95
953.599	4197.09
953.904	4144.67
954.209	4156.42
954.513	4139.02
954.818	4103.99
955.122	4087.49
955.426	4076.42
955.731	4108.06
956.035	4074.38
956.339	3998
956.643	4018.79
956.948	3996.19
957.252	3974.27
957.556	3979.47
957.86	3955.07
958.163	3934.5
958.467	3943.99
958.771	3896.99
959.075	3876.2
959.378	3862.19
959.682	3856.31
959.985	3815.86
960.289	3814.05
960.592	3847.27
960.896	3818.8
961.199	3768.86
961.502	3760.49
961.805	3738.57
962.108	3687.05
962.411	3677.78
962.714	3679.59
963.017	3601.18
963.32	3666.71
963.623	3642.98
963.926	3636.43
964.228	3604.57
964.531	3600.5
964.833	3582.42
965.136	3554.62
965.438	3545.13
965.741	3502.42
966.043	3528.18
966.345	3486.15
966.648	3480.05
966.95	3489.54
967.252	3459.03
967.554	3447.96
967.856	3429.2
968.158	3380.39
968.46	3438.47
968.761	3376.32
969.063	3376.78
969.365	3298.36
969.666	3335.19
969.968	3296.55
970.269	3297.68
970.571	3274.18
970.872	3275.31
971.174	3263.33
971.475	3233.73
971.776	3266.72
972.077	3189.44
972.378	3234.86
972.679	3224.24
972.98	3202.99
973.281	3229.21
973.582	3130.68
973.883	3119.61
974.183	3158.48
974.484	3163.67
974.785	3083
975.085	3084.81
975.386	3076.67
975.686	3021.53
975.986	3072.15
976.287	3049.1
976.587	2992.83
976.887	3009.1
977.187	3018.37
977.487	2984.47
977.787	2958.71
978.087	2954.41
978.387	2920.29
978.687	2932.72
978.987	2913.74
979.286	2894.08
979.586	2929.33
979.885	2909.67
980.185	2896.34
980.484	2815.21
980.784	2848.2
981.083	2840.29
981.382	2798.26
981.682	2814.98
981.981	2786.28
982.28	2803.23
982.579	2737.24
982.878	2762.55
983.177	2727.98
983.475	2754.65
983.774	2734.08
984.073	2664.7
984.372	2675.1
984.67	2685.04
984.969	2691.6
985.267	2645.72
985.566	2636
985.864	2640.52
986.162	2607.76
986.461	2608.43
986.759	2569.11
987.057	2565.27
987.355	2570.47
987.653	2535.22
987.951	2548.55
988.249	2534.54
988.547	2532.28
988.844	2527.98
989.142	2497.25
989.44	2491.6
989.737	2454.99
990.035	2472.62
990.332	2457.03
990.63	2442.56
990.927	2405.5
991.224	2438.72
991.521	2399.85
991.819	2403.69
992.116	2392.62
992.413	2342.23
992.71	2361.21
993.006	2391.04
993.303	2346.29
993.6	2333.64
993.897	2319.63
994.193	2327.76
994.49	2334.09
994.787	2299.52
995.083	2265.17
995.379	2259.74
995.676	2251.61
995.972	2208.9
996.268	2230.82
996.565	2254.32
996.861	2234.88
997.157	2237.6
997.453	2243.02
997.749	2200.08
998.044	2169.35
998.34	2174.55
998.636	2132.97
998.932	2138.16
999.227	2104.49
999.523	2136.36
999.818	2088.22
1000.114	2092.74
1000.409	2086.87
1000.704	2073.76
1001	2066.53
1001.295	2044.16
1001.59	2070.37
1001.885	2064.49
1002.18	2007.77
1002.475	2008
1002.77	2015
1003.065	1981.56
1003.359	1965.06
1003.654	1984.27
1003.949	1949.02
1004.243	1937.72
1004.538	1918.28
1004.832	1936.14
1005.127	1943.82
1005.421	1916.48
1005.715	1873.09
1006.009	1881
1006.304	1865.63
1006.598	1838.74
1006.892	1855.69
1007.186	1851.84
1007.48	1847.78
1007.773	1825.86
1008.067	1805.97
1008.361	1780.21
1008.655	1799.64
1008.948	1761.45
1009.242	1796.03
1009.535	1741.11
1009.829	1766.42
1010.122	1775.91
1010.415	1714.45
1010.708	1694.33
1011.001	1729.36
1011.295	1687.1
1011.588	1678.97
1011.881	1662.92
1012.173	1674.45
1012.466	1671.06
1012.759	1654.56
1013.052	1658.85
1013.344	1647.1
1013.637	1653.21
1013.93	1656.59
1014.222	1565.75
1014.514	1608.01
1014.807	1602.58
1015.099	1588.35
1015.391	1579.53
1015.683	1571.17
1015.976	1578.63
1016.268	1532.76
1016.56	1532.53
1016.851	1522.36
1017.143	1528.01
1017.435	1505.19
1017.727	1490.05
1018.018	1474.45
1018.31	1489.82
1018.602	1503.38
1018.893	1464.74
1019.185	1464.28
1019.476	1422.7
1019.767	1424.28
1020.058	1406.21
1020.35	1420.67
1020.641	1397.62
1020.932	1407.56
1021.223	1371.63
1021.514	1377.73
1021.804	1365.98
1022.095	1370.27
1022.386	1369.37
1022.677	1351.74
1022.967	1328.69
1023.258	1317.85
1023.548	1312.88
1023.839	1312.88
1024.129	1302.48
1024.419	1285.31
1024.709	1305.42
1025	1299.77
1025.29	1266.77
1025.58	1253.22
1025.87	1244.18
1026.16	1241.01
1026.449	1244.63
1026.739	1240.56
1027.029	1226.78
1027.319	1204.63
1027.608	1223.39
1027.898	1183.84
1028.187	1200.56
1028.477	1160.34
1028.766	1170.96
1029.055	1155.14
1029.344	1138.64
1029.634	1140
1029.923	1150.85
1030.212	1151.75
1030.501	1129.6
1030.79	1134.12
1031.078	1110.39
1031.367	1100.23
1031.656	1088.47
1031.945	1084.63
1032.233	1082.15
1032.522	1078.08
1032.81	1095.71
1033.099	1064.97
1033.387	1039.89
1033.675	1025.88
1033.963	1050.51
1034.251	1041.02
1034.54	1023.84
1034.828	1027.68
1035.116	1046.22
1035.403	1011.87
1035.691	1008.93
1035.979	1018.19
1036.267	983.39
1036.554	991.3
1036.842	972.32
1037.129	967.8
1037.417	941.36
1037.704	942.94
1037.992	974.58
1038.279	956.5
1038.566	923.05
1038.853	923.05
1039.14	923.05
