Data from hue_34_FLMS001491_00025.txt Node
Date: Tue Feb 07 17:25:24 GMT 2017
User: dcchb
Spectrometer: FLMS00149
Trigger mode: 0
Integration Time (sec): 2.000000E-2
Scans to average: 10
Electric dark correction enabled: true
Nonlinearity correction enabled: false
Boxcar width: 0
XAxis mode: Wavelengths
Number of Pixels in Spectrum: 2048
>>>>>Begin Spectral Data<<<<<
341.393	10.13
341.776	10.13
342.16	10.13
342.543	-66.48
342.927	-71.45
343.31	-59.25
343.693	-69.65
344.077	-78.23
344.46	-60.15
344.843	-43.88
345.226	-31.91
345.61	-34.62
345.993	-32.58
346.376	-1.4
346.759	1.09
347.142	24.82
347.525	49.45
347.908	43.57
348.291	80.18
348.674	104.14
349.057	108.43
349.44	113.17
349.823	164.7
350.206	175.55
350.588	198.14
350.971	204.25
351.354	234.08
351.737	252.38
352.119	253.28
352.502	276.79
352.884	263.23
353.267	284.02
353.65	308.2
354.032	311.36
354.414	314.75
354.797	305.49
355.179	321.53
355.562	322.44
355.944	349.33
356.326	355.43
356.709	340.74
357.091	315.66
357.473	346.16
357.855	342.32
358.238	357.69
358.62	352.49
359.002	352.72
359.384	336.22
359.766	344.36
360.148	356.33
360.53	336.67
360.912	343.9
361.294	339.61
361.676	345.49
362.057	325.37
362.439	327.18
362.821	338.25
363.203	332.38
363.584	325.82
363.966	325.6
364.348	326.05
364.729	335.09
365.111	311.36
365.493	319.5
365.874	338.03
366.256	309.55
366.637	325.15
367.019	327.86
367.4	329.67
367.781	323.56
368.163	308.88
368.544	319.72
368.925	334.64
369.306	330.12
369.688	334.19
370.069	324.02
370.45	306.16
370.831	315.43
371.212	323.34
371.593	305.03
371.974	331.93
372.355	298.03
372.736	314.75
373.117	317.24
373.498	335.77
373.879	345.71
374.26	324.47
374.641	327.41
375.021	345.71
375.402	328.99
375.783	323.11
376.163	329.44
376.544	312.49
376.925	334.19
377.305	347.07
377.686	321.53
378.066	355.88
378.447	328.99
378.827	339.16
379.208	325.37
379.588	350.68
379.968	331.7
380.349	324.92
380.729	347.29
381.109	349.33
381.489	344.81
381.87	341.19
382.25	359.27
382.63	340.06
383.01	338.03
383.39	331.02
383.77	343.23
384.15	320.4
384.53	353.17
384.91	353.85
385.29	357.01
385.67	345.49
386.049	359.04
386.429	354.52
386.809	360.85
387.189	359.5
387.568	342.55
387.948	340.97
388.328	367.41
388.707	364.47
389.087	362.89
389.466	357.69
389.846	366.73
390.225	371.93
390.605	344.58
390.984	377.35
391.363	370.8
391.743	383.68
392.122	384.81
392.501	376.22
392.881	368.99
393.26	380.06
393.639	378.93
394.018	375.31
394.397	379.61
394.776	374.19
395.155	370.8
395.534	392.94
395.913	348.88
396.292	373.96
396.671	386.39
397.05	385.48
397.429	399.04
397.808	396.33
398.186	393.39
398.565	391.13
398.944	401.08
399.323	404.01
399.701	381.87
400.08	402.21
400.458	393.17
400.837	404.24
401.215	389.55
401.594	394.98
401.972	420.96
402.351	412.38
402.729	415.54
403.107	427.07
403.486	420.06
403.864	413.96
404.242	408.31
404.62	389.78
404.999	405.82
405.377	421.42
405.755	411.25
406.133	423.22
406.511	425.26
406.889	421.19
407.267	434.75
407.645	420.29
408.023	446.95
408.401	441.53
408.779	463
409.156	458.25
409.534	441.75
409.912	449.89
410.29	446.27
410.667	442.88
411.045	456.44
411.422	479.95
411.8	444.47
412.178	457.8
412.555	474.52
412.933	464.35
413.31	488.31
413.687	462.09
414.065	462.32
414.442	457.8
414.819	481.75
415.197	484.69
415.574	488.98
415.951	476.1
416.328	510.45
416.705	484.69
417.082	501.19
417.46	524.01
417.837	486.72
418.214	509.55
418.591	488.53
418.967	508.42
419.344	505.71
419.721	499.38
420.098	520.17
420.475	516.78
420.852	538.02
421.228	507.74
421.605	531.47
421.982	507.51
422.358	519.27
422.735	554.97
423.111	529.21
423.488	554.07
423.864	546.16
424.241	564.01
424.617	554.75
424.994	535.99
425.37	578.02
425.746	557.46
426.123	564.91
426.499	550.45
426.875	582.09
427.251	568.76
427.627	597.46
428.003	580.06
428.379	603.11
428.756	597.46
429.132	597.91
429.507	592.48
429.883	581.64
430.259	597
430.635	601.52
431.011	627.96
431.387	639.71
431.763	618.92
432.138	629.09
432.514	643.33
432.89	659.83
433.265	641.3
433.641	654.18
434.016	649.21
434.392	663.22
434.767	675.87
435.143	673.84
435.518	658.02
435.894	685.36
436.269	668.87
436.644	692.59
437.02	691.24
437.395	701.41
437.77	698.7
438.145	712.93
438.52	708.41
438.895	685.36
439.271	698.7
439.646	722.2
440.021	747.96
440.395	771.91
440.77	711.58
441.145	745.25
441.52	753.61
441.895	726.94
442.27	749.32
442.645	757.45
443.019	771.69
443.394	758.81
443.769	748.86
444.143	786.6
444.518	777.56
444.892	754.29
445.267	771.69
445.641	788.86
446.016	780.5
446.39	765.36
446.764	817.11
447.139	799.94
447.513	806.72
447.887	805.81
448.262	819.82
448.636	794.29
449.01	830.22
449.384	821.4
449.758	832.93
450.132	835.42
450.506	851.23
450.88	843.33
451.254	842.2
451.628	858.47
452.002	858.47
452.376	845.36
452.75	864.57
453.123	879.26
453.497	901.85
453.871	894.62
454.244	910.44
454.618	919.03
454.992	945.02
455.365	949.76
455.739	965.81
456.112	943.44
456.486	963.32
456.859	934.17
457.232	963.77
457.606	976.2
457.979	997.9
458.352	1010.55
458.725	1001.74
459.099	1022.08
459.472	1020.72
459.845	1045.58
460.218	1049.87
460.591	1060.04
460.964	1043.09
461.337	1075.86
461.71	1101.17
462.083	1122.64
462.456	1107.5
462.829	1098.01
463.201	1129.42
463.574	1139.14
463.947	1153.37
464.32	1185.46
464.692	1160.83
465.065	1201.51
465.438	1238.12
465.81	1228.4
466.183	1246.7
466.555	1262.3
466.928	1282.18
467.3	1297.55
467.672	1302.97
468.045	1340.26
468.417	1356.31
468.789	1321.28
469.161	1346.36
469.534	1421.39
469.906	1416.64
470.278	1416.64
470.65	1446.93
471.022	1483.99
471.394	1503.87
471.766	1544.55
472.138	1572.35
472.51	1568.05
472.882	1646.24
473.253	1636.52
473.625	1674.94
473.997	1708.39
474.369	1741.15
474.74	1723.3
475.112	1782.28
475.484	1833.13
475.855	1864.54
476.227	1891.43
476.598	1943.64
476.97	1976.85
477.341	1999.91
477.713	2084.65
478.084	2088.72
478.455	2150.86
478.827	2171.65
479.198	2235.15
479.569	2277.19
479.94	2385.66
480.311	2389.05
480.682	2440.8
481.053	2599.44
481.424	2611.19
481.795	2644.41
482.166	2698.64
482.537	2755.14
482.908	2853.89
483.279	2906.1
483.65	3008.69
484.021	3073.32
484.391	3099.54
484.762	3203.04
485.133	3280.78
485.503	3293.2
485.874	3464.95
486.244	3525.29
486.615	3564.38
486.985	3667.21
487.356	3763.7
487.726	3837.6
488.097	3892.28
488.467	3994.43
488.837	4094.99
489.207	4157.36
489.578	4249.34
489.948	4345.61
490.318	4459.95
490.688	4508.77
491.058	4604.58
491.428	4668.99
491.798	4789.21
492.168	4868.98
492.538	4924.8
492.908	5056.32
493.278	5107.39
493.648	5203.89
494.017	5293.38
494.387	5393.04
494.757	5399.82
495.126	5547.83
495.496	5547.83
495.866	5679.81
496.235	5791.22
496.605	5829.41
496.974	5932.91
497.344	5978.56
497.713	6042.96
498.082	6186.46
498.452	6263.75
498.821	6319.57
499.19	6373.8
499.559	6441.37
499.928	6527.7
500.298	6520.69
500.667	6647.69
501.036	6686.11
501.405	6817.41
501.774	6860.34
502.143	6897.86
502.512	6898.08
502.88	7038.87
503.249	7022.37
503.618	7083.16
503.987	7188.47
504.356	7184.85
504.724	7294.91
505.093	7355.92
505.462	7435.69
505.83	7513.88
506.199	7568.8
506.567	7645.63
506.936	7710.26
507.304	7781.9
507.672	7731.05
508.041	7870.94
508.409	7925.4
508.777	7949.13
509.145	8029.13
509.514	8028.22
509.882	8115
510.25	8124.04
510.618	8250.14
510.986	8247.65
511.354	8373.97
511.722	8376.69
512.09	8446.52
512.458	8459.85
512.826	8550.24
513.193	8576.46
513.561	8639.05
513.929	8688.99
514.297	8733.06
514.664	8869.78
515.032	8882.44
515.4	8895.09
515.767	8950.46
516.135	9047.86
516.502	8993.17
516.869	9178.93
517.237	9164.69
517.604	9182.54
517.972	9234.74
518.339	9319.71
518.706	9274.52
519.073	9315.87
519.44	9386.15
519.808	9424.57
520.175	9406.04
520.542	9587.73
520.909	9665.47
521.276	9630.89
521.643	9706.37
522.009	9763.09
522.376	9862.3
522.743	9899.36
523.11	10020.71
523.477	10097.77
523.843	10084.21
524.21	10260.7
524.577	10287.37
524.943	10360.82
525.31	10381.15
525.676	10380.48
526.043	10442.17
526.409	10481.72
526.776	10646.91
527.142	10679.9
527.508	10624.54
527.874	10787.24
528.241	10828.6
528.607	10892.55
528.973	10964.42
529.339	10998.54
529.705	11046.45
530.071	11168.7
530.437	11211.19
530.803	11292.54
531.169	11307.91
531.535	11358.53
531.901	11405.99
532.267	11443.5
532.632	11471.29
532.998	11568.69
533.364	11631.74
533.73	11640.56
534.095	11795.58
534.461	11830.61
534.826	11907.89
535.192	11889.59
535.557	11989.47
535.923	12034.9
536.288	12037.38
536.653	12068.57
537.019	12073.99
537.384	12096.59
537.749	12178.62
538.114	12144.05
538.479	12292.06
538.845	12391.04
539.21	12366.86
539.575	12433.75
539.94	12440.53
540.305	12533.19
540.67	12584.03
541.034	12618.16
541.399	12628.78
541.764	12724.59
542.129	12724.37
542.494	12797.59
542.858	12820.86
543.223	12909.22
543.587	12871.94
543.952	12941.31
544.316	12974.76
544.681	13059.28
545.045	13115.09
545.41	13134.3
545.774	13249.33
546.138	13248.2
546.503	13258.82
546.867	13251.36
547.231	13453.84
547.595	13446.38
547.959	13538.58
548.324	13561.41
548.688	13589.2
549.052	13601.18
549.416	13627.17
549.779	13718.69
550.143	13733.16
550.507	13809.31
550.871	13876.88
551.235	13889.99
551.599	13996.88
551.962	13984.67
552.326	14102.41
552.689	14150.55
553.053	14065.12
553.417	14180.6
553.78	14377.88
554.143	14259.02
554.507	14378.79
554.87	14330.88
555.234	14537.65
555.597	14442.74
555.96	14480.03
556.323	14647.48
556.686	14644.77
557.05	14697.88
557.413	14772.45
557.776	14750.3
558.139	14856.29
558.502	14878.89
558.865	14892.9
559.228	14965.21
559.59	15012.67
559.953	15080.69
560.316	15343.06
560.679	15202.5
561.041	15273.91
561.404	15436.61
561.767	15457.86
562.129	15388.25
562.492	15566.1
562.854	15545.99
563.217	15574.69
563.579	15548.48
563.941	15641.81
564.304	15769.26
564.666	15839.32
565.028	15968.13
565.39	15870.73
565.753	15976.03
566.115	16023.04
566.477	16116.14
566.839	16185.75
567.201	16307.1
567.563	16355.01
567.925	16363.37
568.287	16421.9
568.648	16448.11
569.01	16588
569.372	16636.13
569.734	16593.65
570.095	16739.18
570.457	16783.25
570.819	16868.44
571.18	16822.11
571.542	16953.86
571.903	17083.12
572.265	17057.59
572.626	17212.16
572.987	17286.51
573.349	17328.77
573.71	17498.25
574.071	17556.56
574.432	17565.82
574.794	17837
575.155	17800.17
575.516	17839.94
575.877	17910.67
576.238	18062.53
576.599	18153.38
576.96	18284.9
577.32	18380.27
577.681	18376.65
578.042	18669.75
578.403	18624.1
578.763	18830.42
579.124	18911.1
579.485	18993.36
579.845	19319
580.206	19381.37
580.566	19474.7
580.927	19670.63
581.287	19813.9
581.648	19965.31
582.008	20220.89
582.368	20330.27
582.728	20453.21
583.089	20667.21
583.449	20890.71
583.809	21066.3
584.169	21259.51
584.529	21325.5
584.889	21782.21
585.249	21798.93
585.609	21924.58
585.969	22314.4
586.329	22506.94
586.688	22707.84
587.048	22880.03
587.408	23064.44
587.768	23240.7
588.127	23529.73
588.487	23712.1
588.846	24184.41
589.206	24119.32
589.565	24372.2
589.925	24711.17
590.284	24907.33
590.643	25149.13
591.003	25451.04
591.362	25643.8
591.721	25916.11
592.08	26110.01
592.44	26419.83
592.799	26744.79
593.158	26850.78
593.517	27162.63
593.876	27503.87
594.235	27650.3
594.593	27853.46
594.952	28253.68
595.311	28280.8
595.67	28723.04
596.029	28989.48
596.387	29196.7
596.746	29467.43
597.104	29667.43
597.463	29853.64
597.822	30145.61
598.18	30289.78
598.538	30557.57
598.897	31061.51
599.255	30882.31
599.613	31598.9
599.972	31590.77
600.33	31881.83
600.688	31863.98
601.046	32214.93
601.404	32495.37
601.762	32534.7
602.12	32929.49
602.478	33124.51
602.836	33324.96
603.194	33230.5
603.552	33436.59
603.91	33649.47
604.268	33981.44
604.625	33986.18
604.983	34452.61
605.341	34441.09
605.698	34718.59
606.056	35019.83
606.413	35062.09
606.771	35329.2
607.128	35462.75
607.485	35496.2
607.843	35692.8
608.2	36098.9
608.557	36351.54
608.914	36191.77
609.272	36589.73
609.629	36702.04
609.986	37014.35
610.343	36930.74
610.7	37385.64
611.057	37342.03
611.414	37438.52
611.771	37577.95
612.127	37823.6
612.484	37854.56
612.841	38189.01
613.198	38135.23
613.554	38214.09
613.911	38597.59
614.267	38674.87
614.624	38728.66
614.98	38941.08
615.337	39139.27
615.693	39078.25
616.05	39116.22
616.406	39451.12
616.762	39516.43
617.118	39396.21
617.475	39599.37
617.831	39763.66
618.187	39913.03
618.543	39891.79
618.899	40170.43
619.255	40171.1
619.611	40326.58
619.967	40500.59
620.323	40680.47
620.678	40533.81
621.034	40522.73
621.39	40590.08
621.746	40549.17
622.101	41082.04
622.457	40855.38
622.812	40922.05
623.168	41031.65
623.523	41141.02
623.879	41402.71
624.234	41284.52
624.589	41409.94
624.945	41371.98
625.3	41468.02
625.655	41493.78
626.01	41574.46
626.365	41647
626.72	41697.17
627.075	41647.9
627.43	41652.87
627.785	41522.93
628.14	41831.85
628.495	41868.24
628.85	41941.23
629.205	41623.95
629.559	42011.73
629.914	41806.77
630.269	41972.87
630.623	41903.26
630.978	41872.75
631.332	41976.48
631.687	42052.19
632.041	41853.77
632.396	42069.13
632.75	41900.1
633.104	42063.26
633.459	41896.26
633.813	41885.64
634.167	41872.53
634.521	42009.02
634.875	41908.01
635.229	41902.81
635.583	41685.64
635.937	41939.42
636.291	41664.85
636.645	41823.94
636.999	41736.49
637.352	41965.86
637.706	41608.36
638.06	41815.58
638.413	41654.68
638.767	41581.46
639.121	41717.05
639.474	41553.67
639.828	41621.69
640.181	41585.53
640.534	41671.18
640.888	41528.36
641.241	41375.59
641.594	41501.92
641.947	41607.68
642.301	41406.33
642.654	41423.5
643.007	41495.59
643.36	41508.47
643.713	41499.88
644.066	41595.7
644.419	41300.79
644.771	41126.33
645.124	40813.12
645.477	40705.1
645.83	40392.34
646.182	40265.57
646.535	40249.75
646.888	40335.85
647.24	40153.93
647.593	40324.1
647.945	40281.16
648.298	40254.04
648.65	40006.14
649.002	39906.7
649.355	40078.45
649.707	40035.52
650.059	40286.58
650.411	40696.29
650.763	40704.2
651.115	41054.02
651.467	40936.51
651.819	41045.21
652.171	40938.54
652.523	40885.66
652.875	40830.07
653.227	40692
653.578	40987.13
653.93	40922.72
654.282	40680.02
654.633	40707.81
654.985	40778.77
655.337	40818.32
655.688	40622.84
656.039	40886.11
656.391	40498.78
656.742	40597.76
657.094	40615.39
657.445	40784.65
657.796	40753.24
658.147	40716.4
658.498	40562.96
658.849	40677.08
659.2	40569.74
659.551	40569.29
659.902	40613.13
660.253	40483.86
660.604	40605.22
660.955	40441.83
661.306	40630.75
661.656	40462.4
662.007	40548.95
662.358	40560.93
662.708	40637.53
663.059	40506.69
663.409	40215.17
663.76	40539.91
664.11	40500.81
664.461	40468.5
664.811	40470.53
665.161	40397.54
665.511	40433.92
665.862	40374.94
666.212	40634.82
666.562	40408.39
666.912	40332.91
667.262	40354.83
667.612	40311.21
667.962	40390.99
668.312	40343.76
668.662	40546.01
669.011	40294.27
669.361	40210.2
669.711	40365.68
670.06	40322.06
670.41	40188.28
670.76	40070.77
671.109	40248.16
671.459	40212.91
671.808	40089.07
672.157	40265.11
672.507	40000.71
672.856	40035.06
673.205	40079.36
673.554	40221.72
673.904	40012.24
674.253	40181.95
674.602	40141.5
674.951	39560.95
675.3	39477.11
675.649	39945.57
675.998	39890.43
676.346	39956.42
676.695	40206.13
677.044	39730.89
677.393	39882.98
677.741	40008.85
678.09	39853.37
678.438	39742.19
678.787	39785.58
679.135	39790.55
679.484	39516.66
679.832	39775.63
680.181	39591.23
680.529	39657.22
680.877	39543.55
681.225	39460.84
681.573	39744.45
681.922	39441.41
682.27	39268.53
682.618	39451.12
682.966	39246.84
683.314	39293.84
683.661	39244.8
684.009	39051.13
684.357	39054.75
684.705	39080.29
685.053	39093.17
685.4	38956.67
685.748	38714.65
686.095	38742.89
686.443	38569.56
686.79	38668.55
687.138	38561.88
687.485	38669
687.832	38487.31
688.18	38473.3
688.527	38285.5
688.874	38234.88
689.221	38106.3
689.568	38048.45
689.915	38091.16
690.262	37910.6
690.609	37773.43
690.956	37797.16
691.303	37678.51
691.65	37460.44
691.997	37517.84
692.344	37370.5
692.69	37281.46
693.037	37223.61
693.383	37016.61
693.73	37139.09
694.077	37052.54
694.423	36931.19
694.769	36909.72
695.116	36646
695.462	36660.46
695.808	36647.81
696.155	36633.57
696.501	36376.85
696.847	36335.5
697.193	36174.37
697.539	36290.3
697.885	35948.62
698.231	36007.15
698.577	35924.89
698.923	35877.88
699.269	35780.71
699.614	35609.19
699.96	35450.78
700.306	35530.1
700.651	35366.94
700.997	35287.39
701.342	35170.78
701.688	35015.53
702.033	34974.63
702.379	35007.4
702.724	34811.7
703.069	34887.4
703.415	34422.56
703.76	34726.28
704.105	34517.47
704.45	34469.79
704.795	34379.84
705.14	34232.28
705.485	34235.67
705.83	34042.23
706.175	34138.72
706.52	34016.69
706.865	33841.55
707.209	33847.2
707.554	33703.25
707.899	33829.12
708.243	33594.33
708.588	33617.15
708.932	33381
709.277	33255.58
709.621	33331.28
709.966	33125.41
710.31	33149.59
710.654	33008.13
710.998	32954.8
711.342	32902.82
711.687	32960.45
712.031	32805.42
712.375	32771.98
712.719	32831.86
713.063	32773.56
713.407	32656.05
713.75	32548.03
714.094	32534.24
714.438	32296.74
714.782	32306.68
715.125	32226
715.469	32338.09
715.812	32189.85
716.156	31903.75
716.499	31832.34
716.843	31946.69
717.186	31857.2
717.53	31866.24
717.873	32014.48
718.216	31896.29
718.559	31752.34
718.902	31496.3
719.246	31527.72
719.589	31476.19
719.932	31280.04
720.275	31314.84
720.617	31404.33
720.96	31260.15
721.303	31157.33
721.646	31221.74
721.989	31101.29
722.331	31040.72
722.674	31000.05
723.016	31123.66
723.359	30998.46
723.701	31150.1
724.044	30869.88
724.386	30654.74
724.729	30803.89
725.071	30757.79
725.413	30664.24
725.755	30670.34
726.097	30605.03
726.439	30320.52
726.782	30470.57
727.124	30679.6
727.465	30397.35
727.807	30363.68
728.149	30228.54
728.491	30235.77
728.833	30101.31
729.175	30195.1
729.516	30182.67
729.858	29990.36
730.199	30056.12
730.541	29860.42
730.882	29991.49
731.224	30018.38
731.565	29793.07
731.906	29808.44
732.248	29852.51
732.589	29658.16
732.93	29492.74
733.271	29580.2
733.612	29548.79
733.953	29577.49
734.294	29465.62
734.635	29485.96
734.976	29517.15
735.317	29242.13
735.658	29230.15
735.999	29299.07
736.339	29148.57
736.68	29264.5
737.021	29176.14
737.361	29182.02
737.702	29160.77
738.042	29176.82
738.383	29055.01
738.723	29220.88
739.063	28969.82
739.404	29146.08
739.744	28937.28
740.084	28727.34
740.424	28819.09
740.764	28790.16
741.104	28864.06
741.444	28641.92
741.784	28650.5
742.124	28668.81
742.464	28596.27
742.804	28568.7
743.143	28323.96
743.483	28553.33
743.823	28301.36
744.162	28393.11
744.502	28403.05
744.841	28186.11
745.181	28261.81
745.52	28068.82
745.86	28234.47
746.199	28152.66
746.538	28118.31
746.877	28228.37
747.216	28072.44
747.556	27977.98
747.895	27938.21
748.234	27892.11
748.573	27784.54
748.911	27757.65
749.25	27704.77
749.589	27706.12
749.928	27749.96
750.267	27639.23
750.605	27558.33
750.944	27542.51
751.283	27413.93
751.621	27557.88
751.96	27328.05
752.298	27347.26
752.636	27390.88
752.975	27235.4
753.313	27210.77
753.651	27295.06
753.989	27135.52
754.327	27059.13
754.666	26865.69
755.004	27015.29
755.342	26918.35
755.679	26973.94
756.017	26759.25
756.355	26936.65
756.693	26702.53
757.031	26716.54
757.368	26618.24
757.706	26466.38
758.044	26503.89
758.381	26495.76
758.719	26356.78
759.056	26423.9
759.394	26311.13
759.731	26097.8
760.068	26011.93
760.405	25990.01
760.743	25812.84
761.08	25978.26
761.417	25693.97
761.754	25756.12
762.091	25668.66
762.428	25683.12
762.765	25436.12
763.102	25533.75
763.438	25373.3
763.775	25325.85
764.112	25374.66
764.449	25290.14
764.785	25171.27
765.122	25006.76
765.458	24771.28
765.795	24812.19
766.131	24844.5
766.467	24866.87
766.804	24660.55
767.14	24657.16
767.476	24566.54
767.812	24501.01
768.148	24463.5
768.485	24362.71
768.821	24090.85
769.157	24167.91
769.492	24042.49
769.828	23959.33
770.164	23769.95
770.5	23729.5
770.836	23752.55
771.171	23630.3
771.507	23599.56
771.842	23388.5
772.178	23462.17
772.513	23412
772.849	23304.88
773.184	23221.95
773.519	23112.34
773.855	23071.44
774.19	22892.46
774.525	22790.32
774.86	22861.73
775.195	22718.23
775.53	22708.06
775.865	22538.35
776.2	22450.89
776.535	22351.23
776.87	22319.82
777.205	22217.45
777.539	22081.18
777.874	22052.26
778.209	21981.3
778.543	21879.83
778.878	21709.22
779.212	21736.34
779.547	21698.6
779.881	21608.65
780.215	21556.68
780.55	21525.27
780.884	21365.05
781.218	21266.29
781.552	21313.97
781.886	21106.75
782.22	21002.12
782.554	20974.32
782.888	20833.08
783.222	20680.54
783.556	20663.82
783.889	20633.99
784.223	20380.89
784.557	20544.95
784.89	20421.12
785.224	20388.35
785.557	20330.72
785.891	20145.87
786.224	20107.68
786.558	20203.49
786.891	19937.29
787.224	19875.59
787.557	19754.47
787.891	19766.22
788.224	19742.04
788.557	19756.27
788.89	19549.73
789.223	19612.1
789.556	19486.9
789.888	19382.5
790.221	19295.72
790.554	19252.78
790.887	19226.8
791.219	19098.21
791.552	19099.79
791.884	18979.57
792.217	18942.06
792.549	18845.11
792.882	18838.56
793.214	18634.27
793.546	18735.06
793.879	18596.53
794.211	18497.1
794.543	18588.4
794.875	18409.87
795.207	18540.49
795.539	18310.89
795.871	18347.72
796.203	18172.81
796.535	18056.88
796.867	18026.83
797.198	17952.71
797.53	18028.64
797.862	17869.09
798.193	17907.74
798.525	17779.6
798.856	17825.03
799.188	17672.94
799.519	17524.47
799.85	17608.99
800.182	17595.65
800.513	17497.12
800.844	17446.28
801.175	17364.47
801.506	17407.41
801.837	17268.66
802.168	17254.42
802.499	17160.41
802.83	17111.6
803.161	17025.5
803.491	17068.89
803.822	17021.66
804.153	16872.96
804.483	16724.26
804.814	16664.83
805.145	16813.3
805.475	16700.08
805.805	16579.63
806.136	16612.85
806.466	16579.41
806.796	16487.66
807.126	16355.46
807.457	16390.71
807.787	16312.3
808.117	16244.28
808.447	16215.58
808.777	16292.86
809.107	16169.7
809.436	16141.45
809.766	16137.84
810.096	16081.34
810.426	15967.45
810.755	15964.74
811.085	16028.69
811.414	15865.3
811.744	15805.64
812.073	15745.98
812.403	15740.79
812.732	15693.56
813.061	15692.65
813.39	15522.26
813.719	15484.52
814.049	15620.79
814.378	15541.24
814.707	15440
815.036	15375.6
815.365	15385.09
815.693	15270.06
816.022	15232.33
816.351	15178.99
816.68	15056.96
817.008	15106.68
817.337	14916.18
817.665	14914.59
817.994	14953.46
818.322	14938.77
818.651	14914.14
818.979	14942.16
819.307	14921.6
819.636	14794.14
819.964	14762.73
820.292	14825.1
820.62	14780.13
820.948	14783.3
821.276	14713.92
821.604	14782.62
821.932	14733.58
822.259	14754.37
822.587	14739.46
822.915	14740.59
823.243	14769.96
823.57	14706.69
823.898	14617.43
824.225	14655.62
824.553	14625.11
824.88	14584.66
825.207	14656.07
825.535	14671.89
825.862	14686.35
826.189	14638.44
826.516	14637.54
826.843	14724.54
827.17	14666.46
827.497	14642.28
827.824	14615.39
828.151	14713.24
828.478	14653.36
828.805	14702.4
829.131	14624.43
829.458	14709.63
829.785	14638.67
830.111	14606.13
830.438	14571.33
830.764	14594.38
831.09	14565.45
831.417	14502.85
831.743	14528.39
832.069	14570.87
832.395	14554.83
832.722	14558.67
833.048	14563.42
833.374	14465.34
833.7	14501.5
834.026	14464.66
834.351	14491.1
834.677	14447.49
835.003	14409.97
835.329	14385.12
835.654	14442.52
835.98	14325
836.306	14415.4
836.631	14348.96
836.956	14378.11
837.282	14379.24
837.607	14259.7
837.932	14334.72
838.258	14248.4
838.583	14205.23
838.908	14140.83
839.233	14194.16
839.558	14096.99
839.883	14080.27
840.208	14027.61
840.533	14078.91
840.858	13956.65
841.182	14061.96
841.507	13940.16
841.832	14012.24
842.156	13940.16
842.481	13864.9
842.805	13894.06
843.13	13795.08
843.454	13857.9
843.778	13747.62
844.103	13726.15
844.427	13673.5
844.751	13696.77
845.075	13561.41
845.399	13632.14
845.723	13460.85
846.047	13472.37
846.371	13363
846.695	13456.33
847.019	13302.43
847.343	13327.97
847.666	13146.05
847.99	13112.83
848.313	13139.27
848.637	13000.52
848.96	12975.21
849.284	13006.62
849.607	12855.66
849.931	12848.89
850.254	12737.48
850.577	12718.27
850.9	12641.66
851.223	12607.54
851.546	12569.34
851.869	12521.66
852.192	12512.62
852.515	12443.02
852.838	12405.28
853.161	12367.77
853.483	12296.58
853.806	12248
854.129	12267.88
854.451	12232.4
854.774	12115.35
855.096	12079.19
855.419	12098.62
855.741	12022.01
856.063	12012.3
856.385	11966.65
856.708	11937.27
857.03	11875.8
857.352	11835.58
857.674	11800.1
857.996	11770.95
858.318	11746.54
858.64	11757.39
858.961	11708.12
859.283	11630.61
859.605	11603.27
859.926	11640.78
860.248	11526.89
860.57	11562.82
860.891	11507.68
861.212	11427.68
861.534	11445.31
861.855	11349.72
862.176	11431.52
862.498	11444.4
862.819	11407.12
863.14	11295.25
863.461	11316.04
863.782	11276.05
864.103	11299.77
864.424	11235.59
864.745	11250.28
865.065	11171.87
865.386	11203.05
865.707	11109.72
866.027	11043.06
866.348	11118.76
866.668	11047.58
866.989	11054.36
867.309	11004.41
867.63	10985.43
867.95	10992.21
868.27	10884.64
868.59	10968.03
868.91	10904.08
869.23	10861.59
869.55	10883.06
869.87	10941.36
870.19	10861.14
870.51	10932.33
870.83	10854.14
871.15	10878.99
871.469	10749.73
871.789	10789.05
872.109	10789.05
872.428	10707.25
872.748	10680.58
873.067	10714.03
873.386	10743.63
873.706	10713.8
874.025	10654.37
874.344	10602.84
874.663	10649.62
874.982	10590.41
875.301	10627.25
875.62	10556.06
875.939	10543.18
876.258	10523.75
876.577	10472.22
876.896	10486.46
877.214	10418.89
877.533	10495.27
877.852	10445.11
878.17	10434.49
878.489	10417.08
878.807	10418.89
879.125	10396.75
879.444	10334.38
879.762	10309.97
880.08	10375.5
880.398	10336.86
880.716	10370.31
881.034	10272.91
881.352	10210.31
881.67	10212.34
881.988	10237.88
882.306	10199.69
882.624	10180.25
882.941	10125.34
883.259	10065.91
883.577	10104.55
883.894	10060.26
884.212	10034.72
884.529	9967.83
884.846	9893.93
885.164	10025.91
885.481	9853.48
885.798	9942.97
886.115	9922.41
886.432	9888.29
886.75	9843.99
887.067	9822.75
887.383	9774.62
887.7	9824.33
888.017	9791.11
888.334	9729.65
888.651	9664.79
888.967	9694.17
889.284	9667.05
889.6	9652.36
889.917	9621.63
890.233	9591.34
890.55	9526.94
890.866	9533.49
891.182	9513.61
891.498	9431.57
891.815	9478.35
892.131	9495.3
892.447	9381.63
892.763	9375.98
893.079	9364.91
893.395	9310.22
893.71	9246.04
894.026	9206.04
894.342	9224.12
894.657	9236.78
894.973	9108.19
895.289	9118.36
895.604	9159.26
895.92	9043.79
896.235	9000.85
896.55	8985.94
896.865	8985.03
897.181	8938.03
897.496	8967.86
897.811	8891.7
898.126	8882.66
898.441	8872.27
898.756	8844.7
899.071	8746.85
899.386	8713.85
899.7	8699.84
900.015	8657.81
900.33	8592.5
900.644	8552.95
900.959	8636.57
901.273	8567.87
901.588	8557.02
901.902	8505.95
902.216	8414.88
902.531	8426.4
902.845	8407.87
903.159	8352.05
903.473	8317.93
903.787	8323.58
904.101	8236.8
904.415	8204.26
904.729	8184.15
905.042	8147.54
905.356	8136.69
905.67	8131.5
905.984	8096.02
906.297	8073.87
906.611	8002.01
906.924	7969.24
907.237	7963.14
907.551	7962.91
907.864	7941.22
908.177	7875
908.491	7868
908.804	7774.89
909.117	7832.97
909.43	7750.94
909.743	7772.18
910.056	7734.22
910.368	7620.77
910.681	7622.36
910.994	7627.1
911.307	7564.05
911.619	7500.78
911.932	7493.55
912.244	7493.09
912.557	7423.04
912.869	7408.35
913.181	7358.18
913.494	7363.38
913.806	7299.65
914.118	7316.6
914.43	7257.62
914.742	7264.17
915.054	7224.85
915.366	7197.73
915.678	7149.83
915.99	7068.02
916.302	7070.28
916.613	7016.5
916.925	7051.07
917.236	7038.19
917.548	7011.75
917.859	7006.55
918.171	6904.63
918.482	6912.09
918.794	6841.81
919.105	6823.06
919.416	6760.23
919.727	6774.02
920.038	6723.85
920.349	6674.36
920.66	6727.92
920.971	6644.08
921.282	6674.36
921.593	6609.05
921.903	6576.28
922.214	6617.64
922.525	6481.82
922.835	6496.74
923.146	6493.57
923.456	6447.47
923.767	6407.02
924.077	6459.67
924.387	6354.14
924.697	6284.99
925.008	6334.71
925.318	6224.43
925.628	6215.84
925.938	6186.01
926.248	6187.59
926.558	6132
926.867	6127.71
927.177	6116.63
927.487	6108.05
927.796	5997.99
928.106	6006.81
928.416	6004.09
928.725	6085.45
929.034	5959.57
929.344	5923.42
929.653	5930.88
929.962	5806.36
930.271	5829.63
930.581	5828.5
930.89	5803.87
931.199	5739.47
931.508	5730.65
931.817	5771.56
932.125	5711.22
932.434	5709.86
932.743	5642.07
933.051	5650.88
933.36	5612.01
933.669	5628.06
933.977	5600.04
934.286	5534.95
934.594	5515.97
934.902	5515.97
935.21	5470.77
935.519	5465.12
935.827	5439.36
936.135	5413.6
936.443	5364.11
936.751	5391.23
937.059	5332.25
937.367	5286.15
937.674	5332.7
937.982	5273.94
938.29	5239.59
938.597	5233.27
938.905	5190.78
939.213	5142.2
939.52	5131.57
939.827	5140.61
940.135	5061.07
940.442	5044.12
940.749	5084.12
941.056	5049.32
941.363	5012.48
941.67	5014.29
941.977	4985.36
942.284	4900.62
942.591	4946.72
942.898	4979.26
943.205	4941.3
943.511	4852.26
943.818	4891.81
944.125	4846.84
944.431	4808.87
944.738	4824.46
945.044	4765.71
945.35	4728.65
945.657	4699.72
945.963	4675.54
946.269	4692.94
946.575	4703.34
946.881	4717.12
947.187	4601.87
947.493	4626.95
947.799	4602.1
948.105	4571.81
948.41	4518.26
948.716	4531.82
949.022	4514.64
949.327	4485.26
949.633	4435.55
949.938	4481.42
950.244	4431.25
950.549	4419.28
950.854	4380.63
951.16	4370.69
951.465	4320.52
951.77	4335.66
952.075	4357.36
952.38	4335.44
952.685	4257.47
952.99	4272.61
953.294	4205.27
953.599	4218.83
953.904	4221.77
954.209	4175.44
954.513	4186.51
954.818	4194.65
955.122	4149.91
955.426	4079.4
955.731	4099.28
956.035	4085.05
956.339	4072.39
956.643	4072.62
956.948	3991.27
957.252	3996.46
957.556	4023.58
957.86	3978.84
958.163	3919.85
958.467	3969.12
958.771	3931.15
959.075	3897.48
959.378	3858.16
959.682	3895.9
959.985	3879.4
960.289	3828.56
960.592	3823.13
960.896	3809.8
961.199	3782.46
961.502	3811.61
961.805	3766.64
962.108	3738.39
962.411	3760.54
962.714	3730.93
963.017	3702.91
963.32	3718.96
963.623	3675.79
963.926	3670.6
964.228	3640.54
964.531	3610.71
964.833	3608
965.136	3603.03
965.438	3541.11
965.741	3509.92
966.043	3523.93
966.345	3535.46
966.648	3518.74
966.95	3541.56
967.252	3462.69
967.554	3448.68
967.856	3441.9
968.158	3385.18
968.46	3366.65
968.761	3401
969.063	3363.71
969.365	3398.96
969.666	3373.88
969.968	3317.16
970.269	3358.29
970.571	3334.11
970.872	3304.73
971.174	3238.97
971.475	3267.22
971.776	3229.48
972.077	3251.62
972.378	3204.62
972.679	3224.96
972.98	3208.01
973.281	3193.09
973.582	3174.79
973.883	3182.02
974.183	3160.78
974.484	3158.29
974.785	3116.71
975.085	3132.98
975.386	3117.62
975.686	3076.49
975.986	3063.83
976.287	3050.05
976.587	3023.38
976.887	3045.08
977.187	3035.58
977.487	2988.35
977.787	2977.28
978.087	2935.25
978.387	2941.35
978.687	2971.4
978.987	2911.52
979.286	2942.03
979.586	2911.97
979.885	2875.36
980.185	2848.47
980.484	2858.19
980.784	2840.56
981.083	2864.06
981.382	2825.65
981.682	2810.73
981.981	2812.31
982.28	2810.96
982.579	2772.09
982.878	2757.4
983.177	2742.94
983.475	2729.83
983.774	2723.73
984.073	2731.64
984.372	2720.56
984.67	2697.97
984.969	2652.32
985.267	2655.03
985.566	2619.55
985.864	2630.85
986.162	2647.57
986.461	2613.9
986.759	2590.4
987.057	2589.04
987.355	2583.17
987.653	2574.35
987.951	2538.87
988.249	2559.66
988.547	2548.59
988.844	2558.99
989.142	2486.67
989.44	2514.69
989.737	2472.21
990.035	2485.32
990.332	2477.18
990.63	2449.84
990.927	2484.41
991.224	2456.62
991.521	2449.61
991.819	2453.45
992.116	2450.06
992.413	2380.01
992.71	2408.48
993.006	2392.66
993.303	2320.35
993.6	2355.6
993.897	2355.38
994.193	2370.97
994.49	2330.52
994.787	2309.73
995.083	2293.46
995.379	2300.91
995.676	2248.49
995.972	2258.66
996.268	2255.49
996.565	2266.79
996.861	2244.64
997.157	2214.14
997.453	2185.44
997.749	2172.1
998.044	2137.3
998.34	2196.06
998.636	2149.05
998.932	2170.52
999.227	2139.11
999.523	2137.08
999.818	2144.31
1000.114	2090.98
1000.409	2115.16
1000.704	2097.3
1001	2065.89
1001.295	2058.43
1001.59	2066.8
1001.885	2042.84
1002.18	2021.6
1002.475	2022.28
1002.77	2012.56
1003.065	2003.07
1003.359	1991.54
1003.654	1972.34
1003.949	1950.41
1004.243	1947.48
1004.538	1952.67
1004.832	1962.39
1005.127	1947.25
1005.421	1903.64
1005.715	1909.74
1006.009	1864.32
1006.304	1893.02
1006.598	1848.95
1006.892	1871.09
1007.186	1854.15
1007.48	1870.64
1007.773	1871.55
1008.067	1813.24
1008.361	1816.63
1008.655	1782.51
1008.948	1813.24
1009.242	1783.64
1009.535	1755.62
1009.829	1742.96
1010.122	1759.23
1010.415	1730.99
1010.708	1745.45
1011.001	1729.63
1011.295	1728.73
1011.588	1694.83
1011.881	1671.78
1012.173	1702.96
1012.466	1677.65
1012.759	1663.19
1013.052	1666.81
1013.344	1647.15
1013.637	1622.29
1013.93	1624.55
1014.222	1630.42
1014.514	1625.68
1014.807	1637.43
1015.099	1594.27
1015.391	1593.36
1015.683	1579.35
1015.976	1573.7
1016.268	1562.4
1016.56	1564.44
1016.851	1528.05
1017.143	1538
1017.435	1526.7
1017.727	1525.57
1018.018	1491.22
1018.31	1504.78
1018.602	1492.57
1018.893	1485.79
1019.185	1483.99
1019.476	1449.19
1019.767	1444.89
1020.058	1442.18
1020.35	1452.12
1020.641	1397.21
1020.932	1410.54
1021.223	1406.02
1021.514	1381.39
1021.804	1361.73
1022.095	1364.44
1022.386	1377.55
1022.677	1348.62
1022.967	1330.77
1023.258	1314.95
1023.548	1325.8
1023.839	1316.53
1024.129	1309.3
1024.419	1321.96
1024.709	1263.2
1025	1261.17
1025.29	1288.74
1025.58	1258.91
1025.87	1250.77
1026.16	1258.68
1026.449	1265.46
1026.739	1232.92
1027.029	1222.07
1027.319	1219.13
1027.608	1192.47
1027.898	1203.32
1028.187	1202.86
1028.477	1212.36
1028.766	1201.28
1029.055	1184.33
1029.344	1178.68
1029.634	1164.22
1029.923	1136.2
1030.212	1177.33
1030.501	1155.18
1030.79	1110.89
1031.078	1135.07
1031.367	1121.28
1031.656	1092.81
1031.945	1098.23
1032.233	1076.31
1032.522	1110.89
1032.81	1086.48
1033.099	1072.92
1033.387	1056.88
1033.675	1061.17
1033.963	1040.83
1034.251	1056.65
1034.54	1054.17
1034.828	1036.99
1035.116	1018.69
1035.403	1025.69
1035.691	1032.7
1035.979	1033.83
1036.267	992.47
1036.554	994.96
1036.842	988.63
1037.129	997.22
1037.417	987.5
1037.704	947.5
1037.992	948.41
1038.279	938.24
1038.566	965.36
1038.853	965.36
1039.14	965.36
