Data from hue_260_FLMS001491_00058.txt Node
Date: Tue Feb 07 15:59:12 GMT 2017
User: dcchb
Spectrometer: FLMS00149
Trigger mode: 0
Integration Time (sec): 2.000000E-2
Scans to average: 10
Electric dark correction enabled: true
Nonlinearity correction enabled: false
Boxcar width: 0
XAxis mode: Wavelengths
Number of Pixels in Spectrum: 2048
>>>>>Begin Spectral Data<<<<<
341.393	-9.1
341.776	-9.1
342.16	-9.1
342.543	-55.87
342.927	-60.17
343.31	-75.31
343.693	-52.71
344.077	-70.79
344.46	-69.21
344.843	-47.51
345.226	-24.01
345.61	-24.69
345.993	-31.92
346.376	-3.22
346.759	5.37
347.142	24.12
347.525	52.37
347.908	57.57
348.291	62.99
348.674	86.04
349.057	110.9
349.44	128.08
349.823	131.01
350.206	153.39
350.588	194.51
350.971	197.23
351.354	212.14
351.737	222.08
352.119	235.87
352.502	262.76
352.884	257.79
353.267	271.8
353.65	268.19
354.032	297.56
354.414	291.24
354.797	317.22
355.179	323.78
355.562	309.99
355.944	325.36
356.326	344.57
356.709	308.64
357.091	325.58
357.473	342.99
357.855	343.89
358.238	320.61
358.62	332.14
359.002	341.63
359.384	342.76
359.766	322.65
360.148	340.27
360.53	337.79
360.912	312.7
361.294	323.55
361.676	319.26
362.057	306.38
362.439	298.24
362.821	322.65
363.203	339.14
363.584	321.29
363.966	321.97
364.348	320.84
364.729	333.04
365.111	312.25
365.493	317.9
365.874	334.17
366.256	287.85
366.637	292.37
367.019	310.9
367.4	304.12
367.781	305.02
368.163	295.98
368.544	302.76
368.925	307.28
369.306	317.68
369.688	296.43
370.069	305.92
370.45	330.33
370.831	311.35
371.212	306.15
371.593	290.33
371.974	313.61
372.355	334.62
372.736	300.27
373.117	336.66
373.498	308.86
373.879	303.44
374.26	303.44
374.641	285.59
375.021	322.87
375.402	324.23
375.783	307.28
376.163	315.42
376.544	325.36
376.925	301.86
377.305	291.46
377.686	332.14
378.066	334.85
378.447	323.1
378.827	345.25
379.208	320.39
379.588	356.32
379.968	323.78
380.349	328.97
380.729	350.22
381.109	310.44
381.489	341.63
381.87	329.43
382.25	329.43
382.63	322.87
383.01	342.31
383.39	338.47
383.77	345.7
384.15	325.36
384.53	348.63
384.91	341.4
385.29	334.4
385.67	357.9
386.049	342.99
386.429	357.9
386.809	347.96
387.189	348.86
387.568	363.78
387.948	341.86
388.328	373.94
388.707	367.84
389.087	352.7
389.466	350.89
389.846	360.61
390.225	371.46
390.605	361.97
390.984	343.66
391.363	359.93
391.743	359.71
392.122	378.92
392.501	359.48
392.881	356.32
393.26	379.37
393.639	373.27
394.018	364.91
394.397	357.22
394.776	377.79
395.155	389.99
395.534	370.1
395.913	389.09
396.292	396.54
396.671	394.28
397.05	380.95
397.429	388.63
397.808	396.77
398.186	406.26
398.565	394.74
398.944	399.26
399.323	395.19
399.701	401.06
400.08	387.73
400.458	436.09
400.837	419.82
401.215	406.94
401.594	399.03
401.972	445.81
402.351	427.95
402.729	425.24
403.107	418.92
403.486	425.47
403.864	428.18
404.242	415.3
404.62	429.08
404.999	443.1
405.377	432.02
405.755	452.59
406.133	458.01
406.511	451.01
406.889	472.02
407.267	479.25
407.645	469.31
408.023	484.45
408.401	462.98
408.779	462.53
409.156	461.17
409.534	503.66
409.912	484.45
410.29	500.04
410.667	516.77
411.045	513.83
411.422	533.49
411.8	539.82
412.178	546.6
412.555	542.75
412.933	555.86
413.31	569.87
413.687	574.39
414.065	586.59
414.442	572.13
414.819	590.21
415.197	568.06
415.574	585.24
415.951	623.43
416.328	640.6
416.705	616.88
417.082	613.26
417.46	629.76
417.837	635.86
418.214	631.57
418.591	648.97
418.967	663.88
419.344	664.33
419.721	651.68
420.098	655.29
420.475	693.94
420.852	688.96
421.228	686.25
421.605	704.33
421.982	717.66
422.358	739.36
422.735	771.9
423.111	742.52
423.488	767.83
423.864	754.27
424.241	768.96
424.617	798.34
424.994	797.66
425.37	805.12
425.746	815.74
426.123	813.93
426.499	849.41
426.875	835.4
427.251	855.51
427.627	896.42
428.003	865.46
428.379	916.98
428.756	896.42
429.132	909.07
429.507	928.05
429.883	939.13
430.259	956.53
430.635	967.38
431.011	942.07
431.387	961.27
431.763	992.01
432.138	994.72
432.514	1008.5
432.89	1008.5
433.265	1026.36
433.641	1078.33
434.016	1060.93
434.392	1088.28
434.767	1098.22
435.143	1115.62
435.518	1123.08
435.894	1151.1
436.269	1164.43
436.644	1188.61
437.02	1177.77
437.395	1195.17
437.77	1242.17
438.145	1257.09
438.52	1283.07
438.895	1291.21
439.271	1283.75
439.646	1317.65
440.021	1320.36
440.395	1331.21
440.77	1327.59
441.145	1366.01
441.52	1392.9
441.895	1382.28
442.27	1412.79
442.645	1430.41
443.019	1411.43
443.394	1453.01
443.769	1451.66
444.143	1489.17
444.518	1480.58
444.892	1451.66
445.267	1494.14
445.641	1514.48
446.016	1489.85
446.39	1547.25
446.764	1541.37
447.139	1528.72
447.513	1555.61
447.887	1536.4
448.262	1564.42
448.636	1589.51
449.01	1627.47
449.384	1594.03
449.758	1616.4
450.132	1670.86
450.506	1646.68
450.88	1664.98
451.254	1648.49
451.628	1689.39
452.002	1685.32
452.376	1722.38
452.75	1749.05
453.123	1754.93
453.497	1811.87
453.871	1781.14
454.244	1826.56
454.618	1848.26
454.992	1846.9
455.365	1859.33
455.739	1893
456.112	1867.92
456.486	1936.16
456.859	1940.23
457.232	1956.73
457.606	1985.2
457.979	2007.35
458.352	2036.05
458.725	2042.15
459.099	2054.8
459.472	2086.89
459.845	2130.28
460.218	2133.67
460.591	2161.02
460.964	2127.8
461.337	2172.54
461.71	2232.2
462.083	2243.05
462.456	2235.14
462.829	2281.24
463.201	2281.24
463.574	2273.1
463.947	2353.78
464.32	2364.4
464.692	2364.18
465.065	2413.21
465.438	2441.69
465.81	2431.74
466.183	2464.29
466.555	2551.06
466.928	2514.23
467.3	2555.81
467.672	2577.28
468.045	2633.09
468.417	2682.58
468.789	2695.01
469.161	2688.91
469.534	2735.24
469.906	2779.31
470.278	2800.32
470.65	2824.95
471.022	2844.84
471.394	2917.61
471.766	2939.53
472.138	2953.31
472.51	3025.85
472.882	3026.98
473.253	3038.28
473.625	3057.04
473.997	3225.4
474.369	3206.64
474.74	3199.86
475.112	3300.42
475.484	3316.69
475.855	3379.29
476.227	3394.2
476.598	3457.71
476.97	3459.51
477.341	3541.77
477.713	3568.44
478.084	3612.73
478.455	3731.14
478.827	3737.92
479.198	3825.83
479.569	3806.17
479.94	3927.75
480.311	3918.94
480.682	4024.02
481.053	4099.5
481.424	4164.35
481.795	4126.84
482.166	4248.87
482.537	4259.94
482.908	4312.6
483.279	4370
483.65	4456.55
484.021	4484.8
484.391	4481.41
484.762	4599.14
485.133	4619.26
485.503	4610.67
485.874	4750.55
486.244	4807.5
486.615	4826.03
486.985	4956.2
487.356	4976.76
487.726	5028.96
488.097	5098.11
488.467	5139.24
488.837	5213.82
489.207	5292.91
489.578	5357.09
489.948	5347.37
490.318	5399.35
490.688	5454.49
491.058	5513.47
491.428	5563.19
491.798	5564.99
492.168	5739.45
492.538	5710.3
492.908	5752.79
493.278	5796.63
493.648	5777.87
494.017	5850.19
494.387	5895.16
494.757	5934.48
495.126	6042.27
495.496	6056.06
495.866	6058.99
496.235	6129.05
496.605	6160.91
496.974	6166.11
497.344	6247.46
497.713	6220.34
498.082	6316.39
498.452	6332.66
498.821	6391.87
499.19	6421.24
499.559	6371.08
499.928	6434.35
500.298	6443.62
500.667	6518.42
501.036	6554.57
501.405	6541.47
501.774	6597.96
502.143	6597.06
502.512	6632.09
502.88	6619.66
503.249	6665.98
503.618	6694
503.987	6738.98
504.356	6768.13
504.724	6764.51
505.093	6739.2
505.462	6833.66
505.83	6770.61
506.199	6877.28
506.567	6887.67
506.936	6876.82
507.304	6943.94
507.672	6974.22
508.041	6937.61
508.409	7037.27
508.777	7021.68
509.145	7081.34
509.514	7124.05
509.882	7141.9
510.25	7123.82
510.618	7131.73
510.986	7138.29
511.354	7171.05
511.722	7245.85
512.09	7272.52
512.458	7197.49
512.826	7311.84
513.193	7265.52
513.561	7262.58
513.929	7393.42
514.297	7358.17
514.664	7350.48
515.032	7412.63
515.4	7430.03
515.767	7434.1
516.135	7457.15
516.502	7396.13
516.869	7526.53
517.237	7552.29
517.604	7473.65
517.972	7580.31
518.339	7561.33
518.706	7520.65
519.073	7588.9
519.44	7610.82
519.808	7594.55
520.175	7567.65
520.542	7664.15
520.909	7725.39
521.276	7659.63
521.643	7706.41
522.009	7728.33
522.376	7759.74
522.743	7743.69
523.11	7836.8
523.477	7826.18
523.843	7889
524.21	7907.31
524.577	7903.01
524.943	7891.04
525.31	7950.69
525.676	8016.23
526.043	7975.33
526.409	8064.82
526.776	8060.3
527.142	8073.86
527.508	8079.51
527.874	8121.99
528.241	8128.54
528.607	8057.58
528.973	8127.87
529.339	8125.15
529.705	8156.34
530.071	8137.36
530.437	8164.02
530.803	8175.77
531.169	8231.59
531.535	8189.11
531.901	8215.55
532.267	8232.5
532.632	8235.66
532.998	8247.64
533.364	8254.19
533.73	8238.6
534.095	8231.37
534.461	8258.03
534.826	8272.95
535.192	8262.33
535.557	8285.15
535.923	8347.97
536.288	8270.91
536.653	8245.83
537.019	8232.95
537.384	8275.66
537.749	8324.47
538.114	8257.81
538.479	8218.48
538.845	8215.32
539.21	8243.57
539.575	8245.83
539.94	8245.6
540.305	8266.39
540.67	8232.04
541.034	8218.48
541.399	8298.93
541.764	8218.26
542.129	8204.93
542.494	8294.19
542.858	8214.42
543.223	8203.8
543.587	8212.16
543.952	8207.19
544.316	8236.11
544.681	8216.22
545.045	8218.71
545.41	8205.6
545.774	8179.62
546.138	8175.55
546.503	8214.19
546.867	8170.8
547.231	8203.34
547.595	8171.25
547.959	8206.28
548.324	8169.9
548.688	8166.73
549.052	8132.16
549.416	8115.89
549.779	8123.8
550.143	8125.83
550.507	8159.95
550.871	8131.03
551.235	8174.87
551.599	8220.07
551.962	8173.29
552.326	8166.73
552.689	8159.28
553.053	8120.63
553.417	8112.05
553.78	8166.96
554.143	8121.54
554.507	8127.19
554.87	8175.32
555.234	8210.12
555.597	8118.6
555.96	8168.54
556.323	8177.36
556.686	8118.6
557.05	8159.73
557.413	8209.22
557.776	8175.1
558.139	8240.18
558.502	8215.55
558.865	8196.79
559.228	8237.24
559.59	8238.82
559.953	8239.5
560.316	8334.19
560.679	8289.22
561.041	8315.88
561.404	8362.66
561.767	8347.75
562.129	8353.17
562.492	8402.21
562.854	8348.88
563.217	8352.27
563.579	8415.09
563.941	8427.29
564.304	8390.01
564.666	8465.26
565.028	8469.55
565.39	8511.13
565.753	8535.31
566.115	8505.03
566.477	8592.26
566.839	8511.81
567.201	8647.63
567.563	8599.72
567.925	8672.48
568.287	8687.4
568.648	8692.82
569.01	8702.99
569.372	8797.45
569.734	8692.82
570.095	8767.4
570.457	8825.25
570.819	8828.41
571.18	8822.31
571.542	8843.78
571.903	8802.65
572.265	8870.44
572.626	8867.05
572.987	8901.63
573.349	8918.13
573.71	8939.82
574.071	8961.74
574.432	8971.69
574.794	9012.14
575.155	8990.22
575.516	9020.5
575.877	9047.62
576.238	9080.83
576.599	9124.68
576.96	9123.55
577.32	9080.16
577.681	9158.12
578.042	9282.64
578.403	9138.91
578.763	9182.98
579.124	9207.61
579.485	9260.72
579.845	9318.57
580.206	9265.46
580.566	9280.83
580.927	9289.64
581.287	9303.88
581.648	9336.65
582.008	9371
582.368	9307.04
582.728	9367.83
583.089	9440.15
583.449	9427.94
583.809	9516.76
584.169	9465.68
584.529	9462.52
584.889	9540.03
585.249	9534.38
585.609	9466.36
585.969	9520.15
586.329	9577.54
586.688	9614.61
587.048	9584.32
587.408	9575.96
587.768	9573.93
588.127	9591.1
588.487	9658.67
588.846	9682.4
589.206	9584.32
589.565	9632.46
589.925	9695.96
590.284	9712.23
590.643	9696.86
591.003	9692.8
591.362	9749.07
591.721	9736.86
592.08	9759.91
592.44	9753.59
592.799	9806.01
593.158	9730.31
593.517	9772.57
593.876	9788.61
594.235	9829.97
594.593	9858.67
594.952	9864.99
595.311	9840.36
595.67	9888.5
596.029	9982.96
596.387	9950.42
596.746	9896.18
597.104	9862.74
597.463	9853.7
597.822	9962.17
598.18	9845.11
598.538	9933.47
598.897	10006.91
599.255	9857.09
599.613	10018.89
599.972	9921.72
600.33	9983.41
600.688	9966.24
601.046	9974.14
601.404	10047.14
601.762	10067.7
602.12	10137.76
602.478	10125.1
602.836	10135.72
603.194	10007.82
603.552	10039.45
603.91	10013.24
604.268	10139.11
604.625	10062.05
604.983	10070.64
605.341	9989.29
605.698	10090.53
606.056	10055.72
606.413	10031.54
606.771	10093.69
607.128	10077.64
607.485	10067.02
607.843	10072.22
608.2	10109.28
608.557	10181.6
608.914	10157.87
609.272	10145.21
609.629	10232.22
609.986	10254.14
610.343	10128.26
610.7	10236.28
611.057	10252.56
611.414	10267.02
611.771	10283.06
612.127	10332.55
612.484	10243.74
612.841	10384.76
613.198	10262.05
613.554	10273.57
613.911	10370.29
614.267	10349.73
614.624	10240.58
614.98	10234.48
615.337	10385.43
615.693	10358.32
616.05	10363.06
616.406	10404.87
616.762	10406.68
617.118	10339.78
617.475	10431.76
617.831	10435.38
618.187	10470.85
618.543	10429.95
618.899	10475.37
619.255	10478.76
619.611	10453.68
619.967	10449.84
620.323	10472.21
620.678	10420.01
621.034	10412.78
621.39	10467.92
621.746	10386.56
622.101	10574.58
622.457	10337.3
622.812	10466.33
623.168	10541.14
623.523	10464.08
623.879	10506.56
624.234	10471.08
624.589	10403.74
624.945	10417.97
625.3	10451.42
625.655	10459.1
626.01	10453.45
626.365	10462.95
626.72	10452.78
627.075	10476.28
627.43	10490.29
627.785	10428.82
628.14	10474.47
628.495	10470.85
628.85	10514.92
629.205	10370.97
629.559	10483.28
629.914	10411.42
630.269	10404.19
630.623	10343.85
630.978	10328.71
631.332	10394.02
631.687	10378.43
632.041	10366.22
632.396	10322.61
632.75	10317.86
633.104	10335.72
633.459	10268.37
633.813	10300.01
634.167	10293.23
634.521	10181.82
634.875	10253.46
635.229	10243.06
635.583	10127.59
635.937	10184.99
636.291	10254.14
636.645	10215.49
636.999	10201.71
637.352	10195.61
637.706	10114.48
638.06	10217.3
638.413	10074.48
638.767	10106.34
639.121	10036.06
639.474	10059.57
639.828	10024.09
640.181	10105.89
640.534	10139.79
640.888	10034.26
641.241	10011.43
641.594	10061.37
641.947	10094.59
642.301	10076.74
642.654	10026.35
643.007	10013.69
643.36	10006.01
643.713	9945.67
644.066	9936.63
644.419	9857.54
644.771	9882.17
645.124	9880.59
645.477	9831.32
645.83	9754.49
646.182	9725.79
646.535	9654.38
646.888	9654.83
647.24	9609.18
647.593	9626.36
647.945	9636.98
648.298	9614.38
648.65	9616.19
649.002	9552.69
649.355	9579.58
649.707	9605.79
650.059	9722.4
650.411	9785.67
650.763	9767.82
651.115	9847.14
651.467	9825
651.819	9810.98
652.171	9837.65
652.523	9826.8
652.875	9830.19
653.227	9848.27
653.578	9825
653.93	9873.36
654.282	9759.46
654.633	9800.59
654.985	9741.61
655.337	9799.01
655.688	9773.47
656.039	9835.39
656.391	9755.85
656.742	9788.84
657.094	9757.88
657.445	9809.86
657.796	9774.38
658.147	9797.2
658.498	9763.53
658.849	9822.96
659.2	9757.88
659.551	9788.39
659.902	9803.08
660.253	9759.69
660.604	9784.77
660.955	9763.53
661.306	9821.61
661.656	9690.76
662.007	9767.14
662.358	9777.31
662.708	9815.96
663.059	9767.6
663.409	9715.85
663.76	9794.71
664.11	9780.7
664.461	9866.8
664.811	9759.91
665.161	9756.3
665.511	9830.19
665.862	9773.7
666.212	9825
666.562	9792.45
666.912	9790.42
667.262	9720.37
667.612	9793.13
667.962	9855.5
668.312	9791.78
668.662	9833.13
669.011	9822.96
669.361	9709.52
669.711	9695.06
670.06	9714.49
670.41	9727.6
670.76	9778.67
671.109	9763.3
671.459	9704.1
671.808	9699.58
672.157	9780.03
672.507	9662.97
672.856	9726.24
673.205	9635.4
673.554	9714.26
673.904	9686.47
674.253	9659.12
674.602	9705
674.951	9509.07
675.3	9482.41
675.649	9621.84
675.998	9633.59
676.346	9709.29
676.695	9596.08
677.044	9540.03
677.393	9682.17
677.741	9576.19
678.09	9513.37
678.438	9557.21
678.787	9564.89
679.135	9538.22
679.484	9535.06
679.832	9563.53
680.181	9460.03
680.529	9580.26
680.877	9504.33
681.225	9472.91
681.573	9498
681.922	9494.61
682.27	9421.39
682.618	9425.46
682.966	9402.63
683.314	9425.68
683.661	9402.41
684.009	9330.32
684.357	9264.78
684.705	9253.49
685.053	9309.08
685.4	9311.79
685.748	9238.12
686.095	9207.16
686.443	9203.32
686.79	9166.71
687.138	9155.41
687.485	9149.99
687.832	9133.26
688.18	9154.51
688.527	9081.29
688.874	9050.78
689.221	9040.16
689.568	9020.05
689.915	9025.69
690.262	9011.46
690.609	8926.49
690.956	8898.92
691.303	8880.16
691.65	8831.35
691.997	8804.23
692.344	8794.97
692.69	8762.65
693.037	8773.05
693.383	8628.42
693.73	8692.82
694.077	8720.62
694.423	8647.85
694.769	8611.02
695.116	8578.7
695.462	8555.65
695.808	8484.24
696.155	8520.85
696.501	8486.27
696.847	8446.28
697.193	8356.11
697.539	8412.6
697.885	8403.11
698.231	8326.05
698.577	8260.74
698.923	8258.03
699.269	8233.17
699.614	8228.2
699.96	8166.73
700.306	8204.47
700.651	8150.24
700.997	8048.32
701.342	8111.59
701.688	8123.57
702.033	8025.5
702.379	7975.33
702.724	8004.25
703.069	7985.72
703.415	7869.79
703.76	7913.41
704.105	7927.64
704.45	7841.09
704.795	7859.4
705.14	7772.39
705.485	7853.97
705.83	7811.94
706.175	7764.26
706.52	7780.08
706.865	7732.4
707.209	7689.68
707.554	7648.56
707.899	7681.78
708.243	7562.91
708.588	7661.66
708.932	7594.09
709.277	7602.91
709.621	7514.1
709.966	7491.5
710.31	7539.18
710.654	7415.79
710.998	7422.35
711.342	7430.71
711.687	7450.82
712.031	7451.72
712.375	7390.71
712.719	7414.66
713.063	7320.65
713.407	7380.54
713.75	7390.48
714.094	7293.09
714.438	7270.26
714.782	7250.37
715.125	7235.91
715.469	7286.98
715.812	7205.4
716.156	7183.94
716.499	7189.81
716.843	7229.81
717.186	7133.54
717.53	7191.17
717.873	7144.16
718.216	7155.24
718.559	7186.2
718.902	7108.46
719.246	7129.47
719.589	7054.67
719.932	7043.6
720.275	7037.05
720.617	7063.26
720.96	6971.29
721.303	7053.09
721.646	7032.07
721.989	7025.75
722.331	7031.62
722.674	7031.85
723.016	7008.12
723.359	6956.82
723.701	6991.85
724.044	6948.46
724.386	6913.66
724.729	7036.82
725.071	6961.12
725.413	6967.22
725.755	6954.79
726.097	6910.95
726.439	6934.45
726.782	6915.92
727.124	6901.91
727.465	6847.45
727.807	6870.05
728.149	6869.82
728.491	6840.89
728.833	6882.25
729.175	6897.84
729.516	6865.98
729.858	6853.32
730.199	6866.88
730.541	6822.81
730.882	6860.55
731.224	6830.27
731.565	6838.18
731.906	6848.35
732.248	6844.74
732.589	6809.26
732.93	6811.74
733.271	6816.26
733.612	6792.99
733.953	6799.09
734.294	6794.34
734.635	6813.78
734.976	6856.94
735.317	6762.03
735.658	6781.23
735.999	6819.88
736.339	6784.4
736.68	6805.19
737.021	6853.77
737.361	6766.32
737.702	6781.01
738.042	6743.04
738.383	6865.75
738.723	6811.52
739.063	6790.73
739.404	6826.88
739.744	6846.77
740.084	6831.4
740.424	6880.67
740.764	6850.38
741.104	6889.71
741.444	6834.11
741.784	6861.46
742.124	6828.69
742.464	6883.83
742.804	6887.67
743.143	6956.14
743.483	6941.68
743.823	6961.79
744.162	6908.69
744.502	6992.3
744.841	6874.79
745.181	7041.79
745.52	7009.48
745.86	7093.54
746.199	7069.36
746.538	7087.89
746.877	7165.86
747.216	7129.25
747.556	7175.8
747.895	7217.38
748.234	7244.5
748.573	7239.98
748.911	7315.46
749.25	7380.77
749.589	7345.74
749.928	7548.22
750.267	7471.39
750.605	7550.48
750.944	7591.16
751.283	7609.23
751.621	7782.79
751.96	7727.2
752.298	7823.69
752.636	7928.1
752.975	7949.56
753.313	8057.13
753.651	8132.16
753.989	8189.33
754.327	8276.34
754.666	8333.06
755.004	8396.78
755.342	8496.9
755.679	8656.44
756.017	8704.35
756.355	8782.09
756.693	8852.37
757.031	9038.8
757.368	9057.33
757.706	9165.13
758.044	9300.04
758.381	9442.41
758.719	9498.45
759.056	9680.14
759.394	9709.97
759.731	9846.69
760.068	9966.01
760.405	10108.6
760.743	10202.39
761.08	10348.37
761.417	10425.21
761.754	10492.32
762.091	10682.37
762.428	10767.57
762.765	10843.5
763.102	11011.41
763.438	11095.92
763.775	11227.22
764.112	11335.92
764.449	11562.13
764.785	11604.61
765.122	11693.2
765.458	11767.32
765.795	11982.45
766.131	12113.3
766.467	12192.62
766.804	12334.53
767.14	12346.51
767.476	12491.59
767.812	12574.53
768.148	12727.74
768.485	12727.29
768.821	12789.44
769.157	12880.73
769.492	13058.58
769.828	13131.12
770.164	13098.81
770.5	13210.44
770.836	13300.16
771.171	13401.17
771.507	13457.22
771.842	13522.53
772.178	13524.56
772.513	13673.48
772.849	13832.35
773.184	13765.91
773.519	13816.3
773.855	13826.47
774.19	13854.49
774.525	13981.95
774.86	14018.33
775.195	14068.73
775.53	14065.34
775.865	14121.83
776.2	14095.62
776.535	14107.37
776.87	14081.83
777.205	14197.08
777.539	14203.19
777.874	14275.27
778.209	14188.95
778.543	14236.41
778.878	14206.12
779.212	14308.72
779.547	14225.11
779.881	14329.74
780.215	14314.82
780.55	14415.84
780.884	14320.47
781.218	14288.38
781.552	14335.39
781.886	14280.92
782.22	14208.16
782.554	14324.99
782.888	14175.16
783.222	14325.44
783.556	14171.1
783.889	14250.87
784.223	14194.15
784.557	14157.54
784.89	14241.83
785.224	14110.76
785.557	14160.48
785.891	14107.37
786.224	14047.48
786.558	14049.29
786.891	13966.13
787.224	13934.27
787.557	14097.88
787.891	14055.62
788.224	14008.84
788.557	14041.38
788.89	14000.48
789.223	14060.82
789.556	13904.44
789.888	13910.99
790.221	13859.01
790.554	13711.45
790.887	13896.3
791.219	13839.35
791.552	13803.2
791.884	13818.79
792.217	13697.66
792.549	13729.07
792.882	13577.67
793.214	13676.19
793.546	13614.5
793.879	13584.22
794.211	13445.69
794.543	13563.65
794.875	13639.13
795.207	13600.94
795.539	13524.56
795.871	13476.2
796.203	13430.55
796.535	13326.15
796.867	13370.89
797.198	13355.07
797.53	13408.18
797.862	13281.4
798.193	13318.24
798.525	13240.05
798.856	13240.27
799.188	13123.89
799.519	13058.81
799.85	12986.72
800.182	13065.14
800.513	13101.29
800.844	12904.69
801.175	13055.19
801.506	12994.86
801.837	12884.35
802.168	12865.37
802.499	12865.82
802.83	12813.39
803.161	12801.19
803.491	12753.05
803.822	12775.65
804.153	12664.92
804.483	12588.54
804.814	12632.15
805.145	12537.01
805.475	12590.57
805.805	12540.63
806.136	12576.34
806.466	12507.19
806.796	12579.05
807.126	12419.05
807.457	12363.01
807.787	12348.55
808.117	12360.97
808.447	12299.28
808.777	12369.11
809.107	12244.59
809.436	12287.53
809.766	12283.69
810.096	12222.9
810.426	12185.84
810.755	12147.65
811.085	12105.16
811.414	12023.36
811.744	12028.55
812.073	12002.11
812.403	12097.25
812.732	12011.61
813.061	11958.27
813.39	11890.7
813.719	11904.49
814.049	11930.93
814.378	11916.92
814.707	11892.96
815.036	11883.02
815.365	11792.4
815.693	11724.38
816.022	11669.92
816.351	11713.76
816.68	11602.35
817.008	11689.13
817.337	11497.95
817.665	11509.25
817.994	11610.94
818.322	11545.63
818.651	11468.34
818.979	11552.41
819.307	11531.39
819.636	11555.57
819.964	11404.16
820.292	11486.65
820.62	11397.16
820.948	11412.98
821.276	11488.68
821.604	11482.13
821.932	11447.55
822.259	11448.68
822.587	11485.07
822.915	11373.66
823.243	11415.91
823.57	11408.01
823.898	11358.74
824.225	11365.75
824.553	11425.41
824.88	11395.8
825.207	11445.97
825.535	11391.06
825.862	11380.66
826.189	11316.03
826.516	11464.73
826.843	11533.2
827.17	11417.95
827.497	11471.28
827.824	11473.31
828.151	11478.74
828.478	11448.91
828.805	11552.18
829.131	11443.94
829.458	11456.59
829.785	11373.43
830.111	11353.54
830.438	11470.15
830.764	11433.09
831.09	11445.07
831.417	11418.85
831.743	11409.59
832.069	11439.64
832.395	11399.64
832.722	11436.03
833.048	11443.48
833.374	11393.77
833.7	11369.14
834.026	11347.22
834.351	11385.18
834.677	11386.54
835.003	11382.02
835.329	11395.12
835.654	11324.62
835.98	11225.64
836.306	11361
836.631	11161.68
836.956	11245.52
837.282	11255.69
837.607	11212.3
837.932	11203.72
838.258	11227.9
838.583	11158.29
838.908	11121.91
839.233	11102.93
839.558	11060.22
839.883	11033.55
840.208	11048.01
840.533	11002.59
840.858	11053.66
841.182	10993.55
841.507	11008.02
841.832	11017.28
842.156	10889.6
842.481	10907.23
842.805	10923.05
843.13	10873.78
843.454	10860
843.778	10822.94
844.103	10745.42
844.427	10800.11
844.751	10765.76
845.075	10723.05
845.399	10738.87
845.723	10638.08
846.047	10627.46
846.371	10611.42
846.695	10496.84
847.019	10461.36
847.343	10482.61
847.666	10410.29
847.99	10356.96
848.313	10327.13
848.637	10301.59
848.96	10291.88
849.284	10279
849.607	10166.46
849.931	10212.78
850.254	10145.67
850.577	10088.04
850.9	9999.45
851.223	9988.83
851.546	9901.38
851.869	9862.06
852.192	9946.12
852.515	9787.93
852.838	9726.47
853.161	9784.32
853.483	9797.65
853.806	9715.17
854.129	9730.99
854.451	9710.87
854.774	9610.31
855.096	9568.05
855.419	9562.63
855.741	9556.08
856.063	9500.71
856.385	9550.65
856.708	9410.32
857.03	9431.56
857.352	9394.95
857.674	9327.38
857.996	9307.27
858.318	9291.9
858.64	9249.42
858.961	9273.82
859.283	9230.21
859.605	9223.2
859.926	9212.36
860.248	9194.28
860.57	9209.87
860.891	9141.85
861.212	9109.31
861.534	9072.25
861.855	8996.32
862.176	9089.65
862.498	9091.68
862.819	9060.95
863.14	8958.35
863.461	9027.28
863.782	8943.21
864.103	8955.64
864.424	8966.26
864.745	8956.77
865.065	8858.47
865.386	8834.51
865.707	8848.75
866.027	8903.66
866.348	8835.19
866.668	8825.93
866.989	8839.03
867.309	8793.16
867.63	8707.74
867.95	8655.99
868.27	8665.48
868.59	8707.29
868.91	8689.43
869.23	8637.68
869.55	8570.57
869.87	8698.02
870.19	8672.94
870.51	8661.64
870.83	8663.44
871.15	8607.63
871.469	8561.07
871.789	8578.7
872.109	8545.71
872.428	8480.85
872.748	8569.66
873.067	8529.89
873.386	8536.89
873.706	8533.73
874.025	8527.18
874.344	8447.18
874.663	8520.62
874.982	8444.02
875.301	8495.77
875.62	8424.13
875.939	8444.92
876.258	8404.92
876.577	8368.76
876.896	8380.74
877.214	8395.2
877.533	8345.71
877.852	8342.55
878.17	8360.18
878.489	8383.23
878.807	8361.53
879.125	8268.2
879.444	8237.24
879.762	8260.07
880.08	8237.47
880.398	8206.73
880.716	8187.98
881.034	8203.12
881.352	8151.37
881.67	8131.71
881.988	8153.4
882.306	8114.76
882.624	8103.91
882.941	8052.61
883.259	8000.64
883.577	8009
883.894	7974.88
884.212	7960.19
884.529	7967.19
884.846	7966.06
885.164	7935.78
885.481	7886.29
885.798	7983.91
886.115	7763.13
886.432	7847.42
886.75	7813.75
887.067	7844.71
887.383	7819.17
887.7	7797.03
888.017	7759.29
888.334	7802
888.651	7699.4
888.967	7749.34
889.284	7743.02
889.6	7704.37
889.917	7588.9
890.233	7641.55
890.55	7587.99
890.866	7580.31
891.182	7578.28
891.498	7598.61
891.815	7534.89
892.131	7575.79
892.447	7462.35
892.763	7498.28
893.079	7481.78
893.395	7415.79
893.71	7369.92
894.026	7369.02
894.342	7327.89
894.657	7288.79
894.973	7259.41
895.289	7294.21
895.604	7219.19
895.92	7221
896.235	7140.32
896.55	7186.2
896.865	7161.34
897.181	7112.3
897.496	7144.84
897.811	7061.9
898.126	7087.67
898.441	7025.07
898.756	6993.43
899.071	6993.88
899.386	7011.96
899.7	6886.99
900.015	6925.86
900.33	6861.68
900.644	6840.89
900.959	6863.27
901.273	6832.08
901.588	6794.12
901.902	6766.55
902.216	6678.41
902.531	6693.55
902.845	6652.42
903.159	6639.99
903.473	6588.24
903.787	6600.45
904.101	6549.83
904.415	6574.91
904.729	6526.33
905.042	6488.59
905.356	6537.17
905.67	6466.44
905.984	6447.91
906.297	6500.56
906.611	6479.55
906.924	6439.32
907.237	6372.88
907.551	6359.1
907.864	6306.9
908.177	6274.81
908.491	6290.63
908.804	6190.52
909.117	6218.54
909.43	6173.57
909.743	6164.08
910.056	6122.27
910.368	6086.56
910.681	6053.12
910.994	6048.82
911.307	6066.9
911.619	6013.8
911.932	5958.43
912.244	5945.78
912.557	5932.22
912.869	5935.61
913.181	5857.42
913.494	5869.17
913.806	5822.62
914.118	5833.24
914.43	5817.42
914.742	5757.98
915.054	5730.87
915.366	5747.81
915.678	5700.36
915.99	5642.96
916.302	5623.3
916.613	5642.51
916.925	5595.28
917.236	5613.58
917.548	5544.88
917.859	5536.3
918.171	5529.52
918.482	5445.68
918.794	5466.47
919.105	5487.26
919.416	5397.09
919.727	5416.07
920.038	5414.26
920.349	5346.92
920.66	5335.85
920.971	5368.16
921.282	5302.18
921.593	5289.3
921.903	5229.41
922.214	5241.39
922.525	5227.6
922.835	5177.89
923.146	5144.44
923.456	5169.07
923.767	5146.25
924.077	5121.39
924.387	5066.02
924.697	5113.26
925.008	5051.56
925.318	5067.15
925.628	4995.29
925.938	5030.09
926.248	4950.55
926.558	4932.92
926.867	4967.72
927.177	4936.76
927.487	4899.48
927.796	4876.2
928.106	4844.56
928.416	4799.82
928.725	4835.97
929.034	4808.63
929.344	4808.18
929.653	4749.2
929.962	4695.19
930.271	4711.46
930.581	4716.2
930.89	4688.63
931.199	4641.18
931.508	4641.18
931.817	4611.57
932.125	4585.36
932.434	4581.07
932.743	4517.11
933.051	4522.76
933.36	4519.6
933.669	4529.09
933.977	4502.2
934.286	4475.76
934.594	4432.14
934.902	4412.93
935.21	4401.86
935.519	4379.04
935.827	4370.68
936.135	4366.16
936.443	4312.6
936.751	4321.19
937.059	4343.78
937.367	4247.06
937.674	4305.59
937.982	4278.48
938.29	4262.43
938.597	4249.1
938.905	4165.94
939.213	4173.39
939.52	4144.47
939.827	4140.63
940.135	4124.13
940.442	4103.11
940.749	4082.77
941.056	4117.35
941.363	4056.56
941.67	4046.16
941.977	4045.26
942.284	4013.62
942.591	3987.41
942.898	4007.97
943.205	3976.34
943.511	3948.54
943.818	3933.63
944.125	3937.02
944.431	3930.91
944.738	3854.08
945.044	3886.39
945.35	3849.33
945.657	3810.92
945.963	3825.38
946.269	3803.46
946.575	3773.86
946.881	3784.7
947.187	3767.3
947.493	3714.2
947.799	3699.73
948.105	3719.62
948.41	3680.75
948.716	3676.01
949.022	3648.21
949.327	3664.48
949.633	3616.8
949.938	3618.15
950.244	3655.89
950.549	3580.19
950.854	3540.19
951.16	3543.81
951.465	3548.78
951.77	3512.17
952.075	3511.94
952.38	3528.66
952.685	3498.16
952.99	3460.42
953.294	3426.29
953.599	3419.97
953.904	3384.26
954.209	3423.13
954.513	3423.13
954.818	3385.39
955.122	3427.65
955.426	3340.19
955.731	3380.65
956.035	3309.24
956.339	3324.6
956.643	3309.01
956.948	3302.91
957.252	3297.94
957.556	3250.25
957.86	3215.23
958.163	3223.14
958.467	3229.24
958.771	3203.25
959.075	3202.8
959.378	3205.28
959.682	3179.52
959.985	3170.26
960.289	3150.14
960.592	3147.21
960.896	3122.12
961.199	3102.23
961.502	3134.55
961.805	3081.44
962.108	3071.73
962.411	3074.89
962.714	3039.41
963.017	3062.24
963.32	3032.86
963.623	3021.33
963.926	3015.01
964.228	2986.98
964.531	2932.3
964.833	2932.07
965.136	2924.84
965.438	2898.62
965.741	2921
966.043	2919.64
966.345	2880.55
966.648	2873.99
966.95	2859.08
967.252	2876.03
967.554	2833.54
967.856	2835.58
968.158	2820.21
968.46	2794.9
968.761	2800.1
969.063	2766.88
969.365	2768.68
969.666	2762.36
969.968	2736.14
970.269	2710.83
970.571	2698.4
970.872	2704.73
971.174	2699.99
971.475	2680.33
971.776	2665.41
972.077	2647.78
972.378	2668.57
972.679	2637.84
972.98	2649.82
973.281	2646.65
973.582	2647.11
973.883	2601.91
974.183	2605.75
974.484	2584.28
974.785	2566.43
975.085	2557.84
975.386	2579.08
975.686	2522.82
975.986	2476.26
976.287	2490.05
976.587	2489.37
976.887	2501.57
977.187	2485.08
977.487	2457.96
977.787	2472.65
978.087	2458.18
978.387	2441.01
978.687	2407.34
978.987	2424.29
979.286	2406.66
979.586	2402.37
979.885	2393.33
980.185	2385.19
980.484	2361.01
980.784	2365.76
981.083	2339.77
981.382	2335.48
981.682	2325.76
981.981	2302.93
982.28	2291.63
982.579	2291.63
982.878	2277.4
983.177	2289.15
983.475	2240.34
983.774	2255.25
984.073	2259.09
984.372	2238.08
984.67	2228.81
984.969	2183.61
985.267	2233.78
985.566	2193.78
985.864	2164.41
986.162	2165.31
986.461	2152.88
986.759	2191.75
987.057	2156.5
987.355	2153.11
987.653	2141.13
987.951	2134.35
988.249	2095.48
988.547	2081.92
988.844	2077.18
989.142	2078.76
989.44	2046.67
989.737	2045.77
990.035	2045.77
990.332	2074.92
990.63	2030.85
990.927	2038.76
991.224	2029.95
991.521	2012.09
991.819	2025.43
992.116	1998.76
992.413	1980.23
992.71	1986.56
993.006	1967.12
993.303	1961.7
993.6	1982.04
993.897	1930.97
994.193	1963.73
994.49	1935.71
994.787	1910.63
995.083	1913.11
995.379	1899.33
995.676	1904.98
995.972	1875.15
996.268	1907.46
996.565	1867.01
996.861	1868.59
997.157	1831.31
997.453	1832.44
997.749	1843.28
998.044	1807.58
998.34	1834.25
998.636	1829.95
998.932	1800.35
999.227	1784.76
999.523	1754.47
999.818	1711.99
1000.114	1747.24
1000.409	1737.3
1000.704	1759.22
1001	1717.64
1001.295	1718.77
1001.59	1719.67
1001.885	1707.24
1002.18	1692.33
1002.475	1682.61
1002.77	1676.28
1003.065	1671.31
1003.359	1652.1
1003.654	1637.64
1003.949	1624.53
1004.243	1650.97
1004.538	1606.45
1004.832	1610.75
1005.127	1575.27
1005.421	1592.67
1005.715	1590.64
1006.009	1577.3
1006.304	1566.23
1006.598	1557.42
1006.892	1564.2
1007.186	1522.84
1007.48	1528.72
1007.773	1534.37
1008.067	1535.5
1008.361	1510.86
1008.655	1493.92
1008.948	1485.55
1009.242	1477.19
1009.535	1493.92
1009.829	1464.09
1010.122	1449.62
1010.415	1460.47
1010.708	1469.51
1011.001	1422.28
1011.295	1434.71
1011.588	1422.05
1011.881	1439.23
1012.173	1380.02
1012.466	1371.88
1012.759	1404.88
1013.052	1377.76
1013.344	1366.24
1013.637	1369.4
1013.93	1351.09
1014.222	1336.86
1014.514	1339.12
1014.807	1363.3
1015.099	1331.21
1015.391	1332.11
1015.683	1312.23
1015.976	1311.55
1016.268	1300.93
1016.56	1271.32
1016.851	1284.88
1017.143	1286.69
1017.435	1277.88
1017.727	1265.45
1018.018	1255.96
1018.31	1248.05
1018.602	1224.77
1018.893	1230.65
1019.185	1222.96
1019.476	1191.32
1019.767	1200.59
1020.058	1192.45
1020.35	1199.01
1020.641	1189.52
1020.932	1190.42
1021.223	1177.31
1021.514	1147.26
1021.804	1163.08
1022.095	1131.67
1022.386	1146.35
1022.677	1130.31
1022.967	1149.97
1023.258	1117.2
1023.548	1125.56
1023.839	1096.19
1024.129	1104.55
1024.419	1087.82
1024.709	1078.79
1025	1105.9
1025.29	1084.21
1025.58	1080.82
1025.87	1039.46
1026.16	1034.27
1026.449	1065.45
1026.739	1051.67
1027.029	1033.81
1027.319	1047.83
1027.608	1043.53
1027.898	1040.59
1028.187	1017.09
1028.477	1020.48
1028.766	1022.29
1029.055	1003.08
1029.344	985.45
1029.634	999.92
1029.923	997.66
1030.212	972.57
1030.501	966.25
1030.79	952.01
1031.078	961.95
1031.367	968.51
1031.656	947.72
1031.945	954.27
1032.233	934.61
1032.522	943.42
1032.81	912.01
1033.099	938.68
1033.387	907.49
1033.675	897.1
1033.963	892.58
1034.251	908.39
1034.54	918.34
1034.828	894.38
1035.116	870.66
1035.403	899.81
1035.691	872.46
1035.979	861.16
1036.267	860.03
1036.554	857.55
1036.842	855.29
1037.129	841.96
1037.417	840.37
1037.704	819.81
1037.992	827.72
1038.279	827.49
1038.566	805.35
1038.853	805.35
1039.14	805.35
