Data from hue_200_FLMS001491_00029.txt Node
Date: Tue Feb 07 16:43:03 GMT 2017
User: dcchb
Spectrometer: FLMS00149
Trigger mode: 0
Integration Time (sec): 2.000000E-2
Scans to average: 10
Electric dark correction enabled: true
Nonlinearity correction enabled: false
Boxcar width: 0
XAxis mode: Wavelengths
Number of Pixels in Spectrum: 2048
>>>>>Begin Spectral Data<<<<<
341.393	-30.28
341.776	-30.28
342.16	-30.28
342.543	-58.08
342.927	-66.21
343.31	-83.16
343.693	-80.68
344.077	-49.04
344.46	-44.74
344.843	-70.96
345.226	-31.41
345.61	-28.93
345.993	-25.99
346.376	-24.18
346.759	2.94
347.142	30.28
347.525	47.46
347.908	54.91
348.291	94.23
348.674	97.62
349.057	111.64
349.44	120.9
349.823	150.96
350.206	172.65
350.588	211.07
350.971	209.94
351.354	213.55
351.737	248.13
352.119	252.65
352.502	277.05
352.884	280.22
353.267	284.51
353.65	278.41
354.032	315.92
354.414	318.41
354.797	296.49
355.179	322.03
355.562	332.87
355.944	328.35
356.326	310.95
356.709	364.51
357.091	343.04
357.473	317.51
357.855	350.73
358.238	359.76
358.62	357.05
359.002	367.22
359.384	335.58
359.766	363.15
360.148	360.22
360.53	339.2
360.912	360.89
361.294	332.65
361.676	333.78
362.057	324.06
362.439	334.91
362.821	330.39
363.203	341.23
363.584	339.2
363.966	330.84
364.348	307.56
364.729	310.27
365.111	355.24
365.493	321.57
365.874	322.03
366.256	301.69
366.637	323.16
367.019	320.22
367.4	329.71
367.781	337.84
368.163	350.5
368.544	322.03
368.925	322.25
369.306	339.88
369.688	312.31
370.069	298.3
370.45	312.53
370.831	323.16
371.212	336.49
371.593	310.95
371.974	308.47
372.355	317.28
372.736	336.49
373.117	323.16
373.498	302.36
373.879	321.35
374.26	310.5
374.641	321.12
375.021	312.53
375.402	314.57
375.783	326.32
376.163	320.22
376.544	326.32
376.925	345.3
377.305	315.25
377.686	335.13
378.066	319.31
378.447	325.42
378.827	325.19
379.208	328.13
379.588	322.48
379.968	353.66
380.349	338.75
380.729	321.57
381.109	338.3
381.489	327
381.87	345.75
382.25	334.23
382.63	310.95
383.01	351.4
383.39	342.82
383.77	351.18
384.15	360.89
384.53	349.37
384.91	356.6
385.29	376.94
385.67	348.92
386.049	353.21
386.429	345.98
386.809	364.51
387.189	347.11
387.568	356.83
387.948	351.86
388.328	376.94
388.707	366.32
389.087	380.55
389.466	364.74
389.846	365.19
390.225	390.27
390.605	347.56
390.984	384.85
391.363	388.01
391.743	401.8
392.122	372.87
392.501	389.14
392.881	397.05
393.26	391.85
393.639	368.58
394.018	369.71
394.397	381.68
394.776	377.62
395.155	404.28
395.534	407.9
395.913	404.51
396.292	405.87
396.671	404.51
397.05	395.47
397.429	394.34
397.808	399.99
398.186	394.34
398.565	392.53
398.944	404.51
399.323	408.35
399.701	402.25
400.08	416.26
400.458	417.39
400.837	427.33
401.215	410.16
401.594	417.16
401.972	409.71
402.351	428.69
402.729	442.25
403.107	421.23
403.486	432.76
403.864	429.82
404.242	444.51
404.62	457.62
404.999	466.65
405.377	461
405.755	444.96
406.133	470.95
406.511	475.24
406.889	488.57
407.267	485.41
407.645	506.2
408.023	501
408.401	499.42
408.779	504.39
409.156	517.73
409.534	515.47
409.912	534
410.29	534.22
410.667	521.12
411.045	544.39
411.422	555.24
411.8	588.91
412.178	576.93
412.555	598.18
412.933	596.14
413.31	583.71
413.687	628.01
414.065	649.47
414.442	634.79
414.819	652.41
415.197	665.52
415.574	676.59
415.951	670.04
416.328	670.94
416.705	668.46
417.082	672.07
417.46	691.06
417.837	709.81
418.214	701.68
418.591	739.64
418.967	750.04
419.344	737.61
419.721	747.32
420.098	738.06
420.475	770.15
420.852	778.28
421.228	845.63
421.605	807.66
421.982	842.46
422.358	842.46
422.735	890.82
423.111	874.1
423.488	899.64
423.864	897.83
424.241	923.82
424.617	955.46
424.994	973.53
425.37	930.37
425.746	959.3
426.123	1001.33
426.499	1022.57
426.875	1015.79
427.251	1029.58
427.627	1062.8
428.003	1053.08
428.379	1065.06
428.756	1119.52
429.132	1106.19
429.507	1111.38
429.883	1122.23
430.259	1148.9
430.635	1143.92
431.011	1162.91
431.387	1205.84
431.763	1221.89
432.138	1248.55
432.514	1236.58
432.89	1240.42
433.265	1309.57
433.641	1342.56
434.016	1315.45
434.392	1356.57
434.767	1371.72
435.143	1382.11
435.518	1438.38
435.894	1450.81
436.269	1484.48
436.644	1518.83
437.02	1512.05
437.395	1556.34
437.77	1558.6
438.145	1606.29
438.52	1636.79
438.895	1653.74
439.271	1638.83
439.646	1730.12
440.021	1744.81
440.395	1774.64
440.77	1786.62
441.145	1787.07
441.52	1853.96
441.895	1883.57
442.27	1888.31
442.645	1884.24
443.019	1919.72
443.394	1931.47
443.769	1966.5
444.143	1946.16
444.518	2003.79
444.892	2011.7
445.267	2027.29
445.641	2064.13
446.016	2081.75
446.39	2082.88
446.764	2066.39
447.139	2131.7
447.513	2106.61
447.887	2124.92
448.262	2166.95
448.636	2191.35
449.01	2214.18
449.384	2245.14
449.758	2284.01
450.132	2291.24
450.506	2281.97
450.88	2326.27
451.254	2345.25
451.628	2363.1
452.002	2338.92
452.376	2406.04
452.75	2455.08
453.123	2434.29
453.497	2484.23
453.871	2477.9
454.244	2545.02
454.618	2554.96
454.992	2586.6
455.365	2595.41
455.739	2653.72
456.112	2690.32
456.486	2704.56
456.859	2695.75
457.232	2763.54
457.606	2768.29
457.979	2829.76
458.352	2878.79
458.725	2873.82
459.099	2901.84
459.472	2973.26
459.845	3036.53
460.218	3025.01
460.591	3043.31
460.964	3045.12
461.337	3113.14
461.71	3190.88
462.083	3258.9
462.456	3244.21
462.829	3223.19
463.201	3306.81
463.574	3332.12
463.947	3356.07
464.32	3417.99
464.692	3445.11
465.065	3502.73
465.438	3539.34
465.81	3575.95
466.183	3616.4
466.555	3716.51
466.928	3684.2
467.3	3692.33
467.672	3769.84
468.045	3869.73
468.417	3852.33
468.789	3920.8
469.161	3981.36
469.534	4027.01
469.906	4069.27
470.278	4072.66
470.65	4154.47
471.022	4215.26
471.394	4306.78
471.766	4365.76
472.138	4388.59
472.51	4435.59
472.882	4509.26
473.253	4548.35
473.625	4568.69
473.997	4697.05
474.369	4725.53
474.74	4761
475.112	4862.47
475.484	4935.46
475.855	4984.28
476.227	5040.55
476.598	5157.38
476.97	5251.84
477.341	5334.1
477.713	5430.14
478.084	5416.13
478.455	5521.21
478.827	5592.62
479.198	5748.1
479.569	5763.46
479.94	5837.36
480.311	5916.91
480.682	5989.45
481.053	6126.17
481.424	6256.78
481.795	6297.91
482.166	6390.11
482.537	6460.85
482.908	6593.95
483.279	6558.47
483.65	6720.5
484.021	6849.99
484.391	6918.69
484.762	6979.7
485.133	7034.39
485.503	7102.86
485.874	7249.75
486.244	7296.76
486.615	7385.57
486.985	7470.31
487.356	7583.3
487.726	7628.73
488.097	7806.12
488.467	7834.14
488.837	7986.68
489.207	8040.92
489.578	8154.81
489.948	8195.26
490.318	8308.48
490.688	8352.1
491.058	8443.17
491.428	8516.61
491.798	8592.54
492.168	8682.03
492.538	8678.19
492.908	8819.88
493.278	8958.41
493.648	8901.69
494.017	9035.47
494.387	9044.96
494.757	9135.8
495.126	9235.46
495.496	9217.38
495.866	9204.73
496.235	9381
496.605	9389.58
496.974	9447.44
497.344	9513.2
497.713	9545.74
498.082	9601.33
498.452	9687.43
498.821	9700.31
499.19	9668.22
499.559	9760.42
499.928	9779.63
500.298	9892.4
500.667	9917.25
501.036	9914.32
501.405	9968.78
501.774	9957.48
502.143	9999.29
502.512	9962
502.88	10151.15
503.249	10093.07
503.618	10120.64
503.987	10134.2
504.356	10144.37
504.724	10229.79
505.093	10213.97
505.462	10299.62
505.83	10292.38
506.199	10425.26
506.567	10412.16
506.936	10392.04
507.304	10483.79
507.672	10455.09
508.041	10495.32
508.409	10496.9
508.777	10556.11
509.145	10607.18
509.514	10566.5
509.882	10663.67
510.25	10629.33
510.618	10682.66
510.986	10625.48
511.354	10727.18
511.722	10774.41
512.09	10872.26
512.458	10736.21
512.826	10864.57
513.193	10837.91
513.561	10778.7
513.929	10917.45
514.297	10886.27
514.664	10900.96
515.032	10920.16
515.4	10973.04
515.767	10951.58
516.135	10939.6
516.502	10932.14
516.869	11025.47
517.237	10957.23
517.604	10979.15
517.972	10994.97
518.339	11029.77
518.706	10961.52
519.073	10965.36
519.44	10990.67
519.808	11046.94
520.175	10968.75
520.542	11090.78
520.909	11118.58
521.276	11091.23
521.643	11103.89
522.009	11088.07
522.376	11082.19
522.743	11109.54
523.11	11176.2
523.477	11140.05
523.843	11234.05
524.21	11223.66
524.577	11209.42
524.943	11240.16
525.31	11227.73
525.676	11284.22
526.043	11230.67
526.409	11230.21
526.776	11281.51
527.142	11206.71
527.508	11231.12
527.874	11324.45
528.241	11232.92
528.607	11243.32
528.973	11274.05
529.339	11163.1
529.705	11260.72
530.071	11206.26
530.437	11236.77
530.803	11179.59
531.169	11246.26
531.535	11082.19
531.901	11110.89
532.267	11060.95
532.632	11124.91
532.998	11042.65
533.364	11102.98
533.73	10990.22
534.095	11047.85
534.461	10981.18
534.826	10991.35
535.192	10961.97
535.557	10938.47
535.923	10849.43
536.288	10898.7
536.653	10827.74
537.019	10794.07
537.384	10806.27
537.749	10738.47
538.114	10771.24
538.479	10616.22
538.845	10668.42
539.21	10545.49
539.575	10496.9
539.94	10477.46
540.305	10463.91
540.67	10403.57
541.034	10381.2
541.399	10360.86
541.764	10283.57
542.129	10290.58
542.494	10258.49
542.858	10208.32
543.223	10132.16
543.587	10156.34
543.952	9981.66
544.316	10060.75
544.681	10030.02
545.045	9856.24
545.41	9914.09
545.774	9985.05
546.138	9825.5
546.503	9822.34
546.867	9725.39
547.231	9771.27
547.595	9729.01
547.959	9688.11
548.324	9613.08
548.688	9593.19
549.052	9588.9
549.416	9477.72
549.779	9434.55
550.143	9364.95
550.507	9419.64
550.871	9420.09
551.235	9270.49
551.599	9354.78
551.962	9270.49
552.326	9216.48
552.689	9181
553.053	9106.88
553.417	9126.77
553.78	9175.13
554.143	9114.34
554.507	9076.37
554.87	9044.06
555.234	9139.19
555.597	8972.65
555.96	8912.99
556.323	8943.49
556.686	8951.4
557.05	8937.84
557.413	8925.19
557.776	8852.65
558.139	8841.12
558.502	8799.09
558.865	8787.57
559.228	8869.37
559.59	8797.28
559.953	8761.35
560.316	8818.53
560.679	8773.33
561.041	8763.61
561.404	8798.19
561.767	8795.25
562.129	8716.83
562.492	8762.93
562.854	8722.48
563.217	8701.69
563.579	8665.31
563.941	8704.86
564.304	8719.32
564.666	8748.7
565.028	8737.4
565.39	8727.68
565.753	8773.33
566.115	8700.34
566.477	8686.78
566.839	8757.74
567.201	8684.29
567.563	8702.14
567.925	8763.61
568.287	8702.82
568.648	8769.03
569.01	8736.04
569.372	8747.79
569.734	8740.79
570.095	8731.3
570.457	8737.4
570.819	8752.31
571.18	8758.87
571.542	8757.28
571.903	8772.2
572.265	8780.79
572.626	8816.72
572.987	8730.17
573.349	8729.94
573.71	8828.92
574.071	8695.36
574.432	8808.13
574.794	8892.2
575.155	8846.55
575.516	8821.46
575.877	8794.8
576.238	8743.27
576.599	8828.69
576.96	8812.42
577.32	8827.11
577.681	8807.23
578.042	8847.45
578.403	8817.85
578.763	8852.87
579.124	8809.26
579.485	8852.65
579.845	8837.73
580.206	8770.62
580.566	8808.13
580.927	8797.51
581.287	8816.27
581.648	8832.76
582.008	8792.09
582.368	8825.53
582.728	8871.63
583.089	8777.85
583.449	8798.19
583.809	8861.91
584.169	8808.13
584.529	8751.41
584.889	8863.5
585.249	8786.44
585.609	8805.42
585.969	8847
586.329	8789.6
586.688	8858.52
587.048	8820.33
587.408	8769.49
587.768	8748.02
588.127	8701.92
588.487	8717.28
588.846	8778.53
589.206	8767.23
589.565	8701.92
589.925	8773.55
590.284	8761.13
590.643	8727
591.003	8746.66
591.362	8727.23
591.721	8734.01
592.08	8695.82
592.44	8753.89
592.799	8781.01
593.158	8719.77
593.517	8696.04
593.876	8762.03
594.235	8722.48
594.593	8723.16
594.952	8679.09
595.311	8647.23
595.67	8666.21
596.029	8720.67
596.387	8679.77
596.746	8701.92
597.104	8668.92
597.463	8722.48
597.822	8700.34
598.18	8649.94
598.538	8659.43
598.897	8703.27
599.255	8637.06
599.613	8760.67
599.972	8700.56
600.33	8706.66
600.688	8644.29
601.046	8618.08
601.404	8679.09
601.762	8663.28
602.12	8698.98
602.478	8682.26
602.836	8664.86
603.194	8552.32
603.552	8704.4
603.91	8662.37
604.268	8634.35
604.625	8634.35
604.983	8637.29
605.341	8602.49
605.698	8651.3
606.056	8653.33
606.413	8602.49
606.771	8702.82
607.128	8678.87
607.485	8655.14
607.843	8635.25
608.2	8634.8
608.557	8687.91
608.914	8631.41
609.272	8737.4
609.629	8697.62
609.986	8744.63
610.343	8706.66
610.7	8736.27
611.057	8767
611.414	8733.33
611.771	8739.88
612.127	8728.13
612.484	8681.81
612.841	8738.98
613.198	8700.56
613.554	8717.28
613.911	8793.67
614.267	8697.17
614.624	8768.13
614.98	8764.29
615.337	8738.53
615.693	8742.14
616.05	8788.24
616.406	8833.44
616.762	8778.75
617.118	8837.73
617.475	8837.06
617.831	8795.93
618.187	8810.62
618.543	8844.74
618.899	8896.26
619.255	8863.04
619.611	8832.76
619.967	8872.54
620.323	8936.71
620.678	8836.83
621.034	8765.42
621.39	8752.54
621.746	8807.45
622.101	8974.91
622.457	8767.91
622.812	8828.69
623.168	8857.39
623.523	8875.92
623.879	8878.86
624.234	8830.05
624.589	8901.01
624.945	8888.13
625.3	8884.29
625.655	8846.32
626.01	8837.73
626.365	8856.72
626.72	8917.28
627.075	8866.66
627.43	8828.02
627.785	8830.73
628.14	8832.31
628.495	8802.93
628.85	8834.57
629.205	8813.1
629.559	8835.93
629.914	8808.58
630.269	8811.52
630.623	8775.36
630.978	8724.74
631.332	8807.45
631.687	8775.36
632.041	8682.03
632.396	8755.25
632.75	8715.48
633.104	8680.9
633.459	8665.99
633.813	8627.34
634.167	8630.28
634.521	8698.98
634.875	8675.93
635.229	8594.8
635.583	8604.75
635.937	8613.11
636.291	8634.12
636.645	8564.97
636.999	8580.79
637.352	8595.93
637.706	8519.32
638.06	8579.44
638.413	8561.58
638.767	8512.54
639.121	8547.12
639.474	8454.92
639.828	8511.64
640.181	8498.53
640.534	8529.72
640.888	8518.42
641.241	8515.26
641.594	8419.67
641.947	8470.29
642.301	8440.46
642.654	8478.2
643.007	8470.06
643.36	8510.28
643.713	8429.61
644.066	8471.19
644.419	8358.65
644.771	8339.44
645.124	8289.27
645.477	8277.75
645.83	8291.76
646.182	8184.64
646.535	8180.12
646.888	8257.64
647.24	8098.32
647.593	8192.33
647.945	8130.63
648.298	8096.28
648.65	8130.41
649.002	8183.29
649.355	8167.24
649.707	8147.81
650.059	8185.32
650.411	8292.44
650.763	8295.6
651.115	8357.07
651.467	8327.24
651.819	8291.08
652.171	8338.54
652.523	8317.3
652.875	8388.25
653.227	8289.5
653.578	8341.7
653.93	8338.99
654.282	8339.22
654.633	8278.88
654.985	8355.94
655.337	8303.51
655.688	8307.58
656.039	8321.82
656.391	8270.97
656.742	8273.45
657.094	8295.38
657.445	8273
657.796	8356.16
658.147	8286.79
658.498	8328.37
658.849	8325.66
659.2	8313.45
659.551	8338.31
659.902	8301.25
660.253	8350.06
660.604	8346
660.955	8285.66
661.306	8362.27
661.656	8435.48
662.007	8369.05
662.358	8375.82
662.708	8375.6
663.059	8355.49
663.409	8304.64
663.76	8413.11
664.11	8394.81
664.461	8402.26
664.811	8456.95
665.161	8386.9
665.511	8298.09
665.862	8382.6
666.212	8431.64
666.562	8429.38
666.912	8390.74
667.262	8407.91
667.612	8334.7
667.962	8404.75
668.312	8383.96
668.662	8429.38
669.011	8357.29
669.361	8360.46
669.711	8388.25
670.06	8370.4
670.41	8418.54
670.76	8385.32
671.109	8384.19
671.459	8364.98
671.808	8300.35
672.157	8413.79
672.507	8257.86
672.856	8309.16
673.205	8283.4
673.554	8356.62
673.904	8349.61
674.253	8317.75
674.602	8313.45
674.951	8169.5
675.3	8203.85
675.649	8243.4
675.998	8261.48
676.346	8226.45
676.695	8265.09
677.044	8201.82
677.393	8224.42
677.741	8247.92
678.09	8263.51
678.438	8188.49
678.787	8218.77
679.135	8171.31
679.484	8187.81
679.832	8162.27
680.181	8115.04
680.529	8168.15
680.877	8135.15
681.225	8082.73
681.573	8119.79
681.922	8102.39
682.27	8013.12
682.618	8043.86
682.966	7976.29
683.314	8016.06
683.661	7960.24
684.009	7973.58
684.357	7948.27
684.705	7971.32
685.053	7947.14
685.4	7926.12
685.748	7869.85
686.095	7905.1
686.443	7873.47
686.79	7860.58
687.138	7852.22
687.485	7817.2
687.832	7706.69
688.18	7715.73
688.527	7715.05
688.874	7685
689.221	7764.32
689.568	7658.78
689.915	7621.04
690.262	7685.22
690.609	7639.57
690.956	7581.5
691.303	7538.78
691.65	7540.59
691.997	7527.49
692.344	7476.64
692.69	7471.67
693.037	7487.26
693.383	7448.62
693.73	7370.2
694.077	7330.65
694.423	7425.57
694.769	7320.03
695.116	7341.5
695.462	7339.24
695.808	7248.62
696.155	7294.27
696.501	7213.82
696.847	7153.03
697.193	7129.53
697.539	7200.94
697.885	7153.26
698.231	7065.8
698.577	7045.46
698.923	7045.69
699.269	7071
699.614	6992.13
699.96	6949.2
700.306	6959.14
700.651	6908.74
700.997	6877.56
701.342	6895.86
701.688	6772.48
702.033	6890.21
702.379	6794.4
702.724	6763.66
703.069	6787.17
703.415	6663.33
703.76	6742.2
704.105	6699.26
704.45	6727.73
704.795	6687.06
705.14	6623.33
705.485	6598.02
705.83	6527.74
706.175	6585.14
706.52	6552.14
706.865	6538.36
707.209	6491.58
707.554	6465.59
707.899	6522.99
708.243	6427.63
708.588	6427.18
708.932	6447.74
709.277	6424.92
709.621	6350.57
709.966	6383.33
710.31	6352.15
710.654	6320.74
710.998	6314.86
711.342	6321.42
711.687	6299.27
712.031	6232.38
712.375	6266.95
712.719	6221.31
713.063	6263.79
713.407	6215.66
713.75	6167.75
714.094	6197.13
714.438	6167.3
714.782	6140.86
715.125	6160.52
715.469	6161.65
715.812	6132.95
716.156	6093.4
716.499	6070.57
716.843	6115.55
717.186	6097.24
717.53	6074.64
717.873	6058.15
718.216	6082.55
718.559	6035.32
718.902	5996.68
719.246	6036.23
719.589	6017.69
719.932	6012.72
720.275	5980.63
720.617	5986.51
720.96	5934.99
721.303	5983.8
721.646	6014.53
721.989	5948.77
722.331	5999.16
722.674	5970.46
723.016	5961.2
723.359	5978.37
723.701	5954.42
724.044	5877.13
724.386	5876.23
724.729	5957.58
725.071	5877.36
725.413	5943.35
725.755	5871.26
726.097	5933.4
726.439	5855.67
726.782	5859.96
727.124	5899.96
727.465	5859.05
727.807	5870.13
728.149	5860.18
728.491	5857.47
728.833	5882.78
729.175	5847.08
729.516	5867.64
729.858	5840.75
730.199	5852.28
730.541	5855.89
730.882	5859.28
731.224	5910.58
731.565	5883.69
731.906	5866.51
732.248	5834.87
732.589	5798.94
732.93	5847.3
733.271	5856.57
733.612	5840.3
733.953	5859.28
734.294	5861.09
734.635	5871.03
734.976	5860.86
735.317	5854.08
735.658	5834.87
735.999	5873.97
736.339	5859.73
736.68	5850.24
737.021	5915.1
737.361	5896.34
737.702	5925.95
738.042	5823.12
738.383	5905.83
738.723	5895.44
739.063	5920.97
739.404	5962.78
739.744	5916
740.084	5976.11
740.424	5952.16
740.764	5951.93
741.104	6000.97
741.444	5983.35
741.784	5966.4
742.124	5997.13
742.464	6040.29
742.804	6005.94
743.143	6030.12
743.483	6115.55
743.823	6096.34
744.162	6095.21
744.502	6144.92
744.841	6199.16
745.181	6287.07
745.52	6165.94
745.86	6289.1
746.199	6289.78
746.538	6298.37
746.877	6305.37
747.216	6414.07
747.556	6450
747.895	6433.96
748.234	6513.95
748.573	6550.79
748.911	6622.2
749.25	6651.58
749.589	6704.23
749.928	6742.87
750.267	6841.63
750.605	6893.83
750.944	6896.32
751.283	6981.06
751.621	7103.54
751.96	7113.94
752.298	7258.79
752.636	7299.02
752.975	7363.65
753.313	7473.25
753.651	7621.49
753.989	7722.73
754.327	7790.08
754.666	7882.28
755.004	7979.68
755.342	8116.62
755.679	8283.17
756.017	8365.88
756.355	8542.37
756.693	8597.97
757.031	8779.2
757.368	8864.85
757.706	9072.08
758.044	9163.83
758.381	9324.73
758.719	9472.07
759.056	9686.52
759.394	9813.3
759.731	9940.3
760.068	10061.43
760.405	10229.11
760.743	10426.17
761.08	10593.85
761.417	10758.36
761.754	10992.25
762.091	11088.97
762.428	11278.57
762.765	11481.51
763.102	11685.12
763.438	11823.64
763.775	11987.93
764.112	12216.4
764.449	12326.68
764.785	12454.59
765.122	12644.19
765.458	12811.41
765.795	13014.12
766.131	13160.78
766.467	13305.64
766.804	13449.59
767.14	13588.34
767.476	13784.72
767.812	14013.64
768.148	14119.85
768.485	14229.68
768.821	14307.87
769.157	14492.5
769.492	14661.54
769.828	14800.97
770.164	14893.85
770.5	15008.42
770.836	15137.23
771.171	15115.31
771.507	15416.32
771.842	15366.38
772.178	15581.74
772.513	15614.28
772.849	15716.87
773.184	15800.26
773.519	15940.82
773.855	15971.33
774.19	16104.21
774.525	16084.55
774.86	16334.03
775.195	16284.77
775.53	16438.89
775.865	16477.98
776.2	16554.14
776.535	16528.15
776.87	16562.95
777.205	16666.68
777.539	16681.6
777.874	16803.85
778.209	16706.91
778.543	16864.64
778.878	16812.89
779.212	16891.76
779.547	16872.32
779.881	17001.59
780.215	17007.24
780.55	17193.45
780.884	17021.7
781.218	17140.34
781.552	17198.42
781.886	17061.7
782.22	17106.67
782.554	17173.11
782.888	17066.22
783.222	17113
783.556	17097.86
783.889	17110.74
784.223	17041.81
784.557	17113.67
784.89	17250.39
785.224	17139.44
785.557	17056.27
785.891	17158.42
786.224	17068.48
786.558	17204.97
786.891	17034.13
787.224	16964.75
787.557	17095.37
787.891	17033.9
788.224	17053.79
788.557	17127.01
788.89	17061.25
789.223	17051.98
789.556	17057.4
789.888	16908.93
790.221	16922.04
790.554	16723.63
790.887	16871.19
791.219	16940.8
791.552	16882.49
791.884	16721.82
792.217	16811.31
792.549	16813.12
792.882	16692.89
793.214	16648.38
793.546	16748.03
793.879	16644.53
794.211	16573.58
794.543	16658.77
794.875	16595.95
795.207	16666.45
795.539	16625.1
795.871	16689.28
796.203	16465.78
796.535	16442.51
796.867	16426.23
797.198	16339.01
797.53	16390.76
797.862	16284.54
798.193	16336.07
798.525	16254.71
798.856	16266.92
799.188	16167.48
799.519	16114.6
799.85	16011.1
800.182	16059.69
800.513	16044.1
800.844	15985.12
801.175	16087.71
801.506	16023.31
801.837	15927.04
802.168	15874.61
802.499	15836.19
802.83	15751.68
803.161	15781.05
803.491	15757.33
803.822	15759.13
804.153	15678.23
804.483	15504.9
804.814	15534.73
805.145	15534.73
805.475	15496.77
805.805	15484.79
806.136	15525.47
806.466	15482.98
806.796	15505.13
807.126	15339.26
807.457	15347.17
807.787	15327.96
808.117	15329.09
808.447	15191.92
808.777	15242.09
809.107	15191.69
809.436	15071.47
809.766	15100.62
810.096	15129.55
810.426	15020.62
810.755	15094.07
811.085	15066.95
811.414	14934.52
811.744	14851.36
812.073	14904.24
812.403	14958.48
812.732	14878.25
813.061	14849.55
813.39	14786.28
813.719	14784.02
814.049	14829.44
814.378	14757.13
814.707	14692.72
815.036	14645.49
815.365	14644.81
815.693	14586.06
816.022	14528.43
816.351	14542.44
816.68	14391.26
817.008	14438.49
817.337	14320.3
817.665	14361.43
817.994	14384.93
818.322	14362.79
818.651	14318.49
818.979	14220.19
819.307	14366.18
819.636	14284.37
819.964	14126.41
820.292	14281.21
820.62	14252.73
820.948	14179.74
821.276	14249.34
821.604	14161.21
821.932	14202.11
822.259	14217.93
822.587	14158.5
822.915	14212.96
823.243	14192.17
823.57	14165.28
823.898	14248.66
824.225	14189.01
824.553	14136.8
824.88	14197.14
825.207	14210.93
825.535	14184.94
825.862	14216.12
826.189	14146.29
826.516	14262.45
826.843	14219.06
827.17	14223.58
827.497	14254.54
827.824	14233.3
828.151	14332.73
828.478	14277.82
828.805	14273.75
829.131	14233.07
829.458	14280.08
829.785	14197.59
830.111	14200.76
830.438	14327.31
830.764	14278.04
831.09	14255.44
831.417	14180.42
831.743	14275.33
832.069	14271.26
832.395	14181.1
832.722	14209.57
833.048	14171.38
833.374	14222
833.7	14120.08
834.026	14139.97
834.351	14185.39
834.677	14083.92
835.003	14188.78
835.329	14168.89
835.654	14131.38
835.98	14150.36
836.306	14089.8
836.631	14074.21
836.956	14134.09
837.282	14174.32
837.607	14002.57
837.932	14030.37
838.258	13980.65
838.583	13956.24
838.908	13980.2
839.233	13923.7
839.558	13975
839.883	13801.9
840.208	13836.47
840.533	13780.2
840.858	13831.5
841.182	13868.79
841.507	13731.62
841.832	13697.72
842.156	13721.22
842.481	13658.62
842.805	13681
843.13	13593.77
843.454	13659.75
843.778	13478.29
844.103	13381.34
844.427	13479.87
844.751	13429.03
845.075	13441.68
845.399	13340.44
845.723	13194.46
846.047	13262.02
846.371	13224.51
846.695	13203.49
847.019	13156.94
847.343	13013.9
847.666	12945.65
847.99	12932.77
848.313	13000.11
848.637	12871.3
848.96	12864.29
849.284	12789.95
849.607	12730.74
849.931	12702.94
850.254	12635.15
850.577	12563.96
850.9	12572.1
851.223	12436.74
851.546	12412.33
851.869	12281.26
852.192	12351.09
852.515	12237.64
852.838	12245.55
853.161	12149.06
853.483	12108.83
853.806	12080.13
854.129	12117.42
854.451	12051.21
854.774	11938.44
855.096	11897.99
855.419	11973.7
855.741	11806.47
856.063	11841.27
856.385	11804.44
856.708	11713.59
857.03	11709.52
857.352	11711.56
857.674	11768.28
857.996	11670.88
858.318	11561.73
858.64	11516.76
858.961	11590.43
859.283	11471.11
859.605	11429.53
859.926	11437.89
860.248	11383.66
860.57	11369.19
860.891	11412.13
861.212	11369.64
861.534	11271.79
861.855	11212.13
862.176	11261.4
862.498	11228.86
862.819	11318.57
863.14	11191.8
863.461	11152.93
863.782	11109.54
864.103	11244.22
864.424	11081.06
864.745	11107.05
865.065	11021.41
865.386	11011.01
865.707	11031.35
866.027	10962.42
866.348	11026.38
866.668	10961.97
866.989	11007.39
867.309	10880.84
867.63	10933.27
867.95	10870.67
868.27	10879.71
868.59	10876.78
868.91	10823.9
869.23	10866.38
869.55	10747.29
869.87	10831.58
870.19	10788.87
870.51	10764.46
870.83	10816.66
871.15	10717.01
871.469	10679.49
871.789	10744.35
872.109	10653.73
872.428	10615.77
872.748	10674.3
873.067	10637.69
873.386	10586.39
873.706	10597.01
874.025	10569.44
874.344	10530.8
874.663	10562.21
874.982	10521.53
875.301	10517.46
875.62	10482.44
875.939	10520.18
876.258	10496.67
876.577	10396.34
876.896	10393.85
877.214	10462.32
877.533	10457.13
877.852	10393.4
878.17	10359.5
878.489	10322.89
878.807	10357.24
879.125	10297.58
879.444	10354.08
879.762	10299.84
880.08	10283.8
880.398	10220.75
880.716	10268.2
881.034	10212.61
881.352	10241.99
881.67	10164.25
881.988	10134.87
882.306	10143.69
882.624	10098.94
882.941	10056.68
883.259	10003.8
883.577	10028.44
883.894	9971.04
884.212	10069.34
884.529	9919.06
884.846	9882.23
885.164	9976.91
885.481	9898.04
885.798	9915.22
886.115	9772.85
886.432	9767.43
886.75	9756.13
887.067	9731.04
887.383	9733.08
887.7	9757.94
888.017	9668.22
888.334	9770.14
888.651	9663.47
888.967	9656.7
889.284	9623.02
889.6	9550.26
889.917	9538.73
890.233	9557.04
890.55	9426.64
890.866	9462.12
891.182	9462.8
891.498	9408.11
891.815	9389.36
892.131	9329.7
892.447	9333.31
892.763	9279.3
893.079	9231.62
893.395	9247.21
893.71	9194.33
894.026	9164.73
894.342	9088.57
894.657	9106.65
894.973	9098.07
895.289	9132.87
895.604	9050.16
895.92	8992.08
896.235	8951.4
896.55	8997.05
896.865	8925.42
897.181	8868.02
897.496	8887.68
897.811	8856.49
898.126	8840.67
898.441	8807
898.756	8731.07
899.071	8647.23
899.386	8701.92
899.7	8666.21
900.015	8520.91
900.33	8533.33
900.644	8514.58
900.959	8471.64
901.273	8468.03
901.588	8357.29
901.902	8400.46
902.216	8402.04
902.531	8378.08
902.845	8353.9
903.159	8273
903.473	8221.03
903.787	8244.08
904.101	8192.1
904.415	8235.26
904.729	8172.21
905.042	8027.59
905.356	8104.87
905.67	8063.74
905.984	8077.98
906.297	7977.87
906.611	7974.25
906.924	7931.32
907.237	7877.76
907.551	7841.83
907.864	7807.7
908.177	7811.55
908.491	7810.42
908.804	7738.33
909.117	7626.01
909.43	7563.64
909.743	7583.53
910.056	7592.79
910.368	7516.41
910.681	7464.66
910.994	7448.39
911.307	7484.77
911.619	7407.26
911.932	7392.8
912.244	7365.91
912.557	7306.47
912.869	7296.31
913.181	7247.72
913.494	7268.96
913.806	7190.55
914.118	7174.27
914.43	7125.69
914.742	7170.21
915.054	7123.65
915.366	7059.02
915.678	7059.48
915.99	7002.53
916.302	6918.69
916.613	6907.61
916.925	6946.03
917.236	6916.2
917.548	6880.72
917.859	6860.61
918.171	6796.66
918.482	6799.37
918.794	6796.21
919.105	6773.61
919.416	6699.03
919.727	6690.67
920.038	6617.45
920.349	6667.4
920.66	6593.27
920.971	6615.19
921.282	6556.66
921.593	6511.02
921.903	6530
922.214	6476.44
922.525	6475.76
922.835	6400.74
923.146	6360.74
923.456	6341.98
923.767	6364.13
924.077	6310.57
924.387	6262.21
924.697	6235.77
925.008	6233.73
925.318	6213.62
925.628	6178.59
925.938	6178.82
926.248	6126.39
926.558	6085.94
926.867	6062.44
927.177	6198.71
927.487	6015.89
927.796	6041.88
928.106	5998.03
928.416	5989
928.725	5944.48
929.034	5896.57
929.344	5890.47
929.653	5880.52
929.962	5796.91
930.271	5853.86
930.581	5813.18
930.89	5749.45
931.199	5764.59
931.508	5745.39
931.817	5691.6
932.125	5722.56
932.434	5722.56
932.743	5618.61
933.051	5603.02
933.36	5600.76
933.669	5566.63
933.977	5523.92
934.286	5503.58
934.594	5527.76
934.902	5461.1
935.21	5438.28
935.519	5426.07
935.827	5442.34
936.135	5411.84
936.443	5349.24
936.751	5365.06
937.059	5344.94
937.367	5321.89
937.674	5298.84
937.982	5250.26
938.29	5207.09
938.597	5205.74
938.905	5177.72
939.213	5141.33
939.52	5097.04
939.827	5132.75
940.135	5070.38
940.442	5074.67
940.749	5062.47
941.056	5056.14
941.363	4988.8
941.67	5006.87
941.977	4963.71
942.284	4935.46
942.591	4946.54
942.898	4927.55
943.205	4925.07
943.511	4874
943.818	4836.03
944.125	4844.39
944.431	4817.27
944.738	4824.51
945.044	4745.64
945.35	4773.66
945.657	4696.15
945.963	4688.46
946.269	4684.85
946.575	4655.92
946.881	4588.35
947.187	4622.48
947.493	4597.17
947.799	4572.76
948.105	4547.68
948.41	4563.95
948.716	4537.96
949.022	4531.41
949.327	4489.15
949.633	4446.89
949.938	4451.41
950.244	4448.92
950.549	4399.21
950.854	4333.22
951.16	4391.97
951.465	4399.66
951.77	4344.52
952.075	4346.33
952.38	4290.06
952.685	4294.35
952.99	4241.02
953.294	4249.83
953.599	4259.55
953.904	4217.74
954.209	4154.02
954.513	4185.88
954.818	4170.96
955.122	4158.76
955.426	4141.81
955.731	4120.57
956.035	4082.83
956.339	4080.12
956.643	4060.01
956.948	4022.95
957.252	4045.77
957.556	3995.6
957.86	4003.51
958.163	3985.88
958.467	3949.27
958.771	3930.74
959.075	3947.24
959.378	3900.91
959.682	3904.53
959.985	3871.54
960.289	3835.83
960.592	3852.33
960.896	3791.54
961.199	3841.25
961.502	3758.77
961.805	3760.58
962.108	3775.04
962.411	3780.47
962.714	3744.08
963.017	3727.59
963.32	3692.11
963.623	3665.67
963.926	3668.15
964.228	3619.57
964.531	3664.99
964.833	3643.97
965.136	3572.56
965.438	3574.6
965.741	3573.01
966.043	3500.02
966.345	3533.47
966.648	3491.66
966.95	3524.88
967.252	3492.11
967.554	3502.28
967.856	3472.45
968.158	3428.16
968.46	3451.89
968.761	3379.57
969.063	3413.7
969.365	3371.44
969.666	3360.82
969.968	3342.51
970.269	3346.13
970.571	3366.92
970.872	3339.35
971.174	3328.05
971.475	3321.27
971.776	3301.61
972.077	3233.36
972.378	3224.77
972.679	3255.73
972.98	3220.25
973.281	3199.92
973.582	3245.11
973.883	3169.41
974.183	3158.56
974.484	3124.44
974.785	3097.09
975.085	3115.17
975.386	3098.45
975.686	3079.69
975.986	3083.31
976.287	3099.81
976.587	3041.05
976.887	3041.73
977.187	3022.07
977.487	3003.31
977.787	2977.55
978.087	2982.07
978.387	2956.53
978.687	2977.32
978.987	2960.6
979.286	2941.17
979.586	2930.09
979.885	2894.84
980.185	2892.81
980.484	2902.3
980.784	2868.85
981.083	2856.87
981.382	2845.12
981.682	2813.49
981.981	2835.41
982.28	2770.32
982.579	2787.5
982.878	2806.25
983.177	2749.98
983.475	2733.94
983.774	2742.98
984.073	2729.19
984.372	2691.91
984.67	2727.39
984.969	2714.28
985.267	2693.49
985.566	2717.89
985.864	2654.85
986.162	2650.55
986.461	2638.35
986.759	2647.61
987.057	2625.24
987.355	2592.25
987.653	2569.65
987.951	2585.92
988.249	2547.96
988.547	2525.81
988.844	2517.67
989.142	2539.37
989.44	2507.73
989.737	2484.91
990.035	2481.06
990.332	2488.97
990.63	2456.88
990.927	2489.88
991.224	2416.89
991.521	2461.4
991.819	2424.12
992.116	2405.36
992.413	2394.29
992.71	2362.42
993.006	2410.78
993.303	2395.42
993.6	2354.29
993.897	2341.18
994.193	2341.41
994.49	2322.2
994.787	2327.17
995.083	2301.41
995.379	2291.01
995.676	2272.48
995.972	2254.4
996.268	2227.96
996.565	2239.49
996.861	2248.3
997.157	2217.34
997.453	2213.5
997.749	2247.4
998.044	2224.12
998.34	2190.9
998.636	2184.12
998.932	2185.03
999.227	2171.02
999.523	2153.62
999.818	2157.91
1000.114	2123.33
1000.409	2101.19
1000.704	2106.84
1001	2069.55
1001.295	2084.01
1001.59	2038.59
1001.885	2073.62
1002.18	2008.08
1002.475	2006.73
1002.77	2013.28
1003.065	2038.36
1003.359	1990.23
1003.654	2006.05
1003.949	1956.33
1004.243	1967.41
1004.538	1947.07
1004.832	1927.18
1005.127	1917.69
1005.421	1908.42
1005.715	1892.38
1006.009	1890.35
1006.304	1853.96
1006.598	1859.16
1006.892	1838.14
1007.186	1860.74
1007.48	1869.78
1007.773	1816
1008.067	1835.43
1008.361	1795.21
1008.655	1809.67
1008.948	1802.21
1009.242	1753.85
1009.535	1774.87
1009.829	1757.47
1010.122	1755.43
1010.415	1732.16
1010.708	1741.65
1011.001	1728.09
1011.295	1694.19
1011.588	1671.82
1011.881	1683.35
1012.173	1677.7
1012.466	1700.07
1012.759	1664.36
1013.052	1659.84
1013.344	1635.44
1013.637	1621.2
1013.93	1604.7
1014.222	1646.06
1014.514	1646.51
1014.807	1613.97
1015.099	1595.89
1015.391	1590.69
1015.683	1599.28
1015.976	1542.11
1016.268	1563.8
1016.56	1518.38
1016.851	1513.86
1017.143	1541.65
1017.435	1529.23
1017.727	1497.81
1018.018	1519.73
1018.31	1508.66
1018.602	1484.93
1018.893	1463.24
1019.185	1448.1
1019.476	1436.12
1019.767	1456.23
1020.058	1432.05
1020.35	1417.82
1020.641	1414.43
1020.932	1390.7
1021.223	1385.05
1021.514	1361.77
1021.804	1362
1022.095	1359.74
1022.386	1375.78
1022.677	1342.11
1022.967	1321.1
1023.258	1348.44
1023.548	1334.65
1023.839	1305.73
1024.129	1298.27
1024.419	1308.67
1024.709	1282.9
1025	1275.22
1025.29	1277.25
1025.58	1261.89
1025.87	1244.26
1026.16	1230.48
1026.449	1246.75
1026.739	1238.16
1027.029	1240.87
1027.319	1239.06
1027.608	1209.69
1027.898	1206.07
1028.187	1207.43
1028.477	1183.7
1028.766	1193.19
1029.055	1168.33
1029.344	1157.71
1029.634	1168.56
1029.923	1156.81
1030.212	1149.8
1030.501	1138.5
1030.79	1116.58
1031.078	1120.65
1031.367	1104.15
1031.656	1122.91
1031.945	1064.6
1032.233	1089.91
1032.522	1075
1032.81	1076.81
1033.099	1070.48
1033.387	1063.47
1033.675	1063.93
1033.963	1067.09
1034.251	1032.29
1034.54	1053.98
1034.828	1038.84
1035.116	1015.79
1035.403	1011.27
1035.691	1009.92
1035.979	1027.54
1036.267	1003.59
1036.554	989.58
1036.842	1010.82
1037.129	977.6
1037.417	972.4
1037.704	990.71
1037.992	979.86
1038.279	957.26
1038.566	958.39
1038.853	958.39
1039.14	958.39
