Data from hue_210_FLMS001491_00020.txt Node
Date: Tue Feb 07 16:40:50 GMT 2017
User: dcchb
Spectrometer: FLMS00149
Trigger mode: 0
Integration Time (sec): 2.000000E-2
Scans to average: 10
Electric dark correction enabled: true
Nonlinearity correction enabled: false
Boxcar width: 0
XAxis mode: Wavelengths
Number of Pixels in Spectrum: 2048
>>>>>Begin Spectral Data<<<<<
341.393	3.52
341.776	3.52
342.16	3.52
342.543	-54.11
342.927	-64.28
343.31	-67.22
343.693	-76.03
344.077	-65.86
344.46	-46.43
344.843	-64.96
345.226	-37.61
345.61	-32.41
345.993	-9.36
346.376	-16.14
346.759	13.01
347.142	25.89
347.525	33.8
347.908	41.26
348.291	85.77
348.674	88.49
349.057	127.81
349.44	119.45
349.823	147.47
350.206	183.17
350.588	197.64
350.971	227.47
351.354	220.69
351.737	231.08
352.119	276.73
352.502	264.53
352.884	261.59
353.267	294.81
353.65	277.18
354.032	304.53
354.414	306.33
354.797	307.92
355.179	321.47
355.562	309.5
355.944	329.61
356.326	339.55
356.709	324.64
357.091	339.78
357.473	339.1
357.855	337.29
358.238	353.56
358.62	333.68
359.002	336.16
359.384	347.01
359.766	341.59
360.148	319.89
360.53	351.08
360.912	319.44
361.294	350.4
361.676	308.14
362.057	335.26
362.439	327.58
362.821	338.65
363.203	337.52
363.584	324.64
363.966	323.96
364.348	300.91
364.729	314.92
365.111	322.38
365.493	289.39
365.874	333
366.256	314.92
366.637	316.95
367.019	324.41
367.4	300.68
367.781	329.16
368.163	312.44
368.544	295.49
368.925	306.33
369.306	322.6
369.688	316.05
370.069	312.21
370.45	314.02
370.831	312.89
371.212	298.88
371.593	294.58
371.974	306.56
372.355	299.33
372.736	320.34
373.117	313.79
373.498	323.28
373.879	311.53
374.26	307.69
374.641	305.66
375.021	328.93
375.402	320.8
375.783	332.77
376.163	336.62
376.544	344.98
376.925	323.28
377.305	339.55
377.686	333.23
378.066	320.57
378.447	318.08
378.827	310.85
379.208	331.19
379.588	337.29
379.968	333.9
380.349	333
380.729	342.49
381.109	332.55
381.489	342.04
381.87	329.84
382.25	341.36
382.63	359.89
383.01	330.29
383.39	332.32
383.77	351.98
384.15	349.72
384.53	328.93
384.91	344.52
385.29	354.69
385.67	334.13
386.049	366.45
386.429	339.78
386.809	344.98
387.189	365.32
387.568	356.73
387.948	374.81
388.328	344.3
388.707	377.29
389.087	354.47
389.466	361.93
389.846	365.99
390.225	380.91
390.605	395.6
390.984	358.99
391.363	380.91
391.743	368.7
392.122	372.09
392.501	375.03
392.881	397.4
393.26	360.34
393.639	399.44
394.018	378.87
394.397	370.74
394.776	397.63
395.155	375.48
395.534	387.46
395.913	357.63
396.292	384.52
396.671	383.39
397.05	407.8
397.429	403.05
397.808	425.65
398.186	398.08
398.565	394.69
398.944	418.65
399.323	412.77
399.701	410.74
400.08	399.66
400.458	409.83
400.837	418.87
401.215	416.84
401.594	406.22
401.972	418.42
402.351	411.64
402.729	430.17
403.107	429.27
403.486	434.47
403.864	442.38
404.242	437.18
404.62	442.38
404.999	449.61
405.377	439.21
405.755	459.1
406.133	471.08
406.511	477.85
406.889	479.21
407.267	481.02
407.645	502.26
408.023	489.61
408.401	483.05
408.779	492.77
409.156	510.17
409.534	523.73
409.912	535.93
410.29	520.57
410.667	523.96
411.045	549.04
411.422	561.24
411.8	548.36
412.178	568.02
412.555	582.26
412.933	580.45
413.31	598.3
413.687	599.89
414.065	618.19
414.442	636.49
414.819	626.1
415.197	670.39
415.574	643.05
415.951	630.84
416.328	682.82
416.705	670.39
417.082	674.23
417.46	685.31
417.837	693.67
418.214	710.16
418.591	705.42
418.967	716.04
419.344	710.84
419.721	751.07
420.098	743.38
420.475	791.74
420.852	767.11
421.228	813.89
421.605	793.55
421.982	831.07
422.358	824.96
422.735	850.27
423.111	846.88
423.488	872.87
423.864	872.42
424.241	894.11
424.617	899.09
424.994	908.58
425.37	957.62
425.746	956.49
426.123	947.9
426.499	972.76
426.875	999.42
427.251	1018.41
427.627	995.81
428.003	1021.34
428.379	1049.14
428.756	1046.2
429.132	1062.25
429.507	1066.99
429.883	1085.07
430.259	1102.47
430.635	1106.54
431.011	1128.69
431.387	1142.47
431.763	1166.88
432.138	1185.86
432.514	1219.08
432.89	1229.7
433.265	1241
433.641	1262.47
434.016	1242.81
434.392	1272.18
434.767	1331.62
435.143	1338.17
435.518	1353.99
435.894	1387.89
436.269	1390.83
436.644	1449.35
437.02	1462.69
437.395	1466.76
437.77	1520.54
438.145	1519.41
438.52	1524.83
438.895	1582.91
439.271	1578.39
439.646	1619.52
440.021	1644.83
440.395	1660.2
440.77	1691.83
441.145	1664.04
441.52	1725.05
441.895	1724.6
442.27	1781.55
442.645	1753.53
443.019	1820.87
443.394	1803.24
443.769	1862.9
444.143	1841.43
444.518	1880.76
444.892	1879.17
445.267	1918.72
445.641	1926.63
446.016	1914.2
446.39	1953.97
446.764	1955.33
447.139	1992.17
447.513	1983.35
447.887	2009.11
448.262	2010.7
448.636	2020.64
449.01	2033.29
449.384	2047.53
449.758	2118.94
450.132	2121.65
450.506	2101.54
450.88	2125.49
451.254	2153.52
451.628	2168.43
452.002	2221.76
452.376	2230.58
452.75	2215.21
453.123	2238.03
453.497	2247.07
453.871	2284.81
454.244	2341.76
454.618	2342.89
454.992	2371.14
455.365	2398.71
455.739	2441.42
456.112	2472.6
456.486	2483
456.859	2514.86
457.232	2526.16
457.606	2541.08
457.979	2583.56
458.352	2640.06
458.725	2649.1
459.099	2641.87
459.472	2730
459.845	2749.21
460.218	2761.41
460.591	2830.79
460.964	2805.03
461.337	2848.19
461.71	2923.44
462.083	3010.44
462.456	2983.1
462.829	2985.13
463.201	2986.94
463.574	3052.93
463.947	3085.02
464.32	3146.26
464.692	3129.08
465.065	3107.84
465.438	3206.82
465.81	3247.5
466.183	3305.12
466.555	3358
466.928	3368.4
467.3	3409.53
467.672	3416.76
468.045	3485.69
468.417	3511
468.789	3538.79
469.161	3592.8
469.534	3677.09
469.906	3712.35
470.278	3741.5
470.65	3780.82
471.022	3854.94
471.394	3881.83
471.766	3932.68
472.138	3929.29
472.51	4009.51
472.882	4106.69
473.253	4114.37
473.625	4150.3
473.997	4214.03
474.369	4279.34
474.74	4328.6
475.112	4404.98
475.484	4454.93
475.855	4560.23
476.227	4545.09
476.598	4607.92
476.97	4680.91
477.341	4776.27
477.713	4875.93
478.084	4819.66
478.455	4990.96
478.827	5050.84
479.198	5161.57
479.569	5150.27
479.94	5253.55
480.311	5300.78
480.682	5406.99
481.053	5519.3
481.424	5593.65
481.795	5635.23
482.166	5712.07
482.537	5770.14
482.908	5942.57
483.279	5941.67
483.65	6056.01
484.021	6149.12
484.391	6158.38
484.762	6269.79
485.133	6332.39
485.503	6456.91
485.874	6460.75
486.244	6546.62
486.615	6628.88
486.985	6728.31
487.356	6789.55
487.726	6812.6
488.097	6952.71
488.467	6997.23
488.837	7099.83
489.207	7202.42
489.578	7300.05
489.948	7309.99
490.318	7387.96
490.688	7406.94
491.058	7525.58
491.428	7559.48
491.798	7684.44
492.168	7788.17
492.538	7780.26
492.908	7873.14
493.278	7931.22
493.648	7983.19
494.017	8033.36
494.387	8128.05
494.757	8210.53
495.126	8291.66
495.496	8244.88
495.866	8240.36
496.235	8357.42
496.605	8435.16
496.974	8445.55
497.344	8512.9
497.713	8511.77
498.082	8563.74
498.452	8672.89
498.821	8670.63
499.19	8661.37
499.559	8749.28
499.928	8768.94
500.298	8843.96
500.667	8875.37
501.036	8856.84
501.405	8894.81
501.774	8872.89
502.143	8930.97
502.512	9024.07
502.88	9090.28
503.249	9068.36
503.618	9058.42
503.987	9077.18
504.356	9127.57
504.724	9166.21
505.093	9158.98
505.462	9196.04
505.83	9222.03
506.199	9288.47
506.567	9447.79
506.936	9311.97
507.304	9424.29
507.672	9455.02
508.041	9414.57
508.409	9505.64
508.777	9548.58
509.145	9629.25
509.514	9519.88
509.882	9549.71
510.25	9511.97
510.618	9637.16
510.986	9563.04
511.354	9641.23
511.722	9677.84
512.09	9785.86
512.458	9663.83
512.826	9755.35
513.193	9882.58
513.561	9763.49
513.929	9890.49
514.297	9857.95
514.664	9855.46
515.032	9868.12
515.4	9887.78
515.767	9841.45
516.135	9881.22
516.502	9812.07
516.869	9967.55
517.237	9933.65
517.604	9907.21
517.972	10007.1
518.339	10009.36
518.706	10039.64
519.073	9981.33
519.44	10008.68
519.808	10050.71
520.175	9979.3
520.542	10075.12
520.909	10055.91
521.276	10016.81
521.643	10116.02
522.009	10108.56
522.376	10097.94
522.743	10149.92
523.11	10151.72
523.477	10212.06
523.843	10184.49
524.21	10283.92
524.577	10310.82
524.943	10249.58
525.31	10240.08
525.676	10354.66
526.043	10292.29
526.409	10299.97
526.776	10401.89
527.142	10334.54
527.508	10352.4
527.874	10309.46
528.241	10359.18
528.607	10362.57
528.973	10356.01
529.339	10298.39
529.705	10411.6
530.071	10324.38
530.437	10334.32
530.803	10369.8
531.169	10350.14
531.535	10247.09
531.901	10218.62
532.267	10246.19
532.632	10290.48
532.998	10190.37
533.364	10223.81
533.73	10219.75
534.095	10236.24
534.461	10262.46
534.826	10232.63
535.192	10196.47
535.557	10212.06
535.923	10143.59
536.288	10180.65
536.653	10153.08
537.019	10044.83
537.384	10107.43
537.749	10109.69
538.114	9995.12
538.479	10032.86
538.845	10017.94
539.21	9912.86
539.575	9894.78
539.94	9935.69
540.305	9889.36
540.67	9896.14
541.034	9865.18
541.399	9838.51
541.764	9752.64
542.129	9793.32
542.494	9684.84
542.858	9781.11
543.223	9681
543.587	9671.74
543.952	9602.81
544.316	9533.66
544.681	9521.23
545.045	9502.25
545.41	9582.02
545.774	9496.6
546.138	9455.02
546.503	9440.56
546.867	9380.45
547.231	9400.78
547.595	9374.8
547.959	9304.06
548.324	9318.53
548.688	9319.43
549.052	9212.31
549.416	9232.88
549.779	9167.34
550.143	9169.83
550.507	9212.31
550.871	9171.19
551.235	9076.05
551.599	9137.29
551.962	9081.02
552.326	9043.28
552.689	9026.1
553.053	8963.96
553.417	8981.36
553.78	8933.23
554.143	8928.71
554.507	8925.32
554.87	8971.42
555.234	8991.76
555.597	8872.66
555.96	8860.69
556.323	8854.36
556.686	8885.77
557.05	8837.18
557.413	8861.82
557.776	8774.59
558.139	8826.79
558.502	8789.5
558.865	8746.11
559.228	8809.39
559.59	8782.95
559.953	8762.83
560.316	8784.53
560.679	8734.13
561.041	8754.02
561.404	8742.72
561.767	8769.61
562.129	8741.37
562.492	8788.82
562.854	8766.9
563.217	8717.64
563.579	8722.16
563.941	8799.22
564.304	8788.37
564.666	8828.6
565.028	8826.79
565.39	8836.96
565.753	8876.5
566.115	8831.31
566.477	8815.49
566.839	8913.11
567.201	8899.78
567.563	8818.88
567.925	8920.34
568.287	8909.95
568.648	8919.89
569.01	8892.55
569.372	8923.73
569.734	8831.08
570.095	8844.41
570.457	8932.55
570.819	8947.01
571.18	8933.68
571.542	8956.28
571.903	8987.46
572.265	8963.06
572.626	9030.85
572.987	8986.78
573.349	9027.23
573.71	9052.32
574.071	9012.09
574.432	9105.42
574.794	9064.07
575.155	9065.65
575.516	9114.46
575.877	9090.28
576.238	9118.98
576.599	9120.79
576.96	9024.07
577.32	9112.66
577.681	9114.92
578.042	9214.35
578.403	9105.42
578.763	9189.49
579.124	9186.78
579.485	9177.29
579.845	9195.37
580.206	9257.96
580.566	9249.83
580.927	9253.22
581.287	9234.46
581.648	9171.86
582.008	9318.53
582.368	9209.15
582.728	9200.56
583.089	9278.53
583.449	9262.48
583.809	9257.06
584.169	9284.63
584.529	9258.41
584.889	9356.27
585.249	9321.69
585.609	9273.33
585.969	9295.93
586.329	9226.78
586.688	9341.12
587.048	9199.66
587.408	9292.76
587.768	9266.1
588.127	9319.2
588.487	9314.68
588.846	9319.43
589.206	9287.79
589.565	9286.66
589.925	9371.63
590.284	9273.33
590.643	9339.99
591.003	9286.66
591.362	9427
591.721	9355.14
592.08	9351.75
592.44	9357.85
592.799	9358.07
593.158	9425.64
593.517	9332.99
593.876	9429.03
594.235	9379.99
594.593	9408.02
594.952	9425.64
595.311	9332.09
595.67	9413.44
596.029	9413.21
596.387	9419.54
596.746	9461.8
597.104	9332.76
597.463	9423.38
597.822	9418.18
598.18	9369.6
598.538	9295.02
598.897	9448.24
599.255	9347
599.613	9536.15
599.972	9395.81
600.33	9458.64
600.688	9417.73
601.046	9407.34
601.404	9469.93
601.762	9452.31
602.12	9423.83
602.478	9491.63
602.836	9426.77
603.194	9434.23
603.552	9415.25
603.91	9391.52
604.268	9469.71
604.625	9412.53
604.983	9422.03
605.341	9451.18
605.698	9480.1
606.056	9466.54
606.413	9457.28
606.771	9483.27
607.128	9506.54
607.485	9466.54
607.843	9511.06
608.2	9535.02
608.557	9539.54
608.914	9539.31
609.272	9565.3
609.629	9556.49
609.986	9539.76
610.343	9578.86
610.7	9607.11
611.057	9529.59
611.414	9562.59
611.771	9578.86
612.127	9549.25
612.484	9552.19
612.841	9672.19
613.198	9541.8
613.554	9590.84
613.911	9643.72
614.267	9554.23
614.624	9606.88
614.98	9580.89
615.337	9650.49
615.693	9677.61
616.05	9659.76
616.406	9758.97
616.762	9618.41
617.118	9658.86
617.475	9595.81
617.831	9633.09
618.187	9619.54
618.543	9691.85
618.899	9728.68
619.255	9661.12
619.611	9709.25
619.967	9714.22
620.323	9794.45
620.678	9793.32
621.034	9779.76
621.39	9687.1
621.746	9662.47
622.101	9805.52
622.457	9791.96
622.812	9785.86
623.168	9751.51
623.523	9814.56
623.879	9780.21
624.234	9640.78
624.589	9775.92
624.945	9807.55
625.3	9739.76
625.655	9734.11
626.01	9771.85
626.365	9761.23
626.72	9756.25
627.075	9745.18
627.43	9763.03
627.785	9736.59
628.14	9652.08
628.495	9779.08
628.85	9724.84
629.205	9716.03
629.559	9697.05
629.914	9766.42
630.269	9731.17
630.623	9676.03
630.978	9613.43
631.332	9629.03
631.687	9665.41
632.041	9616.37
632.396	9629.7
632.75	9571.85
633.104	9613.21
633.459	9642.81
633.813	9577.05
634.167	9537.05
634.521	9578.86
634.875	9582.47
635.229	9532.76
635.583	9488.69
635.937	9532.31
636.291	9472.87
636.645	9448.24
636.999	9475.13
637.352	9480.1
637.706	9416.6
638.06	9440.78
638.413	9434.46
638.767	9360.33
639.121	9449.14
639.474	9340.9
639.828	9339.54
640.181	9377.96
640.534	9419.31
640.888	9357.85
641.241	9338.41
641.594	9302.48
641.947	9389.26
642.301	9403.72
642.654	9325.76
643.007	9327.34
643.36	9343.16
643.713	9272.88
644.066	9325.53
644.419	9289.37
644.771	9169.6
645.124	9120.57
645.477	9101.58
645.83	9045.99
646.182	9030.62
646.535	8996.5
646.888	9049.83
647.24	9060
647.593	9050.51
647.945	8992.43
648.298	9000.57
648.65	8944.52
649.002	8947.69
649.355	9020
649.707	8946.33
650.059	9012.32
650.411	9144.29
650.763	9108.36
651.115	9154.01
651.467	9154.46
651.819	9132.77
652.171	9195.14
652.523	9190.39
652.875	9130.73
653.227	9123.96
653.578	9170.96
653.93	9202.37
654.282	9137.06
654.633	9083.73
654.985	9157.17
655.337	9171.41
655.688	9172.09
656.039	9137.97
656.391	9165.54
656.742	9191.52
657.094	9181.58
657.445	9176.61
657.796	9142.26
658.147	9119.21
658.498	9071.98
658.849	9192.2
659.2	9158.76
659.551	9172.54
659.902	9165.31
660.253	9177.29
660.604	9194.01
660.955	9123.05
661.306	9191.07
661.656	9159.21
662.007	9212.31
662.358	9209.6
662.708	9171.64
663.059	9192.43
663.409	9112.2
663.76	9173.67
664.11	9228.59
664.461	9234.46
664.811	9210.28
665.161	9212.09
665.511	9170.73
665.862	9184.29
666.212	9226.1
666.562	9195.82
666.912	9217.96
667.262	9185.87
667.612	9183.16
667.962	9248.92
668.312	9205.76
668.662	9185.42
669.011	9191.75
669.361	9177.96
669.711	9180.9
670.06	9208.7
670.41	9165.08
670.76	9162.15
671.109	9208.02
671.459	9212.09
671.808	9158.08
672.157	9110.4
672.507	9165.31
672.856	9125.31
673.205	9093
673.554	9112.2
673.904	9092.09
674.253	9117.63
674.602	9145.2
674.951	9048.25
675.3	8921.7
675.649	9034.01
675.998	9100.23
676.346	9055.48
676.695	9095.93
677.044	8979.78
677.393	9065.88
677.741	9051.19
678.09	8951.3
678.438	9002.83
678.787	9003.28
679.135	8994.92
679.484	8960.57
679.832	8940.68
680.181	8864.07
680.529	8958.08
680.877	8927.8
681.225	8846
681.573	8930.97
681.922	8846
682.27	8859.78
682.618	8769.39
682.966	8775.49
683.314	8789.73
683.661	8770.74
684.009	8736.85
684.357	8697.07
684.705	8748.82
685.053	8756.73
685.4	8662.27
685.748	8667.24
686.095	8639.9
686.443	8647.36
686.79	8567.13
687.138	8614.59
687.485	8550.86
687.832	8537.3
688.18	8620.47
688.527	8557.19
688.874	8468.38
689.221	8486.46
689.568	8486.91
689.915	8419.34
690.262	8425.22
690.609	8423.63
690.956	8399.68
691.303	8376.18
691.65	8292.34
691.997	8269.51
692.344	8259.8
692.69	8237.42
693.037	8265.9
693.383	8176.18
693.73	8163.53
694.077	8073.36
694.423	8112.91
694.769	8083.3
695.116	8033.36
695.462	8054.83
695.808	8001.05
696.155	8010.99
696.501	7894.16
696.847	7903.65
697.193	7795.63
697.539	7822.75
697.885	7775.74
698.231	7769.64
698.577	7760.38
698.923	7702.98
699.269	7666.82
699.614	7647.16
699.96	7702.98
700.306	7686.7
700.651	7588.4
700.997	7569.42
701.342	7600.38
701.688	7562.64
702.033	7559.48
702.379	7479.25
702.724	7455.75
703.069	7532.58
703.415	7352.02
703.76	7378.46
704.105	7378.01
704.45	7318.35
704.795	7302.53
705.14	7268.86
705.485	7270.67
705.83	7268.18
706.175	7256.66
706.52	7242.2
706.865	7199.03
707.209	7237
707.554	7182.54
707.899	7224.57
708.243	7125.59
708.588	7076.1
708.932	7013.05
709.277	7077.68
709.621	7058.25
709.966	7003.11
710.31	6995.2
710.654	6891.7
710.998	6924.69
711.342	6964.69
711.687	6932.15
712.031	6911.58
712.375	6869.78
712.719	6883.56
713.063	6860.06
713.407	6839.5
713.75	6818.7
714.094	6812.83
714.438	6794.75
714.782	6804.02
715.125	6798.82
715.469	6832.49
715.812	6777.35
716.156	6689.22
716.499	6734.19
716.843	6689.89
717.186	6728.09
717.53	6742.77
717.873	6743
718.216	6630.91
718.559	6648.99
718.902	6639.05
719.246	6658.48
719.589	6683.12
719.932	6607.19
720.275	6602.44
720.617	6617.58
720.96	6611.7
721.303	6593.85
721.646	6582.1
721.989	6533.97
722.331	6571.25
722.674	6535.77
723.016	6587.98
723.359	6560.63
723.701	6534.19
724.044	6540.07
724.386	6491.71
724.729	6529.45
725.071	6502.78
725.413	6528.32
725.755	6468.43
726.097	6513.85
726.439	6455.78
726.782	6477.92
727.124	6508.88
727.465	6442.44
727.807	6435.44
728.149	6446.29
728.491	6459.39
728.833	6449
729.175	6429.79
729.516	6439.05
729.858	6439.05
730.199	6423.01
730.541	6432.05
730.882	6415.78
731.224	6419.85
731.565	6405.16
731.906	6394.99
732.248	6437.02
732.589	6426.62
732.93	6362.67
733.271	6329.68
733.612	6447.42
733.953	6390.92
734.294	6422.33
734.635	6387.08
734.976	6360.64
735.317	6394.31
735.658	6398.6
735.999	6401.77
736.339	6367.19
736.68	6436.57
737.021	6419.62
737.361	6374.42
737.702	6423.69
738.042	6449.68
738.383	6484.93
738.723	6472.5
739.063	6419.85
739.404	6458.94
739.744	6504.59
740.084	6426.17
740.424	6430.69
740.764	6501.65
741.104	6529.45
741.444	6471.37
741.784	6533.51
742.124	6528.77
742.464	6568.77
742.804	6615.32
743.143	6578.49
743.483	6652.38
743.823	6636.11
744.162	6673.17
744.502	6639.5
744.841	6708.43
745.181	6734.41
745.52	6759.27
745.86	6816.22
746.199	6783.9
746.538	6861.19
746.877	6907.97
747.216	6905.48
747.556	6910
747.895	6965.82
748.234	7030
748.573	7062.54
748.911	7156.78
749.25	7183.22
749.589	7257.34
749.928	7261.86
750.267	7385.47
750.605	7430.21
750.944	7480.38
751.283	7580.27
751.621	7667.27
751.96	7688.06
752.298	7804.44
752.636	7855.29
752.975	7954.04
753.313	8031.1
753.651	8146.35
753.989	8239.91
754.327	8300.7
754.666	8376.18
755.004	8573.24
755.342	8726.45
755.679	8820.69
756.017	8911.08
756.355	9068.36
756.693	9100.68
757.031	9270.62
757.368	9443.49
757.706	9539.31
758.044	9634.68
758.381	9836.25
758.719	9932.3
759.056	10101.56
759.394	10314.43
759.731	10435.78
760.068	10585.84
760.405	10773.63
760.743	10868.09
761.08	11098.37
761.417	11199.83
761.754	11461.07
762.091	11536.09
762.428	11769.31
762.765	11938.12
763.102	12126.81
763.438	12248.39
763.775	12357.77
764.112	12510.98
764.449	12783.52
764.785	12947.81
765.122	13047.02
765.458	13195.26
765.795	13339.21
766.131	13578.08
766.467	13681.8
766.804	13762.7
767.14	13980.55
767.476	14079.76
767.812	14316.36
768.148	14448.11
768.485	14528.33
768.821	14655.33
769.157	14754.32
769.492	14926.74
769.828	15059.39
770.164	15166.28
770.5	15161.54
770.836	15345.49
771.171	15588.42
771.507	15582.32
771.842	15676.78
772.178	15769.2
772.513	15906.38
772.849	16073.15
773.184	16084.9
773.519	16206.48
773.855	16293.48
774.19	16283.77
774.525	16358.57
774.86	16509.98
775.195	16614.15
775.53	16580.03
775.865	16684.43
776.2	16618.22
776.535	16683.08
776.87	16857.99
777.205	16901.15
777.539	16861.6
777.874	17008.49
778.209	16867.71
778.543	17001.94
778.878	17014.59
779.212	17104.99
779.547	17083.75
779.881	17172.33
780.215	17186.79
780.55	17344.76
780.884	17155.61
781.218	17268.83
781.552	17356.28
781.886	17260.69
782.22	17309.73
782.554	17298.88
782.888	17180.92
783.222	17218.88
783.556	17199
783.889	17303.4
784.223	17160.13
784.557	17224.31
784.89	17249.62
785.224	17203.97
785.557	17262.72
785.891	17301.37
786.224	17161.71
786.558	17250.97
786.891	17119.9
787.224	17117.19
787.557	17086.46
787.891	17166.23
788.224	17167.36
788.557	17212.78
788.89	17097.53
789.223	17215.49
789.556	17129.17
789.888	17048.94
790.221	16998.1
790.554	16942.28
790.887	17004.65
791.219	17004.65
791.552	16832.9
791.884	16848.72
792.217	16901.6
792.549	16848.72
792.882	16841.04
793.214	16802.85
793.546	16843.53
793.879	16715.39
794.211	16714.26
794.543	16740.48
794.875	16700.93
795.207	16776.64
795.539	16554.49
795.871	16704.32
796.203	16465.91
796.535	16544.32
796.867	16423.88
797.198	16473.82
797.53	16399.02
797.862	16306.59
798.193	16348.85
798.525	16249.19
798.856	16282.41
799.188	16083.55
799.519	16226.82
799.85	16061.4
800.182	16161.28
800.513	16016.88
800.844	15981.63
801.175	16082.64
801.506	16032.47
801.837	15951.57
802.168	15883.33
802.499	15891.46
802.83	15804.46
803.161	15728.98
803.491	15765.59
803.822	15871.8
804.153	15659.83
804.483	15576.21
804.814	15582.99
805.145	15576.67
805.475	15503.9
805.805	15498.93
806.136	15601.07
806.466	15459.83
806.796	15561.3
807.126	15398.82
807.457	15322.89
807.787	15474.52
808.117	15304.13
808.447	15198.6
808.777	15290.57
809.107	15167.64
809.436	15189.11
809.766	15131.71
810.096	15129.67
810.426	15130.58
810.755	15063.23
811.085	15022.33
811.414	14997.02
811.744	14823.01
812.073	14850.13
812.403	14928.32
812.732	14865.95
813.061	14831.6
813.39	14800.42
813.719	14785.73
814.049	14817.59
814.378	14734.2
814.707	14686.97
815.036	14633.19
815.365	14625.28
815.693	14548.67
816.022	14560.87
816.351	14596.13
816.68	14470.93
817.008	14547.99
817.337	14350.71
817.665	14316.59
817.994	14459.86
818.322	14384.38
818.651	14345.06
818.979	14261.9
819.307	14341.22
819.636	14309.13
819.964	14213.76
820.292	14299.19
820.62	14152.75
820.948	14199.08
821.276	14188
821.604	14203.6
821.932	14220.32
822.259	14227.32
822.587	14249.92
822.915	14141
823.243	14276.59
823.57	14220.32
823.898	14209.7
824.225	14192.75
824.553	14234.56
824.88	14115.01
825.207	14252.63
825.535	14215.35
825.862	14282.46
826.189	14173.99
826.516	14270.49
826.843	14286.76
827.17	14315.23
827.497	14261.22
827.824	14316.81
828.151	14260.54
828.478	14189.36
828.805	14331.05
829.131	14206.08
829.458	14274.33
829.785	14165.63
830.111	14211.28
830.438	14253.99
830.764	14252.86
831.09	14312.29
831.417	14228.91
831.743	14340.09
832.069	14186.87
832.395	14174.22
832.722	14231.62
833.048	14176.48
833.374	14163.6
833.7	14129.7
834.026	14121.79
834.351	14269.13
834.677	14243.82
835.003	14155.24
835.329	14108.46
835.654	14104.39
835.98	14067.1
836.306	14107.33
836.631	14058.74
836.956	14136.03
837.282	14027.78
837.607	14006.31
837.932	13914.11
838.258	14042.24
838.583	13912.98
838.908	13861.68
839.233	13883.15
839.558	13868.01
839.883	13761.35
840.208	13844.96
840.533	13716.38
840.858	13774.23
841.182	13764.51
841.507	13716.38
841.832	13709.6
842.156	13671.41
842.481	13648.58
842.805	13621.01
843.13	13562.03
843.454	13541.01
843.778	13538.53
844.103	13534.23
844.427	13505.99
844.751	13407.91
845.075	13402.94
845.399	13336.95
845.723	13227.35
846.047	13340.57
846.371	13234.36
846.695	13263.96
847.019	13214.47
847.343	13108.48
847.666	12990.97
847.99	12938.09
848.313	12882.27
848.637	12889.96
848.96	12814.48
849.284	12774.25
849.607	12707.82
849.931	12704.65
850.254	12560.93
850.577	12548.72
850.9	12490.65
851.223	12524.54
851.546	12431.89
851.869	12254.95
852.192	12443.64
852.515	12285.23
852.838	12270.09
853.161	12243.65
853.483	12131.56
853.806	12011.79
854.129	12158.68
854.451	12063.54
854.774	11986.03
855.096	11935.18
855.419	11910.77
855.741	11885.01
856.063	11856.54
856.385	11825.58
856.708	11725.24
857.03	11702.19
857.352	11660.61
857.674	11683.66
857.996	11654.51
858.318	11593.95
858.64	11574.96
858.961	11450.22
859.283	11456.32
859.605	11357.57
859.926	11474.18
860.248	11480.05
860.57	11406.15
860.891	11357.12
861.212	11308.53
861.534	11304.24
861.855	11261.07
862.176	11321.86
862.498	11249.32
862.819	11226.5
863.14	11154.86
863.461	11167.74
863.782	11114.86
864.103	11151.02
864.424	11056.33
864.745	11140.85
865.065	11076.9
865.386	10968.88
865.707	10980.18
866.027	10986.73
866.348	10933.62
866.668	10925.26
866.989	10983.57
867.309	10894.76
867.63	10848.66
867.95	10859.28
868.27	10836.45
868.59	10875.77
868.91	10801.2
869.23	10797.13
869.55	10786.28
869.87	10858.6
870.19	10813.4
870.51	10700.86
870.83	10773.4
871.15	10709
871.469	10695.44
871.789	10675.1
872.109	10656.8
872.428	10616.35
872.748	10614.54
873.067	10582.45
873.386	10666.74
873.706	10477.59
874.025	10552.39
874.344	10471.94
874.663	10514.65
874.982	10408.22
875.301	10494.54
875.62	10440.76
875.939	10437.37
876.258	10456.58
876.577	10490.47
876.896	10471.49
877.214	10312.85
877.533	10396.01
877.852	10405.73
878.17	10361.21
878.489	10355.34
878.807	10312.17
879.125	10250.25
879.444	10301.55
879.762	10282.12
880.08	10245.73
880.398	10259.29
880.716	10193.08
881.034	10216.81
881.352	10160.54
881.67	10110.37
881.988	10130.71
882.306	10060.65
882.624	10052.29
882.941	10034.67
883.259	10025.4
883.577	9990.15
883.894	9970.94
884.212	9996.47
884.529	9908.34
884.846	9872.86
885.164	9919.64
885.481	9845.97
885.798	9813.43
886.115	9755.8
886.432	9760.1
886.75	9756.25
887.067	9775.01
887.383	9702.92
887.7	9689.59
888.017	9676.03
888.334	9646.88
888.651	9651.62
888.967	9670.83
889.284	9588.8
889.6	9581.8
889.917	9431.74
890.233	9546.32
890.55	9481.91
890.866	9444.17
891.182	9419.77
891.498	9389.94
891.815	9371.41
892.131	9371.86
892.447	9297.74
892.763	9268.58
893.079	9267.23
893.395	9230.84
893.71	9199.89
894.026	9186.78
894.342	9100
894.657	9131.64
894.973	9040.57
895.289	9072.2
895.604	9010.74
895.92	8903.4
896.235	8959.44
896.55	8927.35
896.865	8910.4
897.181	8870.63
897.496	8910.85
897.811	8796.28
898.126	8782.5
898.441	8742.04
898.756	8732.78
899.071	8716.96
899.386	8627.47
899.7	8551.31
900.015	8607.36
900.33	8500.47
900.644	8481.03
900.959	8468.83
901.273	8511.99
901.588	8445.78
901.902	8389.96
902.216	8390.41
902.531	8366.01
902.845	8297.31
903.159	8298.67
903.473	8221.38
903.787	8198.33
904.101	8182.06
904.415	8207.37
904.729	8058.22
905.042	8067.03
905.356	8027.49
905.67	8038.33
905.984	8043.98
906.297	7997.66
906.611	7922.18
906.924	7861.62
907.237	7840.6
907.551	7828.17
907.864	7829.98
908.177	7724.22
908.491	7779.13
908.804	7694.84
909.117	7643.09
909.43	7674.5
909.743	7656.65
910.056	7597.44
910.368	7524.22
910.681	7472.25
910.994	7492.13
911.307	7441.51
911.619	7396.77
911.932	7373.49
912.244	7367.39
912.557	7297.34
912.869	7259.82
913.181	7216.89
913.494	7253.95
913.806	7180.5
914.118	7175.98
914.43	7154.06
914.742	7141.41
915.054	7124.01
915.366	7106.83
915.678	7015.31
915.99	7016.44
916.302	7005.59
916.613	6945.03
916.925	6878.36
917.236	6933.73
917.548	6867.97
917.859	6881.98
918.171	6780.74
918.482	6784.81
918.794	6732.61
919.105	6709.78
919.416	6711.59
919.727	6668.88
920.038	6705.26
920.349	6641.08
920.66	6634.08
920.971	6607.41
921.282	6573.29
921.593	6556.34
921.903	6453.52
922.214	6470.47
922.525	6499.62
922.835	6394.31
923.146	6358.15
923.456	6364.25
923.767	6360.64
924.077	6358.6
924.387	6298.72
924.697	6246.06
925.008	6195.22
925.318	6201.32
925.628	6159.06
925.938	6218.49
926.248	6143.47
926.558	6124.03
926.867	6102.79
927.177	6114.99
927.487	6006.07
927.796	5962
928.106	6007.88
928.416	5977.6
928.725	5913.64
929.034	5894.21
929.344	5891.5
929.653	5865.06
929.962	5817.38
930.271	5818.28
930.581	5810.14
930.89	5780.09
931.199	5729.47
931.508	5726.98
931.817	5721.56
932.125	5732.86
932.434	5660.09
932.743	5642.46
933.051	5589.36
933.36	5606.76
933.669	5561.34
933.977	5564.05
934.286	5500.32
934.594	5507.33
934.902	5488.57
935.21	5446.09
935.519	5456.93
935.827	5397.5
936.135	5372.64
936.443	5358.63
936.751	5372.42
937.059	5342.13
937.367	5292.64
937.674	5293.1
937.982	5244.28
938.29	5237.28
938.597	5214
938.905	5197.28
939.213	5136.04
939.52	5050.62
939.827	5167.9
940.135	5089.48
940.442	5051.75
940.749	5050.16
941.056	5032.31
941.363	5033.67
941.67	5001.35
941.977	4957.06
942.284	4912.99
942.591	4950.05
942.898	4865.99
943.205	4883.61
943.511	4840.23
943.818	4855.59
944.125	4820.57
944.431	4822.15
944.738	4801.81
945.044	4739.89
945.35	4716.16
945.657	4680.46
945.963	4702.15
946.269	4688.82
946.575	4649.27
946.881	4664.64
947.187	4630.51
947.493	4572.66
947.799	4549.61
948.105	4553
948.41	4567.92
948.716	4520.23
949.022	4528.6
949.327	4530.63
949.633	4475.94
949.938	4442.27
950.244	4403.85
950.549	4435.49
950.854	4345.32
951.16	4386.23
951.465	4369.05
951.77	4335.83
952.075	4348.49
952.38	4295.61
952.685	4292.44
952.99	4257.64
953.294	4284.08
953.599	4183.75
953.904	4214.93
954.209	4174.03
954.513	4165.44
954.818	4123.41
955.122	4165.44
955.426	4123.18
955.731	4082.96
956.035	4064.2
956.339	4070.75
956.643	4043.64
956.948	4009.51
957.252	3998.21
957.556	4006.8
957.86	4005.67
958.163	3962.73
958.467	3959.57
958.771	3931.32
959.075	3890.19
959.378	3879.57
959.682	3889.06
959.985	3867.6
960.289	3877.99
960.592	3845.45
960.896	3775.85
961.199	3784.43
961.502	3765.45
961.805	3759.8
962.108	3735.62
962.411	3693.14
962.714	3715.96
963.017	3713.25
963.32	3689.75
963.623	3666.7
963.926	3661.05
964.228	3655.62
964.531	3620.37
964.833	3573.82
965.136	3608.62
965.438	3574.72
965.741	3555.29
966.043	3540.15
966.345	3508.28
966.648	3546.47
966.95	3506.02
967.252	3467.15
967.554	3436.65
967.856	3447.95
968.158	3402.3
968.46	3452.69
968.761	3398.23
969.063	3420.38
969.365	3386.03
969.666	3373.15
969.968	3380.38
970.269	3334.05
970.571	3307.61
970.872	3296.31
971.174	3310.32
971.475	3282.07
971.776	3251.34
972.077	3243.21
972.378	3236.88
972.679	3170.21
972.98	3230.55
973.281	3196.43
973.582	3177.44
973.883	3149.65
974.183	3172.25
974.484	3172.47
974.785	3127.28
975.085	3120.5
975.386	3125.69
975.686	3099.48
975.986	3067.62
976.287	3059.03
976.587	2994.85
976.887	3040.73
977.187	3011.8
977.487	3025.81
977.787	2979.03
978.087	2991.69
978.387	2959.6
978.687	2952.37
978.987	2943.55
979.286	2936.55
979.586	2919.6
979.885	2856.55
980.185	2862.65
980.484	2880.73
980.784	2899.94
981.083	2854.52
981.382	2852.48
981.682	2831.24
981.981	2814.06
982.28	2801.41
982.579	2768.64
982.878	2773.39
983.177	2745.82
983.475	2733.16
983.774	2715.99
984.073	2715.08
984.372	2706.95
984.67	2680.73
984.969	2680.28
985.267	2716.21
985.566	2635.09
985.864	2637.57
986.162	2635.54
986.461	2625.59
986.759	2603
987.057	2572.49
987.355	2588.31
987.653	2553.96
987.951	2555.54
988.249	2577.46
988.547	2564.13
988.844	2539.5
989.142	2551.92
989.44	2486.16
989.737	2501.53
990.035	2503.11
990.332	2479.84
990.63	2444.13
990.927	2428.76
991.224	2450.91
991.521	2422.44
991.819	2393.74
992.116	2420.63
992.413	2388.76
992.71	2381.08
993.006	2398.93
993.303	2376.11
993.6	2342.66
993.897	2346.73
994.193	2313.29
994.49	2299.28
994.787	2286.85
995.083	2250.92
995.379	2282.55
995.676	2282.1
995.972	2257.24
996.268	2233.51
996.565	2212.27
996.861	2257.92
997.157	2212.72
997.453	2203.01
997.749	2200.97
998.044	2164.36
998.34	2146.96
998.636	2178.37
998.932	2141.09
999.227	2107.42
999.523	2129.11
999.818	2140.41
1000.114	2078.04
1000.409	2074.65
1000.704	2073.07
1001	2068.1
1001.295	2027.64
1001.59	2059.06
1001.885	2057.25
1002.18	2040.3
1002.475	2032.84
1002.77	2016.35
1003.065	2005.5
1003.359	1996.91
1003.654	1994.42
1003.949	1963.47
1004.243	1955.1
1004.538	1942.45
1004.832	1912.17
1005.127	1913.98
1005.421	1939.06
1005.715	1909.68
1006.009	1877.82
1006.304	1894.31
1006.598	1883.69
1006.892	1886.18
1007.186	1830.81
1007.48	1831.72
1007.773	1805.96
1008.067	1785.62
1008.361	1823.58
1008.655	1780.65
1008.948	1797.82
1009.242	1784.04
1009.535	1785.62
1009.829	1769.12
1010.122	1759.63
1010.415	1703.36
1010.708	1726.18
1011.001	1709.69
1011.295	1730.7
1011.588	1712.4
1011.881	1678.73
1012.173	1676.47
1012.466	1687.54
1012.759	1638.73
1013.052	1668.33
1013.344	1643.02
1013.637	1618.16
1013.93	1637.37
1014.222	1635.79
1014.514	1614.32
1014.807	1599.86
1015.099	1572.74
1015.391	1566.41
1015.683	1557.15
1015.976	1547.88
1016.268	1535.45
1016.56	1528.45
1016.851	1531.61
1017.143	1520.31
1017.435	1506.98
1017.727	1497.94
1018.018	1475.79
1018.31	1516.47
1018.602	1469.69
1018.893	1457.04
1019.185	1456.81
1019.476	1455.23
1019.767	1430.6
1020.058	1463.14
1020.35	1390.83
1020.641	1396.02
1020.932	1391.73
1021.223	1355.35
1021.514	1388.11
1021.804	1368
1022.095	1351.05
1022.386	1337.27
1022.677	1349.7
1022.967	1325.29
1023.258	1316.93
1023.548	1313.09
1023.839	1304.05
1024.129	1320.32
1024.419	1290.49
1024.709	1286.19
1025	1273.77
1025.29	1250.26
1025.58	1259.98
1025.87	1221.11
1026.16	1255.69
1026.449	1223.82
1026.739	1240.32
1027.029	1214.11
1027.319	1187.67
1027.608	1190.6
1027.898	1187.89
1028.187	1193.32
1028.477	1195.58
1028.766	1165.29
1029.055	1156.25
1029.344	1154.67
1029.634	1194.45
1029.923	1137.05
1030.212	1125.3
1030.501	1121
1030.79	1114
1031.078	1113.32
1031.367	1119.87
1031.656	1133.88
1031.945	1112.19
1032.233	1078.97
1032.522	1083.26
1032.81	1087.33
1033.099	1066.31
1033.387	1062.92
1033.675	1067.9
1033.963	1043.04
1034.251	1036.26
1034.54	1000.78
1034.828	1036.26
1035.116	1026.77
1035.403	1016.82
1035.691	1007.56
1035.979	974.56
1036.267	996.26
1036.554	1010.5
1036.842	1007.56
1037.129	967.56
1037.417	993.55
1037.704	976.82
1037.992	968.92
1038.279	954.68
1038.566	966.88
1038.853	966.88
1039.14	966.88
