Data from hue_00_FLMS001491_84.txt Node
Date: Mon Feb 06 15:30:22 GMT 2017
User: dcchb
Spectrometer: FLMS00149
Trigger mode: 0
Integration Time (sec): 2.000000E-2
Scans to average: 10
Electric dark correction enabled: true
Nonlinearity correction enabled: false
Boxcar width: 0
XAxis mode: Wavelengths
Number of Pixels in Spectrum: 2048
>>>>>Begin Spectral Data<<<<<
341.393	-14.45
341.776	-14.45
342.16	-14.45
342.543	-53.32
342.927	-58.52
343.31	-64.16
343.693	-85.41
344.077	-63.26
344.46	-44.96
344.843	-50.15
345.226	-43.6
345.61	-36.82
345.993	-29.82
346.376	-16.26
346.759	28.04
347.142	39.79
347.525	44.08
347.908	67.81
348.291	81.14
348.674	69.84
349.057	103.74
349.44	138.77
349.823	139.67
350.206	163.17
350.588	200.46
350.971	217.86
351.354	221.93
351.737	249.73
352.119	248.14
352.502	256.96
352.884	269.16
353.267	286.56
353.65	291.76
354.032	296.5
354.414	311.42
354.797	328.37
355.179	328.82
355.562	329.05
355.944	304.86
356.326	349.84
356.709	337.41
357.091	338.99
357.473	341.02
357.855	348.71
358.238	351.87
358.62	340.57
359.002	340.12
359.384	334.92
359.766	338.54
360.148	342.15
360.53	352.1
360.912	333.34
361.294	341.25
361.676	331.3
362.057	326.79
362.439	341.93
362.821	344.41
363.203	311.87
363.584	319.78
363.966	326.79
364.348	340.8
364.729	320.23
365.111	308.48
365.493	310.74
365.874	319.33
366.256	339.44
366.637	319.78
367.019	324.07
367.4	320.46
367.781	318.42
368.163	328.37
368.544	326.56
368.925	319.1
369.306	326.11
369.688	308.71
370.069	339.89
370.45	309.84
370.831	306.22
371.212	330.85
371.593	287.46
371.974	333.56
372.355	309.16
372.736	315.03
373.117	316.84
373.498	317.52
373.879	316.62
374.26	326.79
374.641	315.71
375.021	327.69
375.402	326.11
375.783	320.91
376.163	326.33
376.544	339.21
376.925	333.79
377.305	345.99
377.686	312.32
378.066	332.43
378.447	324.53
378.827	316.84
379.208	339.21
379.588	338.99
379.968	321.59
380.349	340.12
380.729	337.63
381.109	324.53
381.489	343.51
381.87	332.43
382.25	338.31
382.63	305.54
383.01	342.6
383.39	340.12
383.77	345.09
384.15	351.42
384.53	347.12
384.91	347.12
385.29	359.1
385.67	364.52
386.049	355.03
386.429	339.89
386.809	356.39
387.189	348.48
387.568	361.13
387.948	343.06
388.328	350.06
388.707	367.91
389.087	356.61
389.466	337.86
389.846	369.5
390.225	372.66
390.605	360.46
390.984	373.79
391.363	345.99
391.743	391.87
392.122	391.19
392.501	357.74
392.881	395.26
393.26	381.7
393.639	375.15
394.018	374.47
394.397	378.54
394.776	394.81
395.155	391.87
395.534	370.4
395.913	378.76
396.292	373.56
396.671	392.55
397.05	378.31
397.429	405.43
397.808	381.92
398.186	376.73
398.565	379.89
398.944	390.06
399.323	388.48
399.701	382.38
400.08	384.86
400.458	385.77
400.837	377.86
401.215	386.22
401.594	409.49
401.972	388.93
402.351	398.65
402.729	390.06
403.107	390.29
403.486	386.22
403.864	404.98
404.242	421.47
404.62	419.21
404.999	421.25
405.377	412.66
405.755	431.87
406.133	398.87
406.511	401.13
406.889	424.18
407.267	422.15
407.645	443.39
408.023	412.88
408.401	441.81
408.779	411.3
409.156	414.47
409.534	450.62
409.912	440
410.29	437.29
410.667	439.1
411.045	436.16
411.422	446.56
411.8	437.29
412.178	463.73
412.555	465.54
412.933	480.45
413.31	467.8
413.687	461.24
414.065	459.66
414.442	468.93
414.819	481.13
415.197	487.68
415.574	501.02
415.951	500.11
416.328	486.78
416.705	485.65
417.082	519.77
417.46	509.15
417.837	509.15
418.214	508.7
418.591	509.15
418.967	505.09
419.344	531.3
419.721	508.25
420.098	518.42
420.475	532.43
420.852	512.09
421.228	510.06
421.605	536.05
421.982	547.12
422.358	549.15
422.735	537.63
423.111	522.03
423.488	532.43
423.864	547.8
424.241	549.6
424.617	556.84
424.994	570.39
425.37	549.38
425.746	567.46
426.123	570.39
426.499	565.65
426.875	555.93
427.251	583.5
427.627	560.9
428.003	563.62
428.379	587.8
428.756	609.94
429.132	596.83
429.507	593.67
429.883	616.04
430.259	601.35
430.635	621.24
431.011	615.37
431.387	622.14
431.763	628.25
432.138	622.14
432.514	631.86
432.89	637.74
433.265	658.53
433.641	665.53
434.016	647
434.392	670.73
434.767	664.86
435.143	679.54
435.518	705.98
435.894	674.57
436.269	694.69
436.644	697.62
437.02	690.84
437.395	716.15
437.77	721.35
438.145	697.17
438.52	712.76
438.895	706.89
439.271	707.57
439.646	731.29
440.021	713.44
440.395	721.35
440.77	736.94
441.145	768.81
441.52	748.24
441.895	750.05
442.27	738.75
442.645	758.86
443.019	771.75
443.394	773.33
443.769	775.13
444.143	769.94
444.518	758.19
444.892	783.04
445.267	822.14
445.641	803.38
446.016	813.33
446.39	826.66
446.764	802.93
447.139	790.05
447.513	805.87
447.887	810.39
448.262	830.5
448.636	864.4
449.01	822.37
449.384	813.78
449.758	849.03
450.132	829.82
450.506	850.39
450.88	836.38
451.254	854.68
451.628	856.71
452.002	843.83
452.376	897.62
452.75	884.74
453.123	898.3
453.497	907.79
453.871	889.48
454.244	915.24
454.618	895.81
454.992	917.96
455.365	934.9
455.739	970.38
456.112	915.47
456.486	943.49
456.859	976.49
457.232	997.73
457.606	965.86
457.979	971.29
458.352	979.65
458.725	1006.09
459.099	1032.3
459.472	1016.48
459.845	1035.47
460.218	1042.92
460.591	1058.52
460.964	1063.94
461.337	1074.56
461.71	1085.86
462.083	1116.14
462.456	1116.59
462.829	1104.39
463.201	1129.48
463.574	1126.54
463.947	1151.62
464.32	1170.38
464.692	1163.83
465.065	1167.22
465.438	1176.93
465.81	1192.98
466.183	1226.87
466.555	1229.36
466.928	1256.48
467.3	1242.02
467.672	1262.13
468.045	1296.7
468.417	1320.43
468.789	1307.55
469.161	1316.59
469.534	1348.68
469.906	1357.49
470.278	1375.12
470.65	1402.46
471.022	1428.23
471.394	1425.29
471.766	1464.38
472.138	1452.41
472.51	1484.95
472.882	1550.48
473.253	1492.63
473.625	1532.4
473.997	1597.03
474.369	1624.38
474.74	1592.74
475.112	1628.67
475.484	1671.61
475.855	1692.4
476.227	1695.34
476.598	1756.13
476.97	1745.28
477.341	1794.77
477.713	1836.12
478.084	1851.94
478.455	1908.89
478.827	1929
479.198	1978.95
479.569	1971.94
479.94	2042.45
480.311	2000.19
480.682	2076.34
481.053	2156.57
481.424	2148.21
481.795	2197.47
482.166	2201.54
482.537	2284.93
482.908	2329.22
483.279	2315.89
483.65	2380.29
484.021	2392.49
484.391	2427.29
484.762	2446.96
485.133	2484.02
485.503	2542.77
485.874	2592.49
486.244	2603.79
486.615	2685.37
486.985	2700.28
487.356	2776.89
487.726	2757.23
488.097	2829.32
488.467	2873.61
488.837	2909.77
489.207	2930.78
489.578	2968.75
489.948	3050.33
490.318	3063.21
490.688	3095.75
491.058	3152.7
491.428	3199.93
491.798	3240.15
492.168	3335.52
492.538	3279.25
492.908	3347.04
493.278	3382.75
493.648	3396.76
494.017	3420.94
494.387	3468.4
494.757	3474.5
495.126	3512.92
495.496	3544.78
495.866	3603.08
496.235	3639.92
496.605	3643.31
496.974	3684.66
497.344	3700.93
497.713	3744.32
498.082	3735.96
498.452	3774.83
498.821	3819.57
499.19	3815.73
499.559	3829.29
499.928	3920.59
500.298	3894.83
500.667	3970.76
501.036	3936.41
501.405	3993.81
501.774	3992.68
502.143	4003.3
502.512	4057.99
502.88	4082.17
503.249	4097.31
503.618	4139.57
503.987	4147.48
504.356	4145.89
504.724	4138.21
505.093	4203.52
505.462	4201.03
505.83	4252.78
506.199	4255.04
506.567	4336.4
506.936	4318.32
507.304	4326.45
507.672	4370.29
508.041	4398.32
508.409	4377.3
508.777	4438.77
509.145	4491.2
509.514	4475.38
509.882	4507.24
510.25	4493
510.618	4526.45
510.986	4539.1
511.354	4563.96
511.722	4588.59
512.09	4616.16
512.458	4593.11
512.826	4671.08
513.193	4676.5
513.561	4677.41
513.929	4720.12
514.297	4718.08
514.664	4766.67
515.032	4747.01
515.4	4835.14
515.767	4810.74
516.135	4822.94
516.502	4801.92
516.869	4856.16
517.237	4904.07
517.604	4882.15
517.972	4948.36
518.339	4963.5
518.706	4934.57
519.073	4995.36
519.44	4996.49
519.808	5023.38
520.175	5033.78
520.542	5075.36
520.909	5055.93
521.276	5103.38
521.643	5139.09
522.009	5169.37
522.376	5193.1
522.743	5184.28
523.11	5251.18
523.477	5278.97
523.843	5274.23
524.21	5375.69
524.577	5338.4
524.943	5375.92
525.31	5342.47
525.676	5492.98
526.043	5482.81
526.409	5453.2
526.776	5518.97
527.142	5543.82
527.508	5598.06
527.874	5638.51
528.241	5619.3
528.607	5660.2
528.973	5689.81
529.339	5702.46
529.705	5749.92
530.071	5796.92
530.437	5772.29
530.803	5873.31
531.169	5915.79
531.535	5858.39
531.901	5885.51
532.267	5963.47
532.632	5944.94
532.998	5946.98
533.364	6034.43
533.73	6061.32
534.095	6023.58
534.461	6081.66
534.826	6104.03
535.192	6126.41
535.557	6164.6
535.923	6176.35
536.288	6189.68
536.653	6231.04
537.019	6205.73
537.384	6271.94
537.749	6306.97
538.114	6284.59
538.479	6303.8
538.845	6357.36
539.21	6358.27
539.575	6433.07
539.94	6469.9
540.305	6461.09
540.67	6469.67
541.034	6498.37
541.399	6531.82
541.764	6542.44
542.129	6566.85
542.494	6630.57
542.858	6647.3
543.223	6636.45
543.587	6724.58
543.952	6688.2
544.316	6772.27
544.681	6726.62
545.045	6811.13
545.41	6826.5
545.774	6794.41
546.138	6875.09
546.503	6850.23
546.867	6860.62
547.231	6963.45
547.595	6944.46
547.959	7013.62
548.324	6995.76
548.688	7064.69
549.052	7072.82
549.416	7077.57
549.779	7085.93
550.143	7049.09
550.507	7164.35
550.871	7108.08
551.235	7209.77
551.599	7221.52
551.962	7261.97
552.326	7283.21
552.689	7273.72
553.053	7242.76
553.417	7308.75
553.78	7412.7
554.143	7381.74
554.507	7435.07
554.87	7415.64
555.234	7452.7
555.597	7474.85
555.96	7534.51
556.323	7501.06
556.686	7556.88
557.05	7616.54
557.413	7599.81
557.776	7603.43
558.139	7685.46
558.502	7682.52
558.865	7666.25
559.228	7792.13
559.59	7746.93
559.953	7773.14
560.316	7842.75
560.679	7833.25
561.041	7864.89
561.404	7925
561.767	7958.45
562.129	7887.94
562.492	8056.98
562.854	7974.72
563.217	8066.24
563.579	8047.26
563.941	8108.28
564.304	8130.87
564.666	8222.4
565.028	8212.45
565.39	8220.59
565.753	8309.85
566.115	8263.98
566.477	8314.82
566.839	8370.87
567.201	8388.49
567.563	8381.49
567.925	8403.63
568.287	8468.04
568.648	8486.57
569.01	8542.16
569.372	8526.34
569.734	8527.7
570.095	8651.09
570.457	8684.98
570.819	8652.89
571.18	8713.23
571.542	8769.28
571.903	8805.88
572.265	8875.71
572.626	8950.06
572.987	8973.56
573.349	9006.11
573.71	9063.5
574.071	9062.83
574.432	9102.37
574.794	9212.88
575.155	9227.57
575.516	9208.13
575.877	9315.25
576.238	9338.98
576.599	9438.64
576.96	9505.98
577.32	9492.19
577.681	9652.64
578.042	9759.76
578.403	9839.3
578.763	9857.38
579.124	9926.76
579.485	10105.74
579.845	10188.9
580.206	10174.89
580.566	10342.79
580.927	10399.74
581.287	10669.34
581.648	10650.58
582.008	10882.21
582.368	10957.92
582.728	11102.77
583.089	11130.34
583.449	11323.56
583.809	11387.96
584.169	11592.7
584.529	11779.14
584.889	12074.27
585.249	12123.54
585.609	12228.17
585.969	12483.08
586.329	12609.85
586.688	12906.34
587.048	12918.77
587.408	13121.25
587.768	13349.95
588.127	13493.44
588.487	13673.55
588.846	14033.77
589.206	14075.12
589.565	14356.7
589.925	14604.15
590.284	14778.61
590.643	15109.9
591.003	15352.38
591.362	15671.92
591.721	15879.82
592.08	15965.24
592.44	16362.07
592.799	16649.75
593.158	16880.25
593.517	17079.57
593.876	17283.85
594.235	17637.52
594.593	17929.26
594.952	18212.42
595.311	18424.61
595.67	18622.12
596.029	18987.76
596.387	19308.43
596.746	19510.46
597.104	19651.47
597.463	19912.94
597.822	20283.32
598.18	20442.19
598.538	20699.81
598.897	21010.31
599.255	21180.7
599.613	21779.1
599.972	21741.82
600.33	22108.81
600.688	22356.26
601.046	22619.76
601.404	22890.49
601.762	23134.32
602.12	23532.28
602.478	23671.71
602.836	23981.98
603.194	24028.08
603.552	24410.67
603.91	24466.49
604.268	24888.63
604.625	24993.48
604.983	25278.67
605.341	25507.82
605.698	25780.58
606.056	25866.23
606.413	26235.26
606.771	26390.05
607.128	26795.24
607.485	26832.3
607.843	27059.42
608.2	27206.3
608.557	27651.72
608.914	27709.34
609.272	28006.28
609.629	28178.48
609.986	28530.79
610.343	28528.76
610.7	28957.22
611.057	29031.12
611.414	29305.46
611.771	29383.65
612.127	29686.01
612.484	29881.49
612.841	29969.4
613.198	30161.48
613.554	30173.01
613.911	30424.52
614.267	30563.5
614.624	30685.08
614.98	30849.15
615.337	31237.16
615.693	31341.56
616.05	31332.75
616.406	31728.45
616.762	31682.8
617.118	31837.37
617.475	31939.29
617.831	32218.15
618.187	32266.28
618.543	32361.65
618.899	32710.11
619.255	32730.23
619.611	32859.49
619.967	32962.31
620.323	33037.56
620.678	32960.96
621.034	33107.84
621.39	33244.79
621.746	33318.91
622.101	33725.91
622.457	33540.38
622.812	33779.69
623.168	33827.15
623.523	33904.89
623.879	34136.52
624.234	34046.58
624.589	34142.85
624.945	34310.3
625.3	34299.9
625.655	34437.3
626.01	34632.78
626.365	34582.38
626.72	34601.36
627.075	34600.46
627.43	34563.85
627.785	34645.88
628.14	34861.47
628.495	34832.32
628.85	34836.61
629.205	34816.5
629.559	35227.11
629.914	35122.48
630.269	35016.49
630.623	35039.77
630.978	35023.27
631.332	35231.86
631.687	35339.42
632.041	35212.42
632.396	35200.22
632.75	35224.17
633.104	35362.93
633.459	35104.85
633.813	35137.4
634.167	35228.92
634.521	35185.53
634.875	35385.52
635.229	35253.78
635.583	35134.23
635.937	35254.45
636.291	35132.2
636.645	35229.82
636.999	35175.36
637.352	35308.24
637.706	35091.75
638.06	35211.97
638.413	35278.86
638.767	35120.22
639.121	35223.72
639.474	35140.79
639.828	35181.69
640.181	35269.6
640.534	35138.53
640.888	35139.43
641.241	35003.84
641.594	35095.59
641.947	35331.29
642.301	35133.33
642.654	35129.94
643.007	35209.94
643.36	35203.83
643.713	34896.27
644.066	35312.53
644.419	34965.2
644.771	34757.07
645.124	34506.45
645.477	34443.18
645.83	34293.8
646.182	34116.18
646.535	34053.81
646.888	34089.51
647.24	34011.55
647.593	34287.47
647.945	34145.78
648.298	34064.66
648.65	33921.61
649.002	33812.91
649.355	33967.93
649.707	33993.02
650.059	34117.76
650.411	34491.31
650.763	34582.38
651.115	34903.05
651.467	34754.35
651.819	34688.82
652.171	34617.86
652.523	34671.64
652.875	34667.35
653.227	34508.49
653.578	34838.42
653.93	34679.1
654.282	34460.35
654.633	34409.5
654.985	34493.8
655.337	34569.5
655.688	34543.51
656.039	34576.96
656.391	34312.11
656.742	34487.47
657.094	34489.95
657.445	34536.06
657.796	34521.82
658.147	34468.71
658.498	34357.08
658.849	34438.66
659.2	34376.96
659.551	34425.1
659.902	34404.53
660.253	34455.61
660.604	34531.76
660.955	34364.76
661.306	34489.05
661.656	34533.34
662.007	34350.52
662.358	34414.48
662.708	34386.91
663.059	34374.03
663.409	34096.52
663.76	34480.92
664.11	34235.72
664.461	34425.78
664.811	34253.8
665.161	34270.07
665.511	34149.62
665.862	34421.71
666.212	34435.72
666.562	34486.34
666.912	34291.54
667.262	34300.36
667.612	34289.06
667.962	34434.81
668.312	34120.7
668.662	34300.58
669.011	34174.03
669.361	34173.35
669.711	34173.8
670.06	34158.66
670.41	34161.38
670.76	34049.74
671.109	34324.31
671.459	34174.03
671.808	34092.23
672.157	34193.69
672.507	33972.68
672.856	34037.99
673.205	33955.28
673.554	34135.39
673.904	33985.34
674.253	34151.88
674.602	33909.63
674.951	33498.57
675.3	33466.48
675.649	33909.18
675.998	33853.81
676.346	33952.34
676.695	34046.58
677.044	33860.59
677.393	33926.13
677.741	33931.33
678.09	33885.9
678.438	33651.78
678.787	33770.65
679.135	33812.91
679.484	33663.76
679.832	33767.71
680.181	33566.82
680.529	33725.23
680.877	33542.41
681.225	33667.83
681.573	33766.58
681.922	33569.75
682.27	33477.33
682.618	33505.57
682.966	33323.21
683.314	33280.04
683.661	33329.31
684.009	33225.36
684.357	33125.92
684.705	33058.58
685.053	33063.1
685.4	33185.13
685.748	32980.39
686.095	32943.78
686.443	32850.9
686.79	32737.01
687.138	32777.23
687.485	32850
687.832	32653.39
688.18	32754.41
688.527	32519.61
688.874	32542.66
689.221	32623.11
689.568	32397.58
689.915	32266.96
690.262	32273.74
690.609	32125.05
690.956	32216.79
691.303	32047.53
691.65	31834.43
691.997	31996.46
692.344	31671.95
692.69	31695.9
693.037	31632.18
693.383	31447.32
693.73	31571.16
694.077	31433.99
694.423	31459.3
694.769	31219.76
695.116	31298.63
695.462	31126.43
695.808	30995.13
696.155	31149.48
696.501	30786.55
696.847	30939.99
697.193	30611.64
697.539	30969.6
697.885	30572.32
698.231	30465.2
698.577	30442.15
698.923	30502.94
699.269	30262.27
699.614	30169.84
699.96	30170.97
700.306	30043.29
700.651	29907.48
700.997	29948.15
701.342	29788.61
701.688	29850.3
702.033	29705.67
702.379	29753.58
702.724	29607.15
703.069	29784.77
703.415	29361.95
703.76	29377.32
704.105	29353.37
704.45	29263.43
704.795	29184.33
705.14	29127.38
705.485	29140.72
705.83	28969.65
706.175	28896.43
706.52	28870.89
706.865	28776.66
707.209	28759.26
707.554	28687.85
707.899	28686.49
708.243	28644.91
708.588	28537.12
708.932	28399.49
709.277	28127.41
709.621	28297.35
709.966	28024.36
710.31	28251.47
710.654	28024.14
710.998	28109.78
711.342	27997.7
711.687	27912.27
712.031	27836.57
712.375	27711.83
712.719	27803.12
713.063	27635.22
713.407	27717.25
713.75	27569.01
714.094	27689.23
714.438	27547.31
714.782	27562
715.125	27383.25
715.469	27460.76
715.812	27269.35
716.156	27137.61
716.499	27191.62
716.843	27148.23
717.186	27073.88
717.53	27095.8
717.873	27109.58
718.216	27163.37
718.559	26883.83
718.902	26694.23
719.246	26705.98
719.589	26702.81
719.932	26755.69
720.275	26607.9
720.617	26578.52
720.96	26562.48
721.303	26428.7
721.646	26492.2
721.989	26348.25
722.331	26292.88
722.674	26257.85
723.016	26311.86
723.359	26385.54
723.701	26229.15
724.044	26105.32
724.386	25961.37
724.729	26143.06
725.071	25977.64
725.413	25946.22
725.755	26016.05
726.097	25893.57
726.439	25765.66
726.782	25777.42
727.124	25857.64
727.465	25759.79
727.807	25707.81
728.149	25703.75
728.491	25627.14
728.833	25609.06
729.175	25374.71
729.516	25444.77
729.858	25460.81
730.199	25442.73
730.541	25469.85
730.882	25342.62
731.224	25461.27
731.565	25347.14
731.906	25263.76
732.248	25348.27
732.589	25092.91
732.93	25086.13
733.271	25104.89
733.612	25069.19
733.953	25127.72
734.294	24999.58
734.635	24958.23
734.976	25035.74
735.317	24768.18
735.658	24839.81
735.999	24928.85
736.339	24969.98
736.68	24804.33
737.021	24791.45
737.361	24681.85
737.702	24823.99
738.042	24704.22
738.383	24594.4
738.723	24734.28
739.063	24537.45
739.404	24498.13
739.744	24516.88
740.084	24406.83
740.424	24402.54
740.764	24406.38
741.104	24442.08
741.444	24318.92
741.784	24177.91
742.124	24222.88
742.464	24261.75
742.804	24209.55
743.143	24151.24
743.483	24132.94
743.823	23874.87
744.162	23939.95
744.502	23927.07
744.841	23998.71
745.181	24004.58
745.52	23827.64
745.86	23871.25
746.199	23832.38
746.538	23792.83
746.877	23804.59
747.216	23701.09
747.556	23662.67
747.895	23699.96
748.234	23683.23
748.573	23626.51
748.911	23652.73
749.25	23572.5
749.589	23356.24
749.928	23470.81
750.267	23486.4
750.605	23313.98
750.944	23392.39
751.283	23293.19
751.621	23290.48
751.96	23148.56
752.298	23213.42
752.636	23190.36
752.975	23158.73
753.313	23027.21
753.651	22996.47
753.989	22920.54
754.327	22992.18
754.666	22895.91
755.004	22934.55
755.342	22890.94
755.679	22866.08
756.017	22752.86
756.355	22810.94
756.693	22736.59
757.031	22625.41
757.368	22485.98
757.706	22384.28
758.044	22405.98
758.381	22418.63
758.719	22405.07
759.056	22427.9
759.394	22241.01
759.731	22180
760.068	22035.82
760.405	21907.91
760.743	21994.01
761.08	21951.53
761.417	21819.55
761.754	21833.79
762.091	21869.95
762.428	21616.17
762.765	21516.28
763.102	21621.59
763.438	21545.66
763.775	21406
764.112	21330.75
764.449	21467.92
764.785	21332.79
765.122	21339.79
765.458	21028.84
765.795	21040.36
766.131	21057.09
766.467	20900.03
766.804	20739.36
767.14	20705.46
767.476	20760.37
767.812	20759.24
768.148	20707.49
768.485	20590.43
768.821	20462.53
769.157	20420.95
769.492	20387.95
769.828	20419.82
770.164	20208.52
770.5	20100.5
770.836	20076.77
771.171	20060.05
771.507	20161.97
771.842	19801.08
772.178	19934.41
772.513	19730.57
772.849	19657.58
773.184	19592.27
773.519	19661.19
773.855	19510.91
774.19	19384.82
774.525	19333.74
774.86	19312.05
775.195	19360.41
775.53	19248.55
775.865	19034.54
776.2	19035.67
776.535	18889.91
776.87	18893.53
777.205	18864.83
777.539	18714.1
777.874	18802.23
778.209	18665.74
778.543	18567.89
778.878	18546.87
779.212	18450.6
779.547	18316.37
779.881	18448.12
780.215	18213.09
780.55	18194.34
780.884	18134.45
781.218	18076.15
781.552	18040.22
781.886	18038.18
782.22	17863.05
782.554	17747.34
782.888	17538.76
783.222	17559.78
783.556	17545.09
783.889	17510.29
784.223	17370.4
784.557	17327.02
784.89	17392.1
785.224	17195.49
785.557	17089.51
785.891	17146.91
786.224	17058.55
786.558	17103.29
786.891	17010.87
787.224	16868.05
787.557	16783.98
787.891	16853.81
788.224	16676.19
788.557	16638.67
788.89	16628.73
789.223	16573.59
789.556	16432.35
789.888	16435.29
790.221	16357.55
790.554	16196.2
790.887	16176.99
791.219	16190.77
791.552	16095.41
791.884	16139.93
792.217	16015.19
792.549	16034.85
792.882	15925.7
793.214	15878.24
793.546	15882.99
793.879	15664.46
794.211	15696.32
794.543	15665.82
794.875	15574.97
795.207	15642.77
795.539	15523.45
795.871	15508.08
796.203	15379.5
796.535	15302.21
796.867	15280.74
797.198	15247.52
797.53	15221.76
797.862	15066.06
798.193	15127.98
798.525	15069
798.856	15075.32
799.188	14866.97
799.519	14841.43
799.85	14830.81
800.182	14849.34
800.513	14906.29
800.844	14739.97
801.175	14737.71
801.506	14656.58
801.837	14604.6
802.168	14578.61
802.499	14572.96
802.83	14439.41
803.161	14408.22
803.491	14444.15
803.822	14382.23
804.153	14337.26
804.483	14181.34
804.814	14095.01
805.145	14081.9
805.475	14092.07
805.805	14054.33
806.136	14050.04
806.466	14036.93
806.796	13948.35
807.126	13845.07
807.457	13832.42
807.787	13860.67
808.117	13821.12
808.447	13872.64
808.777	13769.82
809.107	13820.89
809.436	13718.98
809.766	13669.26
810.096	13635.14
810.426	13536.38
810.755	13624.06
811.085	13441.24
811.414	13467.23
811.744	13470.17
812.073	13342.26
812.403	13371.41
812.732	13315.14
813.061	13273.79
813.39	13227.91
813.719	13208.71
814.049	13191.31
814.378	13128.48
814.707	13139.78
815.036	13081.7
815.365	12984.98
815.693	12955.61
816.022	12943.85
816.351	12886.23
816.68	12832.67
817.008	12823.86
817.337	12784.31
817.665	12760.36
817.994	12784.76
818.322	12752.22
818.651	12708.83
818.979	12576.63
819.307	12670.87
819.636	12557.42
819.964	12487.82
820.292	12562.62
820.62	12528.27
820.948	12506.13
821.276	12490.76
821.604	12458.9
821.932	12513.36
822.259	12503.41
822.587	12515.62
822.915	12540.93
823.243	12504.54
823.57	12439.24
823.898	12503.64
824.225	12380.93
824.553	12427.48
824.88	12372.12
825.207	12522.4
825.535	12485.56
825.862	12437.65
826.189	12416.64
826.516	12497.76
826.843	12553.36
827.17	12436.52
827.497	12468.61
827.824	12450.53
828.151	12565.79
828.478	12477.88
828.805	12465.45
829.131	12360.37
829.458	12459.35
829.785	12353.36
830.111	12407.82
830.438	12443.3
830.764	12445.79
831.09	12421.61
831.417	12334.38
831.743	12436.75
832.069	12383.42
832.395	12302.52
832.722	12355.62
833.048	12325.57
833.374	12336.86
833.7	12224.78
834.026	12213.03
834.351	12305.23
834.677	12200.6
835.003	12289.63
835.329	12309.75
835.654	12220.94
835.98	12228.39
836.306	12204.21
836.631	12132.58
836.956	12177.77
837.282	12159.69
837.607	12061.84
837.932	12046.03
838.258	12149.98
838.583	12151.56
838.908	12023.2
839.233	11924.9
839.558	11958.34
839.883	11892.36
840.208	11940.49
840.533	11904.33
840.858	11974.61
841.182	11920.15
841.507	11899.36
841.832	11856.65
842.156	11823.66
842.481	11735.3
842.805	11781.85
843.13	11736.43
843.454	11690.78
843.778	11720.16
844.103	11720.84
844.427	11675.87
844.751	11616.66
845.075	11618.92
845.399	11547.06
845.723	11475.19
846.047	11492.82
846.371	11455.98
846.695	11409.66
847.019	11335.54
847.343	11274.07
847.666	11147.07
847.99	11145.94
848.313	11123.79
848.637	11049.67
848.96	11116.56
849.284	11065.71
849.607	10922.66
849.931	10945.04
850.254	10891.03
850.577	10879.95
850.9	10829.79
851.223	10784.14
851.546	10728.32
851.869	10561.54
852.192	10688.77
852.515	10555.22
852.838	10578.72
853.161	10549.79
853.483	10437.48
853.806	10443.58
854.129	10416.01
854.451	10343.47
854.774	10320.65
855.096	10319.52
855.419	10279.74
855.741	10144.61
856.063	10151.16
856.385	10179.86
856.708	10131.27
857.03	10038.39
857.352	10113.87
857.674	10084.49
857.996	9969.92
858.318	9990.03
858.64	9971.5
858.961	9882.92
859.283	9898.06
859.605	9856.48
859.926	9835.24
860.248	9806.54
860.57	9839.53
860.891	9804.95
861.212	9729.48
861.534	9688.35
861.855	9723.15
862.176	9656.48
862.498	9719.53
862.819	9644.73
863.14	9681.34
863.461	9604.73
863.782	9534.9
864.103	9587.78
864.424	9567.22
864.745	9565.19
865.065	9562.02
865.386	9472.31
865.707	9468.69
866.027	9501.01
866.348	9441.35
866.668	9444.06
866.989	9405.64
867.309	9345.53
867.63	9411.97
867.95	9344.4
868.27	9341.46
868.59	9348.24
868.91	9355.25
869.23	9295.36
869.55	9263.05
869.87	9268.25
870.19	9240.45
870.51	9297.85
870.83	9285.65
871.15	9127.91
871.469	9186.21
871.789	9182.15
872.109	9197.51
872.428	9097.18
872.748	9169.26
873.067	9148.25
873.386	9124.52
873.706	9106.89
874.025	9027.57
874.344	9078.19
874.663	9094.46
874.982	9067.57
875.301	9050.62
875.62	8978.31
875.939	8929.95
876.258	8977.86
876.577	8966.78
876.896	8964.98
877.214	8904.86
877.533	8933.11
877.852	8862.83
878.17	8890.63
878.489	8897.41
878.807	8826.45
879.125	8872.55
879.444	8847.24
879.762	8758.43
880.08	8789.39
880.398	8761.59
880.716	8720.24
881.034	8741.03
881.352	8749.84
881.67	8749.84
881.988	8681.59
882.306	8712.55
882.624	8647.02
882.941	8609.28
883.259	8634.82
883.577	8599.34
883.894	8572.67
884.212	8561.37
884.529	8508.49
884.846	8559.34
885.164	8521.15
885.481	8420.58
885.798	8505.33
886.115	8414.26
886.432	8442.73
886.75	8410.87
887.067	8416.97
887.383	8373.35
887.7	8351.66
888.017	8338.78
888.334	8260.59
888.651	8373.35
888.967	8310.08
889.284	8199.35
889.6	8213.36
889.917	8152.57
890.233	8168.39
890.55	8168.61
890.866	8089.74
891.182	8136.98
891.498	8082.97
891.815	8052.01
892.131	8049.97
892.447	7941.73
892.763	7958
893.079	7967.49
893.395	7891.33
893.71	7904.44
894.026	7875.97
894.342	7868.06
894.657	7760.71
894.973	7870.09
895.289	7790.32
895.604	7794.16
895.92	7760.04
896.235	7686.37
896.55	7645.01
896.865	7668.29
897.181	7626.71
897.496	7634.16
897.811	7616.99
898.126	7546.26
898.441	7506.48
898.756	7491.12
899.071	7483.89
899.386	7489.76
899.7	7406.83
900.015	7423.77
900.33	7327.96
900.644	7339.26
900.959	7281.86
901.273	7282.76
901.588	7254.51
901.902	7231.01
902.216	7260.39
902.531	7235.98
902.845	7147.17
903.159	7091.35
903.473	7087.29
903.787	7079.15
904.101	7034.86
904.415	7056.1
904.729	7027.85
905.042	6985.59
905.356	6917.12
905.67	6898.14
905.984	6924.58
906.297	6911.47
906.611	6854.3
906.924	6796.67
907.237	6837.35
907.551	6799.16
907.864	6798.48
908.177	6752.38
908.491	6757.58
908.804	6688.43
909.117	6663.57
909.43	6639.39
909.743	6582.67
910.056	6602.33
910.368	6537.24
910.681	6516.23
910.994	6473.52
911.307	6476.23
911.619	6414.53
911.932	6421.54
912.244	6393.29
912.557	6432.39
912.869	6326.18
913.181	6326.4
913.494	6337.02
913.806	6207.76
914.118	6242.11
914.43	6197.82
914.742	6211.83
915.054	6137.25
915.366	6124.6
915.678	6116.24
915.99	6111.27
916.302	6086.41
916.613	5977.26
916.925	6001.89
917.236	6026.52
917.548	5950.59
917.859	5985.39
918.171	5989.01
918.482	5890.93
918.794	5877.37
919.105	5928.22
919.416	5859.07
919.727	5833.99
920.038	5788.79
920.349	5744.5
920.66	5740.43
920.971	5750.15
921.282	5662.24
921.593	5689.81
921.903	5609.36
922.214	5618.4
922.525	5636.7
922.835	5567.55
923.146	5542.69
923.456	5528.23
923.767	5512.64
924.077	5437.39
924.387	5460.66
924.697	5438.74
925.008	5375.24
925.318	5403.26
925.628	5399.19
925.938	5359.2
926.248	5255.24
926.558	5294.79
926.867	5261.12
927.177	5262.93
927.487	5235.13
927.796	5199.65
928.106	5194.91
928.416	5159.2
928.725	5152.65
929.034	5090.5
929.344	5120.11
929.653	5110.16
929.962	5087.11
930.271	5010.96
930.581	4990.39
930.89	4957.17
931.199	4937.96
931.508	4971.86
931.817	4937.51
932.125	4910.17
932.434	4921.69
932.743	4857.51
933.051	4816.84
933.36	4802.6
933.669	4794.46
933.977	4782.26
934.286	4762.37
934.594	4731.64
934.902	4714.24
935.21	4735.71
935.519	4669.27
935.827	4658.42
936.135	4638.76
936.443	4597.41
936.751	4634.24
937.059	4598.99
937.367	4560.35
937.674	4550.18
937.982	4529.39
938.29	4514.7
938.597	4506.34
938.905	4489.61
939.213	4418.43
939.52	4430.63
939.827	4395.15
940.135	4407.36
940.442	4378.43
940.749	4358.54
941.056	4375.49
941.363	4280.13
941.67	4309.73
941.977	4276.96
942.284	4256.63
942.591	4223.41
942.898	4228.38
943.205	4214.59
943.511	4166.91
943.818	4179.34
944.125	4150.87
944.431	4158.1
944.738	4116.52
945.044	4079.45
945.35	4046.91
945.657	4086.23
945.963	4063.64
946.269	4014.15
946.575	4025.22
946.881	3976.63
947.187	3987.93
947.493	3981.38
947.799	3958.1
948.105	3940.93
948.41	3934.83
948.716	3888.27
949.022	3883.3
949.327	3848.05
949.633	3813.93
949.938	3809.18
950.244	3824.09
950.549	3804.43
950.854	3741.38
951.16	3755.62
951.465	3781.16
951.77	3758.11
952.075	3699.8
952.38	3706.13
952.685	3690.76
952.99	3693.25
953.294	3678.56
953.599	3671.1
953.904	3628.85
954.209	3589.07
954.513	3600.37
954.818	3570.99
955.122	3556.08
955.426	3552.69
955.731	3574.38
956.035	3515.85
956.339	3505.68
956.643	3526.25
956.948	3487.83
957.252	3465.69
957.556	3445.8
957.86	3441.96
958.163	3417.55
958.467	3446.7
958.771	3379.13
959.075	3368.51
959.378	3378.46
959.682	3374.16
959.985	3346.82
960.289	3299.14
960.592	3291
960.896	3310.66
961.199	3293.71
961.502	3263.66
961.805	3241.51
962.108	3257.1
962.411	3210.1
962.714	3192.25
963.017	3178.69
963.32	3205.58
963.623	3165.58
963.926	3193.83
964.228	3158.8
964.531	3116.09
964.833	3106.6
965.136	3096.88
965.438	3065.24
965.741	3069.54
966.043	3065.24
966.345	3056.2
966.648	3033.61
966.95	3050.1
967.252	3007.39
967.554	2990.67
967.856	2987.05
968.158	2990.9
968.46	2954.06
968.761	2967.17
969.063	2924.91
969.365	2908.86
969.666	2898.69
969.968	2906.15
970.269	2829.77
970.571	2847.62
970.872	2810.11
971.174	2811.92
971.475	2868.64
971.776	2805.36
972.077	2816.89
972.378	2801.3
972.679	2770.11
972.98	2749.32
973.281	2765.82
973.582	2756.78
973.883	2736.21
974.183	2731.69
974.484	2722.43
974.785	2674.52
975.085	2698.7
975.386	2685.59
975.686	2677.01
975.986	2647.63
976.287	2625.26
976.587	2608.53
976.887	2619.61
977.187	2579.38
977.487	2627.97
977.787	2612.6
978.087	2588.65
978.387	2560.17
978.687	2561.3
978.987	2517.91
979.286	2533.28
979.586	2552.49
979.885	2510
980.185	2491.93
980.484	2494.86
980.784	2486.05
981.083	2473.62
981.382	2452.15
981.682	2473.62
981.981	2432.72
982.28	2412.38
982.579	2409.44
982.878	2426.84
983.177	2409.67
983.475	2369.67
983.774	2368.99
984.073	2386.39
984.372	2350.46
984.67	2368.99
984.969	2309.56
985.267	2341.42
985.566	2334.19
985.864	2355.43
986.162	2325.15
986.461	2280.86
986.759	2252.84
987.057	2288.99
987.355	2253.97
987.653	2217.13
987.951	2204.02
988.249	2241.54
988.547	2218.49
988.844	2198.37
989.142	2180.3
989.44	2220.97
989.737	2175.78
990.035	2145.95
990.332	2159.05
990.63	2132.16
990.927	2131.71
991.224	2163.12
991.521	2118.83
991.819	2124.25
992.116	2075.89
992.413	2083.35
992.71	2085.83
993.006	2074.08
993.303	2057.81
993.6	2082.67
993.897	2045.84
994.193	2051.49
994.49	2024.37
994.787	2027.76
995.083	1988.21
995.379	2002
995.676	1977.59
995.972	1975.78
996.268	1973.3
996.565	1982.33
996.861	1945.27
997.157	1983.92
997.453	1935.56
997.749	1938.95
998.044	1898.04
998.34	1886.74
998.636	1884.26
998.932	1876.8
999.227	1868.44
999.523	1877.93
999.818	1869.12
1000.114	1848.55
1000.409	1840.19
1000.704	1812.4
1001	1831.38
1001.295	1818.27
1001.59	1815.11
1001.885	1802.23
1002.18	1770.36
1002.475	1779.18
1002.77	1799.51
1003.065	1725.39
1003.359	1745.73
1003.654	1752.51
1003.949	1716.81
1004.243	1739.18
1004.538	1701.66
1004.832	1726.97
1005.127	1702.57
1005.421	1717.03
1005.715	1641.33
1006.009	1686.3
1006.304	1672.29
1006.598	1644.26
1006.892	1638.62
1007.186	1638.16
1007.48	1623.47
1007.773	1614.66
1008.067	1615.34
1008.361	1602.91
1008.655	1578.28
1008.948	1585.28
1009.242	1576.92
1009.535	1568.56
1009.829	1552.52
1010.122	1549.35
1010.415	1553.87
1010.708	1542.8
1011.001	1539.18
1011.295	1531.5
1011.588	1543.02
1011.881	1509.13
1012.173	1496.7
1012.466	1494.21
1012.759	1477.94
1013.052	1453.76
1013.344	1478.17
1013.637	1462.8
1013.93	1449.92
1014.222	1421.9
1014.514	1429.81
1014.807	1415.8
1015.099	1427.1
1015.391	1390.49
1015.683	1380.99
1015.976	1401.79
1016.268	1385.06
1016.56	1365.4
1016.851	1361.11
1017.143	1357.94
1017.435	1377.38
1017.727	1339.87
1018.018	1371.96
1018.31	1305.06
1018.602	1321.56
1018.893	1318.85
1019.185	1293.54
1019.476	1279.98
1019.767	1267.1
1020.058	1277.04
1020.35	1268.46
1020.641	1252.64
1020.932	1244.73
1021.223	1235.01
1021.514	1266.2
1021.804	1221.68
1022.095	1207.21
1022.386	1229.81
1022.677	1194.56
1022.967	1202.92
1023.258	1191.4
1023.548	1198.17
1023.839	1188.91
1024.129	1187.78
1024.419	1157.05
1024.709	1133.09
1025	1155.01
1025.29	1180.77
1025.58	1159.08
1025.87	1142.58
1026.16	1127.89
1026.449	1167.67
1026.739	1104.39
1027.029	1084.28
1027.319	1077.73
1027.608	1086.99
1027.898	1066.65
1028.187	1076.14
1028.477	1070.95
1028.766	1047.9
1029.055	1058.07
1029.344	1037.5
1029.634	1058.52
1029.923	1009.25
1030.212	1022.81
1030.501	1034.56
1030.79	994.79
1031.078	1018.52
1031.367	1013.09
1031.656	991.85
1031.945	988.24
1032.233	966.54
1032.522	993.43
1032.81	951.85
1033.099	977.84
1033.387	962.93
1033.675	958.63
1033.963	937.62
1034.251	934.68
1034.54	946.2
1034.828	932.19
1035.116	926.32
1035.403	918.41
1035.691	916.6
1035.979	910.5
1036.267	907.11
1036.554	910.5
1036.842	905.3
1037.129	878.18
1037.417	859.43
1037.704	865.3
1037.992	886.54
1038.279	872.31
1038.566	851.52
1038.853	851.52
1039.14	851.52
