Data from hue_270_FLMS001491_00042.txt Node
Date: Tue Feb 07 15:57:14 GMT 2017
User: dcchb
Spectrometer: FLMS00149
Trigger mode: 0
Integration Time (sec): 2.000000E-2
Scans to average: 10
Electric dark correction enabled: true
Nonlinearity correction enabled: false
Boxcar width: 0
XAxis mode: Wavelengths
Number of Pixels in Spectrum: 2048
>>>>>Begin Spectral Data<<<<<
341.393	-23.7
341.776	-23.7
342.16	-23.7
342.543	-67.99
342.927	-60.76
343.31	-77.94
343.693	-67.99
344.077	-70.48
344.46	-79.52
344.843	-47.43
345.226	-47.2
345.61	-35.9
345.993	-7.43
346.376	-19.41
346.759	18.78
347.142	43.64
347.525	65.11
347.908	56.07
348.291	73.25
348.674	79.57
349.057	116.86
349.44	132.91
349.823	165.22
350.206	161.38
350.588	205.9
350.971	194.15
351.354	219.23
351.737	248.16
352.119	240.25
352.502	259.46
352.884	271.66
353.267	274.37
353.65	293.81
354.032	283.86
354.414	293.35
354.797	316.86
355.179	318.89
355.562	322.51
355.944	325.67
356.326	329.51
356.709	338.1
357.091	319.34
357.473	328.61
357.855	327.48
358.238	343.07
358.62	316.4
359.002	352.11
359.384	322.05
359.766	333.35
360.148	343.07
360.53	354.6
360.912	335.61
361.294	333.35
361.676	331.32
362.057	330.19
362.439	319.34
362.821	331.09
363.203	316.63
363.584	330.42
363.966	317.76
364.348	306.01
364.729	335.84
365.111	326.35
365.493	328.38
365.874	300.81
366.256	299.23
366.637	330.87
367.019	318.89
367.4	300.13
367.781	308.72
368.163	307.36
368.544	301.72
368.925	306.69
369.306	322.51
369.688	304.2
370.069	314.14
370.45	296.74
370.831	294.48
371.212	315.5
371.593	304.43
371.974	309.17
372.355	339.45
372.736	298.78
373.117	309.85
373.498	303.98
373.879	329.06
374.26	305.1
374.641	296.29
375.021	309.17
375.402	322.96
375.783	314.82
376.163	322.96
376.544	320.47
376.925	326.8
377.305	325.44
377.686	296.07
378.066	332.67
378.447	340.36
378.827	321.15
379.208	306.01
379.588	349.17
379.968	345.56
380.349	331.32
380.729	345.1
381.109	338.55
381.489	322.28
381.87	331.77
382.25	343.75
382.63	327.25
383.01	335.16
383.39	334.26
383.77	327.25
384.15	339.68
384.53	340.36
384.91	354.82
385.29	346.23
385.67	338.1
386.049	315.73
386.429	355.5
386.809	354.14
387.189	362.5
387.568	361.37
387.948	360.24
388.328	366.8
388.707	367.7
389.087	367.25
389.466	368.38
389.846	362.28
390.225	348.95
390.605	365.22
390.984	385.78
391.363	367.93
391.743	374.93
392.122	379.45
392.501	379.45
392.881	388.27
393.26	387.59
393.639	367.48
394.018	382.62
394.397	405.44
394.776	381.49
395.155	405.89
395.534	390.07
395.913	359.57
396.292	394.14
396.671	407.25
397.05	405.67
397.429	415.38
397.808	397.76
398.186	418.77
398.565	425.33
398.944	401.6
399.323	421.03
399.701	428.72
400.08	425.33
400.458	414.25
400.837	435.72
401.215	432.11
401.594	440.47
401.972	425.33
402.351	451.54
402.729	431.2
403.107	434.14
403.486	447.47
403.864	427.81
404.242	442.05
404.62	455.84
404.999	453.12
405.377	467.13
405.755	464.42
406.133	473.46
406.511	480.24
406.889	482.95
407.267	480.47
407.645	468.94
408.023	503.52
408.401	489.51
408.779	484.31
409.156	502.16
409.534	500.13
409.912	499.22
410.29	533.57
410.667	525.89
411.045	535.16
411.422	522.95
411.8	554.36
412.178	552.33
412.555	537.87
412.933	569.96
413.31	571.54
413.687	583.52
414.065	561.6
414.442	583.74
414.819	588.71
415.197	603.18
415.574	571.76
415.951	610.41
416.328	629.16
416.705	632.1
417.082	642.95
417.46	642.5
417.837	639.56
418.214	656.06
418.591	660.35
418.967	658.32
419.344	658.54
419.721	684.3
420.098	697.64
420.475	712.55
420.852	700.8
421.228	721.82
421.605	728.14
421.982	721.14
422.358	745.32
422.735	745.55
423.111	762.49
423.488	753.23
423.864	756.62
424.241	773.57
424.617	798.2
424.994	810.4
425.37	820.12
425.746	815.37
426.123	860.57
426.499	854.47
426.875	814.92
427.251	868.25
427.627	887.24
428.003	891.53
428.379	901.93
428.756	917.52
429.132	908.48
429.507	952.32
429.883	945.09
430.259	962.04
430.635	965.65
431.011	952.32
431.387	991.64
431.763	1008.36
432.138	1003.39
432.514	1017.4
432.89	1010.17
433.265	1063.73
433.641	1084.52
434.016	1099.89
434.392	1091.3
434.767	1150.05
435.143	1164.52
435.518	1136.04
435.894	1179.21
436.269	1171.97
436.644	1202.26
437.02	1225.08
437.395	1238.41
437.77	1223.5
438.145	1257.17
438.52	1255.14
438.895	1302.14
439.271	1320.9
439.646	1349.6
440.021	1358.18
440.395	1346.66
440.77	1370.61
441.145	1348.92
441.52	1402.93
441.895	1409.71
442.27	1393.44
442.645	1429.37
443.019	1409.03
443.394	1430.73
443.769	1458.75
444.143	1475.7
444.518	1488.35
444.892	1478.86
445.267	1488.8
445.641	1508.46
446.016	1508.46
446.39	1541.46
446.764	1547.33
447.139	1531.97
447.513	1553.66
447.887	1569.03
448.262	1606.09
448.636	1554.56
449.01	1607.67
449.384	1615.8
449.758	1639.31
450.132	1649.7
450.506	1645.18
450.88	1610.83
451.254	1662.36
451.628	1681.34
452.002	1709.59
452.376	1708.01
452.75	1709.81
453.123	1715.69
453.497	1767.89
453.871	1745.97
454.244	1786.2
454.618	1778.96
454.992	1824.39
455.365	1826.19
455.739	1866.42
456.112	1822.13
456.486	1867.32
456.859	1895.8
457.232	1931.73
457.606	1910.03
457.979	1924.5
458.352	1971.28
458.725	2003.82
459.099	1994.78
459.472	2060.31
459.845	2057.15
460.218	2093.08
460.591	2095.57
460.964	2098.73
461.337	2127.43
461.71	2151.84
462.083	2178.73
462.456	2168.33
462.829	2207.88
463.201	2214.66
463.574	2210.59
463.947	2257.6
464.32	2328.78
464.692	2325.16
465.065	2323.36
465.438	2323.13
465.81	2375.56
466.183	2414.43
466.555	2462.34
466.928	2457.36
467.3	2437.48
467.672	2483.8
468.045	2566.97
468.417	2560.41
468.789	2577.81
469.161	2599.96
469.534	2637.02
469.906	2693.74
470.278	2665.95
470.65	2729.9
471.022	2731.03
471.394	2793.18
471.766	2801.76
472.138	2818.71
472.51	2861.87
472.882	2921.99
473.253	2957.69
473.625	2960.4
473.997	3018.71
474.369	3019.61
474.74	3088.08
475.112	3113.84
475.484	3149.55
475.855	3190.45
476.227	3201.75
476.598	3246.72
476.97	3307.74
477.341	3340.28
477.713	3398.36
478.084	3444.01
478.455	3519.71
478.827	3526.26
479.198	3591.35
479.569	3600.39
479.94	3663.89
480.311	3696.88
480.682	3775.07
481.053	3842.87
481.424	3898.68
481.795	3934.61
482.166	3971.68
482.537	3963.54
482.908	4049.64
483.279	4115.17
483.65	4144.1
484.021	4235.4
484.391	4240.82
484.762	4309.29
485.133	4322.63
485.503	4350.2
485.874	4443.3
486.244	4443.3
486.615	4535.28
486.985	4533.02
487.356	4642.84
487.726	4656.18
488.097	4759.68
488.467	4745.67
488.837	4840.58
489.207	4890.97
489.578	4958.99
489.948	4967.81
490.318	5041.93
490.688	5042.61
491.058	5081.48
491.428	5141.59
491.798	5191.76
492.168	5284.18
492.538	5284.18
492.908	5317.4
493.278	5336.61
493.648	5390.39
494.017	5438.53
494.387	5463.61
494.757	5503.16
495.126	5552.42
495.496	5589.94
495.866	5554.68
496.235	5626.1
496.605	5697.96
496.974	5712.65
497.344	5805.53
497.713	5769.14
498.082	5773.44
498.452	5837.84
498.821	5905.18
499.19	5830.38
499.559	5902.7
499.928	5976.14
500.298	5951.06
500.667	5985.86
501.036	5991.06
501.405	6038.51
501.774	6070.6
502.143	6076.93
502.512	6097.72
502.88	6156.25
503.249	6131.62
503.618	6166.19
503.987	6184.95
504.356	6186.76
504.724	6262.69
505.093	6304.5
505.462	6305.17
505.83	6290.48
506.199	6311.27
506.567	6371.84
506.936	6395.11
507.304	6459.29
507.672	6410.26
508.041	6396.92
508.409	6474.66
508.777	6501.33
509.145	6503.59
509.514	6507.43
509.882	6544.04
510.25	6577.71
510.618	6627.42
510.986	6619.52
511.354	6708.33
511.722	6689.12
512.09	6684.15
512.458	6667.65
512.826	6725.28
513.193	6746.07
513.561	6785.16
513.929	6756.01
514.297	6866.97
514.664	6828.78
515.032	6829.23
515.4	6893.86
515.767	6917.59
516.135	6887.76
516.502	6871.03
516.869	6938.6
517.237	6971.37
517.604	6903.8
517.972	6946.29
518.339	7002.56
518.706	6989.67
519.073	7020.63
519.44	7050.92
519.808	7115.32
520.175	7054.08
520.542	7118.71
520.909	7046.4
521.276	7106.06
521.643	7180.18
522.009	7130.46
522.376	7273.51
522.743	7242.78
523.11	7277.8
523.477	7345.82
523.843	7290.23
524.21	7408.65
524.577	7410.45
524.943	7390.57
525.31	7445.03
525.676	7588.98
526.043	7535.42
526.409	7525.48
526.776	7603.22
527.142	7581.75
527.508	7592.37
527.874	7708.07
528.241	7656.1
528.607	7683.67
528.973	7714.18
529.339	7694.97
529.705	7737.45
530.071	7769.54
530.437	7820.84
530.803	7821.29
531.169	7853.61
531.535	7860.39
531.901	7868.52
532.267	7819.94
532.632	7910.1
532.998	7904.23
533.364	7882.31
533.73	7970.67
534.095	7982.64
534.461	7950.78
534.826	8045.92
535.192	8014.73
535.557	8095.41
535.923	8002.76
536.288	8056.31
536.653	8096.76
537.019	8041.85
537.384	8085.47
537.749	8091.79
538.114	8023.32
538.479	8064.9
538.845	8158.91
539.21	8080.04
539.575	8128.63
539.94	8105.58
540.305	8171.11
540.67	8186.71
541.034	8168.18
541.399	8190.77
541.764	8208.4
542.129	8196.87
542.494	8227.16
542.858	8256.08
543.223	8219.25
543.587	8268.51
543.952	8252.01
544.316	8233.26
544.681	8233.71
545.045	8254.73
545.41	8322.07
545.774	8266.25
546.138	8277.1
546.503	8300.37
546.867	8261.96
547.231	8340.6
547.595	8351.67
547.959	8359.36
548.324	8463.53
548.688	8356.42
549.052	8353.25
549.416	8402.52
549.779	8406.36
550.143	8393.03
550.507	8430.99
550.871	8387.6
551.235	8396.64
551.599	8425.57
551.962	8464.21
552.326	8400.03
552.689	8602.06
553.053	8447.49
553.417	8458.56
553.78	8618.33
554.143	8518.67
554.507	8574.49
554.87	8559.35
555.234	8671.44
555.597	8559.8
555.96	8608.16
556.323	8661.72
556.686	8684.55
557.05	8674.15
557.413	8654.49
557.776	8732.45
558.139	8722.74
558.502	8799.12
558.865	8702.62
559.228	8831.66
559.59	8797.31
559.953	8820.59
560.316	8899.68
560.679	8923.18
561.041	8925.22
561.404	8949.85
561.767	8971.77
562.129	8965.22
562.492	9070.07
562.854	9064.2
563.217	9040.92
563.579	9045.21
563.941	9157.53
564.304	9183.06
564.666	9228.49
565.028	9151.2
565.39	9234.81
565.753	9244.76
566.115	9324.08
566.477	9262.84
566.839	9306.68
567.201	9472.1
567.563	9425.09
567.925	9467.12
568.287	9502.15
568.648	9496.28
569.01	9536.5
569.372	9627.57
569.734	9577.18
570.095	9636.84
570.457	9673.22
570.819	9771.97
571.18	9731.3
571.542	9720.68
571.903	9717.74
572.265	9797.28
572.626	9828.02
572.987	9914.12
573.349	9912.99
573.71	9922.71
574.071	9964.06
574.432	9987.34
574.794	10079.54
575.155	10052.65
575.516	10033.44
575.877	10187.56
576.238	10100.55
576.599	10172.87
576.96	10197.73
577.32	10189.14
577.681	10264.84
578.042	10303.26
578.403	10292.41
578.763	10296.93
579.124	10309.14
579.485	10439.75
579.845	10403.14
580.206	10388.68
580.566	10463.03
580.927	10529.02
581.287	10573.99
581.648	10512.75
582.008	10616.7
582.368	10662.8
582.728	10683.36
583.089	10682.46
583.449	10686.53
583.809	10788.67
584.169	10788.22
584.529	10726.07
584.889	10868.44
585.249	10832.96
585.609	10802.46
585.969	10849.91
586.329	10880.19
586.688	10847.88
587.048	10974.43
587.408	10952.28
587.768	10969.01
588.127	11028.66
588.487	11023.02
588.846	11076.35
589.206	11061.66
589.565	11078.83
589.925	11174.65
590.284	11187.53
590.643	11215.1
591.003	11233.63
591.362	11225.5
591.721	11237.92
592.08	11268.21
592.44	11333.97
592.799	11229.56
593.158	11323.35
593.517	11267.75
593.876	11480.63
594.235	11324.48
594.593	11388.2
594.952	11476.79
595.311	11424.36
595.67	11450.35
596.029	11604.92
596.387	11533.28
596.746	11536
597.104	11490.57
597.463	11562.66
597.822	11653.06
598.18	11599.72
598.538	11669.33
598.897	11684.24
599.255	11623
599.613	11713.17
599.972	11739.38
600.33	11773.5
600.688	11642.21
601.046	11787.97
601.404	11772.83
601.762	11827.97
602.12	11845.59
602.478	11832.49
602.836	11880.39
603.194	11735.54
603.552	11758.36
603.91	11797.68
604.268	11840.39
604.625	11814.41
604.983	11900.51
605.341	11791.58
605.698	11877.91
606.056	11922.43
606.413	11963.33
606.771	11937.12
607.128	11925.59
607.485	11863.9
607.843	11905.93
608.2	12008.07
608.557	12045.14
608.914	11995.19
609.272	12017.34
609.629	12001.75
609.986	12139.37
610.343	12006.72
610.7	12237.22
611.057	12050.78
611.414	12135.08
611.771	12135.53
612.127	12203.78
612.484	12207.84
612.841	12284.45
613.198	12184.79
613.554	12218.92
613.911	12295.75
614.267	12238.58
614.624	12290.55
614.98	12244.45
615.337	12268.41
615.693	12311.34
616.05	12355.86
616.406	12358.35
616.762	12377.56
617.118	12359.48
617.475	12354.28
617.831	12358.8
618.187	12405.13
618.543	12414.84
618.899	12474.95
619.255	12414.84
619.611	12350.21
619.967	12439.48
620.323	12455.52
620.678	12421.85
621.034	12383.21
621.39	12463.43
621.746	12383.21
622.101	12433.83
622.457	12461.17
622.812	12359.48
623.168	12480.83
623.523	12432.47
623.879	12533.03
624.234	12461.4
624.589	12463.43
624.945	12421.62
625.3	12516.54
625.655	12435.86
626.01	12452.36
626.365	12494.84
626.72	12442.41
627.075	12457.55
627.43	12455.97
627.785	12446.25
628.14	12502.52
628.495	12467.05
628.85	12430.44
629.205	12417.33
629.559	12464.79
629.914	12394.5
630.269	12419.81
630.623	12426.37
630.978	12278.35
631.332	12368.06
631.687	12342.98
632.041	12294.62
632.396	12356.31
632.75	12251.46
633.104	12359.7
633.459	12286.94
633.813	12262.53
634.167	12295.98
634.521	12218.92
634.875	12281.29
635.229	12217.79
635.583	12131.69
635.937	12178.69
636.291	12100.5
636.645	12216.43
636.999	12198.58
637.352	12200.61
637.706	12057.11
638.06	12062.99
638.413	12032.93
638.767	12087.62
639.121	12080.61
639.474	11978.02
639.828	12037.9
640.181	12069.99
640.534	12086.04
640.888	11999.03
641.241	11975.31
641.594	11967.17
641.947	12057.34
642.301	12059.82
642.654	12041.75
643.007	11967.4
643.36	11969.21
643.713	11993.16
644.066	12037.23
644.419	11857.8
644.771	11930.79
645.124	11693.28
645.477	11685.14
645.83	11574.19
646.182	11611.25
646.535	11481.31
646.888	11587.75
647.24	11507.07
647.593	11544.81
647.945	11546.39
648.298	11505.94
648.65	11482.89
649.002	11448.77
649.355	11527.18
649.707	11505.04
650.059	11534.41
650.411	11711.13
650.763	11635.2
651.115	11816.67
651.467	11743.45
651.819	11801.75
652.171	11766.5
652.523	11731.02
652.875	11702.09
653.227	11718.36
653.578	11795.2
653.93	11743.9
654.282	11671.36
654.633	11655.99
654.985	11618.25
655.337	11690.12
655.688	11684.24
656.039	11701.87
656.391	11689.89
656.742	11774.86
657.094	11698.48
657.445	11769.44
657.796	11733.96
658.147	11737.8
658.498	11742.77
658.849	11782.32
659.2	11715.43
659.551	11646.73
659.902	11758.59
660.253	11704.58
660.604	11721.3
660.955	11600.18
661.306	11735.09
661.656	11688.31
662.007	11703.45
662.358	11715.65
662.708	11766.72
663.059	11699.16
663.409	11650.34
663.76	11797.46
664.11	11743.9
664.461	11719.95
664.811	11701.87
665.161	11662.77
665.511	11689.66
665.862	11791.13
666.212	11725.6
666.562	11774.86
666.912	11719.04
667.262	11770.11
667.612	11735.31
667.962	11715.2
668.312	11665.03
668.662	11722.21
669.011	11718.14
669.361	11712.49
669.711	11702.77
670.06	11685.37
670.41	11676.11
670.76	11652.15
671.109	11696.44
671.459	11640.17
671.808	11608.54
672.157	11620.74
672.507	11568.09
672.856	11592.49
673.205	11553.85
673.554	11653.96
673.904	11590.01
674.253	11703.68
674.602	11611.47
674.951	11434.3
675.3	11400.41
675.649	11548.65
675.998	11530.57
676.346	11561.53
676.695	11549.1
677.044	11489.67
677.393	11519.95
677.741	11505.26
678.09	11437.02
678.438	11451.25
678.787	11423.91
679.135	11550.46
679.484	11397.69
679.832	11406.28
680.181	11398.15
680.529	11380.07
680.877	11351.37
681.225	11375.77
681.573	11387.75
681.922	11324.93
682.27	11299.39
682.618	11203.8
682.966	11266.4
683.314	11173.29
683.661	11232.95
684.009	11180.75
684.357	11146.18
684.705	11170.81
685.053	11180.98
685.4	11146.18
685.748	11036.12
686.095	11073.86
686.443	11044.03
686.79	10954.54
687.138	11006.74
687.485	11038.61
687.832	10957.25
688.18	10952.73
688.527	10925.39
688.874	10829.12
689.221	10832.51
689.568	10849.46
689.915	10740.76
690.262	10787.32
690.609	10706.64
690.956	10666.64
691.303	10613.53
691.65	10602.69
691.997	10637.26
692.344	10468.45
692.69	10492.41
693.037	10504.84
693.383	10519.3
693.73	10527.44
694.077	10376.03
694.423	10361.34
694.769	10316.59
695.116	10344.39
695.462	10323.15
695.808	10303.49
696.155	10293.99
696.501	10182.36
696.847	10175.35
697.193	10060.55
697.539	10116.37
697.885	10060.1
698.231	10007.22
698.577	10077.28
698.923	10007.9
699.269	9979.65
699.614	9896.04
699.96	9894.23
700.306	9873.44
700.651	9748.25
700.997	9709.6
701.342	9787.34
701.688	9678.64
702.033	9728.13
702.379	9632.32
702.724	9592.77
703.069	9567.23
703.415	9486.56
703.76	9501.7
704.105	9525.65
704.45	9541.92
704.795	9444.75
705.14	9409.27
705.485	9371.76
705.83	9322.95
706.175	9333.12
706.52	9341.7
706.865	9275.04
707.209	9302.16
707.554	9196.62
707.899	9226.23
708.243	9152.56
708.588	9243.18
708.932	9161.82
709.277	9073.91
709.621	9091.09
709.966	9070.75
710.31	9071.65
710.654	8974.93
710.998	8944.43
711.342	8996.85
711.687	8979
712.031	8899.68
712.375	8926.12
712.719	8886.12
713.063	8888.83
713.407	8878.44
713.75	8788.05
714.094	8873.02
714.438	8829.4
714.782	8783.53
715.125	8761.15
715.469	8762.51
715.812	8702.4
716.156	8667.6
716.499	8687.71
716.843	8733.13
717.186	8689.52
717.53	8656.07
717.873	8739.46
718.216	8608.84
718.559	8645.68
718.902	8531.78
719.246	8607.49
719.589	8627.37
719.932	8527.26
720.275	8552.57
720.617	8515.74
720.96	8501.05
721.303	8539.24
721.646	8506.7
721.989	8494.72
722.331	8508.05
722.674	8441.39
723.016	8520.26
723.359	8464.89
723.701	8490.88
724.044	8387.6
724.386	8414.04
724.729	8381.28
725.071	8397.77
725.413	8397.32
725.755	8418.79
726.097	8343.09
726.439	8319.81
726.782	8337.66
727.124	8388.06
727.465	8325.46
727.807	8294.05
728.149	8322.75
728.491	8215.18
728.833	8304.44
729.175	8323.65
729.516	8285.23
729.858	8320.49
730.199	8321.17
730.541	8301.28
730.882	8238.46
731.224	8291.34
731.565	8266.93
731.906	8322.07
732.248	8263.77
732.589	8268.29
732.93	8211.56
733.271	8256.76
733.612	8190.32
733.953	8229.42
734.294	8173.82
734.635	8191
734.976	8203.2
735.317	8172.02
735.658	8182.41
735.999	8217.44
736.339	8206.14
736.68	8204.78
737.021	8214.73
737.361	8253.82
737.702	8268.29
738.042	8281.84
738.383	8239.81
738.723	8217.44
739.063	8192.13
739.404	8309.64
739.744	8293.37
740.084	8277.1
740.424	8284.56
740.764	8258.79
741.104	8319.36
741.444	8267.83
741.784	8294.95
742.124	8407.04
742.464	8332.24
742.804	8308.74
743.143	8282.52
743.483	8308.96
743.823	8353.25
744.162	8350.09
744.502	8364.78
744.841	8376.31
745.181	8443.65
745.52	8524.1
745.86	8464.21
746.199	8542.63
746.538	8567.49
746.877	8664.21
747.216	8657.65
747.556	8630.99
747.895	8708.05
748.234	8716.64
748.573	8765.45
748.911	8782.4
749.25	8865.11
749.589	8864.2
749.928	8926.8
750.267	9021.26
750.605	9041.15
750.944	9123.86
751.283	9124.76
751.621	9245.89
751.96	9281.14
752.298	9382.61
752.636	9426.45
752.975	9456.95
753.313	9554.58
753.651	9729.26
753.989	9805.65
754.327	9857.4
754.666	9921.12
755.004	10022.36
755.342	10214.22
755.679	10335.12
756.017	10369.93
756.355	10541.22
756.693	10619.86
757.031	10713.42
757.368	10767.65
757.706	10957.93
758.044	11077.7
758.381	11286.29
758.719	11340.52
759.056	11610.34
759.394	11618.03
759.731	11719.04
760.068	11925.14
760.405	12009.88
760.743	12164.23
761.08	12262.98
761.417	12490.1
761.754	12634.95
762.091	12759.47
762.428	12898.22
762.765	13011.66
763.102	13236.06
763.438	13358.55
763.775	13479.9
764.112	13646
764.449	13835.82
764.785	13967.8
765.122	14008.02
765.458	14277.84
765.795	14386.99
766.131	14561.45
766.467	14646.87
766.804	14763.71
767.14	14813.2
767.476	15022.01
767.812	15117.6
768.148	15239.18
768.485	15343.35
768.821	15426.06
769.157	15703.12
769.492	15721.65
769.828	15881.42
770.164	15836
770.5	16052.94
770.836	16137.01
771.171	16246.61
771.507	16331.12
771.842	16336.55
772.178	16504.91
772.513	16648.4
772.849	16728.85
773.184	16703.77
773.519	16821.28
773.855	16944.67
774.19	16891.34
774.525	16932.24
774.86	17080.94
775.195	17167.71
775.53	17161.61
775.865	17221.5
776.2	17282.74
776.535	17225.34
776.87	17337.65
777.205	17288.16
777.539	17340.82
777.874	17385.56
778.209	17367.71
778.543	17475.27
778.878	17527.7
779.212	17519.12
779.547	17550.3
779.881	17709.17
780.215	17573.13
780.55	17649.51
780.884	17547.14
781.218	17647.47
781.552	17706.91
781.886	17616.74
782.22	17631.66
782.554	17633.91
782.888	17530.87
783.222	17505.33
783.556	17621.26
783.889	17535.61
784.223	17527.48
784.557	17433.92
784.89	17588.27
785.224	17498.55
785.557	17425.33
785.891	17510.98
786.224	17492.45
786.558	17568.61
786.891	17488.61
787.224	17349.18
787.557	17384.88
787.891	17315.73
788.224	17441.83
788.557	17400.25
788.89	17417.2
789.223	17409.06
789.556	17329.52
789.888	17296.75
790.221	17301.04
790.554	17283.19
790.887	17180.82
791.219	17081.61
791.552	17130.2
791.884	17071.67
792.217	16995.29
792.549	17085.45
792.882	16943.99
793.214	17026.25
793.546	17009.3
793.879	16978.79
794.211	16767.5
794.543	16905.12
794.875	16869.19
795.207	16918.91
795.539	16969.3
795.871	16801.17
796.203	16836.2
796.535	16546.49
796.867	16689.31
797.198	16547.84
797.53	16523.21
797.862	16538.35
798.193	16491.8
798.525	16471.91
798.856	16480.95
799.188	16330.45
799.519	16345.59
799.85	16294.06
800.182	16286.15
800.513	16254.52
800.844	16050.68
801.175	16178.81
801.506	16198.92
801.837	16041.19
802.168	16008.19
802.499	15984.92
802.83	15997.12
803.161	15869.44
803.491	15826.73
803.822	15849.56
804.153	15846.39
804.483	15773.85
804.814	15803
805.145	15703.34
805.475	15755.32
805.805	15647.07
806.136	15633.29
806.466	15614.31
806.796	15545.83
807.126	15467.64
807.457	15489.11
807.787	15511.48
808.117	15459.96
808.447	15372.28
808.777	15434.88
809.107	15391.04
809.436	15335.67
809.766	15216.35
810.096	15169.8
810.426	15155.11
810.755	15169.57
811.085	15167.54
811.414	15222.9
811.744	14981.1
812.073	15023.59
812.403	15013.87
812.732	15058.84
813.061	14989.24
813.39	14894.78
813.719	14859.52
814.049	14995.57
814.378	14808.68
814.707	14852.29
815.036	14754.67
815.365	14772.3
815.693	14600.77
816.022	14669.93
816.351	14598.51
816.68	14552.64
817.008	14662.69
817.337	14438.52
817.665	14471.96
817.994	14442.59
818.322	14574.33
818.651	14438.29
818.979	14319.43
819.307	14396.94
819.636	14336.37
819.964	14303.61
820.292	14332.08
820.62	14324.17
820.948	14222.71
821.276	14316.71
821.604	14203.5
821.932	14336.15
822.259	14351.06
822.587	14281.23
822.915	14211.18
823.243	14335.02
823.57	14273.55
823.898	14256.83
824.225	14206.43
824.553	14252.08
824.88	14331.85
825.207	14295.02
825.535	14267.68
825.862	14399.65
826.189	14279.88
826.516	14262.7
826.843	14415.47
827.17	14422.47
827.497	14387.9
827.824	14400.78
828.151	14384.06
828.478	14322.14
828.805	14337.96
829.131	14357.84
829.458	14290.5
829.785	14300.44
830.111	14259.54
830.438	14403.72
830.764	14375.92
831.09	14375.02
831.417	14242.37
831.743	14316.04
832.069	14391.74
832.395	14247.11
832.722	14354.45
833.048	14231.74
833.374	14268.58
833.7	14310.39
834.026	14248.47
834.351	14208.02
834.677	14205.98
835.003	14247.34
835.329	14131.41
835.654	14191.75
835.98	14129.15
836.306	14092.54
836.631	14058.19
836.956	14045.99
837.282	14168.7
837.607	14098.64
837.932	13962.37
838.258	14025.87
838.583	14102.03
838.908	13919.66
839.233	13924.41
839.558	13850.06
839.883	13838.99
840.208	13911.75
840.533	13845.54
840.858	13881.25
841.182	13862.94
841.507	13882.83
841.832	13754.92
842.156	13756.05
842.481	13765.99
842.805	13709.5
843.13	13671.99
843.454	13631.99
843.778	13610.97
844.103	13460.69
844.427	13465.89
844.751	13549.95
845.075	13453.46
845.399	13447.13
845.723	13347.02
846.047	13352.9
846.371	13257.98
846.695	13226.35
847.019	13168.5
847.343	13136.18
847.666	13064.32
847.99	12952.91
848.313	12950.42
848.637	12936.19
848.96	12833.14
849.284	12831.78
849.607	12736.87
849.931	12713.37
850.254	12628.17
850.577	12599.47
850.9	12512.92
851.223	12426.82
851.546	12447.16
851.869	12363.32
852.192	12471.79
852.515	12267.28
852.838	12293.26
853.161	12228.86
853.483	12202.65
853.806	12159.48
854.129	12141.86
854.451	12070.67
854.774	12030.45
855.096	12005.36
855.419	11997.68
855.741	11974.4
856.063	11884.69
856.385	11800.4
856.708	11803.79
857.03	11753.17
857.352	11763.33
857.674	11715.65
857.996	11647.63
858.318	11610.12
858.64	11620.74
858.961	11566.5
859.283	11587.07
859.605	11528.99
859.926	11494.19
860.248	11495.32
860.57	11373.97
860.891	11402.89
861.212	11375.1
861.534	11328.32
861.855	11275.21
862.176	11316.57
862.498	11324.48
862.819	11264.59
863.14	11274.08
863.461	11200.64
863.782	11120.64
864.103	11149.34
864.424	11143.01
864.745	11132.62
865.065	11187.08
865.386	10998.84
865.707	11026.4
866.027	11073.18
866.348	11019.17
866.668	11026.4
866.989	11001.55
867.309	10974.43
867.63	10954.09
867.95	10875.45
868.27	10921.1
868.59	10846.07
868.91	10942.57
869.23	10874.77
869.55	10740.99
869.87	10838.16
870.19	10832.96
870.51	10805.85
870.83	10783.93
871.15	10775.11
871.469	10791.16
871.789	10687.2
872.109	10749.12
872.428	10650.37
872.748	10667.54
873.067	10648.11
873.386	10693.76
873.706	10672.52
874.025	10630.26
874.344	10517.94
874.663	10546.87
874.982	10565.85
875.301	10517.94
875.62	10492.18
875.939	10509.13
876.258	10477.94
876.577	10390.26
876.896	10396.37
877.214	10334.67
877.533	10454.44
877.852	10424.84
878.17	10380.55
878.489	10379.42
878.807	10404.95
879.125	10304.39
879.444	10258.29
879.762	10266.88
880.08	10309.81
880.398	10258.97
880.716	10271.17
881.034	10195.92
881.352	10120.21
881.67	10171.29
881.988	10149.37
882.306	10081.8
882.624	10086.77
882.941	10044.06
883.259	10027.79
883.577	9939.2
883.894	10018.3
884.212	9967.45
884.529	10030.27
884.846	9936.72
885.164	9976.26
885.481	9872.99
885.798	9891.52
886.115	9777.4
886.432	9779.88
886.75	9775.59
887.067	9833.22
887.383	9753.44
887.7	9735.37
888.017	9722.03
888.334	9708.02
888.651	9646.1
888.967	9618.98
889.284	9567.01
889.6	9577.4
889.917	9488.82
890.233	9508.48
890.55	9522.04
890.866	9433.23
891.182	9506.22
891.498	9463.73
891.815	9366.56
892.131	9293.34
892.447	9301.7
892.763	9279.56
893.079	9252.44
893.395	9295.38
893.71	9228.71
894.026	9225.55
894.342	9167.7
894.657	9127.25
894.973	9120.01
895.289	9040.69
895.604	9024.88
895.92	8910.3
896.235	8929.74
896.55	8913.47
896.865	8952.34
897.181	8857.2
897.496	8863.52
897.811	8858.78
898.126	8769.74
898.441	8681.61
898.756	8692.23
899.071	8640.48
899.386	8728.39
899.7	8568.39
900.015	8581.05
900.33	8518.9
900.644	8551.67
900.959	8509.18
901.273	8484.78
901.588	8478.45
901.902	8379.92
902.216	8381.5
902.531	8297.21
902.845	8302.86
903.159	8262.86
903.473	8261.05
903.787	8198
904.101	8169.3
904.415	8176.99
904.729	8128.85
905.042	8025.58
905.356	8051.79
905.67	8026.94
905.984	8033.04
906.297	7989.42
906.611	7919.14
906.924	7926.15
907.237	7967.73
907.551	7908.29
907.864	7862.65
908.177	7842.53
908.491	7766.83
908.804	7751.91
909.117	7729.54
909.43	7691.35
909.743	7635.53
910.056	7656.78
910.368	7518.25
910.681	7539.04
910.994	7453.62
911.307	7516.89
911.619	7378.14
911.932	7399.38
912.244	7360.51
912.557	7385.6
912.869	7301.53
913.181	7318.48
913.494	7242.32
913.806	7250.46
914.118	7213.62
914.43	7153.06
914.742	7193.51
915.054	7104.7
915.366	7102.44
915.678	7028.32
915.99	7042.78
916.302	6949.22
916.613	6933.63
916.925	6918.94
917.236	6915.78
917.548	6900.19
917.859	6866.29
918.171	6813.63
918.482	6784.26
918.794	6777.03
919.105	6734.99
919.416	6682.34
919.727	6697.71
920.038	6679.4
920.349	6623.36
920.66	6634.2
920.971	6603.02
921.282	6546.3
921.593	6516.24
921.903	6523.02
922.214	6468.78
922.525	6444.15
922.835	6441.21
923.146	6433.08
923.456	6356.47
923.767	6356.25
924.077	6383.36
924.387	6308.34
924.697	6270.15
925.008	6270.82
925.318	6256.13
925.628	6172.97
925.938	6134.33
926.248	6114.22
926.558	6146.31
926.867	6078.74
927.177	6075.8
927.487	6068.57
927.796	6001.45
928.106	5999.42
928.416	5972.53
928.725	5960.78
929.034	5915.35
929.344	5926.65
929.653	5887.11
929.962	5852.76
930.271	5794.45
930.581	5803.49
930.89	5745.64
931.199	5716.94
931.508	5759.88
931.817	5690.95
932.125	5687.11
932.434	5680.56
932.743	5615.47
933.051	5599.2
933.36	5608.24
933.669	5583.38
933.977	5540.45
934.286	5572.54
934.594	5536.83
934.902	5455.48
935.21	5458.87
935.519	5410.28
935.827	5409.38
936.135	5374.8
936.443	5339.32
936.751	5332.32
937.059	5356.27
937.367	5248.48
937.674	5226.33
937.982	5247.8
938.29	5214.35
938.597	5201.02
938.905	5117.41
939.213	5143.4
939.52	5141.36
939.827	5144.3
940.135	5091.65
940.442	5080.35
940.749	5068.14
941.056	5077.18
941.363	5046.45
941.67	5034.25
941.977	5002.38
942.284	4955.15
942.591	4929.84
942.898	4907.24
943.205	4893.68
943.511	4913.35
943.818	4802.39
944.125	4819.11
944.431	4792.22
944.738	4801.48
945.044	4756.51
945.35	4750.41
945.657	4714.93
945.963	4702.05
946.269	4668.61
946.575	4705.44
946.881	4669.74
947.187	4633.35
947.493	4616.86
947.799	4598.55
948.105	4597.65
948.41	4544.32
948.716	4548.61
949.022	4492.34
949.327	4505.45
949.633	4408.05
949.938	4501.83
950.244	4452.34
950.549	4397.88
950.854	4434.04
951.16	4349.07
951.465	4325.11
951.77	4327.6
952.075	4305.9
952.38	4272.46
952.685	4283.31
952.99	4221.16
953.294	4232.01
953.599	4216.41
953.904	4176.87
954.209	4170.09
954.513	4154.95
954.818	4167.38
955.122	4159.01
955.426	4098
955.731	4103.65
956.035	4090.09
956.339	4071.56
956.643	4048.96
956.948	4037.44
957.252	4018.91
957.556	4005.12
957.86	3995.86
958.163	3966.7
958.467	3919.02
958.771	3961.05
959.075	3902.75
959.378	3899.81
959.682	3897.33
959.985	3846.71
960.289	3865.01
960.592	3836.54
960.896	3810.78
961.199	3786.82
961.502	3788.63
961.805	3784.34
962.108	3736.2
962.411	3724.9
962.714	3713.83
963.017	3688.52
963.32	3720.38
963.623	3663.66
963.926	3650.1
964.228	3645.36
964.531	3646.26
964.833	3594.96
965.136	3567.84
965.438	3589.76
965.741	3542.99
966.043	3543.44
966.345	3499.82
966.648	3537.34
966.95	3517.45
967.252	3459.37
967.554	3480.16
967.856	3431.58
968.158	3417.57
968.46	3402.88
968.761	3404.46
969.063	3409.88
969.365	3397.68
969.666	3323.33
969.968	3355.19
970.269	3321.3
970.571	3324.91
970.872	3293.27
971.174	3273.61
971.475	3271.13
971.776	3302.09
972.077	3225.48
972.378	3235.88
972.679	3211.02
972.98	3173.05
973.281	3208.08
973.582	3161.53
973.883	3163.79
974.183	3137.57
974.484	3106.61
974.785	3105.48
975.085	3121.53
975.386	3069.1
975.686	3092.15
975.986	3072.04
976.287	3077.46
976.587	3013.51
976.887	3034.75
977.187	3016.45
977.487	2979.16
977.787	2999.72
978.087	2960.18
978.387	2961.31
978.687	2945.49
978.987	2900.97
979.286	2898.94
979.586	2926.28
979.885	2871.37
980.185	2888.54
980.484	2867.75
980.784	2862.55
981.083	2851.48
981.382	2847.64
981.682	2855.09
981.981	2810.58
982.28	2786.4
982.579	2757.92
982.878	2775.55
983.177	2761.31
983.475	2720.41
983.774	2723.8
984.073	2695.78
984.372	2691.48
984.67	2677.47
984.969	2704.59
985.267	2655.55
985.566	2676.79
985.864	2672.27
986.162	2676.12
986.461	2614.2
986.759	2625.27
987.057	2585.72
987.355	2563.58
987.653	2574.2
987.951	2567.64
988.249	2548.66
988.547	2530.13
988.844	2529.68
989.142	2579.62
989.44	2488.1
989.737	2492.62
990.035	2464.37
990.332	2467.76
990.63	2484.26
990.927	2418.72
991.224	2432.05
991.521	2397.25
991.819	2413.52
992.116	2395.9
992.413	2425.73
992.71	2421.66
993.006	2379.63
993.303	2402.9
993.6	2351.38
993.897	2363.13
994.193	2336.92
994.49	2299.85
994.787	2279.06
995.083	2284.71
995.379	2306.18
995.676	2260.76
995.972	2262.79
996.268	2286.75
996.565	2238.39
996.861	2208.11
997.157	2198.84
997.453	2207.65
997.749	2182.34
998.044	2209.69
998.34	2195.68
998.636	2151.61
998.932	2146.19
999.227	2152.97
999.523	2123.59
999.818	2119.29
1000.114	2095.79
1000.409	2103.48
1000.704	2070.26
1001	2059.41
1001.295	2045.4
1001.59	2067.77
1001.885	2019.64
1002.18	2014.89
1002.475	2029.81
1002.77	2010.14
1003.065	1957.49
1003.359	1983.93
1003.654	1939.41
1003.949	1936.47
1004.243	1951.39
1004.538	1928.34
1004.832	1934.44
1005.127	1924.27
1005.421	1921.33
1005.715	1907.77
1006.009	1865.97
1006.304	1844.5
1006.598	1833.2
1006.892	1847.66
1007.186	1849.02
1007.48	1857.61
1007.773	1800.21
1008.067	1827.32
1008.361	1762.02
1008.655	1785.29
1008.948	1765.63
1009.242	1771.06
1009.535	1773.31
1009.829	1760.43
1010.122	1708.91
1010.415	1732.41
1010.708	1690.15
1011.001	1723.37
1011.295	1669.59
1011.588	1697.84
1011.881	1687.22
1012.173	1655.8
1012.466	1676.14
1012.759	1662.58
1013.052	1656.71
1013.344	1637.5
1013.637	1639.53
1013.93	1612.42
1014.222	1623.26
1014.514	1607.9
1014.807	1558.86
1015.099	1575.35
1015.391	1589.59
1015.683	1574.45
1015.976	1552.08
1016.268	1523.6
1016.56	1494.68
1016.851	1534.45
1017.143	1532.64
1017.435	1517.05
1017.727	1485.86
1018.018	1485.86
1018.31	1456.49
1018.602	1466.2
1018.893	1450.61
1019.185	1439.99
1019.476	1417.62
1019.767	1407
1020.058	1395.92
1020.35	1392.76
1020.641	1393.89
1020.932	1394.12
1021.223	1369.94
1021.514	1362.93
1021.804	1359.54
1022.095	1336.94
1022.386	1341.46
1022.677	1339.88
1022.967	1327.45
1023.258	1309.6
1023.548	1301.46
1023.839	1280.9
1024.129	1306.21
1024.419	1304.4
1024.709	1278.41
1025	1268.24
1025.29	1257.17
1025.58	1266.44
1025.87	1239.32
1026.16	1232.54
1026.449	1247
1026.739	1236.83
1027.029	1233.22
1027.319	1205.65
1027.608	1204.06
1027.898	1185.99
1028.187	1184.63
1028.477	1164.52
1028.766	1190.96
1029.055	1163.39
1029.344	1155.03
1029.634	1143.5
1029.923	1156.83
1030.212	1131.52
1030.501	1121.35
1030.79	1120.45
1031.078	1131.3
1031.367	1107.12
1031.656	1105.99
1031.945	1103.73
1032.233	1102.15
1032.522	1089.27
1032.81	1067.34
1033.099	1062.6
1033.387	1063.5
1033.675	1024.18
1033.963	1035.48
1034.251	1040.45
1034.54	1041.81
1034.828	1010.62
1035.116	1004.07
1035.403	1026.67
1035.691	996.84
1035.979	1004.52
1036.267	1008.36
1036.554	982.83
1036.842	990.06
1037.129	960.45
1037.417	962.26
1037.704	970.85
1037.992	937.63
1038.279	976.05
1038.566	942.15
1038.853	942.15
1039.14	942.15
