Data from hue_70_FLMS001491_23.txt Node
Date: Mon Feb 06 15:20:20 GMT 2017
User: dcchb
Spectrometer: FLMS00149
Trigger mode: 0
Integration Time (sec): 2.000000E-2
Scans to average: 10
Electric dark correction enabled: true
Nonlinearity correction enabled: false
Boxcar width: 0
XAxis mode: Wavelengths
Number of Pixels in Spectrum: 2048
>>>>>Begin Spectral Data<<<<<
341.393	18.33
341.776	18.33
342.16	18.33
342.543	-25.28
342.927	-73.87
343.31	-71.83
343.693	-63.7
344.077	-83.59
344.46	-58.05
344.843	-41.55
345.226	-35
345.61	-41.78
345.993	-24.6
346.376	-6.53
346.759	16.98
347.142	23.08
347.525	47.03
347.908	71.21
348.291	76.41
348.674	97.2
349.057	94.72
349.44	124.09
349.823	136.75
350.206	167.48
350.588	212
350.971	194.83
351.354	227.37
351.737	243.64
352.119	240.25
352.502	256.29
352.884	261.26
353.267	286.35
353.65	293.35
354.032	308.04
354.414	298.78
354.797	317.53
355.179	323.41
355.562	290.64
355.944	342.62
356.326	336.52
356.709	357.31
357.091	327.48
357.473	348.72
357.855	360.7
358.238	341.71
358.62	367.25
359.002	326.8
359.384	337.65
359.766	360.7
360.148	354.14
360.53	334.93
360.912	335.16
361.294	336.52
361.676	324.31
362.057	314.37
362.439	344.88
362.821	350.75
363.203	318.66
363.584	307.59
363.966	332.45
364.348	346.23
364.729	305.33
365.111	303.75
365.493	327.7
365.874	311.66
366.256	340.36
366.637	332.67
367.019	293.13
367.4	318.89
367.781	307.14
368.163	311.43
368.544	301.49
368.925	316.63
369.306	317.76
369.688	303.98
370.069	327.25
370.45	315.73
370.831	310.53
371.212	292
371.593	310.08
371.974	289.29
372.355	295.61
372.736	307.59
373.117	318.89
373.498	324.09
373.879	305.33
374.26	319.79
374.641	305.78
375.021	312.56
375.402	337.42
375.783	292.45
376.163	338.1
376.544	339.45
376.925	322.28
377.305	323.86
377.686	330.19
378.066	341.71
378.447	332.67
378.827	322.73
379.208	326.35
379.588	335.16
379.968	324.99
380.349	337.87
380.729	338.32
381.109	325.9
381.489	327.7
381.87	341.94
382.25	340.58
382.63	344.2
383.01	337.65
383.39	324.77
383.77	342.39
384.15	324.99
384.53	352.56
384.91	332.22
385.29	358.66
385.67	350.75
386.049	368.83
386.429	349.62
386.809	355.27
387.189	343.52
387.568	360.47
387.948	345.78
388.328	360.47
388.707	342.17
389.087	357.31
389.466	344.65
389.846	339.45
390.225	367.25
390.605	345.33
390.984	344.43
391.363	367.93
391.743	354.14
392.122	382.17
392.501	367.25
392.881	370.64
393.26	395.95
393.639	373.35
394.018	343.75
394.397	374.93
394.776	367.25
395.155	377.65
395.534	381.26
395.913	367.7
396.292	376.74
396.671	384.65
397.05	395.05
397.429	374.26
397.808	382.62
398.186	382.62
398.565	383.07
398.944	389.17
399.323	397.08
399.701	406.8
400.08	393.69
400.458	367.48
400.837	391.43
401.215	413.58
401.594	379.68
401.972	381.49
402.351	412.22
402.729	400.47
403.107	404.54
403.486	396.18
403.864	402.96
404.242	407.48
404.62	411.99
404.999	402.28
405.377	397.76
405.755	412.22
406.133	414.93
406.511	402.28
406.889	432.56
407.267	419.45
407.645	387.59
408.023	421.26
408.401	427.36
408.779	416.29
409.156	407.02
409.534	435.5
409.912	441.82
410.29	433.24
410.667	421.94
411.045	444.08
411.422	457.64
411.8	458.77
412.178	456.06
412.555	434.82
412.933	459.9
413.31	460.13
413.687	456.06
414.065	466.46
414.442	477.08
414.819	477.98
415.197	458.1
415.574	468.49
415.951	482.28
416.328	479.34
416.705	472.78
417.082	471.88
417.46	484.54
417.837	505.55
418.214	489.05
418.591	503.29
418.967	487.02
419.344	487.47
419.721	488.38
420.098	489.96
420.475	494.48
420.852	489.05
421.228	519.34
421.605	493.35
421.982	491.09
422.358	525.21
422.735	513.91
423.111	521.14
423.488	529.73
423.864	520.01
424.241	506.23
424.617	536.29
424.994	529.73
425.37	530.41
425.746	508.49
426.123	551.43
426.499	551.65
426.875	538.77
427.251	565.66
427.627	545.55
428.003	571.54
428.379	569.5
428.756	574.02
429.132	561.37
429.507	574.25
429.883	585.78
430.259	577.64
430.635	601.37
431.011	605.66
431.387	583.52
431.763	623.51
432.138	598.43
432.514	617.64
432.89	616.06
433.265	614.7
433.641	632.78
434.016	609.73
434.392	639.79
434.767	660.58
435.143	663.74
435.518	645.44
435.894	650.41
436.269	649.5
436.644	665.77
437.02	658.77
437.395	656.73
437.77	658.09
438.145	681.37
438.52	683.63
438.895	694.02
439.271	681.37
439.646	727.92
440.021	715.26
440.395	713.91
440.77	706.45
441.145	687.47
441.52	722.95
441.895	710.07
442.27	717.52
442.645	724.08
443.019	730.4
443.394	748.48
443.769	752.1
444.143	742.16
444.518	734.92
444.892	738.31
445.267	762.04
445.641	752.32
446.016	777.18
446.39	757.3
446.764	759.78
447.139	758.88
447.513	753.23
447.887	786.67
448.262	774.02
448.636	793
449.01	793.68
449.384	818.09
449.758	802.04
450.132	820.12
450.506	810.85
450.88	806.33
451.254	839.1
451.628	829.84
452.002	836.84
452.376	820.57
452.75	844.53
453.123	845.66
453.497	869.38
453.871	865.99
454.244	862.15
454.618	890.4
454.992	902.15
455.365	908.03
455.739	915.03
456.112	931.53
456.486	921.13
456.859	959.78
457.232	927.01
457.606	952.32
457.979	972.43
458.352	981.25
458.725	997.74
459.099	1005.65
459.472	1029.83
459.845	1033.45
460.218	1047.23
460.591	1026.22
460.964	1065.31
461.337	1072.99
461.71	1076.84
462.083	1080.23
462.456	1090.62
462.829	1102.82
463.201	1128.36
463.574	1120
463.947	1160.68
464.32	1174.46
464.692	1185.31
465.065	1202.93
465.438	1181.69
465.81	1235.48
466.183	1234.12
466.555	1256.72
466.928	1279.54
467.3	1284.97
467.672	1288.58
468.045	1334.46
468.417	1340.78
468.789	1367
469.161	1377.17
469.534	1408.58
469.906	1437.05
470.278	1440.22
470.65	1457.84
471.022	1491.97
471.394	1548.46
471.766	1554.56
472.138	1608.35
472.51	1599.76
472.882	1651.06
473.253	1662.36
473.625	1725.41
473.997	1756.14
474.369	1757.95
474.74	1813.09
475.112	1858.96
475.484	1897.38
475.855	1953.42
476.227	1988.68
476.598	2028
476.97	2066.41
477.341	2170.37
477.713	2236.13
478.084	2234.77
478.455	2310.48
478.827	2366.29
479.198	2413.07
479.569	2489.91
479.94	2582.33
480.311	2661.2
480.682	2738.04
481.053	2812.16
481.424	2877.69
481.795	2926.28
482.166	3030.46
482.537	3142.09
482.908	3230.45
483.279	3323.33
483.65	3433.61
484.021	3504.12
484.391	3641.29
484.762	3686.94
485.133	3789.53
485.503	3844.22
485.874	4022.52
486.244	4109.75
486.615	4279.46
486.985	4330.99
487.356	4481.72
487.726	4559.23
488.097	4717.42
488.467	4819.11
488.837	4951.54
489.207	5091.87
489.578	5209.16
489.948	5322.37
490.318	5490.28
490.688	5585.19
491.058	5711.29
491.428	5892.53
491.798	6047.55
492.168	6143.6
492.538	6291.39
492.908	6395.34
493.278	6586.52
493.648	6654.09
494.017	6776.8
494.387	7049.79
494.757	7017.92
495.126	7260.85
495.496	7350.57
495.866	7515.99
496.235	7642.09
496.605	7824
496.974	7938.12
497.344	8035.07
497.713	8230.55
498.082	8336.08
498.452	8504.66
498.821	8610.65
499.19	8717.99
499.559	8875.5
499.928	8989.85
500.298	9102.61
500.667	9282.04
501.036	9350.74
501.405	9519.1
501.774	9564.07
502.143	9654.69
502.512	9824.18
502.88	10018.52
503.249	10069.14
503.618	10206.31
503.987	10268.91
504.356	10447.21
504.724	10524.5
505.093	10635.91
505.462	10723.81
505.83	10855.34
506.199	11056.91
506.567	11160.64
506.936	11251.03
507.304	11384.36
507.672	11466.85
508.041	11519.95
508.409	11632.04
508.777	11746.16
509.145	11953.16
509.514	12024.12
509.882	12135.98
510.25	12171.46
510.618	12338.46
510.986	12354.51
511.354	12469.98
511.722	12662.75
512.09	12791.33
512.458	12825.45
512.826	12928.73
513.193	13012.34
513.561	13080.14
513.929	13182.73
514.297	13454.14
514.664	13500.24
515.032	13506.57
515.4	13595.6
515.767	13671.99
516.135	13809.16
516.502	13776.62
516.869	14006.67
517.237	14104.52
517.604	14109.49
517.972	14314.23
518.339	14279.65
518.706	14292.53
519.073	14436.26
519.44	14579.53
519.808	14648.23
520.175	14660.43
520.542	14883.25
520.909	14968.22
521.276	14939.07
521.643	15130.93
522.009	15176.35
522.376	15316.24
522.743	15415.22
523.11	15484.37
523.477	15589.9
523.843	15652.72
524.21	15917.8
524.577	15934.98
524.943	16027.63
525.31	16101.3
525.676	16139.26
526.043	16253.61
526.409	16329.99
526.776	16501.97
527.142	16518.69
527.508	16532.93
527.874	16728.4
528.241	16837.78
528.607	16814.28
528.973	16974.72
529.339	16967.72
529.705	17128.39
530.071	17149.86
530.437	17291.78
530.803	17287.03
531.169	17444.54
531.535	17334.71
531.901	17436.86
532.267	17447.03
532.632	17490.64
532.998	17639.34
533.364	17661.71
533.73	17729.05
534.095	17809.5
534.461	17899.44
534.826	17824.19
535.192	17953.91
535.557	18064.86
535.923	17976.28
536.288	18103.28
536.653	18147.35
537.019	18015.6
537.384	18083.62
537.749	18194.13
538.114	18176.73
538.479	18195.93
538.845	18269.15
539.21	18130.85
539.575	18243.84
539.94	18321.81
540.305	18375.14
540.67	18351.86
541.034	18351.41
541.399	18409.26
541.764	18390.96
542.129	18425.31
542.494	18506.89
542.858	18550.95
543.223	18463.27
543.587	18583.72
543.952	18580.33
544.316	18538.3
544.681	18672.98
545.045	18677.73
545.41	18671.18
545.774	18703.72
546.138	18681.57
546.503	18790.04
546.867	18700.33
547.231	18829.36
547.595	18780.78
547.959	18811.74
548.324	18831.62
548.688	18871.17
549.052	18906.65
549.416	18854.67
549.779	18893.99
550.143	19004.73
550.507	18990.49
550.871	19012.18
551.235	18937.61
551.599	19062.35
551.962	19039.75
552.326	19186.19
552.689	19134.44
553.053	19027.32
553.417	19076.81
553.78	19287.88
554.143	19202.24
554.507	19258.05
554.87	19172.86
555.234	19398.16
555.597	19353.19
555.96	19284.49
556.323	19401.33
556.686	19280.65
557.05	19437.03
557.413	19602
557.776	19452.62
558.139	19611.49
558.502	19628.44
558.865	19683.13
559.228	19812.39
559.59	19814.42
559.953	19802.67
560.316	19964.93
560.679	19864.82
561.041	20107.52
561.404	20153.4
561.767	20222.32
562.129	20063
562.492	20288.99
562.854	20264.81
563.217	20290.12
563.579	20388.64
563.941	20418.7
564.304	20456.67
564.666	20641.29
565.028	20555.87
565.39	20625.7
565.753	20715.42
566.115	20711.57
566.477	20791.8
566.839	20847.16
567.201	21011.45
567.563	20901.17
567.925	21105.91
568.287	21036.76
568.648	21038.57
569.01	21236.98
569.372	21319.47
569.734	21250.32
570.095	21351.78
570.457	21420.26
570.819	21410.31
571.18	21423.65
571.542	21437.66
571.903	21483.31
572.265	21632.45
572.626	21566.69
572.987	21744.54
573.349	21676.07
573.71	21817.99
574.071	21823.18
574.432	21880.13
574.794	22000.35
575.155	21923.07
575.516	21863.63
575.877	22044.19
576.238	22054.82
576.599	22149.73
576.96	22004.2
577.32	22142.72
577.681	22127.81
578.042	22205.77
578.403	22296.62
578.763	22314.24
579.124	22196.28
579.485	22289.16
579.845	22417.97
580.206	22216.62
580.566	22338.88
580.927	22352.66
581.287	22398.54
581.648	22361.7
582.008	22501.36
582.368	22456.39
582.728	22436.05
583.089	22350.4
583.449	22394.47
583.809	22466.1
584.169	22529.61
584.529	22428.59
584.889	22614.12
585.249	22322.15
585.609	22304.98
585.969	22524.86
586.329	22409.83
586.688	22484.41
587.048	22518.53
587.408	22458.19
587.768	22386.33
588.127	22366.67
588.487	22395.15
588.846	22486.22
589.206	22320.35
589.565	22302.72
589.925	22500
590.284	22385.65
590.643	22412.55
591.003	22510.85
591.362	22539.77
591.721	22474.01
592.08	22501.58
592.44	22513.79
592.799	22368.25
593.158	22410.06
593.517	22408.03
593.876	22388.14
594.235	22432.21
594.593	22442.6
594.952	22456.61
595.311	22382.04
595.67	22457.52
596.029	22703.39
596.387	22624.07
596.746	22617.06
597.104	22482.15
597.463	22454.13
597.822	22652.09
598.18	22551.3
598.538	22515.82
598.897	22555.59
599.255	22490.06
599.613	22761.24
599.972	22627.23
600.33	22671.97
600.688	22571.41
601.046	22645.31
601.404	22655.48
601.762	22642.82
602.12	22857.05
602.478	22739.77
602.836	22757.85
603.194	22621.13
603.552	22711.07
603.91	22653.22
604.268	22801.24
604.625	22744.51
604.983	22740.22
605.341	22592.65
605.698	22789.03
606.056	22862.03
606.413	22803.95
606.771	22864.06
607.128	22914.23
607.485	22803.27
607.843	22836.49
608.2	22944.96
608.557	23052.3
608.914	23018.41
609.272	23109.03
609.629	23077.61
609.986	23209.36
610.343	23121.23
610.7	23216.14
611.057	23320.77
611.414	23269.02
611.771	23175.92
612.127	23320.09
612.484	23317.61
612.841	23407.77
613.198	23318.74
613.554	23417.72
613.911	23482.35
614.267	23536.13
614.624	23450.03
614.98	23531.16
615.337	23656.36
615.693	23632.63
616.05	23624.49
616.406	23698.16
616.762	23630.14
617.118	23594.66
617.475	23724.38
617.831	23738.16
618.187	23692.74
618.543	23845.73
618.899	23837.14
619.255	23735.22
619.611	23767.31
619.967	23942
620.323	23882.34
620.678	23850.02
621.034	23850.47
621.39	23768.89
621.746	23737.48
622.101	24142.44
622.457	23939.74
622.812	24035.78
623.168	24074.2
623.523	23991.04
623.879	23983.58
624.234	23955.1
624.589	24036.01
624.945	23994.2
625.3	24080.98
625.655	23990.13
626.01	24136.57
626.365	24127.3
626.72	24108.09
627.075	24086.85
627.43	23953.75
627.785	24010.02
628.14	24032.84
628.495	23997.82
628.85	24054.09
629.205	23931.38
629.559	24134.31
629.914	23971.6
630.269	24058.38
630.623	24024.03
630.978	23920.08
631.332	24021.09
631.687	24081.2
632.041	23970.92
632.396	23933.86
632.75	23892.28
633.104	23886.86
633.459	23907.2
633.813	23819.29
634.167	23831.27
634.521	23684.6
634.875	23860.42
635.229	23687.77
635.583	23620.42
635.937	23657.71
636.291	23678.5
636.645	23712.85
636.999	23669.46
637.352	23639.86
637.706	23544.72
638.06	23647.54
638.413	23535
638.767	23582.01
639.121	23569.58
639.474	23457.49
639.828	23492.74
640.181	23461.78
640.534	23606.41
640.888	23489.81
641.241	23396.7
641.594	23415.01
641.947	23485.74
642.301	23380.2
642.654	23406.19
643.007	23328.68
643.36	23416.59
643.713	23272.18
644.066	23400.09
644.419	23246.87
644.771	23162.13
645.124	22871.29
645.477	22862.48
645.83	22720.33
646.182	22580.9
646.535	22574.8
646.888	22619.09
647.24	22489.38
647.593	22601.92
647.945	22671.07
648.298	22508.36
648.65	22380
649.002	22346.33
649.355	22612.32
649.707	22423.62
650.059	22468.14
650.411	22801.24
650.763	22841.46
651.115	23039.87
651.467	22906.54
651.819	22973.66
652.171	22870.84
652.523	22811.18
652.875	22854.79
653.227	22798.98
653.578	22974.79
653.93	22937.28
654.282	22858.64
654.633	22803.27
654.985	22793.1
655.337	22843.95
655.688	22931.63
656.039	22983.6
656.391	22768.92
656.742	22900.67
657.094	22781.12
657.445	22899.31
657.796	22908.35
658.147	22846.21
658.498	22872.65
658.849	22962.36
659.2	22918.97
659.551	22809.37
659.902	22880.1
660.253	22871.97
660.604	22983.15
660.955	22826.32
661.306	22788.36
661.656	22938.18
662.007	22830.39
662.358	22885.75
662.708	22867
663.059	22887.56
663.409	22749.49
663.76	22963.04
664.11	22973.21
664.461	22935.92
664.811	22874.68
665.161	22892.08
665.511	22836.26
665.862	22895.02
666.212	22895.92
666.562	22836.94
666.912	22798.75
667.262	22825.87
667.612	22811.86
667.962	22853.44
668.312	22783.61
668.662	22880.1
669.011	22751.29
669.361	22720.79
669.711	22759.43
670.06	22731.18
670.41	22660.22
670.76	22788.13
671.109	22793.1
671.459	22710.84
671.808	22714.01
672.157	22681.92
672.507	22643.95
672.856	22628.13
673.205	22632.65
673.554	22810.5
673.904	22703.61
674.253	22758.75
674.602	22650.51
674.951	22282.61
675.3	22125.55
675.649	22519.89
675.998	22439.66
676.346	22557.4
676.695	22632.43
677.044	22471.53
677.393	22520.34
677.741	22522.37
678.09	22382.49
678.438	22319.44
678.787	22500.91
679.135	22414.13
679.484	22261.82
679.832	22341.36
680.181	22138.88
680.529	22296.62
680.877	22278.99
681.225	22129.16
681.573	22344.98
681.922	22146.56
682.27	22029.05
682.618	22026.57
682.966	21954.03
683.314	21998.77
683.661	21845.78
684.009	21824.99
684.357	21857.76
684.705	21759.46
685.053	21790.42
685.4	21662.28
685.748	21606.92
686.095	21574.6
686.443	21550.65
686.79	21600.59
687.138	21631.55
687.485	21470.42
687.832	21470.42
688.18	21398.56
688.527	21296.87
688.874	21378.45
689.221	21326.7
689.568	21283.76
689.915	21122.64
690.262	21182.75
690.609	21103.43
690.956	21008.06
691.303	20921.29
691.65	20859.59
691.997	20922.19
692.344	20670.45
692.69	20794.96
693.037	20639.94
693.383	20466.38
693.73	20591.58
694.077	20473.84
694.423	20408.76
694.769	20370.79
695.116	20230.46
695.462	20270.46
695.808	20136
696.155	20218.93
696.501	20120.63
696.847	20099.16
697.193	19912.5
697.539	19983.46
697.885	19816
698.231	19742.56
698.577	19803.35
698.923	19747.76
699.269	19562.9
699.614	19454.21
699.96	19450.59
700.306	19387.77
700.651	19317.94
700.997	19331.95
701.342	19262.57
701.688	19135.8
702.033	19014.22
702.379	19134.89
702.724	19054.89
703.069	19124.27
703.415	18847.44
703.76	18899.87
704.105	18812.64
704.45	18806.31
704.795	18692.64
705.14	18594.34
705.485	18611.52
705.83	18456.72
706.175	18613.78
706.52	18519.99
706.865	18372.88
707.209	18337.17
707.554	18372.88
707.899	18256.27
708.243	18211.53
708.588	18185.76
708.932	18054.47
709.277	18055.82
709.621	18085.2
709.966	18014.92
710.31	17994.81
710.654	17865.77
710.998	17909.39
711.342	17841.14
711.687	17740.58
712.031	17642.73
712.375	17705.33
712.719	17673.46
713.063	17547.36
713.407	17605.67
713.75	17522.05
714.094	17494.26
714.438	17431.43
714.782	17517.99
715.125	17341.95
715.469	17401.83
715.812	17238.22
716.156	17283.87
716.499	17290.42
716.843	17228.5
717.186	17076.19
717.53	17302.17
717.873	17189.41
718.216	17182.4
718.559	17087.04
718.902	17011.33
719.246	17057.88
719.589	16919.58
719.932	16855.18
720.275	16912.58
720.617	16913.71
720.96	16955.97
721.303	16731.11
721.646	16854.73
721.989	16676.65
722.331	16893.37
722.674	16764.56
723.016	16734.5
723.359	16735.63
723.701	16727.72
724.044	16597.11
724.386	16560.04
724.729	16709.19
725.071	16640.72
725.413	16620.61
725.755	16620.83
726.097	16526.37
726.439	16472.59
726.782	16394.63
727.124	16527.5
727.465	16403.66
727.807	16409.54
728.149	16355.98
728.491	16336.1
728.833	16320.5
729.175	16245.48
729.516	16283.22
729.858	16271.92
730.199	16350.33
730.541	16261.97
730.882	16225.36
731.224	16252.71
731.565	16193.27
731.906	16217
732.248	16174.74
732.589	16157.8
732.93	16053.17
733.271	16145.14
733.612	16137.68
733.953	16143.33
734.294	16096.33
734.635	16088.64
734.976	16170.45
735.317	16057.23
735.658	16004.13
735.999	16035.76
736.339	15993.51
736.68	16121.64
737.021	16020.17
737.361	16062.88
737.702	16194.63
738.042	16083.45
738.383	16001.64
738.723	16049.55
739.063	15984.92
739.404	15977.91
739.744	16018.14
740.084	15903.34
740.424	15967.52
740.764	16008.65
741.104	15977.01
741.444	15938.14
741.784	15867.86
742.124	15980.63
742.464	15960.06
742.804	15972.04
743.143	15949.67
743.483	16033.28
743.823	15859.27
744.162	15938.37
744.502	16047.06
744.841	16011.81
745.181	16060.17
745.52	16017.01
745.86	16150.11
746.199	16163.9
746.538	16077.57
746.877	16114.86
747.216	16250.45
747.556	16176.78
747.895	16212.26
748.234	16218.13
748.573	16242.54
748.911	16300.84
749.25	16428.97
749.589	16327.51
749.928	16400.95
750.267	16413.16
750.605	16471.01
750.944	16506.94
751.283	16513.04
751.621	16613.6
751.96	16621.51
752.298	16722.75
752.636	16738.57
752.975	16705.13
753.313	16796.2
753.651	16900.83
753.989	16966.59
754.327	16931.33
754.666	17048.17
755.004	17153.02
755.342	17214.94
755.679	17273.25
756.017	17198.67
756.355	17362.96
756.693	17399.8
757.031	17472.34
757.368	17524.99
757.706	17626.91
758.044	17583.75
758.381	17797.98
758.719	17808.6
759.056	17857.19
759.394	17974.7
759.731	17981.7
760.068	18078.2
760.405	18044.98
760.743	18122.04
761.08	18181.92
761.417	18211.98
761.754	18250.62
762.091	18374.46
762.428	18338.08
762.765	18363.84
763.102	18480.22
763.438	18505.53
763.775	18461.92
764.112	18583.72
764.449	18713.21
764.785	18640.89
765.122	18508.47
765.458	18694.68
765.795	18722.47
766.131	18867.55
766.467	18777.61
766.804	18690.38
767.14	18685.41
767.476	18833.21
767.812	18822.58
768.148	18927.44
768.485	18792.3
768.821	18736.26
769.157	18809.48
769.492	18862.13
769.828	18905.52
770.164	18688.35
770.5	18701.23
770.836	18781.46
771.171	18770.38
771.507	18718.41
771.842	18719.99
772.178	18711.63
772.513	18686.54
772.849	18675.92
773.184	18687.45
773.519	18705.53
773.855	18588.01
774.19	18628.92
774.525	18485.64
774.86	18611.74
775.195	18545.53
775.53	18507.56
775.865	18438.87
776.2	18388.92
776.535	18234.8
776.87	18287.01
777.205	18291.98
777.539	18190.51
777.874	18320.68
778.209	18139.21
778.543	18191.19
778.878	18030.51
779.212	18062.15
779.547	17966.79
779.881	18067.8
780.215	17882.5
780.55	17928.6
780.884	17890.86
781.218	17809.73
781.552	17795.27
781.886	17690.86
782.22	17719.34
782.554	17581.03
782.888	17444.99
783.222	17431.43
783.556	17301.72
783.889	17379.01
784.223	17248.61
784.557	17227.15
784.89	17226.47
785.224	17117.77
785.557	17138.33
785.891	17114.15
786.224	17026.25
786.558	17026.47
786.891	16792.81
787.224	16763.88
787.557	16892.24
787.891	16759.36
788.224	16727.27
788.557	16697.67
788.89	16603.66
789.223	16714.62
789.556	16524.57
789.888	16595.52
790.221	16489.31
790.554	16333.84
790.887	16334.29
791.219	16345.14
791.552	16184.46
791.884	16169.77
792.217	16100.4
792.549	16193.5
792.882	16042.54
793.214	15906.5
793.546	15997.35
793.879	15874.41
794.211	15805.94
794.543	15858.14
794.875	15758.03
795.207	15835.77
795.539	15742.21
795.871	15630.35
796.203	15567.53
796.535	15495.89
796.867	15413.63
797.198	15387.42
797.53	15383.13
797.862	15333.18
798.193	15318.72
798.525	15208.89
798.856	15186.52
799.188	15193.53
799.519	15047.32
799.85	14920.54
800.182	15002.12
800.513	15033.98
800.844	14866.3
801.175	14912.4
801.506	14834.44
801.837	14786.31
802.168	14697.49
802.499	14676.03
802.83	14625.18
803.161	14573.2
803.491	14603.49
803.822	14560.78
804.153	14476.03
804.483	14373.89
804.814	14448.46
805.145	14366.43
805.475	14366.43
805.805	14300.67
806.136	14319.2
806.466	14297.28
806.796	14230.16
807.126	14125.76
807.457	14109.94
807.787	14127.11
808.117	14078.08
808.447	14057.51
808.777	13997.4
809.107	13960.11
809.436	13890.28
809.766	13911.53
810.096	13824.75
810.426	13804.64
810.755	13869.49
811.085	13791.76
811.414	13735.94
811.744	13575.04
812.073	13574.36
812.403	13662.95
812.732	13481.71
813.061	13453.46
813.39	13398.55
813.719	13387.47
814.049	13463.86
814.378	13414.59
814.707	13333.91
815.036	13278.1
815.365	13276.52
815.693	13186.8
816.022	13146.12
816.351	13192.68
816.68	13043.53
817.008	13122.17
817.337	13036.07
817.665	12967.82
817.994	13091.89
818.322	12945.45
818.651	12881.72
818.979	12834.04
819.307	12995.17
819.636	12930.76
819.964	12777.09
820.292	12902.74
820.62	12859.58
820.948	12735.51
821.276	12822.52
821.604	12776.19
821.932	12738.22
822.259	12801.27
822.587	12763.53
822.915	12668.17
823.243	12753.82
823.57	12734.16
823.898	12747.04
824.225	12651.22
824.553	12632.92
824.88	12708.85
825.207	12703.65
825.535	12668.62
825.862	12640.6
826.189	12694.38
826.516	12828.39
826.843	12841.27
827.17	12752.46
827.497	12806.02
827.824	12705.23
828.151	12719.47
828.478	12684.89
828.805	12705.23
829.131	12640.83
829.458	12699.13
829.785	12695.06
830.111	12674.72
830.438	12774.16
830.764	12686.93
831.09	12712.01
831.417	12651.22
831.743	12626.36
832.069	12618.91
832.395	12535.97
832.722	12698.23
833.048	12642.18
833.374	12594.95
833.7	12552.47
834.026	12602.41
834.351	12610.77
834.677	12650.54
835.003	12581.17
835.329	12590.21
835.654	12573.03
835.98	12436.09
836.306	12516.99
836.631	12436.76
836.956	12488.74
837.282	12479.02
837.607	12451
837.932	12390.89
838.258	12450.32
838.583	12354.73
838.908	12279.25
839.233	12351.57
839.558	12343.88
839.883	12236.32
840.208	12172.36
840.533	12264.11
840.858	12228.41
841.182	12171.23
841.507	12144.12
841.832	12161.29
842.156	12155.87
842.481	12027.73
842.805	12086.94
843.13	11988.64
843.454	12004.91
843.778	11991.13
844.103	11897.57
844.427	11880.17
844.751	11898.92
845.075	11899.38
845.399	11796.78
845.723	11693.05
846.047	11822.32
846.371	11704.58
846.695	11687.63
847.019	11572.83
847.343	11506.62
847.666	11488.99
847.99	11423.91
848.313	11489.44
848.637	11361.99
848.96	11367.41
849.284	11321.99
849.607	11125.61
849.931	11208.32
850.254	11143.92
850.577	11086.74
850.9	10978.5
851.223	10982.34
851.546	10977.59
851.869	10872.74
852.192	10910.7
852.515	10820.53
852.838	10811.5
853.161	10765.39
853.483	10721.33
853.806	10659.41
854.129	10677.04
854.451	10584.38
854.774	10520.43
855.096	10526.31
855.419	10490.83
855.741	10461.45
856.063	10388.68
856.385	10392.07
856.708	10368.8
857.03	10410.38
857.352	10329.93
857.674	10341.23
857.996	10300.32
858.318	10228.01
858.64	10232.98
858.961	10206.54
859.283	10108.24
859.605	10066.2
859.926	10127.67
860.248	10082.02
860.57	10084.73
860.891	10061.23
861.212	9992.08
861.534	9957.96
861.855	9969.48
862.176	9921.58
862.498	9912.31
862.819	9920.22
863.14	9866.44
863.461	9814.01
863.782	9822.37
864.103	9807.91
864.424	9828.47
864.745	9747.34
865.065	9821.69
865.386	9684.29
865.707	9691.98
866.027	9722.26
866.348	9688.14
866.668	9710.28
866.989	9643.62
867.309	9545.77
867.63	9560.23
867.95	9573.34
868.27	9524.07
868.59	9593
868.91	9564.3
869.23	9503.28
869.55	9470.29
869.87	9502.83
870.19	9473.45
870.51	9489.04
870.83	9404.98
871.15	9414.92
871.469	9409.72
871.789	9379.44
872.109	9414.92
872.428	9312.1
872.748	9398.65
873.067	9337.41
873.386	9381.02
873.706	9270.29
874.025	9280.91
874.344	9246.56
874.663	9329.27
874.982	9252.21
875.301	9292.21
875.62	9212.89
875.939	9199.56
876.258	9189.62
876.577	9180.35
876.896	9157.53
877.214	9115.49
877.533	9190.75
877.852	9112.56
878.17	9080.92
878.489	9156.4
878.807	9073.69
879.125	9063.52
879.444	9058.1
879.762	9002.28
880.08	8997.76
880.398	8994.14
880.716	9003.41
881.034	8927.48
881.352	8920.92
881.67	8916.86
881.988	8972.45
882.306	8833.92
882.624	8817.88
882.941	8821.94
883.259	8782.4
883.577	8839.8
883.894	8735.84
884.212	8734.04
884.529	8724.54
884.846	8731.1
885.164	8657.43
885.481	8659.46
885.798	8674.83
886.115	8651.1
886.432	8600.48
886.75	8562.74
887.067	8576.53
887.383	8594.15
887.7	8549.86
888.017	8477.09
888.334	8515.28
888.651	8454.04
888.967	8458.11
889.284	8351
889.6	8410.88
889.917	8339.02
890.233	8373.82
890.55	8268.74
890.866	8312.58
891.182	8325.91
891.498	8254.05
891.815	8211.79
892.131	8251.11
892.447	8167.27
892.763	8153.03
893.079	8153.71
893.395	8116.88
893.71	8025.35
894.026	8060.61
894.342	8071.45
894.657	8009.31
894.973	7935.41
895.289	7980.38
895.604	7966.15
895.92	7899.71
896.235	7839.82
896.55	7866.04
896.865	7824
897.181	7787.39
897.496	7819.03
897.811	7724.57
898.126	7768.19
898.441	7708.75
898.756	7680.5
899.071	7602.99
899.386	7624.91
899.7	7548.08
900.015	7581.3
900.33	7499.04
900.644	7416.33
900.959	7463.56
901.273	7456.1
901.588	7445.26
901.902	7371.81
902.216	7353.06
902.531	7340.85
902.845	7316.67
903.159	7284.58
903.473	7258.14
903.787	7160.52
904.101	7185.6
904.415	7206.84
904.729	7139.95
905.042	7099.5
905.356	7085.72
905.67	7097.69
905.984	7070.58
906.297	7062.89
906.611	6990.35
906.924	6912.61
907.237	6948.55
907.551	6879.85
907.864	6876.68
908.177	6863.8
908.491	6858.38
908.804	6802.34
909.117	6764.37
909.43	6797.36
909.743	6722.34
910.056	6733.41
910.368	6689.8
910.681	6593.75
910.994	6606.63
911.307	6610.93
911.619	6557.6
911.932	6510.59
912.244	6468.78
912.557	6512.4
912.869	6463.81
913.181	6421.1
913.494	6413.87
913.806	6417.94
914.118	6383.82
914.43	6298.62
914.742	6340.65
915.054	6286.87
915.366	6271.5
915.678	6273.76
915.99	6208.45
916.302	6193.09
916.613	6170.49
916.925	6151.73
917.236	6099.53
917.548	6061.79
917.859	6058.63
918.171	6055.01
918.482	6009.59
918.794	5952.87
919.105	5991.74
919.416	5923.71
919.727	5939.31
920.038	5857.05
920.349	5866.77
920.66	5849.37
920.971	5828.12
921.282	5781.8
921.593	5768.24
921.903	5763.49
922.214	5711.29
922.525	5685.98
922.835	5669.94
923.146	5618.41
923.456	5624.74
923.767	5568.7
924.077	5624.97
924.387	5568.24
924.697	5528.7
925.008	5478.3
925.318	5454.35
925.628	5503.39
925.938	5435.59
926.248	5408.47
926.558	5409.83
926.867	5420.68
927.177	5311.3
927.487	5313.11
927.796	5262.49
928.106	5280.57
928.416	5258.2
928.725	5290.06
929.034	5233.11
929.344	5234.92
929.653	5193.34
929.962	5132.1
930.271	5140.23
930.581	5082.15
930.89	5088.71
931.199	5030.63
931.508	5046.68
931.817	5003.74
932.125	4975.94
932.434	4996.73
932.743	4935.94
933.051	4903.4
933.36	4918.99
933.669	4915.38
933.977	4917.19
934.286	4899.56
934.594	4853.01
934.902	4842.61
935.21	4789.05
935.519	4786.12
935.827	4756.74
936.135	4737.98
936.443	4695.72
936.751	4724.42
937.059	4634.93
937.367	4632
937.674	4627.48
937.982	4639
938.29	4646.69
938.597	4582.73
938.905	4542.96
939.213	4537.31
939.52	4490.53
939.827	4513.36
940.135	4484.66
940.442	4481.27
940.749	4460.48
941.056	4431.32
941.363	4369.86
941.67	4405.11
941.977	4339.8
942.284	4349.07
942.591	4303.42
942.898	4330.99
943.205	4320.59
943.511	4224.55
943.818	4264.1
944.125	4220.26
944.431	4232.69
944.738	4217.54
945.044	4191.1
945.35	4177.77
945.657	4128.73
945.963	4129.86
946.269	4095.97
946.575	4136.87
946.881	4079.47
947.187	4074.95
947.493	4019.13
947.799	4033.59
948.105	4044.22
948.41	4004.44
948.716	4003.54
949.022	3942.3
949.327	3993.37
949.633	3932.13
949.938	3884.9
950.244	3905.91
950.549	3845.12
950.854	3875.41
951.16	3849.64
951.465	3832.92
951.77	3820.04
952.075	3769.42
952.38	3781.62
952.685	3791.12
952.99	3738.01
953.294	3777.78
953.599	3740.49
953.904	3650.1
954.209	3690.78
954.513	3684.45
954.818	3688.29
955.122	3661.85
955.426	3653.27
955.731	3597.22
956.035	3602.19
956.339	3592.93
956.643	3585.7
956.948	3563.78
957.252	3521.29
957.556	3550.9
957.86	3483.78
958.163	3505.7
958.467	3471.58
958.771	3438.13
959.075	3448.07
959.378	3450.56
959.682	3438.58
959.985	3408.3
960.289	3391.35
960.592	3397.91
960.896	3392.93
961.199	3369.21
961.502	3333.27
961.805	3347.51
962.108	3312.26
962.411	3368.08
962.714	3257.57
963.017	3241.98
963.32	3259.15
963.623	3244.91
963.926	3236.1
964.228	3176.67
964.531	3149.55
964.833	3166.5
965.136	3149.78
965.438	3125.6
965.741	3121.3
966.043	3137.57
966.345	3138.25
966.648	3112.04
966.95	3090.79
967.252	3019.38
967.554	3067.74
967.856	3069.55
968.158	3028.42
968.46	3048.54
968.761	3005.82
969.063	3017.12
969.365	2962.89
969.666	2971.25
969.968	2964.7
970.269	2914.98
970.571	2926.28
970.872	2905.71
971.174	2910.46
971.475	2899.61
971.776	2917.47
972.077	2887.41
972.378	2845.83
972.679	2838.15
972.98	2824.59
973.281	2801.31
973.582	2850.12
973.883	2784.36
974.183	2768.09
974.484	2762.67
974.785	2763.12
975.085	2781.42
975.386	2725.15
975.686	2723.35
975.986	2762.89
976.287	2685.61
976.587	2661.88
976.887	2624.82
977.187	2667.08
977.487	2680.18
977.787	2626.63
978.087	2640.18
978.387	2608.1
978.687	2613.52
978.987	2579.62
979.286	2567.19
979.586	2610.36
979.885	2554.54
980.185	2559.06
980.484	2551.15
980.784	2531.04
981.083	2556.35
981.382	2484.26
981.682	2474.09
981.981	2466.18
982.28	2461.21
982.579	2469.34
982.878	2490.81
983.177	2472.51
983.475	2441.09
983.774	2427.31
984.073	2398.61
984.372	2351.38
984.67	2400.42
984.969	2395.45
985.267	2396.58
985.566	2338.72
985.864	2357.93
986.162	2373.07
986.461	2319.52
986.759	2312.96
987.057	2312.06
987.355	2283.58
987.653	2298.05
987.951	2288.56
988.249	2279.52
988.547	2281.1
988.844	2257.37
989.142	2235
989.44	2200.2
989.737	2212.17
990.035	2178.5
990.332	2197.03
990.63	2202
990.927	2171.27
991.224	2164.94
991.521	2164.72
991.819	2145.73
992.116	2146.41
992.413	2129.01
992.71	2089.24
993.006	2120.65
993.303	2136.92
993.6	2096.47
993.897	2101.67
994.193	2087.88
994.49	2050.37
994.787	2033.65
995.083	2044.72
995.379	2030.94
995.676	2018.05
995.972	2018.28
996.268	2014.21
996.565	1989.81
996.861	1996.13
997.157	1985.96
997.453	1972.63
997.749	1967.21
998.044	1956.14
998.34	1984.16
998.636	1912.97
998.932	1904.38
999.227	1889.02
999.523	1938.73
999.818	1882.46
1000.114	1858.74
1000.409	1879.53
1000.704	1840.88
1001	1837.04
1001.295	1839.53
1001.59	1849.92
1001.885	1842.47
1002.18	1779.87
1002.475	1789.36
1002.77	1820.32
1003.065	1790.72
1003.359	1775.12
1003.654	1757.27
1003.949	1771.51
1004.243	1715.01
1004.538	1726.31
1004.832	1741.45
1005.127	1726.76
1005.421	1705.29
1005.715	1694.45
1006.009	1706.42
1006.304	1687.67
1006.598	1656.26
1006.892	1654
1007.186	1640.44
1007.48	1632.75
1007.773	1630.72
1008.067	1645.86
1008.361	1610.16
1008.655	1601.57
1008.948	1635.01
1009.242	1581.68
1009.535	1569.93
1009.829	1584.17
1010.122	1566.99
1010.415	1570.61
1010.708	1536.03
1011.001	1530.84
1011.295	1534.9
1011.588	1569.93
1011.881	1539.42
1012.173	1491.29
1012.466	1518.86
1012.759	1517.95
1013.052	1472.08
1013.344	1475.02
1013.637	1500.55
1013.93	1470.05
1014.222	1432.31
1014.514	1423.95
1014.807	1442.48
1015.099	1401.57
1015.391	1408.58
1015.683	1414
1015.976	1405.87
1016.268	1394.79
1016.56	1375.81
1016.851	1363.61
1017.143	1372.2
1017.435	1357.05
1017.727	1352.99
1018.018	1347.56
1018.31	1352.54
1018.602	1338.75
1018.893	1315.93
1019.185	1300.33
1019.476	1301.69
1019.767	1318.64
1020.058	1296.72
1020.35	1273.67
1020.641	1264.18
1020.932	1268.7
1021.223	1268.47
1021.514	1237.74
1021.804	1235.93
1022.095	1219.21
1022.386	1244.74
1022.677	1191.41
1022.967	1209.94
1023.258	1221.24
1023.548	1222.37
1023.839	1202.71
1024.129	1166.55
1024.419	1148.92
1024.709	1174.46
1025	1187.79
1025.29	1147.34
1025.58	1143.5
1025.87	1138.76
1026.16	1124.29
1026.449	1135.59
1026.739	1116.16
1027.029	1105.54
1027.319	1117.51
1027.608	1098.3
1027.898	1091.98
1028.187	1079.77
1028.477	1076.84
1028.766	1064.86
1029.055	1063.5
1029.344	1046.33
1029.634	1057.85
1029.923	1054.92
1030.212	1029.83
1030.501	1046.1
1030.79	1040.9
1031.078	1009.27
1031.367	1017.18
1031.656	1002.94
1031.945	1003.84
1032.233	960.91
1032.522	982.38
1032.81	1009.72
1033.099	993.67
1033.387	984.86
1033.675	984.18
1033.963	969.04
1034.251	955.26
1034.54	968.59
1034.828	947.35
1035.116	927.69
1035.403	943.05
1035.691	899.44
1035.979	923.85
1036.267	930.85
1036.554	904.86
1036.842	913.68
1037.129	887.46
1037.417	895.37
1037.704	918.2
1037.992	867.58
1038.279	875.71
1038.566	890.4
1038.853	890.4
1039.14	890.4
