Data from hue_28_FLMS001491_00009.txt Node
Date: Tue Feb 07 17:16:48 GMT 2017
User: dcchb
Spectrometer: FLMS00149
Trigger mode: 0
Integration Time (sec): 2.000000E-2
Scans to average: 10
Electric dark correction enabled: true
Nonlinearity correction enabled: false
Boxcar width: 0
XAxis mode: Wavelengths
Number of Pixels in Spectrum: 2048
>>>>>Begin Spectral Data<<<<<
341.393	-11.33
341.776	-11.33
342.16	-11.33
342.543	-70.31
342.927	-57.88
343.31	-60.82
343.693	-75.28
344.077	-75.73
344.46	-61.72
344.843	-56.98
345.226	-23.3
345.61	-33.93
345.993	-21.5
346.376	1.55
346.759	10.82
347.142	23.93
347.525	41.55
347.908	52.17
348.291	74.77
348.674	96.69
349.057	107.77
349.44	129.69
349.823	144.37
350.206	171.27
350.588	183.24
350.971	218.5
351.354	214.88
351.737	231.15
352.119	254.43
352.502	260.98
352.884	286.97
353.267	292.62
353.65	296.01
354.032	303.92
354.414	331.04
354.797	307.31
355.179	314.09
355.562	334.2
355.944	335.1
356.326	339.17
356.709	326.52
357.091	339.4
357.473	340.75
357.855	352.73
358.238	351.37
358.62	328.78
359.002	318.83
359.384	338.04
359.766	332.84
360.148	335.78
360.53	351.83
360.912	337.14
361.294	335.56
361.676	357.7
362.057	320.19
362.439	345.95
362.821	329.91
363.203	350.7
363.584	357.25
363.966	322.68
364.348	320.64
364.729	339.17
365.111	339.4
365.493	350.92
365.874	313.86
366.256	317.7
366.637	306.18
367.019	336.01
367.4	318.16
367.781	309.34
368.163	313.18
368.544	338.27
368.925	330.58
369.306	350.02
369.688	322.9
370.069	319.06
370.45	330.58
370.831	324.03
371.212	320.64
371.593	314.31
371.974	333.97
372.355	323.58
372.736	323.35
373.117	323.13
373.498	308.21
373.879	334.88
374.26	313.18
374.641	337.59
375.021	330.81
375.402	328.1
375.783	350.25
376.163	333.52
376.544	350.47
376.925	354.09
377.305	318.16
377.686	333.3
378.066	320.42
378.447	350.92
378.827	349.79
379.208	345.95
379.588	333.3
379.968	330.36
380.349	338.95
380.729	344.6
381.109	338.49
381.489	363.35
381.87	339.85
382.25	361.32
382.63	340.75
383.01	352.05
383.39	353.41
383.77	359.28
384.15	361.54
384.53	362.45
384.91	328.78
385.29	359.96
385.67	349.79
386.049	370.13
386.429	366.74
386.809	355.44
387.189	377.59
387.568	372.17
387.948	358.38
388.328	369.23
388.707	364.03
389.087	375.56
389.466	371.94
389.846	394.54
390.225	354.99
390.605	376.69
390.984	394.99
391.363	361.54
391.743	386.63
392.122	405.84
392.501	385.5
392.881	375.56
393.26	388.44
393.639	404.25
394.018	378.72
394.397	397.48
394.776	380.98
395.155	395.22
395.534	381.2
395.913	400.87
396.292	415.55
396.671	393.86
397.05	395.89
397.429	399.96
397.808	378.72
398.186	383.92
398.565	394.76
398.944	397.93
399.323	401.32
399.701	414.2
400.08	422.56
400.458	420.3
400.837	423.01
401.215	417.81
401.594	426.85
401.972	425.95
402.351	435.67
402.729	418.04
403.107	423.24
403.486	395.22
403.864	419.4
404.242	427.98
404.62	430.69
404.999	440.19
405.377	447.87
405.755	439.06
406.133	446.29
406.511	430.92
406.889	447.64
407.267	466.63
407.645	437.7
408.023	448.77
408.401	431.37
408.779	455.55
409.156	461.65
409.534	483.8
409.912	466.63
410.29	466.63
410.667	487.42
411.045	490.13
411.422	474.54
411.8	503.69
412.178	491.71
412.555	497.36
412.933	483.8
413.31	522.44
413.687	507.98
414.065	498.26
414.442	509.56
414.819	508.21
415.197	513.4
415.574	517.92
415.951	518.38
416.328	530.81
416.705	540.97
417.082	554.76
417.46	519.05
417.837	531.94
418.214	514.53
418.591	542.78
418.967	550.47
419.344	550.47
419.721	555.21
420.098	566.28
420.475	550.69
420.852	575.1
421.228	559.96
421.605	557.7
421.982	563.35
422.358	566.28
422.735	571.93
423.111	606.74
423.488	589.56
423.864	591.82
424.241	606.74
424.617	601.76
424.994	608.32
425.37	600.86
425.746	608.32
426.123	611.48
426.499	623.68
426.875	644.7
427.251	621.88
427.627	633.85
428.003	654.64
428.379	628.2
428.756	652.38
429.132	651.71
429.507	682.89
429.883	665.49
430.259	660.75
430.635	680.63
431.011	671.82
431.387	680.18
431.763	724.25
432.138	692.38
432.514	703.23
432.89	723.57
433.265	701.2
433.641	732.61
434.016	734.64
434.392	752.49
434.767	752.72
435.143	768.99
435.518	734.87
435.894	765.83
436.269	795.88
436.644	764.25
437.02	760.63
437.395	790.23
437.77	789.56
438.145	794.98
438.52	801.31
438.895	809.89
439.271	813.51
439.646	827.07
440.021	824.13
440.395	830.01
440.77	838.37
441.145	844.47
441.52	871.14
441.895	853.28
442.27	842.66
442.645	859.38
443.019	866.62
443.394	886.73
443.769	878.59
444.143	865.49
444.518	887.86
444.892	891.7
445.267	891.93
445.641	887.86
446.016	902.09
446.39	918.82
446.764	915.88
447.139	910.68
447.513	913.85
447.887	941.87
448.262	952.49
448.636	933.96
449.01	930.57
449.384	949.1
449.758	950.91
450.132	949.55
450.506	978.48
450.88	960.4
451.254	972.83
451.628	1008.08
452.002	1014.41
452.376	1019.38
452.75	1028.87
453.123	1009.66
453.497	1017.57
453.871	1005.6
454.244	1044.46
454.618	1069.55
454.992	1056.67
455.365	1065.25
455.739	1100.96
456.112	1084.01
456.486	1123.33
456.859	1135.54
457.232	1141.18
457.606	1146.83
457.979	1143.67
458.352	1188.64
458.725	1208.08
459.099	1203.1
459.472	1207.85
459.845	1220.96
460.218	1235.87
460.591	1243.33
460.964	1228.87
461.337	1277.45
461.71	1268.19
462.083	1314.97
462.456	1317
462.829	1306.15
463.201	1331.46
463.574	1341.86
463.947	1380.5
464.32	1405.81
464.692	1421.63
465.065	1436.09
465.438	1432.93
465.81	1461.63
466.183	1475.19
466.555	1473.38
466.928	1509.31
467.3	1508.41
467.672	1516.09
468.045	1565.81
468.417	1562.19
468.789	1589.31
469.161	1609.19
469.534	1647.39
469.906	1682.19
470.278	1653.04
470.65	1675.63
471.022	1745.91
471.394	1781.39
471.766	1788.85
472.138	1807.16
472.51	1839.7
472.882	1850.54
473.253	1890.09
473.625	1912.69
473.997	1949.07
474.369	1990.2
474.74	1970.32
475.112	2011.44
475.484	2068.84
475.855	2117.66
476.227	2168.05
476.598	2187.03
476.97	2195.62
477.341	2253.92
477.713	2321.49
478.084	2318.33
478.455	2394.94
478.827	2418.67
479.198	2490.3
479.569	2494.37
479.94	2576.4
480.311	2591.32
480.682	2639.45
481.053	2735.49
481.424	2763.06
481.795	2778.43
482.166	2818.88
482.537	2905.88
482.908	3013
483.279	2998.31
483.65	3052.09
484.021	3143.39
484.391	3147.69
484.762	3229.49
485.133	3255.71
485.503	3334.57
485.874	3437.85
486.244	3428.36
486.615	3523.04
486.985	3607.11
487.356	3651.18
487.726	3693.89
488.097	3782.92
488.467	3803.49
488.837	3912.19
489.207	3933.43
489.578	3985.4
489.948	4080.54
490.318	4117.6
490.688	4139.52
491.058	4232.63
491.428	4294.1
491.798	4294.32
492.168	4445.28
492.538	4459.29
492.908	4526.18
493.278	4576.35
493.648	4606.18
494.017	4674.65
494.387	4750.58
494.757	4772.28
495.126	4847.08
495.496	4828.77
495.866	4929.56
496.235	4986.51
496.605	5021.76
496.974	5057.92
497.344	5112.61
497.713	5127.29
498.082	5191.02
498.452	5293.62
498.821	5301.08
499.19	5347.85
499.559	5344.24
499.928	5445.93
500.298	5461.3
500.667	5489.32
501.036	5517.11
501.405	5618.81
501.774	5588.98
502.143	5666.94
502.512	5707.62
502.88	5749.65
503.249	5747.39
503.618	5833.49
503.987	5850.21
504.356	5912.81
504.724	5882.75
505.093	5949.65
505.462	5980.38
505.83	6017.67
506.199	6094.5
506.567	6150.09
506.936	6087.27
507.304	6163.43
507.672	6197.32
508.041	6250.43
508.409	6289.07
508.777	6278.22
509.145	6417.2
509.514	6429.41
509.882	6444.32
510.25	6464.66
510.618	6458.33
510.986	6526.13
511.354	6539.91
511.722	6588.95
512.09	6710.98
512.458	6692.23
512.826	6670.53
513.193	6728.83
513.561	6823.07
513.929	6828.49
514.297	6917.08
514.664	6900.36
515.032	6903.75
515.4	6975.83
515.767	6990.75
516.135	7037.07
516.502	6975.61
516.869	7098.99
517.237	7142.83
517.604	7075.72
517.972	7168.37
518.339	7160.46
518.706	7199.33
519.073	7249.95
519.44	7281.36
519.808	7378.76
520.175	7355.71
520.542	7438.42
520.909	7431.41
521.276	7441.81
521.643	7512.77
522.009	7554.35
522.376	7658.75
522.743	7666.21
523.11	7694.46
523.477	7778.75
523.843	7815.81
524.21	7924.28
524.577	7908.69
524.943	7952.53
525.31	7994.34
525.676	8019.87
526.043	8107.1
526.409	8136.25
526.776	8220.09
527.142	8251.28
527.508	8295.12
527.874	8311.62
528.241	8302.13
528.607	8352.52
528.973	8475.46
529.339	8436.59
529.705	8494.89
530.071	8534.44
530.437	8630.71
530.803	8656.69
531.169	8696.24
531.535	8741.21
531.901	8709.8
532.267	8777.82
532.632	8910.25
532.998	8870.02
533.364	8994.99
533.73	8911.38
534.095	9049.23
534.461	9098.94
534.826	9116.57
535.192	9105.27
535.557	9257.81
535.923	9218.03
536.288	9260.07
536.653	9265.72
537.019	9294.87
537.384	9340.97
537.749	9376.45
538.114	9437.69
538.479	9422.32
538.845	9484.47
539.21	9535.09
539.575	9514.98
539.94	9574.64
540.305	9660.96
540.67	9628.19
541.034	9674.07
541.399	9740.96
541.764	9815.53
542.129	9850.33
542.494	9818.92
542.858	9850.56
543.223	9869.54
543.587	9988.64
543.952	10002.19
544.316	10021.63
544.681	10049.2
545.045	10142.53
545.41	10143.89
545.774	10192.7
546.138	10184.11
546.503	10297.1
546.867	10241.96
547.231	10389.08
547.595	10398.34
547.959	10469.08
548.324	10451.45
548.688	10501.62
549.052	10563.31
549.416	10562.41
549.779	10619.58
550.143	10566.93
550.507	10678.34
550.871	10667.49
551.235	10609.18
551.599	10781.84
551.962	10737.99
552.326	10820.7
552.689	10853.92
553.053	10850.08
553.417	10901.15
553.78	10979.8
554.143	10939.8
554.507	11039.68
554.87	11074.03
555.234	11161.94
555.597	11086.23
555.96	11215.27
556.323	11234.48
556.686	11191.77
557.05	11282.16
557.413	11347.7
557.776	11328.94
558.139	11430.18
558.502	11457.07
558.865	11497.97
559.228	11550.18
559.59	11539.56
559.953	11597.41
560.316	11667.91
560.679	11683.05
561.041	11779.1
561.404	11762.37
561.767	11889.6
562.129	11838.53
562.492	11949.26
562.854	11940.67
563.217	11971.41
563.579	12080.56
563.941	12075.81
564.304	12112.87
564.666	12226.77
565.028	12269.03
565.39	12195.58
565.753	12299.08
566.115	12328.46
566.477	12418.18
566.839	12481.45
567.201	12475.35
567.563	12563.03
567.925	12683.03
568.287	12674.21
568.648	12668.34
569.01	12667.66
569.372	12818.17
569.734	12782.46
570.095	12856.36
570.457	12831.5
570.819	12942.46
571.18	12964.6
571.542	13041.66
571.903	13127.76
572.265	13107.88
572.626	13229.68
572.987	13204.37
573.349	13314.88
573.71	13354.2
574.071	13465.61
574.432	13487.3
574.794	13653.62
575.155	13731.14
575.516	13646.84
575.877	13862.66
576.238	13861.75
576.599	14001.41
576.96	14082.77
577.32	14127.74
577.681	14183.33
578.042	14392.59
578.403	14449.08
578.763	14509.42
579.124	14688.63
579.485	14758.91
579.845	15008.84
580.206	15010.65
580.566	15213.58
580.927	15344.43
581.287	15463.97
581.648	15564.08
582.008	15761.82
582.368	15935.15
582.728	16054.46
583.089	16253.78
583.449	16379.2
583.809	16519.99
584.169	16714.56
584.529	16933.54
584.889	17271.38
585.249	17260.31
585.609	17517.93
585.969	17753.86
586.329	17968.31
586.688	18136.67
587.048	18384.12
587.408	18585.02
587.768	18835.63
588.127	19073.14
588.487	19273.59
588.846	19711.32
589.206	19782.05
589.565	20028.15
589.925	20412.77
590.284	20670.39
590.643	20933.66
591.003	21268.79
591.362	21632.17
591.721	21806.86
592.08	22036.23
592.44	22336.33
592.799	22700.17
593.158	22826.72
593.517	23226.03
593.876	23585.57
594.235	23687.71
594.593	24194.14
594.952	24377.41
595.311	24605.65
595.67	25017.85
596.029	25440.43
596.387	25585.06
596.746	25924.04
597.104	26122
597.463	26541.87
597.822	26875.65
598.18	27187.73
598.538	27409.65
598.897	27853.7
599.255	27908.84
599.613	28485.55
599.972	28604.87
600.33	29016.16
600.688	29024.07
601.046	29625.86
601.404	29840.32
601.762	30107.2
602.12	30494.99
602.478	30724.59
602.836	30949.67
603.194	31105.14
603.552	31601.17
603.91	31731.57
604.268	32068.73
604.625	32075.06
604.983	32630.53
605.341	32594.82
605.698	32997.3
606.056	33431.86
606.413	33545.3
606.771	33821.46
607.128	34117.72
607.485	34111.84
607.843	34477.26
608.2	34738.49
608.557	35228.2
608.914	35195.43
609.272	35577.57
609.629	35838.35
609.986	36021.62
610.343	36179.13
610.7	36535.51
611.057	36771.89
611.414	36907.25
611.771	37077.87
612.127	37291.65
612.484	37440.57
612.841	37852.54
613.198	37808.24
613.554	38026.77
613.911	38403.93
614.267	38577.49
614.624	38642.35
614.98	38891.38
615.337	39232.16
615.693	39271.71
616.05	39358.26
616.406	39668.08
616.762	39795.54
617.118	39939.03
617.475	40030.56
617.831	40234.39
618.187	40467.16
618.543	40384.67
618.899	40728.84
619.255	40675.96
619.611	40856.75
619.967	41176.74
620.323	41227.36
620.678	41278.43
621.034	41110.3
621.39	41282.5
621.746	41372.9
622.101	41988.47
622.457	41739.44
622.812	41822.83
623.168	42027.57
623.523	42060.11
623.879	42218.07
624.234	42132.88
624.589	42365.41
624.945	42423.72
625.3	42542.13
625.655	42598.63
626.01	42799.52
626.365	42926.98
626.72	42843.59
627.075	42859.86
627.43	42916.13
627.785	42823.25
628.14	42976.92
628.495	43192.06
628.85	43104.83
629.205	43014.43
629.559	43406.29
629.914	43152.74
630.269	43409.45
630.623	43269.57
630.978	43299.4
631.332	43416.01
631.687	43570.58
632.041	43428.89
632.396	43634.76
632.75	43388.21
633.104	43637.92
633.459	43377.36
633.813	43462.11
634.167	43391.6
634.521	43464.59
634.875	43562.44
635.229	43568.54
635.583	43288.78
635.937	43354.76
636.291	43451.26
636.645	43662.1
636.999	43449.22
637.352	43554.53
637.706	43356.12
638.06	43597.92
638.413	43413.75
638.767	43390.24
639.121	43552.95
639.474	43376.91
639.828	43422.33
640.181	43325.84
640.534	43399.28
640.888	43304.82
641.241	43110.93
641.594	43247.87
641.947	43404.03
642.301	43363.8
642.654	43296.01
643.007	43338.72
643.36	43326.74
643.713	43232.51
644.066	43471.6
644.419	43107.54
644.771	42899.63
645.124	42658.96
645.477	42644.27
645.83	42412.42
646.182	42113.44
646.535	42084.51
646.888	42084.51
647.24	42044.74
647.593	42218.97
647.945	42056.95
648.298	41942.6
648.65	41878.64
649.002	41867.57
649.355	42091.52
649.707	41989.6
650.059	42175.81
650.411	42500.78
650.763	42638.17
651.115	43068.22
651.467	42793.65
651.819	42929.92
652.171	42907.32
652.523	42747.55
652.875	42897.37
653.227	42769.02
653.578	42869.35
653.93	42835.46
654.282	42622.35
654.633	42559.08
654.985	42699.87
655.337	42746.64
655.688	42664.16
656.039	42774.44
656.391	42461.68
656.742	42574.22
657.094	42592.52
657.445	42692.86
657.796	42624.84
658.147	42532.41
658.498	42490.15
658.849	42581.68
659.2	42565.63
659.551	42457.39
659.902	42677.27
660.253	42602.69
660.604	42624.84
660.955	42448.57
661.306	42599.3
661.656	42462.13
662.007	42581.68
662.358	42550.04
662.708	42571.51
663.059	42516.37
663.409	42257.62
663.76	42512.3
664.11	42551.85
664.461	42603.15
664.811	42585.29
665.161	42440.21
665.511	42334.68
665.862	42472.98
666.212	42545.97
666.562	42562.69
666.912	42360.67
667.262	42369.25
667.612	42390.5
667.962	42408.35
668.312	42371.51
668.662	42638.85
669.011	42368.8
669.361	42366.32
669.711	42371.51
670.06	42257.39
670.41	42230.73
670.76	42242.7
671.109	42391.63
671.459	42339.65
671.808	42231.4
672.157	42301.91
672.507	42071.86
672.856	42029.15
673.205	42096.49
673.554	42327.22
673.904	42190.5
674.253	42257.62
674.602	42250.39
674.951	41645.88
675.3	41348.04
675.649	41956.16
675.998	42033.67
676.346	42063.72
676.695	42074.57
677.044	41715.26
677.393	41934.46
677.741	41976.5
678.09	41854.69
678.438	41856.05
678.787	42016.49
679.135	41826.22
679.484	41733.11
679.832	41827.8
680.181	41609.05
680.529	41598.65
680.877	41553.46
681.225	41486.34
681.573	41940.11
681.922	41480.69
682.27	41263.97
682.618	41434.36
682.966	41364.53
683.314	41416.28
683.661	41127.03
684.009	41049.06
684.357	41008.61
684.705	40965.9
685.053	41078.21
685.4	40857.2
685.748	40702.4
686.095	40766.13
686.443	40656.3
686.79	40680.03
687.138	40666.93
687.485	40672.57
687.832	40442.52
688.18	40549.64
688.527	40431
688.874	40279.36
689.221	40265.35
689.568	40148.07
689.915	40032.37
690.262	40025.13
690.609	39982.2
690.956	39778.81
691.303	39759.83
691.65	39570
691.997	39642.32
692.344	39334.3
692.69	39313.51
693.037	39346.28
693.383	39161.88
693.73	39151.71
694.077	38794.66
694.423	38957.82
694.769	38772.51
695.116	38733.42
695.462	38653.64
695.808	38610.71
696.155	38692.06
696.501	38294.56
696.847	38281.9
697.193	38129.59
697.539	38318.74
697.885	38021.8
698.231	37928.92
698.577	37889.6
698.923	37853.89
699.269	37606.21
699.614	37631.07
699.96	37487.12
700.306	37509.27
700.651	37189.05
700.997	37161.71
701.342	37203.51
701.688	37176.62
702.033	36891.88
702.379	37055.27
702.724	36837.2
703.069	36870.87
703.415	36471.33
703.76	36547.94
704.105	36579.57
704.45	36368.96
704.795	36244.67
705.14	36143.43
705.485	36142.52
705.83	35889.2
706.175	36079.7
706.52	35991.12
706.865	35817.34
707.209	35835.41
707.554	35591.13
707.899	35724.91
708.243	35487.85
708.588	35477.91
708.932	35281.08
709.277	35256.22
709.621	35303.9
709.966	35012.38
710.31	35024.59
710.654	34764.48
710.998	34713.64
711.342	34773.75
711.687	34728.78
712.031	34510.02
712.375	34434.32
712.719	34560.42
713.063	34547.76
713.407	34610.36
713.75	34310.03
714.094	34288.79
714.438	34247.21
714.782	34171.95
715.125	34091.73
715.469	34063.03
715.812	33898.29
716.156	33894.9
716.499	33861.23
716.843	33860.55
717.186	33731.06
717.53	33774.68
717.873	33604.74
718.216	33653.55
718.559	33514.12
718.902	33351.86
719.246	33295.82
719.589	33305.08
719.932	33169.27
720.275	32988.26
720.617	33119.33
720.96	32995.94
721.303	33113.23
721.646	32946.9
721.989	32780.8
722.331	32977.41
722.674	32841.14
723.016	32880.24
723.359	32769.05
723.701	32784.87
724.044	32555.73
724.386	32394.37
724.729	32572
725.071	32535.39
725.413	32494.48
725.755	32602.73
726.097	32290.87
726.439	32123.19
726.782	32289.07
727.124	32268.73
727.465	32080.03
727.807	32112.8
728.149	31983.31
728.491	31917.1
728.833	31999.36
729.175	31981.28
729.516	31771.34
729.858	31794.62
730.199	31731.57
730.541	31665.13
730.882	31650.21
731.224	31744.9
731.565	31527.28
731.906	31561.18
732.248	31656.09
732.589	31351.01
732.93	31261.75
733.271	31346.49
733.612	31381.75
733.953	31405.02
734.294	31103.79
734.635	31120.96
734.976	31255.42
735.317	30988.54
735.658	30947.63
735.999	30831.03
736.339	31013.39
736.68	30994.19
737.021	30744.7
737.361	30706.96
737.702	30821.99
738.042	30789.22
738.383	30788.99
738.723	30758.26
739.063	30598.04
739.404	30717.36
739.744	30621.77
740.084	30607.53
740.424	30464.48
740.764	30496.35
741.104	30604.36
741.444	30330.02
741.784	30255.45
742.124	30361.66
742.464	30339.51
742.804	30215.22
743.143	30233.98
743.483	30227.43
743.823	30094.1
744.162	29917.83
744.502	30142.46
744.841	29807.55
745.181	30030.82
745.52	29776.59
745.86	30034.66
746.199	29836.02
746.538	29810.26
746.877	29859.3
747.216	29780.88
747.556	29722.13
747.895	29794.22
748.234	29587.22
748.573	29596.48
748.911	29574.11
749.25	29509.25
749.589	29240.33
749.928	29473.1
750.267	29412.98
750.605	29184.52
750.944	29315.36
751.283	29184.74
751.621	29174.57
751.96	29100.68
752.298	28989.04
752.636	28990.85
752.975	28899.32
753.313	28868.14
753.651	29114.23
753.989	28836.5
754.327	28784.3
754.666	28576.4
755.004	28561.48
755.342	28622.5
755.679	28473.12
756.017	28312.45
756.355	28571.88
756.693	28390.41
757.031	28490.52
757.368	28237.2
757.706	28178.67
758.044	28093.02
758.381	28222.51
758.719	28147.03
759.056	28156.07
759.394	28069.74
759.731	27819.35
760.068	27846.25
760.405	27787.94
760.743	27625.23
761.08	27650.77
761.417	27412.13
761.754	27365.81
762.091	27370.1
762.428	27340.5
762.765	27179.82
763.102	27210.33
763.438	26996.32
763.775	26987.74
764.112	26976.44
764.449	26936.21
764.785	26768.31
765.122	26747.07
765.458	26547.75
765.795	26576.67
766.131	26490.12
766.467	26420.29
766.804	26306.17
767.14	26101.88
767.476	26153.63
767.812	26073.64
768.148	26025.28
768.485	25887.88
768.821	25718.84
769.157	25829.35
769.492	25660.77
769.828	25671.84
770.164	25468
770.5	25349.14
770.836	25453.09
771.171	25235.92
771.507	25112.76
771.842	25007.22
772.178	24995.7
772.513	24921.12
772.849	24815.36
773.184	24695.37
773.519	24743.5
773.855	24565.2
774.19	24398.2
774.525	24480.68
774.86	24345.55
775.195	24300.12
775.53	24274.81
775.865	23994.37
776.2	23970.87
776.535	23829.63
776.87	23828.27
777.205	23704.21
777.539	23599.58
777.874	23512.35
778.209	23371.11
778.543	23386.7
778.878	23278
779.212	23223.09
779.547	23033.26
779.881	23203.88
780.215	23026.94
780.55	23003.43
780.884	22929.54
781.218	22820.84
781.552	22734.97
781.886	22566.84
782.22	22564.35
782.554	22421.98
782.888	22258.6
783.222	22174.3
783.556	22086.4
783.889	22062.22
784.223	21878.94
784.557	21979.96
784.89	21887.76
785.224	21731.83
785.557	21663.58
785.891	21606.18
786.224	21634.88
786.558	21547.65
786.891	21416.36
787.224	21178.62
787.557	21180.43
787.891	21183.6
788.224	21113.54
788.557	21130.72
788.89	21072.86
789.223	20956.93
789.556	20724.17
789.888	20726.88
790.221	20752.42
790.554	20588.36
790.887	20537.96
791.219	20440.34
791.552	20420.45
791.884	20187.69
792.217	20229.95
792.549	20147.46
792.882	20035.15
793.214	19899.56
793.546	20078.77
793.879	19772.33
794.211	19771.66
794.543	19816.63
794.875	19698.21
795.207	19723.29
795.539	19589.51
795.871	19599.91
796.203	19411.44
796.535	19333.02
796.867	19422.06
797.198	19331.67
797.53	19181.16
797.862	19140.49
798.193	19156.98
798.525	18999.92
798.856	18923.09
799.188	18826.14
799.519	18802.42
799.85	18620.05
800.182	18712.02
800.513	18712.7
800.844	18503.89
801.175	18531.69
801.506	18587.05
801.837	18366.95
802.168	18406.27
802.499	18342.54
802.83	18315.65
803.161	18192.71
803.491	18197.01
803.822	18161.98
804.153	18127.63
804.483	17960.86
804.814	17874.3
805.145	17823.23
805.475	17885.83
805.805	17811.93
806.136	17811.93
806.466	17761.76
806.796	17697.59
807.126	17573.07
807.457	17503.92
807.787	17565.84
808.117	17357.71
808.447	17364.94
808.777	17378.05
809.107	17304.38
809.436	17281.55
809.766	17225.73
810.096	17150.93
810.426	17121.1
810.755	17119.07
811.085	17061.67
811.414	16987.55
811.744	16847.66
812.073	16944.84
812.403	16871.17
812.732	16681.12
813.061	16799.53
813.39	16626.43
813.719	16578.74
814.049	16689.7
814.378	16561.12
814.707	16537.62
815.036	16514.11
815.365	16339.2
815.693	16293.1
816.022	16337.85
816.351	16329.49
816.68	16176.95
817.008	16305.08
817.337	16049.04
817.665	16047.01
817.994	16098.53
818.322	16023.73
818.651	15906.67
818.979	15901.25
819.307	16050.85
819.636	16003.39
819.964	15783.74
820.292	15846.56
820.62	15856.96
820.948	15797.3
821.276	15832.32
821.604	15822.61
821.932	15769.95
822.259	15730.86
822.587	15742.83
822.915	15689.05
823.243	15769.95
823.57	15709.62
823.898	15764.08
824.225	15555.49
824.553	15643.63
824.88	15693.8
825.207	15734.7
825.535	15604.99
825.862	15611.09
826.189	15589.84
826.516	15720.69
826.843	15653.35
827.17	15670.07
827.497	15741.48
827.824	15605.44
828.151	15733.8
828.478	15730.86
828.805	15725.21
829.131	15677.98
829.458	15672.55
829.785	15509.39
830.111	15650.63
830.438	15651.31
830.764	15712.78
831.09	15779.9
831.417	15539.22
831.743	15660.12
832.069	15651.31
832.395	15502.61
832.722	15642.72
833.048	15523.63
833.374	15576.29
833.7	15506.91
834.026	15546.46
834.351	15498.55
834.677	15426.46
835.003	15532.67
835.329	15478.43
835.654	15423.52
835.98	15320.7
836.306	15317.76
836.631	15338.33
836.956	15380.58
837.282	15345.78
837.607	15256.52
837.932	15261.04
838.258	15221.27
838.583	15123.19
838.908	15098.11
839.233	15179.46
839.558	15107.37
839.883	15010.88
840.208	15054.27
840.533	15046.81
840.858	14986.47
841.182	15043.87
841.507	15015.17
841.832	14918.45
842.156	14901.05
842.481	14896.98
842.805	14913.25
843.13	14735.4
843.454	14768.17
843.778	14736.99
844.103	14675.97
844.427	14706.48
844.751	14647.27
845.075	14619.93
845.399	14580.61
845.723	14459.7
846.047	14512.36
846.371	14330.22
846.695	14371.12
847.019	14229.65
847.343	14130.67
847.666	14151.46
847.99	14066.49
848.313	14070.56
848.637	13967.97
848.96	13884.13
849.284	13968.87
849.607	13720.06
849.931	13762.55
850.254	13644.13
850.577	13614.53
850.9	13599.61
851.223	13439.84
851.546	13413.18
851.869	13405.49
852.192	13450.47
852.515	13260.87
852.838	13170.7
853.161	13205.5
853.483	13211.83
853.806	13138.16
854.129	13108.1
854.451	13034.43
854.774	13004.83
855.096	12959.18
855.419	12871.05
855.741	12943.36
856.063	12857.71
856.385	12815.91
856.708	12752.86
857.03	12732.74
857.352	12711.73
857.674	12562.13
857.996	12561.22
858.318	12484.16
858.64	12516.03
858.961	12460.89
859.283	12441
859.605	12442.58
859.926	12418.85
860.248	12355.35
860.57	12385.86
860.891	12354.45
861.212	12326.2
861.534	12193.78
861.855	12250.5
862.176	12254.79
862.498	12166.66
862.819	12139.31
863.14	12098.86
863.461	12136.6
863.782	12032.42
864.103	12071.74
864.424	12039.2
864.745	12066.1
865.065	11903.16
865.386	11865.65
865.707	11834.24
866.027	11898.87
866.348	11916.27
866.668	11852.54
866.989	11857.74
867.309	11740.45
867.63	11819.55
867.95	11734.13
868.27	11718.76
868.59	11718.08
868.91	11637.18
869.23	11657.07
869.55	11596.5
869.87	11732.09
870.19	11619.55
870.51	11652.77
870.83	11640.57
871.15	11540.91
871.469	11580.01
871.789	11625.2
872.109	11485.77
872.428	11456.85
872.748	11511.99
873.067	11475.15
873.386	11512.89
873.706	11365.77
874.025	11411.65
874.344	11323.97
874.663	11282.84
874.982	11304.31
875.301	11309.05
875.62	11253.69
875.939	11263.18
876.258	11295.72
876.577	11199.23
876.896	11208.72
877.214	11189.73
877.533	11127.59
877.852	11159.68
878.17	11186.57
878.489	11118.78
878.807	11080.81
879.125	11107.93
879.444	11184.99
879.762	11014.15
880.08	11020.92
880.398	10988.16
880.716	11044.88
881.034	10902.51
881.352	10981.38
881.67	10875.84
881.988	10897.09
882.306	10871.55
882.624	10839.23
882.941	10829.97
883.259	10811.66
883.577	10761.5
883.894	10775.06
884.212	10758.33
884.529	10688.28
884.846	10635.85
885.164	10635.17
885.481	10639.47
885.798	10669.3
886.115	10573.71
886.432	10576.64
886.75	10525.57
887.067	10551.78
887.383	10430.21
887.7	10411.45
888.017	10406.93
888.334	10429.53
888.651	10433.14
888.967	10349.98
889.284	10320.15
889.6	10301.62
889.917	10236.76
890.233	10220.49
890.55	10216.2
890.866	10198.8
891.182	10186.37
891.498	10135.75
891.815	10116.77
892.131	10018.01
892.447	10023.21
892.763	9954.96
893.079	10006.04
893.395	10001.52
893.71	9949.09
894.026	9902.31
894.342	9839.71
894.657	9797.91
894.973	9798.81
895.289	9778.02
895.604	9773.27
895.92	9719.94
896.235	9655.76
896.55	9651.7
896.865	9576.44
897.181	9601.75
897.496	9572.15
897.811	9514.75
898.126	9504.58
898.441	9423
898.756	9436.33
899.071	9347.3
899.386	9363.34
899.7	9267.52
900.015	9260.52
900.33	9205.61
900.644	9189.79
900.959	9230.24
901.273	9130.13
901.588	9071.15
901.902	9072.28
902.216	9054.42
902.531	9029.56
902.845	8968.1
903.159	8898.49
903.473	8906.86
903.787	8841.1
904.101	8787.76
904.415	8855.78
904.729	8828.89
905.042	8789.35
905.356	8708.9
905.67	8727.2
905.984	8718.39
906.297	8650.14
906.611	8618.28
906.924	8597.71
907.237	8570.59
907.551	8581.89
907.864	8467.09
908.177	8479.3
908.491	8441.11
908.804	8379.64
909.117	8365.18
909.43	8262.35
909.743	8252.18
910.056	8266.42
910.368	8184.84
910.681	8195.01
910.994	8140.32
911.307	8158.4
911.619	8100.55
911.932	8075.01
912.244	7947.33
912.557	8042.7
912.869	7976.26
913.181	7870.95
913.494	7950.95
913.806	7842.03
914.118	7795.92
914.43	7778.52
914.742	7756.6
915.054	7684.74
915.366	7666.44
915.678	7606.33
915.99	7548.93
916.302	7533.56
916.613	7546.44
916.925	7515.03
917.236	7440.45
917.548	7407.01
917.859	7409.95
918.171	7371.3
918.482	7314.58
918.794	7281.81
919.105	7282.94
919.416	7296.5
919.727	7255.6
920.038	7179.9
920.349	7180.35
920.66	7119.78
920.971	7117.98
921.282	7017.41
921.593	7042.5
921.903	7001.82
922.214	6922.28
922.525	6969.51
922.835	6908.49
923.146	6861.26
923.456	6861.49
923.767	6807.93
924.077	6811.54
924.387	6754.37
924.697	6769.74
925.008	6727.48
925.318	6715.95
925.628	6707.82
925.938	6658.55
926.248	6612.68
926.558	6609.97
926.867	6558.9
927.177	6587.82
927.487	6536.07
927.796	6429.18
928.106	6480.48
928.416	6463.98
928.725	6400.26
929.034	6357.09
929.344	6321.84
929.653	6327.26
929.962	6273.71
930.271	6283.65
930.581	6222.86
930.89	6199.13
931.199	6153.03
931.508	6113.94
931.817	6105.57
932.125	6106.93
932.434	6079.81
932.743	5992.36
933.051	5996.42
933.36	6007.72
933.669	5947.61
933.977	5946.93
934.286	5927.27
934.594	5878.69
934.902	5843.21
935.21	5798.92
935.519	5866.48
935.827	5799.14
936.135	5758.24
936.443	5640.73
936.751	5747.39
937.059	5719.37
937.367	5630.56
937.674	5598.47
937.982	5602.99
938.29	5533.84
938.597	5664.91
938.905	5478.7
939.213	5494.74
939.52	5526.38
939.827	5472.14
940.135	5468.08
940.442	5432.6
940.749	5381.75
941.056	5378.81
941.363	5276.9
941.67	5327.97
941.977	5280.74
942.284	5244.58
942.591	5241.19
942.898	5225.15
943.205	5224.92
943.511	5168.88
943.818	5189.44
944.125	5126.84
944.431	5163.9
944.738	5165.71
945.044	5121.64
945.35	5072.38
945.657	5063.79
945.963	5013.85
946.269	4979.95
946.575	4999.84
946.881	4964.36
947.187	4934.76
947.493	4912.84
947.799	4876.91
948.105	4930.24
948.41	4827.87
948.716	4815.21
949.022	4812.27
949.327	4761.43
949.633	4760.52
949.938	4742.22
950.244	4737.93
950.549	4688.21
950.854	4668.32
951.16	4633.97
951.465	4625.61
951.77	4605.27
952.075	4610.7
952.38	4607.08
952.685	4587.65
952.99	4525.28
953.294	4523.92
953.599	4459.29
953.904	4438.27
954.209	4457.03
954.513	4397.82
954.818	4402.57
955.122	4386.75
955.426	4353.98
955.731	4345.17
956.035	4338.39
956.339	4386.75
956.643	4294.1
956.948	4290.48
957.252	4292.29
957.556	4251.84
957.86	4219.52
958.163	4221.1
958.467	4231.95
958.771	4105.4
959.075	4200.54
959.378	4130.03
959.682	4122.8
959.985	4125.06
960.289	4069.47
960.592	4067.44
960.896	4077.15
961.199	4018.85
961.502	3992.18
961.805	4001.45
962.108	3968.68
962.411	4009.81
962.714	3975.91
963.017	3914.22
963.32	3921.68
963.623	3901.79
963.926	3851.17
964.228	3911.06
964.531	3852.98
964.833	3854.11
965.136	3803.26
965.438	3799.42
965.741	3753.32
966.043	3764.17
966.345	3780.89
966.648	3750.83
966.95	3752.64
967.252	3687.78
967.554	3655.47
967.856	3645.53
968.158	3648.46
968.46	3621.35
968.761	3581.35
969.063	3589.03
969.365	3627.22
969.666	3577.96
969.968	3556.94
970.269	3541.57
970.571	3535.47
970.872	3499.77
971.174	3487.34
971.475	3484.4
971.776	3467.68
972.077	3428.36
972.378	3415.02
972.679	3434.68
972.98	3421.8
973.281	3397.17
973.582	3388.13
973.883	3380.67
974.183	3310.62
974.484	3331.41
974.785	3298.87
975.085	3281.02
975.386	3284.41
975.686	3260.23
975.986	3278.08
976.287	3267.46
976.587	3241.02
976.887	3236.72
977.187	3170.96
977.487	3203.28
977.787	3169.15
978.087	3134.35
978.387	3145.65
978.687	3127.8
978.987	3088.48
979.286	3055.26
979.586	3108.36
979.885	3065.43
980.185	3052.09
980.484	3073.34
980.784	3003.51
981.083	3022.04
981.382	2972.55
981.682	2989.95
981.981	2978.88
982.28	2960.12
982.579	2956.05
982.878	2952.89
983.177	2923.51
983.475	2895.49
983.774	2923.06
984.073	2865.21
984.372	2877.86
984.67	2854.59
984.969	2858.88
985.267	2808.71
985.566	2841.7
985.864	2789.95
986.162	2802.16
986.461	2755.61
986.759	2770.07
987.057	2745.44
987.355	2724.87
987.653	2761.26
987.951	2731.65
988.249	2690.07
988.547	2673.57
988.844	2724.65
989.142	2641.71
989.44	2678.55
989.737	2649.85
990.035	2648.04
990.332	2641.71
990.63	2613.24
990.927	2614.14
991.224	2595.84
991.521	2544.99
991.819	2557.64
992.116	2573.69
992.413	2544.31
992.71	2533.01
993.006	2519.91
993.303	2530.98
993.6	2478.78
993.897	2468.16
994.193	2477.42
994.49	2457.53
994.787	2462.28
995.083	2444.2
995.379	2437.65
995.676	2438.33
995.972	2401.72
996.268	2387.48
996.565	2385.9
996.861	2370.76
997.157	2340.7
997.453	2353.36
997.749	2341.38
998.044	2279.69
998.34	2282.4
998.636	2297.31
998.932	2259.12
999.227	2279.46
999.523	2294.15
999.818	2259.57
1000.114	2223.64
1000.409	2236.98
1000.704	2231.1
1001	2225.9
1001.295	2208.28
1001.59	2197.65
1001.885	2157.66
1002.18	2168.95
1002.475	2157.2
1002.77	2122.85
1003.065	2129.18
1003.359	2109.07
1003.654	2076.53
1003.949	2079.01
1004.243	2081.27
1004.538	2016.64
1004.832	2062.29
1005.127	2066.58
1005.421	2035.4
1005.715	1986.13
1006.009	2032.01
1006.304	1996.76
1006.598	1967.6
1006.892	1968.96
1007.186	1968.28
1007.48	1972.35
1007.773	1943.2
1008.067	1902.29
1008.361	1928.06
1008.655	1913.14
1008.948	1887.15
1009.242	1905.01
1009.535	1861.17
1009.829	1877.66
1010.122	1855.52
1010.415	1885.57
1010.708	1829.75
1011.001	1839.7
1011.295	1788.4
1011.588	1822.07
1011.881	1779.59
1012.173	1797.21
1012.466	1763.77
1012.759	1765.12
1013.052	1771.22
1013.344	1754.28
1013.637	1739.59
1013.93	1699.14
1014.222	1703.88
1014.514	1721.96
1014.807	1698.46
1015.099	1667.5
1015.391	1681.51
1015.683	1651.91
1015.976	1654.17
1016.268	1622.08
1016.56	1623.21
1016.851	1600.83
1017.143	1630.66
1017.435	1583.21
1017.727	1583.66
1018.018	1577.33
1018.31	1552.47
1018.602	1546.82
1018.893	1539.37
1019.185	1547.05
1019.476	1530.55
1019.767	1519.93
1020.058	1528.29
1020.35	1492.59
1020.641	1484.9
1020.932	1462.53
1021.223	1471.35
1021.514	1438.35
1021.804	1427.96
1022.095	1442.19
1022.386	1422.99
1022.677	1405.36
1022.967	1406.71
1023.258	1392.93
1023.548	1365.36
1023.839	1399.03
1024.129	1376.66
1024.419	1378.92
1024.709	1345.47
1025	1347.05
1025.29	1320.61
1025.58	1349.09
1025.87	1333.27
1026.16	1306.6
1026.449	1289.2
1026.739	1293.05
1027.029	1301.86
1027.319	1286.04
1027.608	1288.07
1027.898	1275.87
1028.187	1260.73
1028.477	1252.59
1028.766	1229.77
1029.055	1216.21
1029.344	1225.02
1029.634	1216.89
1029.923	1230.9
1030.212	1210.34
1030.501	1186.38
1030.79	1201.75
1031.078	1164.01
1031.367	1193.84
1031.656	1190.9
1031.945	1162.43
1032.233	1127.4
1032.522	1137.12
1032.81	1126.5
1033.099	1098.7
1033.387	1133.73
1033.675	1125.37
1033.963	1113.61
1034.251	1111.58
1034.54	1105.93
1034.828	1082.66
1035.116	1067.97
1035.403	1074.97
1035.691	1072.49
1035.979	1053.28
1036.267	1063.67
1036.554	1038.81
1036.842	1026.16
1037.129	1008.08
1037.417	1029.78
1037.704	1011.24
1037.992	1026.39
1038.279	1004.01
1038.566	997.46
1038.853	997.46
1039.14	997.46
