Data from hue_100_FLMS001491_00012.txt Node
Date: Tue Feb 07 17:02:42 GMT 2017
User: dcchb
Spectrometer: FLMS00149
Trigger mode: 0
Integration Time (sec): 2.000000E-2
Scans to average: 10
Electric dark correction enabled: true
Nonlinearity correction enabled: false
Boxcar width: 0
XAxis mode: Wavelengths
Number of Pixels in Spectrum: 2048
>>>>>Begin Spectral Data<<<<<
341.393	-11.91
341.776	-11.91
342.16	-11.91
342.543	-66.37
342.927	-69.76
343.31	-77.22
343.693	-68.4
344.077	-62.98
344.46	-66.14
344.843	-63.2
345.226	-29.76
345.61	-29.76
345.993	-21.17
346.376	-7.84
346.759	30.35
347.142	28.09
347.525	39.39
347.908	50.01
348.291	81.2
348.674	79.62
349.057	117.81
349.44	115.55
349.823	147.64
350.206	167.3
350.588	169.78
350.971	215.66
351.354	217.92
351.737	234.41
352.119	259.5
352.502	254.3
352.884	268.99
353.267	281.65
353.65	292.04
354.032	308.31
354.414	327.97
354.797	311.93
355.179	315.32
355.562	334.3
355.944	337.24
356.326	331.81
356.709	309.67
357.091	331.59
357.473	337.91
357.855	353.73
358.238	361.64
358.62	320.97
359.002	339.72
359.384	324.58
359.766	370.46
360.148	344.24
360.53	351.02
360.912	327.75
361.294	315.54
361.676	336.56
362.057	341.3
362.439	341.08
362.821	309.22
363.203	315.77
363.584	336.33
363.966	317.12
364.348	324.81
364.729	308.76
365.111	320.51
365.493	309.22
365.874	343.11
366.256	332.27
366.637	326.84
367.019	310.12
367.4	314.41
367.781	319.84
368.163	315.99
368.544	332.94
368.925	305.6
369.306	318.25
369.688	306.96
370.069	307.18
370.45	306.28
370.831	328.2
371.212	306.5
371.593	297.92
371.974	330.01
372.355	323.68
372.736	324.36
373.117	319.84
373.498	314.64
373.879	326.84
374.26	340.17
374.641	315.32
375.021	307.63
375.402	308.54
375.783	328.2
376.163	325.94
376.544	318.48
376.925	309.44
377.305	319.61
377.686	340.63
378.066	334.98
378.447	338.59
378.827	338.59
379.208	344.24
379.588	316.9
379.968	345.37
380.349	335.2
380.729	331.14
381.109	327.29
381.489	347.18
381.87	337.91
382.25	339.04
382.63	337.91
383.01	361.64
383.39	344.02
383.77	345.6
384.15	356.67
384.53	354.41
384.91	352.38
385.29	361.64
385.67	350.57
386.049	366.39
386.429	363.9
386.809	351.93
387.189	350.8
387.568	347.63
387.948	364.58
388.328	358.25
388.707	373.62
389.087	387.41
389.466	339.72
389.846	372.94
390.225	358.71
390.605	384.02
390.984	368.42
391.363	366.61
391.743	370.46
392.122	389.89
392.501	379.04
392.881	400.29
393.26	399.38
393.639	374.98
394.018	374.75
394.397	389.89
394.776	402.55
395.155	416.56
395.534	404.13
395.913	400.29
396.292	390.34
396.671	399.16
397.05	388.31
397.429	401.42
397.808	390.79
398.186	409.1
398.565	407.74
398.944	416.1
399.323	403
399.701	428.08
400.08	380.4
400.458	409.1
400.837	408.2
401.215	412.04
401.594	435.09
401.972	434.18
402.351	411.36
402.729	425.14
403.107	401.19
403.486	440.74
403.864	432.15
404.242	433.28
404.62	443.67
404.999	428.31
405.377	411.36
405.755	439.83
406.133	432.6
406.511	440.06
406.889	441.41
407.267	455.43
407.645	469.21
408.023	468.08
408.401	441.41
408.779	464.24
409.156	463.11
409.534	460.4
409.912	476.44
410.29	520.73
410.667	511.7
411.045	465.37
411.422	506.5
411.8	490.23
412.178	498.59
412.555	508.31
412.933	508.08
413.31	497.68
413.687	486.39
414.065	493.62
414.442	508.53
414.819	516.22
415.197	505.82
415.574	533.84
415.951	532.49
416.328	547.17
416.705	526.84
417.082	551.24
417.46	545.82
417.837	511.02
418.214	551.69
418.591	537.01
418.967	534.29
419.344	554.63
419.721	584.46
420.098	551.92
420.475	565.03
420.852	576.1
421.228	581.75
421.605	578.36
421.982	594.86
422.358	568.42
422.735	611.35
423.111	583.33
423.488	591.47
423.864	596.89
424.241	582.43
424.617	583.56
424.994	617
425.37	620.17
425.746	618.59
426.123	637.57
426.499	621.75
426.875	633.73
427.251	605.7
427.627	641.86
428.003	648.42
428.379	655.19
428.756	657.45
429.132	680.28
429.507	645.25
429.883	664.91
430.259	678.92
430.635	668.53
431.011	687.28
431.387	695.19
431.763	696.32
432.138	722.54
432.514	731.12
432.89	725.48
433.265	745.36
433.641	760.28
434.016	753.95
434.392	761.63
434.767	800.5
435.143	783.78
435.518	774.74
435.894	777.9
436.269	783.78
436.644	818.13
437.02	779.71
437.395	808.64
437.77	809.31
438.145	832.59
438.52	831.01
438.895	829.43
439.271	825.81
439.646	866.71
440.021	851.57
440.395	839.14
440.77	835.3
441.145	871.46
441.52	897.22
441.895	877.79
442.27	905.58
442.645	878.47
443.019	915.53
443.394	891.12
443.769	897.9
444.143	937.22
444.518	910.56
444.892	914.17
445.267	932.7
445.641	961.18
446.016	945.13
446.39	952.59
446.764	934.74
447.139	979.48
447.513	978.8
447.887	998.69
448.262	974.28
448.636	988.97
449.01	993.94
449.384	975.64
449.758	1018.8
450.132	1022.64
450.506	1011.12
450.88	1037.33
451.254	1022.42
451.628	1048.4
452.002	1045.24
452.376	1068.74
452.75	1073.26
453.123	1084.11
453.497	1084.56
453.871	1091.34
454.244	1132.24
454.618	1134.28
454.992	1159.36
455.365	1137.89
455.739	1156.88
456.112	1175.63
456.486	1174.28
456.859	1192.81
457.232	1236.65
457.606	1220.6
457.979	1219.25
458.352	1272.81
458.725	1242.07
459.099	1293.82
459.472	1313.48
459.845	1328.85
460.218	1335.63
460.591	1373.59
460.964	1339.92
461.337	1390.99
461.71	1419.02
462.083	1417.21
462.456	1428.73
462.829	1452.01
463.201	1445.46
463.574	1483.87
463.947	1527.04
464.32	1540.14
464.692	1582.4
465.065	1580.59
465.438	1615.62
465.81	1637.54
466.183	1628.05
466.555	1652.68
466.928	1699.01
467.3	1705.56
467.672	1721.83
468.045	1755.73
468.417	1793.02
468.789	1832.56
469.161	1839.57
469.534	1871.21
469.906	1902.85
470.278	1967.25
470.65	1981.04
471.022	2044.54
471.394	2095.38
471.766	2100.13
472.138	2150.75
472.51	2204.31
472.882	2204.53
473.253	2232.78
473.625	2316.17
473.997	2370.86
474.369	2421.93
474.74	2500.12
475.112	2522.26
475.484	2592.54
475.855	2609.95
476.227	2654.92
476.598	2791.86
476.97	2819.21
477.341	2901.69
477.713	2966.55
478.084	3004.74
478.455	3124.06
478.827	3183.94
479.198	3331.96
479.569	3402.02
479.94	3495.57
480.311	3573.08
480.682	3652.18
481.053	3779.18
481.424	3813.3
481.795	3963.81
482.166	4089.23
482.537	4165.84
482.908	4267.76
483.279	4387.07
483.65	4531.02
484.021	4630.23
484.391	4745.26
484.762	4891.02
485.133	4963.78
485.503	5073.61
485.874	5215.3
486.244	5391.57
486.615	5516.99
486.985	5651.67
487.356	5786.36
487.726	5895.73
488.097	6141.83
488.467	6230.42
488.837	6457.3
489.207	6538.2
489.578	6733
489.948	6789.5
490.318	7003.05
490.688	7128.7
491.058	7335.02
491.428	7473.55
491.798	7622.24
492.168	7845.06
492.538	7996.7
492.908	8125.51
493.278	8235.56
493.648	8422.9
494.017	8528.66
494.387	8736.56
494.757	8813.62
495.126	9087.74
495.496	9122.99
495.866	9192.37
496.235	9429.88
496.605	9577.67
496.974	9731.79
497.344	9876.2
497.713	9954.84
498.082	10119.35
498.452	10242.51
498.821	10375.84
499.19	10454.71
499.559	10643.18
499.928	10749.39
500.298	10875.72
500.667	10961.14
501.036	11075.49
501.405	11184.64
501.774	11273.67
502.143	11429.15
502.512	11516.6
502.88	11691.97
503.249	11698.97
503.618	11757.73
503.987	11953.43
504.356	12051.05
504.724	12119.75
505.093	12182.8
505.462	12251.95
505.83	12350.03
506.199	12547.54
506.567	12599.06
506.936	12566.52
507.304	12905.27
507.672	12876.12
508.041	12936.23
508.409	13105.26
508.777	13107.52
509.145	13267.52
509.514	13312.71
509.882	13350.68
510.25	13446.5
510.618	13501.18
510.986	13517.46
511.354	13633.84
511.722	13842.87
512.09	13955.41
512.458	13834.06
512.826	13960.16
513.193	14025.01
513.561	14065.24
513.929	14202.18
514.297	14293.25
514.664	14332.12
515.032	14372.35
515.4	14479.69
515.767	14477.66
516.135	14539.58
516.502	14421.84
516.869	14695.05
517.237	14686.92
517.604	14587.94
517.972	14825.67
518.339	14835.61
518.706	14872.67
519.073	14831.09
519.44	14842.17
519.808	15043.06
520.175	15010.52
520.542	15185.89
520.909	15182.5
521.276	15198.99
521.643	15261.59
522.009	15358.31
522.376	15427.46
522.743	15427.91
523.11	15472.66
523.477	15520.57
523.843	15629.72
524.21	15649.15
524.577	15716.49
524.943	15744.97
525.31	15799.2
525.676	15813.89
526.043	15963.27
526.409	15869.26
526.776	16060.89
527.142	15981.35
527.508	15964.85
527.874	16018.86
528.241	16071.29
528.607	16064.28
528.973	16146.09
529.339	16091.62
529.705	16191.74
530.071	16242.58
530.437	16314.67
530.803	16245.29
531.169	16330.26
531.535	16183.37
531.901	16349.02
532.267	16267.21
532.632	16290.72
532.998	16220.89
533.364	16298.63
533.73	16270.83
534.095	16384.5
534.461	16294.11
534.826	16184.05
535.192	16276.03
535.557	16433.08
535.923	16206.42
536.288	16168.91
536.653	16233.54
537.019	16075.58
537.384	16110.16
537.749	16176.14
538.114	16132.53
538.479	16160.55
538.845	16215.24
539.21	16019.31
539.575	16027.67
539.94	16129.36
540.305	16129.36
540.67	15958.07
541.034	15954.91
541.399	15907.45
541.764	15922.59
542.129	15955.13
542.494	15876.04
542.858	15853.89
543.223	15793.33
543.587	15889.82
543.952	15714.01
544.316	15737.74
544.681	15693.22
545.045	15732.99
545.41	15763.5
545.774	15641.92
546.138	15554.69
546.503	15511.98
546.867	15488.93
547.231	15524.63
547.595	15467.01
547.959	15477.4
548.324	15428.82
548.688	15410.06
549.052	15456.61
549.416	15360.8
549.779	15283.74
550.143	15275.6
550.507	15304.07
550.871	15332.32
551.235	15305.2
551.599	15311.31
551.962	15148.6
552.326	15147.92
552.689	15193.12
553.053	15096.85
553.417	15023.63
553.78	15189.73
554.143	15082.16
554.507	14997.64
554.87	15062.73
555.234	15130.07
555.597	14992.67
555.96	15102.05
556.323	15080.58
556.686	14977.08
557.05	15048.94
557.413	15054.14
557.776	14968.72
558.139	15060.92
558.502	15017.08
558.865	14995.38
559.228	14988.6
559.59	15034.48
559.953	14939.79
560.316	15080.13
560.679	15042.84
561.041	15108.83
561.404	15028.15
561.767	15211.42
562.129	15050.97
562.492	15107.47
562.854	15049.84
563.217	15013.24
563.579	15119.9
563.941	15102.72
564.304	15062.27
564.666	15234.02
565.028	15267.01
565.39	15084.42
565.753	15121.48
566.115	15197.86
566.477	15161.93
566.839	15233.34
567.201	15353.11
567.563	15238.09
567.925	15290.74
568.287	15310.4
568.648	15269.73
569.01	15327.35
569.372	15455.71
569.734	15311.98
570.095	15410.06
570.457	15449.16
570.819	15489.38
571.18	15475.37
571.542	15522.83
571.903	15537.52
572.265	15511.98
572.626	15515.59
572.987	15561.24
573.349	15539.78
573.71	15627
574.071	15556.05
574.432	15563.96
574.794	15628.59
575.155	15577.51
575.516	15634.91
575.877	15750.39
576.238	15620.9
576.599	15669.49
576.96	15631.52
577.32	15648.47
577.681	15777.73
578.042	15734.57
578.403	15624.97
578.763	15729.83
579.124	15758.3
579.485	15633.78
579.845	15822.03
580.206	15747.23
580.566	15708.81
580.927	15699.09
581.287	15772.76
581.648	15684.63
582.008	15700
582.368	15644.86
582.728	15716.27
583.089	15601.47
583.449	15662.71
583.809	15652.54
584.169	15732.76
584.529	15556.72
584.889	15676.72
585.249	15636.04
585.609	15574.8
585.969	15591.3
586.329	15540.68
586.688	15543.84
587.048	15619.09
587.408	15542.71
587.768	15586.78
588.127	15566.67
588.487	15518.08
588.846	15518.53
589.206	15525.99
589.565	15510.62
589.925	15669.49
590.284	15488.7
590.643	15500.45
591.003	15503.17
591.362	15536.39
591.721	15448.03
592.08	15473.11
592.44	15558.53
592.799	15422.04
593.158	15424.07
593.517	15422.72
593.876	15470.62
594.235	15388.82
594.593	15323.51
594.952	15426.11
595.311	15457.29
595.67	15389.72
596.029	15485.09
596.387	15477.18
596.746	15575.03
597.104	15345.43
597.463	15430.17
597.822	15414.58
598.18	15250.29
598.538	15298.65
598.897	15431.3
599.255	15193.8
599.613	15500.91
599.972	15343.85
600.33	15319.67
600.688	15344.3
601.046	15436.5
601.404	15425.65
601.762	15378.2
602.12	15465.65
602.478	15413
602.836	15417.07
603.194	15296.84
603.552	15414.35
603.91	15245.77
604.268	15392.43
604.625	15333.68
604.983	15415.94
605.341	15269.5
605.698	15427.24
606.056	15403.51
606.413	15419.55
606.771	15476.5
607.128	15433.56
607.485	15382.27
607.843	15330.29
608.2	15473.11
608.557	15436.95
608.914	15355.37
609.272	15511.53
609.629	15486.44
609.986	15504.3
610.343	15435.82
610.7	15552.88
611.057	15500.68
611.414	15524.41
611.771	15513.11
612.127	15573.45
612.484	15607.8
612.841	15634.46
613.198	15522.6
613.554	15571.41
613.911	15636.27
614.267	15647.34
614.624	15668.59
614.98	15598.3
615.337	15741.58
615.693	15711.75
616.05	15717.62
616.406	15729.15
616.762	15766.89
617.118	15688.02
617.475	15702.26
617.831	15799.43
618.187	15724.4
618.543	15738.19
618.899	15838.07
619.255	15797.4
619.611	15788.36
619.967	15842.14
620.323	15885.3
620.678	15829.26
621.034	15775.93
621.39	15778.19
621.746	15834
622.101	15880.11
622.457	15809.15
622.812	15838.52
623.168	15912.87
623.523	15813.89
623.879	15848.47
624.234	15752.88
624.589	15861.12
624.945	15935.47
625.3	15879.43
625.655	15802.37
626.01	15824.74
626.365	15914.23
626.72	15908.35
627.075	15802.14
627.43	15836.26
627.785	15812.31
628.14	15819.32
628.495	15822.93
628.85	15914.23
629.205	15788.36
629.559	15832.42
629.914	15727.11
630.269	15770.05
630.623	15705.65
630.978	15657.06
631.332	15755.59
631.687	15748.13
632.041	15664.52
632.396	15661.58
632.75	15566.67
633.104	15616.61
633.459	15597.63
633.813	15510.85
634.167	15508.59
634.521	15600.56
634.875	15560.57
635.229	15522.83
635.583	15478.99
635.937	15500
636.291	15453.68
636.645	15457.29
636.999	15396.73
637.352	15474.69
637.706	15441.25
638.06	15424.75
638.413	15358.76
638.767	15397.41
639.121	15447.57
639.474	15243.74
639.828	15220.91
640.181	15302.95
640.534	15310.85
640.888	15242.83
641.241	15109.28
641.594	15272.44
641.947	15240.57
642.301	15191.08
642.654	15152.89
643.007	15278.76
643.36	15244.19
643.713	15171.88
644.066	15203.06
644.419	15128.94
644.771	15050.07
645.124	14891.88
645.477	14935.72
645.83	14841.04
646.182	14730.53
646.535	14714.03
646.888	14751.77
647.24	14575.51
647.593	14721.94
647.945	14646.69
648.298	14600.82
648.65	14578.22
649.002	14573.7
649.355	14727.59
649.707	14656.63
650.059	14723.53
650.411	14948.38
650.763	14860.7
651.115	15031.54
651.467	15036.74
651.819	14952.45
652.171	14991.54
652.523	14901.83
652.875	14932.11
653.227	14880.13
653.578	14975.5
653.93	14858.21
654.282	14866.57
654.633	14806.91
654.985	14921.03
655.337	14972.33
655.688	14920.36
656.039	14994.25
656.391	14860.02
656.742	14976.85
657.094	14826.8
657.445	14929.4
657.796	14918.55
658.147	14835.39
658.498	14879.23
658.849	14936.18
659.2	14913.12
659.551	14926.46
659.902	14983.63
660.253	14923.52
660.604	14911.99
660.955	14956.51
661.306	15014.14
661.656	14991.31
662.007	15003.29
662.358	15016.85
662.708	15053.46
663.059	14981.15
663.409	14905.67
663.76	15079.67
664.11	15020.24
664.461	15016.85
664.811	15089.84
665.161	15030.64
665.511	14991.54
665.862	15075.15
666.212	15011.88
666.562	15068.83
666.912	15048.04
667.262	15004.42
667.612	14987.02
667.962	15036.29
668.312	14920.58
668.662	15068.83
669.011	15013.01
669.361	15037.87
669.711	14972.78
670.06	14933.69
670.41	15011.65
670.76	14976.63
671.109	15089.62
671.459	15016.4
671.808	14999.45
672.157	14952.22
672.507	14843.52
672.856	14869.51
673.205	14939.11
673.554	14905.44
673.904	14812.34
674.253	14938.21
674.602	14902.5
674.951	14674.04
675.3	14564.89
675.649	14798.1
675.998	14740.02
676.346	14746.58
676.695	14772.56
677.044	14708.38
677.393	14751.32
677.741	14712.9
678.09	14665.67
678.438	14682.62
678.787	14732.56
679.135	14715.62
679.484	14585
679.832	14669.29
680.181	14475.17
680.529	14553.81
680.877	14523.3
681.225	14496.19
681.573	14580.93
681.922	14541.84
682.27	14459.8
682.618	14421.16
682.966	14340.26
683.314	14389.07
683.661	14360.15
684.009	14286.02
684.357	14226.59
684.705	14264.78
685.053	14301.16
685.4	14309.98
685.748	14175.52
686.095	14220.94
686.443	14163.77
686.79	14086.93
687.138	14127.83
687.485	14122.86
687.832	14047.84
688.18	14050.55
688.527	13890.1
688.874	13876.77
689.221	13770.78
689.568	13761.29
689.915	13781.86
690.262	13798.13
690.609	13773.95
690.956	13700.95
691.303	13591.8
691.65	13602.65
691.997	13543.67
692.344	13500.51
692.69	13449.66
693.037	13503.44
693.383	13393.62
693.73	13405.82
694.077	13279.72
694.423	13219.84
694.769	13241.53
695.116	13205.15
695.462	13137.8
695.808	13099.16
696.155	13070.24
696.501	12928.54
696.847	13015.1
697.193	12891.26
697.539	12945.04
697.885	12841.77
698.231	12739.85
698.577	12805.84
698.923	12718.38
699.269	12591.15
699.614	12560.87
699.96	12546.41
700.306	12507.31
700.651	12458.27
700.997	12452.17
701.342	12428.44
701.688	12362.91
702.033	12287.21
702.379	12216.25
702.724	12153.65
703.069	12228.9
703.415	12100.77
703.76	12051.28
704.105	12078.17
704.45	12047.44
704.795	12015.8
705.14	11935.12
705.485	11947.78
705.83	11814.68
706.175	11888.35
706.52	11896.03
706.865	11830.95
707.209	11684.06
707.554	11659.43
707.899	11709.59
708.243	11732.87
708.588	11601.57
708.932	11580.78
709.277	11520.9
709.621	11503.72
709.966	11474.12
710.31	11377.17
710.654	11356.83
710.998	11332.65
711.342	11379.21
711.687	11293.78
712.031	11255.14
712.375	11211.08
712.719	11278.87
713.063	11173.11
713.407	11234.35
713.75	11155.94
714.094	11160.46
714.438	11092.89
714.782	11132.21
715.125	11055.6
715.469	11054.24
715.812	10939.67
716.156	10960.91
716.499	10972.21
716.843	10984.41
717.186	10876.17
717.53	10985.77
717.873	10901.25
718.216	10896.28
718.559	10838.43
718.902	10816.96
719.246	10896.96
719.589	10791.2
719.932	10677.53
720.275	10804.08
720.617	10783.06
720.96	10759.56
721.303	10745.78
721.646	10735.38
721.989	10665.78
722.331	10703.97
722.674	10707.81
723.016	10723.86
723.359	10617.42
723.701	10708.04
724.044	10667.36
724.386	10611.54
724.729	10680.47
725.071	10701.48
725.413	10711.88
725.755	10619
726.097	10596.18
726.439	10534.48
726.782	10527.7
727.124	10540.36
727.465	10484.77
727.807	10468.95
728.149	10512.11
728.491	10477.08
728.833	10522.51
729.175	10500.13
729.516	10455.39
729.858	10518.21
730.199	10548.72
730.541	10478.44
730.882	10454.94
731.224	10473.92
731.565	10418.55
731.906	10422.62
732.248	10428.95
732.589	10415.62
732.93	10387.82
733.271	10368.84
733.612	10418.1
733.953	10427.82
734.294	10473.69
734.635	10405.67
734.976	10425.33
735.317	10339.91
735.658	10369.06
735.999	10435.28
736.339	10392.11
736.68	10455.84
737.021	10435.73
737.361	10423.75
737.702	10485.22
738.042	10441.6
738.383	10384.2
738.723	10446.8
739.063	10480.7
739.404	10484.31
739.744	10449.06
740.084	10448.61
740.424	10525.22
740.764	10500.81
741.104	10524.54
741.444	10554.82
741.784	10463.3
742.124	10589.62
742.464	10516.86
742.804	10663.52
743.143	10579.91
743.483	10618.32
743.823	10636.63
744.162	10654.93
744.502	10769.28
744.841	10706.46
745.181	10812.22
745.52	10783.74
745.86	10910.52
746.199	10941.93
746.538	10988.71
746.877	10976.51
747.216	11064.41
747.556	11154.81
747.895	11117.52
748.234	11073.23
748.573	11248.81
748.911	11303.73
749.25	11358.64
749.589	11366.33
749.928	11457.62
750.267	11618.97
750.605	11654.45
750.944	11762.47
751.283	11829.82
751.621	11851.28
751.96	11913.66
752.298	12184.61
752.636	12243.59
752.975	12280.2
753.313	12379.86
753.651	12528.78
753.989	12627.08
754.327	12659.4
754.666	12801.32
755.004	13023.91
755.342	13166.5
755.679	13313.62
756.017	13313.84
756.355	13519.04
756.693	13627.73
757.031	13844.9
757.368	13860.5
757.706	14071.79
758.044	14235.63
758.381	14519.46
758.719	14671.32
759.056	14764.88
759.394	14952.45
759.731	15062.5
760.068	15270.4
760.405	15419.1
760.743	15445.77
761.08	15635.14
761.417	15899.77
761.754	15927.79
762.091	16136.82
762.428	16417.94
762.765	16390.37
763.102	16673.08
763.438	16679.41
763.775	16982.9
764.112	17275.32
764.449	17441.19
764.785	17484.36
765.122	17536.78
765.458	17732.94
765.795	17906.72
766.131	18045.25
766.467	18222.64
766.804	18357.78
767.14	18512.13
767.476	18705.12
767.812	18660.82
768.148	18893.81
768.485	18916.86
768.821	19048.61
769.157	19223.52
769.492	19248.15
769.828	19421.48
770.164	19455.83
770.5	19588.26
770.836	19728.82
771.171	19758.87
771.507	19772.66
771.842	19878.42
772.178	20075.47
772.513	20142.37
772.849	20125.64
773.184	20236.37
773.519	20257.84
773.855	20359.31
774.19	20447.67
774.525	20505.07
774.86	20642.24
775.195	20704.16
775.53	20582.58
775.865	20631.39
776.2	20664.16
776.535	20531.51
776.87	20665.97
777.205	20684.5
777.539	20632.97
777.874	20777.38
778.209	20760.43
778.543	20736.25
778.878	20675.01
779.212	20816.47
779.547	20755.68
779.881	20880.2
780.215	20832.29
780.55	20976.92
780.884	20814.89
781.218	20829.13
781.552	20879.97
781.886	20818.28
782.22	20718.85
782.554	20742.12
782.888	20595.24
783.222	20722.01
783.556	20666.19
783.889	20598.17
784.223	20450.15
784.557	20487.44
784.89	20679.3
785.224	20539.19
785.557	20514.11
785.891	20476.37
786.224	20369.25
786.558	20448.57
786.891	20310.27
787.224	20320.21
787.557	20266.43
787.891	20270.72
788.224	20330.84
788.557	20300.78
788.89	20327.67
789.223	20307.33
789.556	20169.71
789.888	20175.59
790.221	20170.39
790.554	19945.99
790.887	20093.33
791.219	19990.05
791.552	19875.71
791.884	19864.41
792.217	19884.29
792.549	19762.04
792.882	19700.12
793.214	19729.95
793.546	19785.99
793.879	19567.24
794.211	19517.75
794.543	19627.58
794.875	19611.08
795.207	19626.22
795.539	19487.92
795.871	19438.88
796.203	19348.49
796.535	19191.2
796.867	19234.14
797.198	19234.37
797.53	19205.22
797.862	19082.73
798.193	19105.78
798.525	18957.99
798.856	19066.24
799.188	18836.64
799.519	18794.38
799.85	18694.27
800.182	18807.71
800.513	18713.25
800.844	18507.38
801.175	18657.89
801.506	18678.45
801.837	18565.91
802.168	18523.2
802.499	18487.04
802.83	18408.85
803.161	18380.83
803.491	18306.48
803.822	18316.88
804.153	18201.85
804.483	18148.29
804.814	18058.13
805.145	18039.14
805.475	18075.53
805.805	17964.12
806.136	17934.97
806.466	17922.76
806.796	17834.4
807.126	17841.18
807.457	17781.52
807.787	17694.52
808.117	17666.05
808.447	17666.05
808.777	17647.29
809.107	17572.49
809.436	17595.77
809.766	17496.11
810.096	17473.51
810.426	17342.67
810.755	17393.96
811.085	17360.07
811.414	17375.66
811.744	17226.96
812.073	17229.9
812.403	17115.78
812.732	17111.71
813.061	17109.9
813.39	17024.26
813.719	16974.77
814.049	17137.02
814.378	16969.57
814.707	16967.76
815.036	16979.06
815.365	16822.23
815.693	16713.3
816.022	16749.91
816.351	16818.84
816.68	16665.85
817.008	16705.17
817.337	16499.75
817.665	16563.02
817.994	16582.01
818.322	16561.67
818.651	16476.7
818.979	16374.33
819.307	16492.97
819.636	16431.05
819.964	16332.07
820.292	16413.65
820.62	16305.18
820.948	16205.97
821.276	16446.42
821.604	16280.09
821.932	16337.27
822.259	16326.42
822.587	16213.2
822.915	16285.52
823.243	16351.51
823.57	16288.91
823.898	16336.14
824.225	16212.3
824.553	16289.13
824.88	16290.26
825.207	16310.15
825.535	16198.29
825.862	16349.7
826.189	16268.12
826.516	16397.15
826.843	16327.1
827.17	16286.2
827.497	16374.78
827.824	16386.98
828.151	16400.32
828.478	16349.02
828.805	16396.02
829.131	16317.83
829.458	16362.13
829.785	16270.15
830.111	16347.21
830.438	16363.93
830.764	16260.43
831.09	16411.62
831.417	16279.64
831.743	16363.48
832.069	16250.94
832.395	16267.21
832.722	16272.41
833.048	16213.43
833.374	16248.46
833.7	16183.83
834.026	16111.06
834.351	16224.05
834.677	16123.94
835.003	16219.31
835.329	16160.55
835.654	16084.85
835.98	15932.53
836.306	16063.83
836.631	16045.52
836.956	16115.35
837.282	16008.46
837.607	15998.97
837.932	15981.12
838.258	15972.98
838.583	15949.48
838.908	15801.46
839.233	15916.04
839.558	15878.07
839.883	15742.93
840.208	15784.74
840.533	15745.19
840.858	15691.64
841.182	15771.86
841.507	15653.22
841.832	15554.01
842.156	15587.91
842.481	15569.83
842.805	15624.97
843.13	15457.29
843.454	15465.2
843.778	15357.63
844.103	15365.54
844.427	15404.41
844.751	15418.2
845.075	15302.04
845.399	15254.81
845.723	15047.81
846.047	15159.9
846.371	14977.53
846.695	15165.1
847.019	14934.82
847.343	14888.27
847.666	14804.43
847.99	14820.02
848.313	14781.15
848.637	14546.13
848.96	14596.75
849.284	14613.25
849.607	14530.76
849.931	14456.87
850.254	14365.57
850.577	14275.85
850.9	14235.18
851.223	14169.87
851.546	14061.62
851.869	13974.17
852.192	14019.59
852.515	13985.92
852.838	13886.26
853.161	13862.76
853.483	13829.76
853.806	13798.13
854.129	13735.08
854.451	13660.73
854.774	13689.88
855.096	13549.77
855.419	13558.36
855.741	13522.43
856.063	13417.8
856.385	13453.28
856.708	13406.05
857.03	13322.21
857.352	13350
857.674	13295.77
857.996	13216.45
858.318	13147.52
858.64	13254.19
858.961	13095.77
859.283	13067.75
859.605	13008.99
859.926	13057.35
860.248	12952.72
860.57	12862.56
860.891	12973.06
861.212	12869.34
861.534	12856.46
861.855	12814.65
862.176	12842.44
862.498	12782.11
862.819	12791.6
863.14	12727.19
863.461	12700.3
863.782	12634.77
864.103	12709.34
864.424	12644.26
864.745	12628.21
865.065	12552.73
865.386	12571.27
865.707	12510.25
866.027	12489.01
866.348	12487.88
866.668	12505.96
866.989	12432.96
867.309	12355.45
867.63	12382.34
867.95	12380.76
868.27	12349.12
868.59	12399.74
868.91	12289.46
869.23	12318.39
869.55	12266.41
869.87	12294.21
870.19	12350.71
870.51	12255.79
870.83	12290.14
871.15	12188.22
871.469	12188
871.789	12101.45
872.109	12183.71
872.428	12019.19
872.748	12077.72
873.067	12066.87
873.386	12066.65
873.706	11999.76
874.025	11995.91
874.344	11912.3
874.663	11956.82
874.982	11947.33
875.301	11958.4
875.62	11879.98
875.939	11855.8
876.258	11848.12
876.577	11866.65
876.896	11818.06
877.214	11862.81
877.533	11749.37
877.852	11749.14
878.17	11745.3
878.489	11729.71
878.807	11713.66
879.125	11665.07
879.444	11640.44
879.762	11658.97
880.08	11672.08
880.398	11554.34
880.716	11569.03
881.034	11588.69
881.352	11486.32
881.67	11400.67
881.988	11504.85
882.306	11439.09
882.624	11328.81
882.941	11352.09
883.259	11275.48
883.577	11350.73
883.894	11218.76
884.212	11263.05
884.529	11338.08
884.846	11256.72
885.164	11205.88
885.481	11126.11
885.798	11190.28
886.115	11122.94
886.432	11123.39
886.75	11120.46
887.067	11071.42
887.383	11062.83
887.7	11011.53
888.017	10969.27
888.334	10966.11
888.651	10948.48
888.967	10906.9
889.284	10858.09
889.6	10880.01
889.917	10786.91
890.233	10819.45
890.55	10807.02
890.866	10709.62
891.182	10735.61
891.498	10631.43
891.815	10617.87
892.131	10604.09
892.447	10603.41
892.763	10486.35
893.079	10465.33
893.395	10478.67
893.71	10451.77
894.026	10367.93
894.342	10365.67
894.657	10351.66
894.973	10248.61
895.289	10264.89
895.604	10252
895.92	10127.04
896.235	10092.23
896.55	10095.62
896.865	10134.04
897.181	10053.59
897.496	10045.46
897.811	9951.67
898.126	9914.39
898.441	9946.93
898.756	9898.34
899.071	9816.99
899.386	9805.69
899.7	9757.78
900.015	9756.88
900.33	9627.61
900.644	9591.68
900.959	9600.27
901.273	9613.15
901.588	9521.63
901.902	9471.69
902.216	9504.68
902.531	9488.18
902.845	9413.83
903.159	9390.33
903.473	9318.92
903.787	9319.15
904.101	9263.56
904.415	9196.44
904.729	9282.99
905.042	9185.59
905.356	9181.07
905.67	9099.27
905.984	9097.68
906.297	8998.25
906.611	8982.66
906.924	8991.25
907.237	8986.73
907.551	8957.12
907.864	8840.97
908.177	8885.94
908.491	8805.04
908.804	8713.06
909.117	8667.64
909.43	8671.26
909.743	8648.2
910.056	8588.55
910.368	8535.44
910.681	8530.02
910.994	8466.74
911.307	8422.67
911.619	8447.53
911.932	8403.92
912.244	8345.84
912.557	8296.8
912.869	8287.31
913.181	8300.42
913.494	8242.34
913.806	8208.22
914.118	8172.06
914.43	8040.54
914.742	8119.18
915.054	8013.65
915.366	8006.19
915.678	7992.4
915.99	7935.91
916.302	7908.79
916.613	7929.35
916.925	7816.14
917.236	7865.63
917.548	7780.21
917.859	7834.44
918.171	7734.1
918.482	7729.13
918.794	7655.24
919.105	7608.23
919.416	7577.72
919.727	7683.71
920.038	7537.95
920.349	7477.39
920.66	7513.32
920.971	7477.16
921.282	7412.76
921.593	7372.76
921.903	7332.31
922.214	7326.66
922.525	7254.57
922.835	7264.29
923.146	7228.81
923.456	7214.8
923.767	7152.2
924.077	7172.76
924.387	7115.14
924.697	7065.2
925.008	7044.18
925.318	7061.81
925.628	6987.91
925.938	6961.7
926.248	6926.22
926.558	6843.96
926.867	6903.39
927.177	6935.71
927.487	6824.98
927.796	6811.19
928.106	6793.79
928.416	6690.29
928.725	6742.94
929.034	6686.9
929.344	6728.48
929.653	6637.64
929.962	6582.5
930.271	6527.13
930.581	6596.73
930.89	6545.66
931.199	6397.19
931.508	6453.69
931.817	6499.79
932.125	6413.24
932.434	6390.19
932.743	6370.07
933.051	6290.3
933.36	6242.62
933.669	6227.93
933.977	6224.77
934.286	6189.06
934.594	6231.55
934.902	6132.11
935.21	6152.45
935.519	6105.45
935.827	6071.32
936.135	6060.48
936.443	6024.54
936.751	5975.28
937.059	5991.33
937.367	5904.1
937.674	5972.34
937.982	5899.12
938.29	5874.27
938.597	5859.8
938.905	5825.45
939.213	5810.99
939.52	5752.46
939.827	5740.71
940.135	5674.05
940.442	5693.48
940.749	5703.2
941.056	5674.95
941.363	5610.09
941.67	5615.97
941.977	5573.48
942.284	5576.65
942.591	5536.2
942.898	5507.27
943.205	5488.06
943.511	5477.44
943.818	5486.71
944.125	5444.45
944.431	5438.57
944.738	5435.18
945.044	5375.97
945.35	5327.61
945.657	5279.25
945.963	5273.83
946.269	5272.7
946.575	5211.23
946.881	5191.12
947.187	5174.17
947.493	5190.22
947.799	5093.04
948.105	5138.01
948.41	5094.85
948.716	5105.02
949.022	5070.9
949.327	5079.26
949.633	5005.14
949.938	5023.89
950.244	5004.01
950.549	4954.52
950.854	4958.58
951.16	4904.12
951.465	4857.57
951.77	4857.8
952.075	4838.81
952.38	4858.93
952.685	4797.01
952.99	4766.05
953.294	4749.78
953.599	4724.24
953.904	4736.44
954.209	4712.26
954.513	4703.45
954.818	4640.63
955.122	4652.38
955.426	4636.33
955.731	4588.88
956.035	4579.84
956.339	4575.09
956.643	4569.67
956.948	4475.43
957.252	4554.3
957.556	4482.66
957.86	4438.15
958.163	4474.98
958.467	4448.54
958.771	4406.73
959.075	4438.6
959.378	4338.49
959.682	4300.3
959.985	4337.13
960.289	4323.8
960.592	4309.56
960.896	4274.99
961.199	4285.83
961.502	4236.57
961.805	4185.72
962.108	4161.77
962.411	4170.81
962.714	4164.48
963.017	4128.78
963.32	4142.33
963.623	4144.82
963.926	4085.16
964.228	4076.35
964.531	4039.74
964.833	4043.35
965.136	4011.72
965.438	3963.36
965.741	4038.38
966.043	3970.59
966.345	3957.93
966.648	3911.38
966.95	3967.88
967.252	3886.52
967.554	3911.83
967.856	3862.79
968.158	3838.61
968.46	3856.24
968.761	3778.95
969.063	3789.35
969.365	3758.84
969.666	3784.6
969.968	3753.87
970.269	3757.71
970.571	3739.18
970.872	3699.63
971.174	3693.08
971.475	3671.84
971.776	3649.01
972.077	3646.75
972.378	3624.61
972.679	3605.63
972.98	3640.88
973.281	3581.22
973.582	3545.51
973.883	3515.68
974.183	3498.51
974.484	3506.42
974.785	3493.99
975.085	3490.37
975.386	3480.66
975.686	3438.85
975.986	3448.12
976.287	3396.59
976.587	3342.81
976.887	3378.51
977.187	3348.68
977.487	3383.26
977.787	3326.31
978.087	3310.49
978.387	3330.38
978.687	3262.81
978.987	3302.13
979.286	3221.45
979.586	3244.96
979.885	3260.78
980.185	3168.12
980.484	3206.99
980.784	3206.09
981.083	3198.18
981.382	3151.4
981.682	3160.44
981.981	3112.98
982.28	3125.19
982.579	3097.84
982.878	3114.79
983.177	3054.45
983.475	3065.98
983.774	3030.73
984.073	3013.32
984.372	3016.49
984.67	2972.65
984.969	2975.13
985.267	2989.37
985.566	2995.7
985.864	2960.67
986.162	2929.71
986.461	2936.49
986.759	2929.03
987.057	2891.07
987.355	2871.63
987.653	2866.44
987.951	2840.45
988.249	2841.8
988.547	2831.18
988.844	2851.75
989.142	2808.13
989.44	2775.82
989.737	2786.89
990.035	2784.18
990.332	2773.56
990.63	2722.94
990.927	2749.83
991.224	2737.63
991.521	2695.14
991.819	2706.67
992.116	2684.52
992.413	2697.17
992.71	2620.79
993.006	2660.57
993.303	2611.75
993.6	2655.82
993.897	2618.76
994.193	2630.51
994.49	2572.88
994.787	2575.6
995.083	2573.34
995.379	2560.23
995.676	2542.83
995.972	2498.08
996.268	2534.69
996.565	2486.56
996.861	2479.33
997.157	2428.03
997.453	2476.16
997.749	2472.77
998.044	2405.88
998.34	2415.83
998.636	2419.89
998.932	2400.91
999.227	2385.32
999.523	2377.18
999.818	2351.87
1000.114	2362.04
1000.409	2352.55
1000.704	2327.24
1001	2274.36
1001.295	2278.88
1001.59	2282.04
1001.885	2267.81
1002.18	2232.33
1002.475	2229.62
1002.77	2206.57
1003.065	2238.66
1003.359	2218.32
1003.654	2197.75
1003.949	2197.3
1004.243	2134.7
1004.538	2154.82
1004.832	2141.94
1005.127	2157.53
1005.421	2153.01
1005.715	2115.72
1006.009	2066.91
1006.304	2091.77
1006.598	2063.75
1006.892	2047.47
1007.186	2033.46
1007.48	2053.58
1007.773	2000.7
1008.067	2004.31
1008.361	2009.51
1008.655	1983.52
1008.948	1986.69
1009.242	1999.11
1009.535	1922.51
1009.829	1928.83
1010.122	1908.27
1010.415	1923.64
1010.708	1908.04
1011.001	1915.73
1011.295	1910.08
1011.588	1906.91
1011.881	1851.55
1012.173	1834.37
1012.466	1837.31
1012.759	1802.06
1013.052	1804.99
1013.344	1786.46
1013.637	1811.77
1013.93	1779.01
1014.222	1783.98
1014.514	1757.76
1014.807	1737.88
1015.099	1730.42
1015.391	1724.09
1015.683	1717.77
1015.976	1721.38
1016.268	1709.18
1016.56	1700.14
1016.851	1680.93
1017.143	1640.48
1017.435	1676.86
1017.727	1650.42
1018.018	1623.08
1018.31	1611.55
1018.602	1603.64
1018.893	1628.73
1019.185	1586.92
1019.476	1587.15
1019.767	1619.92
1020.058	1559.8
1020.35	1530.88
1020.641	1559.8
1020.932	1525
1021.223	1544.66
1021.514	1520.48
1021.804	1520.48
1022.095	1505.12
1022.386	1487.26
1022.677	1499.47
1022.967	1477.32
1023.258	1476.19
1023.548	1414.95
1023.839	1418.79
1024.129	1418.79
1024.419	1420.15
1024.709	1413.37
1025	1381.73
1025.29	1426.47
1025.58	1399.81
1025.87	1396.19
1026.16	1365.46
1026.449	1350.32
1026.739	1368.62
1027.029	1317.78
1027.319	1319.58
1027.608	1323.88
1027.898	1308.74
1028.187	1346.7
1028.477	1285.91
1028.766	1274.61
1029.055	1285.01
1029.344	1260.6
1029.634	1280.49
1029.923	1241.39
1030.212	1228.96
1030.501	1236.42
1030.79	1243.43
1031.078	1199.36
1031.367	1196.65
1031.656	1199.81
1031.945	1220.15
1032.233	1185.35
1032.522	1192.58
1032.81	1176.54
1033.099	1158.23
1033.387	1148.51
1033.675	1140.61
1033.963	1123.88
1034.251	1141.96
1034.54	1126.59
1034.828	1123.88
1035.116	1122.75
1035.403	1106.48
1035.691	1081.85
1035.979	1098.12
1036.267	1078.46
1036.554	1047.5
1036.842	1040.04
1037.129	1059.48
1037.417	1014.28
1037.704	1066.94
1037.992	1032.36
1038.279	1028.52
1038.566	1029.87
1038.853	1029.87
1039.14	1029.87
