Data from hue_130_FLMS001491_00093.txt Node
Date: Tue Feb 07 16:58:20 GMT 2017
User: dcchb
Spectrometer: FLMS00149
Trigger mode: 0
Integration Time (sec): 2.000000E-2
Scans to average: 10
Electric dark correction enabled: true
Nonlinearity correction enabled: false
Boxcar width: 0
XAxis mode: Wavelengths
Number of Pixels in Spectrum: 2048
>>>>>Begin Spectral Data<<<<<
341.393	-11.82
341.776	-11.82
342.16	-11.82
342.543	-70.58
342.927	-75.77
343.31	-93.85
343.693	-63.8
344.077	-57.02
344.46	-68.32
344.843	-55.44
345.226	-39.62
345.61	-46.62
345.993	-8.43
346.376	-10.24
346.759	23.88
347.142	31.34
347.525	46.71
347.908	71.79
348.291	77.89
348.674	78.35
349.057	113.37
349.44	112.24
349.823	109.53
350.206	141.39
350.588	203.31
350.971	201.28
351.354	210.77
351.737	229.3
352.119	253.71
352.502	259.81
352.884	283.76
353.267	296.87
353.65	266.14
354.032	294.38
354.414	290.32
354.797	322.41
355.179	363.99
355.562	310.2
355.944	328.28
356.326	310.66
356.709	321.95
357.091	308.4
357.473	339.58
357.855	321.95
358.238	338.23
358.62	355.4
359.002	320.82
359.384	340.03
359.766	343.42
360.148	326.25
360.53	334.61
360.912	329.86
361.294	335.74
361.676	339.81
362.057	348.17
362.439	328.96
362.821	328.51
363.203	313.14
363.584	312.46
363.966	357.66
364.348	331.9
364.729	318.79
365.111	294.38
365.493	325.57
365.874	312.92
366.256	302.07
366.637	296.64
367.019	313.82
367.4	303.65
367.781	308.4
368.163	309.07
368.544	288.96
368.925	317.44
369.306	313.82
369.688	307.49
370.069	303.65
370.45	311.33
370.831	307.04
371.212	295.29
371.593	294.16
371.974	310.43
372.355	331.67
372.736	319.02
373.117	321.05
373.498	328.73
373.879	304.33
374.26	316.08
374.641	318.34
375.021	312.01
375.402	306.59
375.783	314.5
376.163	307.49
376.544	309.07
376.925	319.92
377.305	329.64
377.686	333.03
378.066	326.02
378.447	305.91
378.827	333.48
379.208	334.16
379.588	318.57
379.968	316.08
380.349	323.99
380.729	311.79
381.109	343.65
381.489	347.49
381.87	358.79
382.25	323.99
382.63	362.18
383.01	342.75
383.39	351.33
383.77	327.83
384.15	319.92
384.53	330.99
384.91	319.92
385.29	344.1
385.67	365.8
386.049	343.2
386.429	309.53
386.809	336.64
387.189	340.49
387.568	349.52
387.948	333.71
388.328	348.39
388.707	340.26
389.087	359.02
389.466	351.78
389.846	355.4
390.225	359.47
390.605	354.27
390.984	364.67
391.363	343.42
391.743	356.98
392.122	362.18
392.501	367.83
392.881	369.86
393.26	368.73
393.639	369.19
394.018	362.18
394.397	375.51
394.776	362.86
395.155	356.53
395.534	376.64
395.913	380.94
396.292	359.69
396.671	377.32
397.05	369.64
397.429	352.24
397.808	361.5
398.186	380.48
398.565	386.13
398.944	409.86
399.323	378.22
399.701	387.72
400.08	378
400.458	379.58
400.837	396.08
401.215	370.99
401.594	385.91
401.972	395.63
402.351	391.11
402.729	392.91
403.107	414.61
403.486	409.41
403.864	413.03
404.242	387.49
404.62	404.21
404.999	414.83
405.377	405.57
405.755	407.6
406.133	420.03
406.511	406.02
406.889	425.91
407.267	419.58
407.645	423.2
408.023	431.1
408.401	431.1
408.779	410.54
409.156	439.69
409.534	422.07
409.912	436.75
410.29	443.53
410.667	437.43
411.045	446.92
411.422	431.33
411.8	452.35
412.178	457.77
412.555	454.83
412.933	450.99
413.31	437.66
413.687	439.01
414.065	471.33
414.442	476.75
414.819	467.49
415.197	466.36
415.574	460.26
415.951	477.88
416.328	483.98
416.705	482.18
417.082	495.06
417.46	489.18
417.837	485.11
418.214	478.33
418.591	512.01
418.967	484.21
419.344	486.24
419.721	491.44
420.098	500.93
420.475	526.7
420.852	518.56
421.228	501.84
421.605	519.24
421.982	523.98
422.358	535.28
422.735	527.83
423.111	523.53
423.488	538.45
423.864	523.31
424.241	541.61
424.617	546.13
424.994	542.29
425.37	541.16
425.746	524.21
426.123	559.01
426.499	560.59
426.875	577.09
427.251	546.13
427.627	582.51
428.003	568.5
428.379	549.75
428.756	560.37
429.132	564.66
429.507	570.08
429.883	611.89
430.259	602.17
430.635	582.74
431.011	617.99
431.387	617.99
431.763	611.21
432.138	627.03
432.514	599.46
432.89	633.36
433.265	629.74
433.641	636.07
434.016	641.27
434.392	649.18
434.767	652.34
435.143	636.97
435.518	653.02
435.894	683.75
436.269	700.7
436.644	672.68
437.02	664.54
437.395	697.76
437.77	696.63
438.145	709.29
438.52	706.13
438.895	718.78
439.271	720.36
439.646	714.26
440.021	739.12
440.395	721.04
440.77	727.82
441.145	718.78
441.52	751.77
441.895	727.37
442.27	746.58
442.645	750.42
443.019	767.14
443.394	744.77
443.769	774.15
444.143	765.56
444.518	783.86
444.892	781.83
445.267	794.03
445.641	831.09
446.016	781.6
446.39	786.58
446.764	811.66
447.139	797.42
447.513	828.83
447.887	811.43
448.262	815.95
448.636	812.56
449.01	824.99
449.384	834.94
449.758	829.06
450.132	839.46
450.506	864.54
450.88	878.32
451.254	857.53
451.628	859.34
452.002	882.62
452.376	891.21
452.75	906.57
453.123	914.48
453.497	921.26
453.871	932.79
454.244	935.05
454.618	934.14
454.992	943.86
455.365	944.31
455.739	967.14
456.112	984.76
456.486	988.15
456.859	984.99
457.232	1003.52
457.606	1021.15
457.979	1025.89
458.352	1039.68
458.725	1040.81
459.099	1047.36
459.472	1037.87
459.845	1083.29
460.218	1104.99
460.591	1106.79
460.964	1093.23
461.337	1138.88
461.71	1133.01
462.083	1157.19
462.456	1179.56
462.829	1185.89
463.201	1188.6
463.574	1221.14
463.947	1217.75
464.32	1268.6
464.692	1274.7
465.065	1255.94
465.438	1274.47
465.81	1300.46
466.183	1339.1
466.555	1361.48
466.928	1335.49
467.3	1367.13
467.672	1399.89
468.045	1443.73
468.417	1436.28
468.789	1455.71
469.161	1480.34
469.534	1513.79
469.906	1561.24
470.278	1569.61
470.65	1559.89
471.022	1633.11
471.394	1663.61
471.766	1680.11
472.138	1694.35
472.51	1783.61
472.882	1782.93
473.253	1851.63
473.625	1838.3
473.997	1921.01
474.369	1897.51
474.74	1984.06
475.112	2030.16
475.484	2100.44
475.855	2085.98
476.227	2092.98
476.598	2250.04
476.97	2227.67
477.341	2345.4
477.713	2351.05
478.084	2395.35
478.455	2520.99
478.827	2546.53
479.198	2637.83
479.569	2682.57
479.94	2755.34
480.311	2803.92
480.682	2878.05
481.053	2988.78
481.424	3071.26
481.795	3158.04
482.166	3220.18
482.537	3324.59
482.908	3458.82
483.279	3511.25
483.65	3634.86
484.021	3715.09
484.391	3822.43
484.762	3854.97
485.133	3949.2
485.503	4085.7
485.874	4210.89
486.244	4347.61
486.615	4452.24
486.985	4563.43
487.356	4719.81
487.726	4803.42
488.097	4906.24
488.467	5053.81
488.837	5254.03
489.207	5297.42
489.578	5436.62
489.948	5525.66
490.318	5698.08
490.688	5754.35
491.058	5933.78
491.428	6063.72
491.798	6209.03
492.168	6360.21
492.538	6464.39
492.908	6590.26
493.278	6769.24
493.648	6805.63
494.017	6905.51
494.387	7111.15
494.757	7223.02
495.126	7333.75
495.496	7405.38
495.866	7580.52
496.235	7650.8
496.605	7867.07
496.974	7942.55
497.344	8140.28
497.713	8197
498.082	8289.2
498.452	8410.1
498.821	8510.21
499.19	8621.85
499.559	8721.28
499.928	8823.43
500.298	8904.55
500.667	9041.5
501.036	9087.15
501.405	9274.49
501.774	9291.66
502.143	9425.22
502.512	9536.4
502.88	9573.46
503.249	9643.97
503.618	9766.68
503.987	9841.7
504.356	9890.29
504.724	9935.94
505.093	9971.42
505.462	10120.57
505.83	10216.84
506.199	10296.83
506.567	10460.9
506.936	10394.01
507.304	10537.28
507.672	10581.8
508.041	10698.63
508.409	10807.33
508.777	10842.13
509.145	10877.38
509.514	10918.96
509.882	10947.44
510.25	11032.18
510.618	11077.15
510.986	11113.76
511.354	11257.71
511.722	11313.08
512.09	11383.13
512.458	11404.15
512.826	11457.71
513.193	11546.07
513.561	11543.13
513.929	11575.22
514.297	11708.77
514.664	11728.21
515.032	11739.51
515.4	11815.44
515.767	11844.14
516.135	11928.43
516.502	11761.43
516.869	11960.52
517.237	11900.63
517.604	11847.53
517.972	12054.53
518.339	12109.89
518.706	12040.06
519.073	12087.52
519.44	12120.51
519.808	12191.02
520.175	12166.16
520.542	12325.26
520.909	12386.27
521.276	12317.35
521.643	12393.28
522.009	12399.83
522.376	12497.91
522.743	12521.63
523.11	12593.95
523.477	12644.79
523.843	12668.07
524.21	12701.29
524.577	12739.48
524.943	12735.41
525.31	12732.25
525.676	12906.26
526.043	12871.23
526.409	12849.08
526.776	12996.42
527.142	12897.9
527.508	12855.18
527.874	12977.89
528.241	12891.57
528.607	12901.96
528.973	12998.68
529.339	12871.91
529.705	13048.63
530.071	13029.42
530.437	13031.9
530.803	13066.93
531.169	13038.68
531.535	12948.52
531.901	12985.12
532.267	12999.36
532.632	13042.75
532.998	12933.6
533.364	12967.27
533.73	13058.34
534.095	13056.76
534.461	12979.93
534.826	13035.97
535.192	12938.57
535.557	12990.77
535.923	12841.4
536.288	12932.7
536.653	12983.54
537.019	12793.94
537.384	12901.29
537.749	12878.69
538.114	12779.48
538.479	12775.86
538.845	12773.83
539.21	12666.71
539.575	12684.34
539.94	12659.26
540.305	12666.04
540.67	12599.82
541.034	12599.15
541.399	12619.48
541.764	12551.46
542.129	12558.24
542.494	12535.87
542.858	12444.8
543.223	12513.05
543.587	12418.81
543.952	12361.64
544.316	12346.5
544.681	12291.36
545.045	12281.41
545.41	12296.56
545.774	12242.55
546.138	12227.18
546.503	12155.99
546.867	12202.32
547.231	12220.63
547.595	12199.38
547.959	12210.68
548.324	12034.42
548.688	12049.1
549.052	12112.83
549.416	11984.02
549.779	11904.48
550.143	11911.48
550.507	11937.02
550.871	11935.66
551.235	11792.39
551.599	11865.15
551.962	11860.63
552.326	11791.71
552.689	11774.31
553.053	11735.21
553.417	11661.09
553.78	11828.09
554.143	11689.34
554.507	11612.05
554.87	11679.4
555.234	11738.83
555.597	11574.09
555.96	11552.17
556.323	11573.18
556.686	11532.28
557.05	11546.29
557.413	11571.6
557.776	11618.38
558.139	11558.04
558.502	11518.04
558.865	11494.54
559.228	11558.95
559.59	11517.14
559.953	11462.9
560.316	11611.38
560.679	11558.27
561.041	11469.01
561.404	11565.05
561.767	11550.13
562.129	11481.66
562.492	11597.82
562.854	11589.46
563.217	11526.86
563.579	11542
563.941	11527.31
564.304	11572.96
564.666	11613.64
565.028	11559.17
565.39	11547.2
565.753	11608.66
566.115	11622.9
566.477	11737.47
566.839	11637.36
567.201	11671.26
567.563	11685.72
567.925	11653.63
568.287	11641.43
568.648	11654.09
569.01	11685.5
569.372	11759.62
569.734	11723.24
570.095	11738.15
570.457	11723.91
570.819	11781.09
571.18	11710.58
571.542	11803.46
571.903	11781.31
572.265	11724.59
572.626	11785.38
572.987	11747.87
573.349	11741.32
573.71	11865.15
574.071	11879.62
574.432	11852.95
574.794	11934.98
575.155	11918.03
575.516	11855.89
575.877	11822.67
576.238	11903.12
576.599	11904.93
576.96	11836.45
577.32	11870.8
577.681	11870.58
578.042	11947.64
578.403	11841.2
578.763	11859.73
579.124	11956
579.485	11893.18
579.845	11914.19
580.206	11952.84
580.566	11902.22
580.927	11993.51
581.287	11936.11
581.648	11885.72
582.008	11986.51
582.368	11913.06
582.728	11910.12
583.089	11844.82
583.449	11855.44
583.809	11898.37
584.169	11844.36
584.529	11801.65
584.889	11960.74
585.249	11808.88
585.609	11769.79
585.969	11872.39
586.329	11847.75
586.688	11870.13
587.048	11844.59
587.408	11825.83
587.768	11782.22
588.127	11724.14
588.487	11736.8
588.846	11818.83
589.206	11787.87
589.565	11708.55
589.925	11855.89
590.284	11738.6
590.643	11694.76
591.003	11752.39
591.362	11740.19
591.721	11737.7
592.08	11735.44
592.44	11728.66
592.799	11712.39
593.158	11760.07
593.517	11716.68
593.876	11766.4
594.235	11666.29
594.593	11674.42
594.952	11714.42
595.311	11709
595.67	11663.35
596.029	11651.15
596.387	11723.24
596.746	11688.89
597.104	11610.7
597.463	11586.07
597.822	11700.64
598.18	11598.04
598.538	11608.66
598.897	11722.33
599.255	11578.83
599.613	11708.77
599.972	11600.98
600.33	11690.02
600.688	11618.38
601.046	11658.83
601.404	11643.47
601.762	11591.04
602.12	11702.67
602.478	11632.62
602.836	11629.23
603.194	11523.69
603.552	11747.42
603.91	11556.91
604.268	11680.07
604.625	11575.67
604.983	11657.48
605.341	11607.76
605.698	11600.75
606.056	11666.29
606.413	11619.28
606.771	11726.4
607.128	11629.45
607.485	11715.78
607.843	11624.03
608.2	11627.42
608.557	11696.57
608.914	11641.43
609.272	11782.9
609.629	11714.88
609.986	11773.41
610.343	11687.98
610.7	11765.95
611.057	11764.37
611.414	11759.39
611.771	11772.95
612.127	11826.29
612.484	11724.59
612.841	11811.6
613.198	11768.89
613.554	11810.69
613.911	11876.68
614.267	11817.47
614.624	11729.11
614.98	11862.22
615.337	11912.38
615.693	11866.74
616.05	11843.23
616.406	11922.78
616.762	11803.46
617.118	11871.03
617.475	11916.45
617.831	11900.41
618.187	11993.51
618.543	11861.54
618.899	11956.9
619.255	11964.59
619.611	12029.9
619.967	11964.13
620.323	12050.46
620.678	11888.43
621.034	11929.79
621.39	11923.68
621.746	11991.25
622.101	12114.87
622.457	11951.25
622.812	11953.74
623.168	12040.97
623.523	12030.8
623.879	11991.7
624.234	11991.25
624.589	11960.07
624.945	11996.45
625.3	12016.11
625.655	12049.78
626.01	11959.61
626.365	12000.07
626.72	11932.5
627.075	11978.6
627.43	11881.2
627.785	11923.91
628.14	11899.96
628.495	11997.13
628.85	11856.11
629.205	11876.23
629.559	11950.8
629.914	11863.57
630.269	11890.92
630.623	11823.57
630.978	11833.29
631.332	11912.16
631.687	11918.03
632.041	11881.88
632.396	11825.16
632.75	11755.55
633.104	11827.19
633.459	11758.72
633.813	11676.91
634.167	11796.68
634.521	11777.7
634.875	11724.14
635.229	11742.22
635.583	11744.93
635.937	11714.2
636.291	11686.4
636.645	11685.72
636.999	11647.08
637.352	11641.66
637.706	11569.34
638.06	11636.69
638.413	11599.17
638.767	11584.94
639.121	11545.16
639.474	11577.25
639.828	11533.19
640.181	11533.64
640.534	11608.66
640.888	11447.99
641.241	11461.55
641.594	11570.47
641.947	11520.08
642.301	11439.85
642.654	11516.46
643.007	11581.55
643.36	11454.09
643.713	11476.92
644.066	11455
644.419	11376.58
644.771	11465.84
645.124	11277.15
645.477	11248.9
645.83	11148.79
646.182	11167.32
646.535	11160.31
646.888	11156.7
647.24	11082.12
647.593	11160.31
647.945	11072.18
648.298	11053.65
648.65	11066.76
649.002	11026.98
649.355	11090.26
649.707	11079.86
650.059	11186.75
650.411	11205.96
650.763	11239.63
651.115	11386.3
651.467	11349.24
651.819	11264.04
652.171	11314.43
652.523	11342.46
652.875	11299.97
653.227	11307.2
653.578	11313.98
653.93	11330.03
654.282	11296.13
654.633	11318.05
654.985	11338.84
655.337	11253.19
655.688	11297.03
656.039	11269.92
656.391	11288.9
656.742	11275.34
657.094	11279.41
657.445	11387.43
657.796	11329.35
658.147	11280.76
658.498	11308.11
658.849	11356.92
659.2	11376.58
659.551	11294.77
659.902	11336.81
660.253	11268.11
660.604	11421.55
660.955	11302.91
661.306	11348.56
661.656	11372.29
662.007	11352.4
662.358	11342.23
662.708	11387.65
663.059	11310.59
663.409	11288.67
663.76	11392.17
664.11	11311.04
664.461	11404.15
664.811	11331.83
665.161	11374.32
665.511	11336.13
665.862	11354.43
666.212	11340.65
666.562	11451.15
666.912	11315.11
667.262	11450.48
667.612	11383.58
667.962	11438.95
668.312	11362.79
668.662	11406.86
669.011	11357.14
669.361	11377.03
669.711	11349.24
670.06	11324.6
670.41	11326.86
670.76	11306.75
671.109	11364.15
671.459	11347.2
671.808	11286.64
672.157	11325.73
672.507	11270.59
672.856	11299.75
673.205	11305.85
673.554	11271.72
673.904	11304.94
674.253	11308.11
674.602	11378.39
674.951	11109.02
675.3	11099.3
675.649	11239.18
675.998	11237.37
676.346	11153.99
676.695	11191.27
677.044	11098.39
677.393	11232.63
677.741	11208.9
678.09	11088.68
678.438	11129.81
678.787	11162.57
679.135	11125.74
679.484	11108.79
679.832	11137.49
680.181	11026.53
680.529	11056.14
680.877	10976.59
681.225	11008
681.573	11094.33
681.922	10985.63
682.27	10953.54
682.618	10966.87
682.966	10879.42
683.314	10947.66
683.661	10866.76
684.009	10851.85
684.357	10846.42
684.705	10839.87
685.053	10777.27
685.4	10792.64
685.748	10750.38
686.095	10731.4
686.443	10705.18
686.79	10576.15
687.138	10707.9
687.485	10649.14
687.832	10618.41
688.18	10604.4
688.527	10597.39
688.874	10544.96
689.221	10553.78
689.568	10444.63
689.915	10486.43
690.262	10371.41
690.609	10425.64
690.956	10438.75
691.303	10381.58
691.65	10257.51
691.997	10325.76
692.344	10124.41
692.69	10271.52
693.037	10262.48
693.383	10096.16
693.73	10143.84
694.077	10144.3
694.423	10072.43
694.769	10029.27
695.116	9952.89
695.462	9911.08
695.808	9960.57
696.155	9883.51
696.501	9870.86
696.847	9843.51
697.193	9747.24
697.539	9842.83
697.885	9718.54
698.231	9742.27
698.577	9716.74
698.923	9685.55
699.269	9633.35
699.614	9563.75
699.96	9534.37
700.306	9601.71
700.651	9471.54
700.997	9501.15
701.342	9430.64
701.688	9376.86
702.033	9333.02
702.379	9375.5
702.724	9323.07
703.069	9310.65
703.415	9228.39
703.76	9253.47
704.105	9192.68
704.45	9149.29
704.795	9086.24
705.14	9032.23
705.485	9067.71
705.83	9005.12
706.175	9093.7
706.52	9002.86
706.865	8931.45
707.209	8961.05
707.554	8930.32
707.899	8882.63
708.243	8875.85
708.588	8876.98
708.932	8773.48
709.277	8765.8
709.621	8826.59
709.966	8678.35
710.31	8661.62
710.654	8634.73
710.998	8635.63
711.342	8624.11
711.687	8629.98
712.031	8579.82
712.375	8556.31
712.719	8610.1
713.063	8560.16
713.407	8603.54
713.75	8504.79
714.094	8498.24
714.438	8434.28
714.782	8519.48
715.125	8410.1
715.469	8415.3
715.812	8399.71
716.156	8322.2
716.499	8373.04
716.843	8409.2
717.186	8251.01
717.53	8328.75
717.873	8311.12
718.216	8321.97
718.559	8320.61
718.902	8201.52
719.246	8251.92
719.589	8253.27
719.932	8224.12
720.275	8248.07
720.617	8265.02
720.96	8199.49
721.303	8169.43
721.646	8234.52
721.989	8141.18
722.331	8181.86
722.674	8112.48
723.016	8155.87
723.359	8208.3
723.701	8133.05
724.044	8127.17
724.386	8074.52
724.729	8122.2
725.071	8100.28
725.413	8081.75
725.755	8101.19
726.097	8097.57
726.439	8044.46
726.782	7977.8
727.124	8051.92
727.465	7980.06
727.807	8005.59
728.149	8022.09
728.491	7999.27
728.833	7994.97
729.175	8011.02
729.516	8008.98
729.858	7978.02
730.199	8041.53
730.541	7947.29
730.882	8027.29
731.224	8001.98
731.565	7919.27
731.906	7933.51
732.248	8005.82
732.589	8004.69
732.93	7979.15
733.271	7924.24
733.612	7952.04
733.953	7976.67
734.294	7980.06
734.635	7981.41
734.976	7961.3
735.317	7968.53
735.658	8046.05
735.999	7968.08
736.339	8011.47
736.68	7988.42
737.021	7997.46
737.361	7945.94
737.702	8069.32
738.042	8011.02
738.383	7999.95
738.723	8002.43
739.063	7995.88
739.404	8039.49
739.744	8048.98
740.084	8015.31
740.424	8072.71
740.764	8103.67
741.104	8081.98
741.444	8066.16
741.784	8123.56
742.124	8058.7
742.464	8165.82
742.804	8091.92
743.143	8116.1
743.483	8174.86
743.823	8143.67
744.162	8253.27
744.502	8265.25
744.841	8251.24
745.181	8391.8
745.52	8324.46
745.86	8364.46
746.199	8399.48
746.538	8415.98
746.877	8481.06
747.216	8508.86
747.556	8495.75
747.895	8610.78
748.234	8652.58
748.573	8660.94
748.911	8742.75
749.25	8745.24
749.589	8865.68
749.928	8920.37
750.267	8946.36
750.605	9062.52
750.944	9076.07
751.283	9167.6
751.621	9261.15
751.96	9335.96
752.298	9417.76
752.636	9506.12
752.975	9580.47
753.313	9670.64
753.651	9782.05
753.989	9852.78
754.327	9950.18
754.666	10050.06
755.004	10237.85
755.342	10293.67
755.679	10447.34
756.017	10472.42
756.355	10716.26
756.693	10748.8
757.031	10999.19
757.368	11053.88
757.706	11179.07
758.044	11290.48
758.381	11481.66
758.719	11587.42
759.056	11820.18
759.394	11937.47
759.731	12044.81
760.068	12168.87
760.405	12377.68
760.743	12435.76
761.08	12730.89
761.417	12777.45
761.754	12882.3
762.091	13107.61
762.428	13224.21
762.765	13464.66
763.102	13562.74
763.438	13759.79
763.775	13899.9
764.112	13993.01
764.449	14178.99
764.785	14322.04
765.122	14355.03
765.458	14519.32
765.795	14701.92
766.131	14822.59
766.467	14966.54
766.804	15151.62
767.14	15208.8
767.476	15371.73
767.812	15462.35
768.148	15620.99
768.485	15717.48
768.821	15815.56
769.157	15984.37
769.492	16047.42
769.828	16264.81
770.164	16271.59
770.5	16284.47
770.836	16501.42
771.171	16454.41
771.507	16625.71
771.842	16579.83
772.178	16793.84
772.513	16808.3
772.849	16857.57
773.184	16935.08
773.519	17117.67
773.855	17086.49
774.19	17244
774.525	17244.22
774.86	17358.12
775.195	17429.53
775.53	17399.02
775.865	17456.42
776.2	17433.6
776.535	17444.22
776.87	17554.95
777.205	17563.99
777.539	17423.2
777.874	17609.41
778.209	17518.11
778.543	17628.84
778.878	17634.04
779.212	17619.81
779.547	17743.42
779.881	17757.88
780.215	17686.24
780.55	17834.94
780.884	17791.1
781.218	17813.25
781.552	17778.9
781.886	17812.57
782.22	17735.28
782.554	17751.78
782.888	17612.57
783.222	17646.02
783.556	17692.8
783.889	17694.15
784.223	17632.69
784.557	17601.73
784.89	17566.02
785.224	17613.48
785.557	17483.31
785.891	17548.17
786.224	17471.11
786.558	17532.35
786.891	17422.3
787.224	17540.03
787.557	17480.37
787.891	17432.69
788.224	17466.59
788.557	17470.88
788.89	17380.04
789.223	17401.96
789.556	17306.59
789.888	17444.67
790.221	17198.12
790.554	17161.06
790.887	17086.94
791.219	17121.29
791.552	17246.93
791.884	17089.65
792.217	17116.32
792.549	17017.79
792.882	16902.76
793.214	16863.21
793.546	16903.21
793.879	16802.2
794.211	16696.89
794.543	16949.54
794.875	16820.05
795.207	16842.2
795.539	16794.97
795.871	16811.46
796.203	16607.4
796.535	16510.46
796.867	16544.13
797.198	16542.09
797.53	16526.73
797.862	16388.43
798.193	16446.05
798.525	16381.65
798.856	16304.81
799.188	16208.54
799.519	16154.31
799.85	16157.47
800.182	16168.54
800.513	16167.41
800.844	16054.65
801.175	16113.86
801.506	16173.74
801.837	16001.77
802.168	15981.43
802.499	15911.83
802.83	15894.88
803.161	15826.63
803.491	15839.06
803.822	15766.75
804.153	15722.45
804.483	15677.26
804.814	15629.12
805.145	15527.2
805.475	15606.3
805.805	15524.72
806.136	15566.75
806.466	15434.1
806.796	15430.71
807.126	15384.16
807.457	15355.01
807.787	15346.64
808.117	15336.02
808.447	15253.09
808.777	15258.06
809.107	15250.38
809.436	15135.12
809.766	15221.22
810.096	15044.96
810.426	15196.37
810.755	15115.69
811.085	15018.29
811.414	14968.12
811.744	14930.84
812.073	14875.02
812.403	14924.51
812.732	14778.98
813.061	14768.58
813.39	14724.51
813.719	14678.19
814.049	14745.53
814.378	14764.51
814.707	14590.96
815.036	14712.99
815.365	14617.85
815.693	14520.68
816.022	14463.5
816.351	14523.39
816.68	14417.4
817.008	14431.19
817.337	14376.95
817.665	14239.1
817.994	14357.07
818.322	14290.4
818.651	14273.23
818.979	14232.1
819.307	14351.42
819.636	14306.9
819.964	14190.97
820.292	14166.34
820.62	14210.18
820.948	14123.17
821.276	14244.3
821.604	14080.01
821.932	14182.38
822.259	14219.44
822.587	14095.83
822.915	14095.38
823.243	14223.96
823.57	14040.01
823.898	14089.05
824.225	14075.04
824.553	14106.45
824.88	14070.07
825.207	14138.54
825.535	14055.61
825.862	14140.57
826.189	14129.28
826.516	14236.17
826.843	14240.01
827.17	14248.37
827.497	14202.04
827.824	14212.66
828.151	14215.83
828.478	14201.14
828.805	14266.45
829.131	14136.73
829.458	14162.04
829.785	14087.92
830.111	14182.16
830.438	14268.25
830.764	14188.93
831.09	14138.99
831.417	14129.28
831.743	14164.75
832.069	14195.04
832.395	14120.24
832.722	14100.35
833.048	14050.86
833.374	14143.29
833.7	13999.11
834.026	14068.03
834.351	14138.77
834.677	13997.75
835.003	14026.68
835.329	14028.26
835.654	14006.11
835.98	13924.76
836.306	13996.17
836.631	13938.09
836.956	13995.27
837.282	13937.64
837.607	13851.99
837.932	13869.85
838.258	13919.56
838.583	13853.12
838.908	13741.04
839.233	13784.2
839.558	13793.69
839.883	13712.56
840.208	13574.49
840.533	13723.18
840.858	13703.75
841.182	13692
841.507	13594.83
841.832	13605.67
842.156	13625.33
842.481	13543.98
842.805	13557.99
843.13	13541.72
843.454	13449.75
843.778	13405.68
844.103	13372.91
844.427	13410.65
844.751	13358.22
845.075	13273.25
845.399	13244.1
845.723	13179.24
846.047	13196.19
846.371	13069.42
846.695	13153.03
847.019	13032.58
847.343	12861.29
847.666	12885.24
847.99	12843.43
848.313	12835.07
848.637	12737.9
848.96	12681.86
849.284	12698.8
849.607	12592.59
849.931	12543.33
850.254	12484.8
850.577	12381.07
850.9	12335.65
851.223	12379.26
851.546	12237.8
851.869	12250.23
852.192	12273.05
852.515	12120.29
852.838	12143.56
853.161	12017.24
853.483	12012.27
853.806	11921.2
854.129	11928.43
854.451	11935.43
854.774	11831.93
855.096	11845.95
855.419	11770.69
855.741	11740.86
856.063	11709
856.385	11738.83
856.708	11672.39
857.03	11614.99
857.352	11531.83
857.674	11570.47
857.996	11486.63
858.318	11464.49
858.64	11466.07
858.961	11388.78
859.283	11374.77
859.605	11277.6
859.926	11342.23
860.248	11266.75
860.57	11212.97
860.891	11241.44
861.212	11182.46
861.534	11204.83
861.855	11118.73
862.176	11087.55
862.498	11016.14
862.819	11155.34
863.14	11020.88
863.461	11044.61
863.782	11021.11
864.103	11035.35
864.424	10980.21
864.745	11003.48
865.065	10971.62
865.386	10849.14
865.707	10854.56
866.027	10965.06
866.348	10830.38
866.668	10888
866.989	10827.44
867.309	10698.63
867.63	10825.63
867.95	10806.2
868.27	10745.86
868.59	10744.28
868.91	10738.63
869.23	10733.88
869.55	10607.56
869.87	10664.73
870.19	10750.83
870.51	10748.35
870.83	10659.31
871.15	10514.68
871.469	10535.7
871.789	10641.23
872.109	10610.05
872.428	10462.71
872.748	10553.32
873.067	10466.55
873.386	10516.72
873.706	10463.16
874.025	10394.23
874.344	10351.3
874.663	10474.46
874.982	10414.34
875.301	10341.8
875.62	10384.06
875.939	10284.86
876.258	10315.14
876.577	10287.57
876.896	10306.1
877.214	10294.8
877.533	10230.62
877.852	10185.2
878.17	10222.94
878.489	10250.06
878.807	10238.98
879.125	10196.95
879.444	10187.68
879.762	10121.25
880.08	10149.72
880.398	10094.13
880.716	10012.32
881.034	10047.35
881.352	10044.19
881.67	9986.33
881.988	10082.38
882.306	9966
882.624	9946.11
882.941	9862.27
883.259	9852.55
883.577	9854.13
883.894	9822.72
884.212	9914.02
884.529	9817.75
884.846	9773.23
885.164	9749.5
885.481	9754.93
885.798	9778.43
886.115	9693.23
886.432	9693.46
886.75	9645.78
887.067	9695.49
887.383	9665.44
887.7	9575.04
888.017	9564.42
888.334	9572.11
888.651	9575.27
888.967	9511.09
889.284	9501.83
889.6	9479.23
889.917	9436.74
890.233	9441.26
890.55	9427.93
890.866	9426.12
891.182	9362.62
891.498	9333.92
891.815	9226.81
892.131	9239.69
892.447	9251.44
892.763	9163.53
893.079	9244.43
893.395	9109.97
893.71	9054.15
894.026	9101.84
894.342	9032.23
894.657	8996.3
894.973	9036.75
895.289	8869.3
895.604	8968.73
895.92	8801.28
896.235	8801.05
896.55	8820.94
896.865	8780.72
897.181	8725.35
897.496	8701.62
897.811	8752.69
898.126	8672.92
898.441	8645.35
898.756	8595.18
899.071	8571.23
899.386	8530.78
899.7	8461.85
900.015	8447.16
900.33	8351.57
900.644	8433.38
900.959	8374.85
901.273	8308.19
901.588	8382.76
901.902	8310.45
902.216	8245.14
902.531	8287.85
902.845	8198.36
903.159	8171.69
903.473	8135.53
903.787	8124.91
904.101	8109.55
904.415	8027.51
904.729	8053.28
905.042	7986.84
905.356	7971.25
905.67	8026.84
905.984	7931.25
906.297	7874.98
906.611	7824.13
906.924	7829.33
907.237	7802.21
907.551	7780.74
907.864	7750.01
908.177	7664.59
908.491	7638.82
908.804	7648.09
909.117	7585.27
909.43	7547.08
909.743	7490.13
910.056	7494.42
910.368	7477.47
910.681	7464.59
910.994	7441.09
911.307	7349.57
911.619	7324.93
911.932	7339.4
912.244	7299.62
912.557	7236.8
912.869	7240.19
913.181	7214.43
913.494	7234.54
913.806	7141.89
914.118	7159.29
914.43	7071.61
914.742	7060.53
915.054	7059.18
915.366	6994.77
915.678	6941.67
915.99	6923.14
916.302	6827.09
916.613	6843.14
916.925	6845.63
917.236	6800.43
917.548	6745.97
917.859	6818.96
918.171	6738.06
918.482	6757.94
918.794	6700.54
919.105	6694.44
919.416	6626.42
919.727	6594.11
920.038	6576.48
920.349	6512.53
920.66	6523.6
920.971	6569.47
921.282	6529.93
921.593	6461.45
921.903	6396.6
922.214	6400.44
922.525	6423.94
922.835	6355.69
923.146	6307.79
923.456	6329.93
923.767	6232.53
924.077	6275.7
924.387	6232.31
924.697	6197.51
925.008	6166.77
925.318	6206.77
925.628	6122.03
925.938	6096.04
926.248	6059.21
926.558	6063.95
926.867	6022.14
927.177	6006.78
927.487	5959.77
927.796	5894.92
928.106	5960
928.416	5896.72
928.725	5875.93
929.034	5804.97
929.344	5802.04
929.653	5805.88
929.962	5781.7
930.271	5760.91
930.581	5708.25
930.89	5722.94
931.199	5684.98
931.508	5650.4
931.817	5690.85
932.125	5605.21
932.434	5600.91
932.743	5560.46
933.051	5538.31
933.36	5526.56
933.669	5465.1
933.977	5462.16
934.286	5446.57
934.594	5415.38
934.902	5420.35
935.21	5385.55
935.519	5367.25
935.827	5329.73
936.135	5365.21
936.443	5262.84
936.751	5271.2
937.059	5295.38
937.367	5182.39
937.674	5231.66
937.982	5226.23
938.29	5204.09
938.597	5145.78
938.905	5095.39
939.213	5134.26
939.52	5027.59
939.827	5082.51
940.135	5006.35
940.442	4997.99
940.749	4982.4
941.056	5014.71
941.363	4966.8
941.67	4932.68
941.977	4926.58
942.284	4912.79
942.591	4863.08
942.898	4835.73
943.205	4817.66
943.511	4830.99
943.818	4817.43
944.125	4739.47
944.431	4726.13
944.738	4681.61
945.044	4729.07
945.35	4681.16
945.657	4638.45
945.963	4614.95
946.269	4573.82
946.575	4641.62
946.881	4579.47
947.187	4568.85
947.493	4609.07
947.799	4482.07
948.105	4517.55
948.41	4514.84
948.716	4486.82
949.022	4449.98
949.327	4459.25
949.633	4415.41
949.938	4425.12
950.244	4400.94
950.549	4376.76
950.854	4340.38
951.16	4316.88
951.465	4322.08
951.77	4283.43
952.075	4238.91
952.38	4261.51
952.685	4270.1
952.99	4210.44
953.294	4157.33
953.599	4181.97
953.904	4158.24
954.209	4121.63
954.513	4146.26
954.818	4092.03
955.122	4080.27
955.426	4078.01
955.731	4037.34
956.035	4037.56
956.339	4027.17
956.643	3981.97
956.948	3915.53
957.252	3962.31
957.556	3956.89
957.86	3951.69
958.163	3929.09
958.467	3896.1
958.771	3865.59
959.075	3901.97
959.378	3836.21
959.682	3840.05
959.985	3812.26
960.289	3797.12
960.592	3785.59
960.896	3779.49
961.199	3717.57
961.502	3757.57
961.805	3714.18
962.108	3697.23
962.411	3704.46
962.714	3665.82
963.017	3668.08
963.32	3616.56
963.623	3653.39
963.926	3638.25
964.228	3584.02
964.531	3592.38
964.833	3593.96
965.136	3559.61
965.438	3555.54
965.741	3526.39
966.043	3512.61
966.345	3511.25
966.648	3489.56
966.95	3433.51
967.252	3422.21
967.554	3433.96
967.856	3388.09
968.158	3376.34
968.46	3362.1
968.761	3407.52
969.063	3332.27
969.365	3336.11
969.666	3317.81
969.968	3268.09
970.269	3250.47
970.571	3277.36
970.872	3301.76
971.174	3256.11
971.475	3226.74
971.776	3190.58
972.077	3189.9
972.378	3228.77
972.679	3151.26
972.98	3190.58
973.281	3131.6
973.582	3125.5
973.883	3157.59
974.183	3100.64
974.484	3072.84
974.785	3096.35
975.085	3047.31
975.386	3110.13
975.686	3043.01
975.986	3024.93
976.287	3020.87
976.587	3007.53
976.887	2964.37
977.187	3012.28
977.487	2965.73
977.787	2960.3
978.087	2914.43
978.387	2899.06
978.687	2901.1
978.987	2920.08
979.286	2876.92
979.586	2887.54
979.885	2892.73
980.185	2846.18
980.484	2833.98
980.784	2841.89
981.083	2762.34
981.382	2805.73
981.682	2798.73
981.981	2784.04
982.28	2758.05
982.579	2750.59
982.878	2737.48
983.177	2731.16
983.475	2723.7
983.774	2665.4
984.073	2718.5
984.372	2660.42
984.67	2633.53
984.969	2676.92
985.267	2670.82
985.566	2626.3
985.864	2638.73
986.162	2629.69
986.461	2596.02
986.759	2558.28
987.057	2539.98
987.355	2572.97
987.653	2558.05
987.951	2519.19
988.249	2504.72
988.547	2516.25
988.844	2486.64
989.142	2493.88
989.44	2492.75
989.737	2455.91
990.035	2466.31
990.332	2437.38
990.63	2411.84
990.927	2424.05
991.224	2393.09
991.521	2454.33
991.819	2416.36
992.116	2403.71
992.413	2356.48
992.71	2367.1
993.006	2328.23
993.303	2327.78
993.6	2372.3
993.897	2296.14
994.193	2325.74
994.49	2281.23
994.787	2275.8
995.083	2256.59
995.379	2266.31
995.676	2211.62
995.972	2247.78
996.268	2231.96
996.565	2209.81
996.861	2204.17
997.157	2192.87
997.453	2200.1
997.749	2171.4
998.044	2170.95
998.34	2168.69
998.636	2135.47
998.932	2133.21
999.227	2121.68
999.523	2081.91
999.818	2099.76
1000.114	2104.28
1000.409	2080.55
1000.704	2075.81
1001	2069.03
1001.295	2036.71
1001.59	2045.75
1001.885	2023.6
1002.18	2004.62
1002.475	1989.48
1002.77	1973.44
1003.065	1951.29
1003.359	1969.6
1003.654	1948.8
1003.949	1937.96
1004.243	1932.53
1004.538	1889.15
1004.832	1911.74
1005.127	1936.6
1005.421	1884.63
1005.715	1911.07
1006.009	1884.17
1006.304	1850.95
1006.598	1860.22
1006.892	1841.46
1007.186	1813.89
1007.48	1810.28
1007.773	1800.33
1008.067	1794.68
1008.361	1773.89
1008.655	1765.08
1008.948	1761.24
1009.242	1761.46
1009.535	1728.02
1009.829	1744.74
1010.122	1697.51
1010.415	1747.68
1010.708	1717.62
1011.001	1678.76
1011.295	1688.25
1011.588	1665.65
1011.881	1647.57
1012.173	1661.35
1012.466	1667.91
1012.759	1647.34
1013.052	1643.73
1013.344	1616.61
1013.637	1638.98
1013.93	1626.1
1014.222	1605.99
1014.514	1588.59
1014.807	1575.03
1015.099	1560.34
1015.391	1569.38
1015.683	1542.04
1015.976	1536.84
1016.268	1522.15
1016.56	1488.25
1016.851	1519.89
1017.143	1506.1
1017.435	1473.79
1017.727	1455.26
1018.018	1469.95
1018.31	1455.03
1018.602	1467.46
1018.893	1451.42
1019.185	1439.44
1019.476	1438.31
1019.767	1447.57
1020.058	1403.28
1020.35	1394.47
1020.641	1394.69
1020.932	1388.37
1021.223	1380.46
1021.514	1367.8
1021.804	1323.28
1022.095	1339.33
1022.386	1370.06
1022.677	1338.65
1022.967	1328.48
1023.258	1332.78
1023.548	1302.04
1023.839	1305.43
1024.129	1279.67
1024.419	1250.29
1024.709	1290.74
1025	1275.15
1025.29	1245.32
1025.58	1249.16
1025.87	1230.63
1026.16	1224.76
1026.449	1227.24
1026.739	1225.89
1027.029	1221.82
1027.319	1206.9
1027.608	1206.45
1027.898	1197.64
1028.187	1199.22
1028.477	1182.5
1028.766	1181.14
1029.055	1163.06
1029.344	1154.48
1029.634	1140.69
1029.923	1145.89
1030.212	1119.67
1030.501	1105.44
1030.79	1113.57
1031.078	1097.75
1031.367	1079.9
1031.656	1080.8
1031.945	1088.04
1032.233	1080.58
1032.522	1066.12
1032.81	1074.25
1033.099	1057.53
1033.387	1039.9
1033.675	1073.12
1033.963	1037.42
1034.251	1044.42
1034.54	1031.99
1034.828	1023.41
1035.116	990.64
1035.403	1003.97
1035.691	1004.42
1035.979	1026.8
1036.267	996.74
1036.554	978.66
1036.842	964.65
1037.129	972.56
1037.417	968.49
1037.704	939.57
1037.992	969.85
1038.279	935.95
1038.566	945.89
1038.853	945.89
1039.14	945.89
