Data from hue_290_FLMS001491_00062.txt Node
Date: Tue Feb 07 15:53:04 GMT 2017
User: dcchb
Spectrometer: FLMS00149
Trigger mode: 0
Integration Time (sec): 2.000000E-2
Scans to average: 10
Electric dark correction enabled: true
Nonlinearity correction enabled: false
Boxcar width: 0
XAxis mode: Wavelengths
Number of Pixels in Spectrum: 2048
>>>>>Begin Spectral Data<<<<<
341.393	-18.73
341.776	-18.73
342.16	-18.73
342.543	-73.64
342.927	-67.09
343.31	-62.79
343.693	-77.71
344.077	-54.89
344.46	-53.3
344.843	-74.32
345.226	-31.84
345.61	-13.3
345.993	-13.08
346.376	9.75
346.759	-2.68
347.142	12.91
347.525	37.09
347.908	42.06
348.291	92.23
348.674	87.94
349.057	101.95
349.44	139.69
349.823	137.43
350.206	155.28
350.588	201.6
350.971	202.06
351.354	209.97
351.737	217.88
352.119	231.21
352.502	262.39
352.884	260.59
353.267	251.32
353.65	268.27
354.032	298.78
354.414	303.75
354.797	290.87
355.179	304.2
355.562	301.94
355.944	325.44
356.326	321.6
356.709	326.35
357.091	343.52
357.473	330.87
357.855	317.08
358.238	319.12
358.62	339.23
359.002	310.3
359.384	330.19
359.766	320.7
360.148	348.27
360.53	334.03
360.912	315.73
361.294	312.79
361.676	335.39
362.057	319.34
362.439	326.35
362.821	326.12
363.203	325.22
363.584	334.71
363.966	325.67
364.348	316.4
364.729	307.36
365.111	333.8
365.493	324.31
365.874	330.87
366.256	319.57
366.637	313.92
367.019	320.92
367.4	303.98
367.781	310.53
368.163	304.88
368.544	329.29
368.925	312.79
369.306	321.15
369.688	324.54
370.069	312.56
370.45	295.39
370.831	320.7
371.212	297.87
371.593	320.7
371.974	321.38
372.355	315.27
372.736	298.78
373.117	310.98
373.498	296.74
373.879	312.79
374.26	317.08
374.641	315.05
375.021	316.18
375.402	319.34
375.783	327.7
376.163	328.61
376.544	333.58
376.925	336.97
377.305	339.68
377.686	320.25
378.066	329.96
378.447	313.24
378.827	329.74
379.208	317.31
379.588	348.49
379.968	343.75
380.349	353.47
380.729	337.19
381.109	345.33
381.489	341.49
381.87	346.91
382.25	340.13
382.63	363.41
383.01	346.69
383.39	332.67
383.77	330.19
384.15	358.21
384.53	332.22
384.91	366.12
385.29	350.75
385.67	349.4
386.049	381.94
386.429	347.59
386.809	353.47
387.189	346.46
387.568	373.58
387.948	371.77
388.328	362.28
388.707	364.99
389.087	364.99
389.466	373.35
389.846	367.02
390.225	399.57
390.605	381.94
390.984	372
391.363	383.75
391.743	385.1
392.122	393.69
392.501	387.81
392.881	413.35
393.26	412.67
393.639	414.93
394.018	398.44
394.397	376.74
394.776	384.88
395.155	405.22
395.534	400.92
395.913	411.32
396.292	424.42
396.671	425.55
397.05	416.97
397.429	413.8
397.808	398.21
398.186	419.9
398.565	419.45
398.944	423.29
399.323	431.88
399.701	411.09
400.08	412.45
400.458	446.34
400.837	440.02
401.215	438.89
401.594	434.59
401.972	461.71
402.351	456.29
402.729	447.93
403.107	449.73
403.486	460.36
403.864	442.95
404.242	489.51
404.62	470.07
404.999	480.92
405.377	464.65
405.755	469.17
406.133	470.07
406.511	477.76
406.889	488.6
407.267	508.49
407.645	502.16
408.023	501.26
408.401	511.88
408.779	520.01
409.156	526.79
409.534	535.16
409.912	547.13
410.29	560.24
410.667	569.5
411.045	558.21
411.422	585.78
411.8	575.15
412.178	584.19
412.555	598.2
412.933	605.66
413.31	617.64
413.687	629.39
414.065	618.09
414.442	605.44
414.819	629.39
415.197	637.07
415.574	652.89
415.951	672.33
416.328	666
416.705	677.98
417.082	665.77
417.46	724.98
417.837	706.9
418.214	700.35
418.591	705.32
418.967	756.39
419.344	743.51
419.721	751.65
420.098	757.97
420.475	772.89
420.852	760.69
421.228	809.95
421.605	796.17
421.982	812.89
422.358	804.53
422.735	835.03
423.111	793.45
423.488	849.95
423.864	839.55
424.241	871.64
424.617	882.04
424.994	884.07
425.37	887.24
425.746	918.42
426.123	904.19
426.499	910.74
426.875	920.23
427.251	931.08
427.627	963.17
428.003	963.17
428.379	970.85
428.756	995.03
429.132	1008.59
429.507	1018.08
429.883	1017.4
430.259	1028.25
430.635	1030.74
431.011	1061.47
431.387	1105.31
431.763	1087.91
432.138	1103.5
432.514	1141.92
432.89	1136.04
433.265	1163.39
433.641	1149.38
434.016	1195.03
434.392	1194.12
434.767	1221.47
435.143	1201.58
435.518	1245.19
435.894	1258.98
436.269	1261.69
436.644	1274.35
437.02	1291.29
437.395	1291.29
437.77	1317.06
438.145	1317.96
438.52	1358.18
438.895	1389.6
439.271	1361.8
439.646	1389.82
440.021	1405.64
440.395	1384.17
440.77	1385.53
441.145	1437.28
441.52	1435.02
441.895	1447.67
442.27	1496.03
442.645	1455.58
443.019	1497.39
443.394	1478.41
443.769	1493.1
444.143	1489.03
444.518	1501.68
444.892	1497.39
445.267	1542.13
445.641	1537.61
446.016	1537.61
446.39	1564.96
446.764	1571.74
447.139	1603.6
447.513	1574
447.887	1591.62
448.262	1606.77
448.636	1613.55
449.01	1607.22
449.384	1630.49
449.758	1640.21
450.132	1623.49
450.506	1641.79
450.88	1655.13
451.254	1672.53
451.628	1697.84
452.002	1694.67
452.376	1703.03
452.75	1698.51
453.123	1716.14
453.497	1725.18
453.871	1719.76
454.244	1771.06
454.618	1800.21
454.992	1782.13
455.365	1782.35
455.739	1847.44
456.112	1855.12
456.486	1856.93
456.859	1830.04
457.232	1881.56
457.606	1866.65
457.979	1899.41
458.352	1969.92
458.725	1937.83
459.099	1959.07
459.472	1977.38
459.845	2030.03
460.218	2025.74
460.591	2075
460.964	2024.38
461.337	2072.74
461.71	2118.16
462.083	2113.64
462.456	2162.68
462.829	2143.02
463.201	2166.52
463.574	2182.34
463.947	2187.54
464.32	2205.17
464.692	2275.9
465.065	2247.2
465.438	2280.19
465.81	2329.91
466.183	2319.06
466.555	2369.23
466.928	2374.66
467.3	2372.62
467.672	2428.89
468.045	2459.85
468.417	2470.92
468.789	2454.43
469.161	2456.46
469.534	2542.56
469.906	2514.31
470.278	2546.4
470.65	2572.84
471.022	2616.68
471.394	2650.58
471.766	2691.48
472.138	2699.17
472.51	2765.15
472.882	2776.68
473.253	2811.48
473.625	2833.17
473.997	2899.84
474.369	2940.74
474.74	2913.62
475.112	2968.31
475.484	2978.48
475.855	3001.76
476.227	3041.76
476.598	3123.56
476.97	3114.52
477.341	3180.51
477.713	3210.79
478.084	3250.11
478.455	3274.74
478.827	3320.39
479.198	3426.83
479.569	3374.4
479.94	3487.85
480.311	3500.05
480.682	3557
481.053	3617.11
481.424	3618.01
481.795	3698.46
482.166	3734.17
482.537	3718.57
482.908	3796.76
483.279	3842.64
483.65	3918.12
484.021	3959.92
484.391	3968.29
484.762	4051.22
485.133	4056.87
485.503	4084.21
485.874	4183.2
486.244	4194.04
486.615	4232.69
486.985	4263.87
487.356	4338.67
487.726	4360.14
488.097	4450.08
488.467	4447.59
488.837	4515.84
489.207	4585.44
489.578	4603.07
489.948	4624.77
490.318	4702.5
490.688	4710.41
491.058	4787.25
491.428	4831.31
491.798	4860.47
492.168	4950.63
492.538	4961.93
492.908	4973.91
493.278	5028.6
493.648	5030.4
494.017	5123.28
494.387	5101.36
494.757	5145.2
495.126	5231.08
495.496	5201.47
495.866	5224.52
496.235	5253
496.605	5320.79
496.974	5342.71
497.344	5396.04
497.713	5390.39
498.082	5410.28
498.452	5487.12
498.821	5500.45
499.19	5494.57
499.559	5561.69
499.928	5576.15
500.298	5588.58
500.667	5642.14
501.036	5608.24
501.405	5633.78
501.774	5650.5
502.143	5686.66
502.512	5761.91
502.88	5781.8
503.249	5752.19
503.618	5780.22
503.987	5829.03
504.356	5864.28
504.724	5914.22
505.093	5914
505.462	5937.95
505.83	5962.58
506.199	5998.06
506.567	6013.88
506.936	5974.11
507.304	6070.83
507.672	6097.27
508.041	6088
508.409	6144.27
508.777	6211.16
509.145	6183.59
509.514	6231.95
509.882	6252.07
510.25	6256.13
510.618	6264.27
510.986	6277.38
511.354	6324.61
511.722	6309.01
512.09	6391.27
512.458	6406.87
512.826	6390.82
513.193	6494.09
513.561	6450.25
513.929	6493.19
514.297	6563.7
514.664	6557.82
515.032	6560.76
515.4	6647.76
515.767	6628.55
516.135	6655.9
516.502	6622.68
516.869	6753.52
517.237	6739.74
517.604	6716.46
517.972	6783.13
518.339	6782.67
518.706	6763.24
519.073	6794.2
519.44	6864.93
519.808	6919.39
520.175	6916.23
520.542	6972.73
520.909	6995.78
521.276	6973.4
521.643	7012.05
522.009	7035.32
522.376	7078.03
522.743	7077.13
523.11	7191.25
523.477	7213.17
523.843	7236.45
524.21	7262.21
524.577	7372.04
524.943	7350.34
525.31	7316.45
525.676	7429.44
526.043	7491.81
526.409	7494.75
526.776	7534.75
527.142	7621.07
527.508	7595.53
527.874	7644.57
528.241	7702.65
528.607	7674.85
528.973	7796.66
529.339	7754.4
529.705	7798.47
530.071	7861.97
530.437	7826.26
530.803	7853.61
531.169	7910.1
531.535	7937.67
531.901	7939.71
532.267	7989.2
532.632	8037.78
532.998	8033.49
533.364	8104.9
533.73	8117.1
534.095	8223.77
534.461	8235.74
534.826	8242.75
535.192	8278.45
535.557	8359.36
535.923	8336.31
536.288	8368.17
536.653	8315.29
537.019	8315.29
537.384	8396.64
537.749	8453.59
538.114	8491.56
538.479	8470.54
538.845	8522.06
539.21	8489.3
539.575	8493.36
539.94	8552.57
540.305	8538.33
540.67	8621.27
541.034	8598.67
541.399	8608.39
541.764	8704.88
542.129	8665.79
542.494	8717.09
542.858	8747.14
543.223	8767.03
543.587	8841.38
543.952	8840.7
544.316	8868.04
544.681	8854.03
545.045	8896.07
545.41	8950.08
545.774	8950.98
546.138	8971.32
546.503	8961.15
546.867	9023.07
547.231	9077.98
547.595	9101.71
547.959	9093.57
548.324	9037.08
548.688	9134.93
549.052	9198.66
549.416	9175.61
549.779	9206.79
550.143	9225.55
550.507	9235.04
550.871	9316.85
551.235	9273.23
551.599	9351.42
551.962	9379.89
552.326	9349.84
552.689	9436.84
553.053	9373.79
553.417	9436.62
553.78	9515.26
554.143	9480.46
554.507	9560.91
554.87	9494.92
555.234	9612.66
555.597	9644.29
555.96	9596.39
556.323	9582.6
556.686	9631.41
557.05	9689.27
557.413	9693.78
557.776	9697.63
558.139	9757.96
558.502	9723.61
558.865	9750.28
559.228	9828.47
559.59	9917.96
559.953	9829.37
560.316	9951.41
560.679	9960.67
561.041	10014.68
561.404	10099.88
561.767	10054
562.129	10106.2
562.492	10129.25
562.854	10114.79
563.217	10131.29
563.579	10225.3
563.941	10255.13
564.304	10254.22
564.666	10338.29
565.028	10387.55
565.39	10341.23
565.753	10435.46
566.115	10449.7
566.477	10478.62
566.839	10510.94
567.201	10635
567.563	10598.85
567.925	10668
568.287	10658.05
568.648	10659.63
569.01	10828.44
569.372	10839.97
569.734	10762.68
570.095	10892.85
570.457	10974.88
570.819	10927.65
571.18	10910.93
571.542	11043.35
571.903	11002.22
572.265	11073.41
572.626	11124.03
572.987	11152.5
573.349	11161.77
573.71	11314.31
574.071	11281.99
574.432	11347.75
574.794	11471.14
575.155	11471.59
575.516	11397.47
575.877	11578.03
576.238	11570.12
576.599	11684.24
576.96	11701.19
577.32	11776.44
577.681	11842.2
578.042	11880.39
578.403	11983.89
578.763	11948.41
579.124	12143.21
579.485	12195.87
579.845	12317.22
580.206	12312.92
580.566	12371.68
580.927	12449.42
581.287	12563.77
581.648	12637.66
582.008	12655.06
582.368	12826.36
582.728	12998.78
583.089	12973.7
583.449	13057.99
583.809	13160.36
584.169	13292.11
584.529	13400.35
584.889	13535.49
585.249	13590.18
585.609	13631.31
585.969	13849.16
586.329	13831.3
586.688	14081.69
587.048	14128.47
587.408	14247.56
587.768	14454.11
588.127	14617.05
588.487	14629.93
588.846	14900.88
589.206	14892.97
589.565	15099.74
589.925	15242.34
590.284	15356.23
590.643	15480.07
591.003	15684.36
591.362	15835.54
591.721	15913.73
592.08	16086.84
592.44	16329.99
592.799	16482.08
593.158	16504
593.517	16657.9
593.876	16801.17
594.235	16910.77
594.593	17053.59
594.952	17259.01
595.311	17333.58
595.67	17471.43
596.029	17744.87
596.387	17786.45
596.746	17954.81
597.104	18031.64
597.463	18190.74
597.822	18348.02
598.18	18470.73
598.538	18528.35
598.897	18795.24
599.255	18798.63
599.613	19158.39
599.972	19124.5
600.33	19282.91
600.688	19360.88
601.046	19592.06
601.404	19768.1
601.762	19852.39
602.12	19994.76
602.478	20098.03
602.836	20217.12
603.194	20204.69
603.552	20384.13
603.91	20377.57
604.268	20454.86
604.625	20563.56
604.983	20752.02
605.341	20725.36
605.698	20949.31
606.056	21068.4
606.413	21147.27
606.771	21328.28
607.128	21359.47
607.485	21329.86
607.843	21525.34
608.2	21595.84
608.557	21885.33
608.914	21829.51
609.272	21947.02
609.629	22027.92
609.986	22191.31
610.343	22109.05
610.7	22354.92
611.057	22401.7
611.414	22481.02
611.771	22506.78
612.127	22629.94
612.484	22691.63
612.841	22849.6
613.198	22921.46
613.554	22842.37
613.911	22954.23
614.267	23033.55
614.624	23151.51
614.98	23251.62
615.337	23386.76
615.693	23378.17
616.05	23416.14
616.406	23528.68
616.762	23510.6
617.118	23622.23
617.475	23649.58
617.831	23609.35
618.187	23785.62
618.543	23813.64
618.899	23902.68
619.255	24046.63
619.611	23925.05
619.967	24029
620.323	24189.45
620.678	24122.78
621.034	24189.9
621.39	24128.66
621.746	24029.68
622.101	24452.94
622.457	24242.33
622.812	24249.56
623.168	24342.89
623.523	24448.65
623.879	24471.48
624.234	24301.54
624.589	24501.76
624.945	24545.15
625.3	24603.68
625.655	24602.32
626.01	24651.58
626.365	24674.41
626.72	24701.98
627.075	24680.96
627.43	24620.85
627.785	24563
628.14	24724.58
628.495	24667.85
628.85	24720.51
629.205	24661.07
629.559	24747.17
629.914	24630.57
630.269	24725.25
630.623	24663.33
630.978	24592.83
631.332	24858.58
631.687	24815.42
632.041	24643
632.396	24711.24
632.75	24687.97
633.104	24788.53
633.459	24569.33
633.813	24611.36
634.167	24624.92
634.521	24630.34
634.875	24573.62
635.229	24666.05
635.583	24477.12
635.937	24629.89
636.291	24463.34
636.645	24643.45
636.999	24487.07
637.352	24566.61
637.706	24446.17
638.06	24450.68
638.413	24476.22
638.767	24445.49
639.121	24491.81
639.474	24311.25
639.828	24244.14
640.181	24306.06
640.534	24402.78
640.888	24379.27
641.241	24255.89
641.594	24321.2
641.947	24447.97
642.301	24377.92
642.654	24333.85
643.007	24335.43
643.36	24342.21
643.713	24196.45
644.066	24448.65
644.419	24178.6
644.771	24210.24
645.124	23970.02
645.477	23863.81
645.83	23612.97
646.182	23636.24
646.535	23559.63
646.888	23567.09
647.24	23500.65
647.593	23685.28
647.945	23478.96
648.298	23445.29
648.65	23411.62
649.002	23479.86
649.355	23540.2
649.707	23532.29
650.059	23699.97
650.411	23789.46
650.763	23958.95
651.115	24067.87
651.467	24018.15
651.819	24008.89
652.171	24009.57
652.523	24001.21
652.875	23991.04
653.227	23911.26
653.578	24210.92
653.93	24111.94
654.282	23913.75
654.633	23969.12
654.985	23990.13
655.337	23944.48
655.688	24047.08
656.039	24118.26
656.391	24016.57
656.742	24014.54
657.094	24013.18
657.445	24059.28
657.796	24021.77
658.147	23998.04
658.498	24040.3
658.849	24090.92
659.2	23953.52
659.551	23922.11
659.902	24099.96
660.253	24003.01
660.604	24064.93
660.955	24008.44
661.306	24055.21
661.656	23988.1
662.007	24060.86
662.358	24097.7
662.708	24042.33
663.059	24079.62
663.409	23876.46
663.76	24087.98
664.11	24149.45
664.461	24118.49
664.811	24164.82
665.161	24127.76
665.511	23996.01
665.862	24077.59
666.212	24219.73
666.562	24173.63
666.912	23981.77
667.262	24082.56
667.612	24045.72
667.962	24043.69
668.312	24115.33
668.662	24254.31
669.011	24098.83
669.361	24008.66
669.711	24094.54
670.06	23961.21
670.41	23922.79
670.76	23937.03
671.109	24082.11
671.459	23920.53
671.808	24044.14
672.157	23938.38
672.507	23699.97
672.856	23896.12
673.205	23901.55
673.554	23921.43
673.904	23948.33
674.253	23993.3
674.602	23880.3
674.951	23646.41
675.3	23526.87
675.649	23863.13
675.998	23802.79
676.346	23828.55
676.695	23909.68
677.044	23631.27
677.393	23767.99
677.741	23674.89
678.09	23615.45
678.438	23561.89
678.787	23705.17
679.135	23738.39
679.484	23554.44
679.832	23544.49
680.181	23450.49
680.529	23457.94
680.877	23420.43
681.225	23433.76
681.573	23559.18
681.922	23380.88
682.27	23257.5
682.618	23285.07
682.966	23179.76
683.314	23301.34
683.661	23143.15
684.009	23159.19
684.357	22990.84
684.705	23052.08
685.053	22997.62
685.4	23029.48
685.748	22870.61
686.095	22986.32
686.443	22664.97
686.79	22700.22
687.138	22888.92
687.485	22699.54
687.832	22640.56
688.18	22610.96
688.527	22490.74
688.874	22471.53
689.221	22393.34
689.568	22403.06
689.915	22314.24
690.262	22273.79
690.609	22178.65
690.956	22161.48
691.303	22104.53
691.65	22117.86
691.997	22052.56
692.344	21840.81
692.69	21865.22
693.037	21814.14
693.383	21662.28
693.73	21717.2
694.077	21584.55
694.423	21609.63
694.769	21535.28
695.116	21478.33
695.462	21428.84
695.808	21279.24
696.155	21409.41
696.501	21161.73
696.847	21260.49
697.193	20971.91
697.539	21042.86
697.885	20889.42
698.231	20753.83
698.577	20885.58
698.923	20762.42
699.269	20678.35
699.614	20549.77
699.96	20495.76
700.306	20445.37
700.651	20300.51
700.997	20270
701.342	20246.73
701.688	20203.11
702.033	20177.58
702.379	20112.49
702.724	20038.15
703.069	20066.62
703.415	19835.89
703.76	19839.96
704.105	19736.68
704.45	19743.24
704.795	19633.64
705.14	19488.56
705.485	19560.42
705.83	19537.59
706.175	19503.02
706.52	19362.91
706.865	19266.64
707.209	19272.97
707.554	19175.34
707.899	19199.98
708.243	19116.36
708.588	19118.62
708.932	18915.69
709.277	19007.89
709.621	18943.71
709.966	18739.2
710.31	18853.54
710.654	18743.49
710.998	18723.83
711.342	18659.88
711.687	18567.9
712.031	18548.47
712.375	18463.27
712.719	18518.19
713.063	18515.7
713.407	18501.69
713.75	18406.55
714.094	18437.28
714.438	18279.32
714.782	18419.2
715.125	18157.06
715.469	18227.8
715.812	18098.08
716.156	18096.28
716.499	18057.18
716.843	18090.17
717.186	17897.18
717.53	17950.74
717.873	18072.77
718.216	17917.98
718.559	17699.22
718.902	17778.09
719.246	17805.21
719.589	17719.11
719.932	17728.6
720.275	17696.06
720.617	17699
720.96	17771.54
721.303	17798.2
721.646	17769.96
721.989	17543.75
722.331	17603.41
722.674	17541.49
723.016	17546.91
723.359	17607.7
723.701	17501.04
724.044	17494.26
724.386	17519.57
724.729	17487.48
725.071	17313.02
725.413	17362.74
725.755	17368.84
726.097	17319.8
726.439	17203.87
726.782	17345.56
727.124	17231.44
727.465	17109.63
727.807	17174.72
728.149	17270.08
728.491	17159.13
728.833	17309.63
729.175	17240.03
729.516	17052.46
729.858	17155.51
730.199	17167.94
730.541	17128.84
730.882	17104.66
731.224	17205.45
731.565	17002.52
731.906	17078.22
732.248	17098.56
732.589	17053.37
732.93	16979.24
733.271	17014.27
733.612	16978.34
733.953	16996.19
734.294	16928.4
734.635	16910.32
734.976	17041.39
735.317	16949.87
735.658	17007.04
735.999	16961.39
736.339	17004.33
736.68	17031.44
737.021	16959.81
737.361	16868.51
737.702	17015.63
738.042	16994.16
738.383	16955.51
738.723	17081.39
739.063	16966.81
739.404	16902.18
739.744	16978.56
740.084	16915.29
740.424	17051.11
740.764	16942.41
741.104	17056.53
741.444	16988.51
741.784	16939.02
742.124	16986.7
742.464	17031.67
742.804	17058.56
743.143	17037.09
743.483	17055.17
743.823	17107.83
744.162	17121.61
744.502	17130.88
744.841	17106.92
745.181	17207.94
745.52	17218.33
745.86	17314.38
746.199	17313.47
746.538	17283.19
746.877	17405.9
747.216	17501.04
747.556	17425.78
747.895	17447.71
748.234	17522.51
748.573	17489.74
748.911	17600.92
749.25	17755.49
749.589	17712.1
749.928	17817.41
750.267	17840.92
750.605	17915.94
750.944	17960.91
751.283	18026.45
751.621	18145.77
751.96	18179.44
752.298	18180.12
752.636	18444.52
752.975	18385.08
753.313	18469.83
753.651	18644.96
753.989	18619.65
754.327	18800.89
754.666	18807.44
755.004	19042.24
755.342	19125.4
755.679	19231.61
756.017	19286.75
756.355	19456.47
756.693	19450.36
757.031	19625.05
757.368	19674.77
757.706	19788.21
758.044	19870.01
758.381	19947.07
758.719	20017.13
759.056	20261.19
759.394	20316.78
759.731	20323.79
760.068	20430.45
760.405	20590.45
760.743	20674.51
761.08	20809.88
761.417	20851.23
761.754	20947.73
762.091	21100.94
762.428	21092.13
762.765	21113.37
763.102	21393.82
763.438	21268.4
763.775	21350.43
764.112	21563.98
764.449	21533.02
764.785	21525.11
765.122	21703.41
765.458	21700.93
765.795	21772.11
766.131	21857.98
766.467	21910.41
766.804	21874.48
767.14	21900.47
767.476	22065.89
767.812	21945.67
768.148	22146.56
768.485	21948.83
768.821	22065.66
769.157	22130.52
769.492	22073.35
769.828	22231.08
770.164	22105.21
770.5	22112.22
770.836	22246.9
771.171	22255.26
771.507	22204.19
771.842	22116.06
772.178	22158.99
772.513	22275.6
772.849	22208.71
773.184	22177.98
773.519	22205.32
773.855	22149.05
774.19	22176.17
774.525	22124.87
774.86	22130.29
775.195	22130.07
775.53	22021.14
775.865	22065.66
776.2	21974.59
776.535	21891.43
776.87	21925.78
777.205	21964.42
777.539	21842.84
777.874	21907.02
778.209	21761.49
778.543	21763.75
778.878	21678.55
779.212	21806.01
779.547	21739.34
779.881	21763.75
780.215	21648.05
780.55	21756.52
780.884	21453.48
781.218	21438.79
781.552	21418.45
781.886	21375.06
782.22	21288.51
782.554	21197.44
782.888	21123.99
783.222	21062.75
783.556	21054.16
783.889	21102.98
784.223	20926.48
784.557	20852.81
784.89	20868.18
785.224	20753.83
785.557	20768.97
785.891	20640.16
786.224	20575.31
786.558	20660.28
786.891	20455.76
787.224	20377.35
787.557	20374.63
787.891	20360.85
788.224	20346.16
788.557	20356.33
788.89	20270
789.223	20232.72
789.556	20103.91
789.888	19991.59
790.221	19959.73
790.554	19847.64
790.887	19857.36
791.219	19868.43
791.552	19694.88
791.884	19715.22
792.217	19626.63
792.549	19628.21
792.882	19434.55
793.214	19355.9
793.546	19367.88
793.879	19275
794.211	19175.8
794.543	19325.4
794.875	19218.73
795.207	19209.69
795.539	19174.44
795.871	18964.05
796.203	18915.01
796.535	18870.27
796.867	18812.19
797.198	18829.59
797.53	18774.9
797.862	18620.33
798.193	18633.44
798.525	18510.5
798.856	18576.94
799.188	18426.21
799.519	18408.81
799.85	18276.61
800.182	18296.72
800.513	18290.85
800.844	18101.47
801.175	18196.84
801.506	18206.1
801.837	18057.18
802.168	18018.09
802.499	17971.31
802.83	17885.89
803.161	17854.47
803.491	17870.07
803.822	17840.69
804.153	17740.8
804.483	17566.35
804.814	17600.24
805.145	17624.42
805.475	17527.03
805.805	17513.92
806.136	17461.49
806.466	17428.72
806.796	17425.33
807.126	17273.25
807.457	17195.96
807.787	17119.8
808.117	17174.72
808.447	17105.34
808.777	17202.74
809.107	17050.2
809.436	16958.68
809.766	17075.74
810.096	16907.38
810.426	16870.77
810.755	16923.2
811.085	16829.64
811.414	16810.43
811.744	16678.23
812.073	16659.7
812.403	16626.48
812.732	16482.98
813.061	16589.65
813.39	16424.46
813.719	16369.32
814.049	16508.29
814.378	16427.17
814.707	16357.34
815.036	16250.67
815.365	16189.21
815.693	16061.98
816.022	16144.69
816.351	16030.79
816.68	15964.35
817.008	15955.99
817.337	15906.73
817.665	15892.04
817.994	15941.3
818.322	15868.31
818.651	15781.31
818.979	15702.89
819.307	15803.23
819.636	15784.7
819.964	15638.26
820.292	15727.75
820.62	15675.77
820.948	15657.47
821.276	15811.36
821.604	15721.42
821.932	15563.91
822.259	15628.32
822.587	15612.27
822.915	15555.78
823.243	15597.81
823.57	15592.39
823.898	15650.46
824.225	15600.52
824.553	15543.57
824.88	15527.08
825.207	15671.93
825.535	15603.01
825.862	15670.8
826.189	15447.76
826.516	15628.77
826.843	15647.07
827.17	15612.05
827.497	15545.16
827.824	15643.68
828.151	15584.25
828.478	15515.78
828.805	15565.95
829.131	15578.6
829.458	15538.83
829.785	15468.1
830.111	15564.59
830.438	15495.67
830.764	15564.59
831.09	15485.27
831.417	15470.13
831.743	15476.46
832.069	15472.84
832.395	15380.64
832.722	15504.25
833.048	15460.64
833.374	15401.43
833.7	15366.18
834.026	15401.21
834.351	15444.59
834.677	15479.62
835.003	15515.55
835.329	15438.27
835.654	15431.26
835.98	15302.9
836.306	15371.83
836.631	15171.83
836.956	15313.98
837.282	15227.42
837.607	15265.16
837.932	15190.59
838.258	15121.89
838.583	15203.24
838.908	15156.01
839.233	15082.12
839.558	15043.47
839.883	14904.95
840.208	14925.96
840.533	14929.13
840.858	14933.87
841.182	14926.64
841.507	14977.71
841.832	14896.13
842.156	14943.59
842.481	14863.14
842.805	14853.65
843.13	14730.04
843.454	14800.77
843.778	14590.61
844.103	14580.44
844.427	14580.44
844.751	14619.76
845.075	14542.24
845.399	14483.26
845.723	14414.34
846.047	14448.91
846.371	14370.5
846.695	14262.25
847.019	14226.55
847.343	14073.78
847.666	14035.59
847.99	14040.11
848.313	13996.95
848.637	13852.32
848.96	13836.05
849.284	13843.73
849.607	13744.3
849.931	13705.66
850.254	13672.44
850.577	13608.03
850.9	13461.14
851.223	13529.84
851.546	13330.3
851.869	13273.8
852.192	13396.29
852.515	13265.44
852.838	13237.19
853.161	13260.24
853.483	13153.58
853.806	13084.88
854.129	13116.29
854.451	13014.83
854.774	12970.99
855.096	12905
855.419	12831.56
855.741	12834.49
856.063	12773.93
856.385	12749.3
856.708	12651.22
857.03	12667.27
857.352	12682.41
857.674	12595.4
857.996	12535.97
858.318	12500.49
858.64	12549.3
858.961	12478.34
859.283	12381.17
859.605	12365.35
859.926	12324.45
860.248	12298.69
860.57	12274.96
860.891	12273.83
861.212	12240.16
861.534	12225.02
861.855	12154.51
862.176	12189.54
862.498	12195.41
862.819	12139.14
863.14	12156.32
863.461	12046.49
863.782	11960.84
864.103	12043.33
864.424	11969.21
864.745	12022.31
865.065	11935.08
865.386	11859.15
865.707	11881.98
866.027	11921.52
866.348	11895.53
866.668	11863.45
866.989	11781.87
867.309	11759.27
867.63	11743.22
867.95	11719.72
868.27	11695.54
868.59	11723.11
868.91	11593.62
869.23	11638.37
869.55	11534.64
869.87	11693.51
870.19	11542.32
870.51	11550.91
870.83	11616.45
871.15	11447.64
871.469	11483.79
871.789	11447.64
872.109	11465.49
872.428	11453.29
872.748	11493.06
873.067	11444.93
873.386	11425.72
873.706	11477.92
874.025	11359.96
874.344	11333.52
874.663	11329.67
874.982	11258.94
875.301	11309.34
875.62	11277.92
875.939	11285.38
876.258	11264.36
876.577	11215.33
876.896	11139.85
877.214	11206.97
877.533	11210.81
877.852	11135.55
878.17	11167.19
878.489	11185.72
878.807	11136.01
879.125	11096.69
879.444	11023.47
879.762	10997.71
880.08	11036.57
880.398	10891.72
880.716	11059.17
881.034	11011.04
881.352	11002.45
881.67	10948.67
881.988	10921.77
882.306	10906.86
882.624	10864.83
882.941	10778.05
883.259	10806.98
883.577	10745.06
883.894	10697.83
884.212	10748.45
884.529	10715.45
884.846	10677.26
885.164	10677.94
885.481	10596.81
885.798	10704.61
886.115	10562.69
886.432	10536.02
886.75	10508
887.067	10562.24
887.383	10486.98
887.7	10424.39
888.017	10471.62
888.334	10420.77
888.651	10416.48
888.967	10334.67
889.284	10308.01
889.6	10207.22
889.917	10218.29
890.233	10263.04
890.55	10185.75
890.866	10241.11
891.182	10203.6
891.498	10096.49
891.815	10032.31
892.131	10080.89
892.447	9977.17
892.763	9990.73
893.079	9957.05
893.395	9945.53
893.71	9835.02
894.026	9882.93
894.342	9853.78
894.657	9739.21
894.973	9721.81
895.289	9731.75
895.604	9712.32
895.92	9643.84
896.235	9604.3
896.55	9581.47
896.865	9621.02
897.181	9521.13
897.496	9551.42
897.811	9487.24
898.126	9467.8
898.441	9431.19
898.756	9370.4
899.071	9321.82
899.386	9263.74
899.7	9176.51
900.015	9229.84
900.33	9173.35
900.644	9128.83
900.959	9139
901.273	9136.74
901.588	9104.2
901.902	9035.72
902.216	9007.02
902.531	8968.38
902.845	8972
903.159	8896.74
903.473	8851.77
903.787	8778.55
904.101	8791.89
904.415	8731.55
904.729	8715.51
905.042	8680.25
905.356	8659.01
905.67	8636.64
905.984	8668.95
906.297	8621.72
906.611	8527.04
906.924	8519.13
907.237	8517.54
907.551	8532.69
907.864	8379.69
908.177	8408.62
908.491	8406.59
908.804	8370.43
909.117	8233.26
909.43	8228.51
909.743	8216.08
910.056	8202.98
910.368	8122.53
910.681	8100.38
910.994	8054.73
911.307	8027.61
911.619	7973.6
911.932	8048.4
912.244	7897.67
912.557	7886.37
912.869	7908.29
913.181	7820.84
913.494	7838.47
913.806	7787.85
914.118	7730.45
914.43	7726.38
914.742	7661.3
915.054	7682.76
915.366	7626.72
915.678	7652.26
915.99	7603.22
916.302	7512.37
916.613	7483.67
916.925	7473.05
917.236	7514.41
917.548	7381.76
917.859	7407.07
918.171	7408.87
918.482	7331.81
918.794	7299.5
919.105	7284.36
919.416	7219.5
919.727	7208.65
920.038	7193.74
920.349	7094.76
920.66	7106.73
920.971	7125.94
921.282	7032.84
921.593	7026.96
921.903	6982.44
922.214	6944.93
922.525	6935.67
922.835	6909
923.146	6865.16
923.456	6811.37
923.767	6787.87
924.077	6821.09
924.387	6761.88
924.697	6728.66
925.008	6705.39
925.318	6680.08
925.628	6641.89
925.938	6638.5
926.248	6574.32
926.558	6539.74
926.867	6566.64
927.177	6523.47
927.487	6413.87
927.796	6452.97
928.106	6391.5
928.416	6342.46
928.725	6374.1
929.034	6322.12
929.344	6293.87
929.653	6274.21
929.962	6215.01
930.271	6241.9
930.581	6194.89
930.89	6171.62
931.199	6115.57
931.508	6092.3
931.817	6117.16
932.125	6057.95
932.434	6044.84
932.743	6003.26
933.051	6008.68
933.36	5961.68
933.669	5913.77
933.977	5889.59
934.286	5932.08
934.594	5862.92
934.902	5843.26
935.21	5863.15
935.519	5824.51
935.827	5788.35
936.135	5736.83
936.443	5674.23
936.751	5667
937.059	5721.69
937.367	5616.6
937.674	5615.93
937.982	5562.37
938.29	5574.8
938.597	5525.76
938.905	5502.26
939.213	5496.15
939.52	5491.18
939.827	5449.6
940.135	5445.99
940.442	5412.09
940.749	5387.01
941.056	5396.95
941.363	5292.54
941.67	5336.39
941.977	5217.07
942.284	5228.14
942.591	5233.34
942.898	5218.42
943.205	5204.41
943.511	5167.8
943.818	5128.93
944.125	5096.39
944.431	5144.07
944.738	5064.3
945.044	5033.57
945.35	4993.8
945.657	5052.32
945.963	5001.7
946.269	4971.2
946.575	4960.35
946.881	4957.41
947.187	4950.18
947.493	4897.07
947.799	4881.26
948.105	4817.53
948.41	4856.17
948.716	4806.91
949.022	4743.86
949.327	4782.95
949.633	4728.72
949.938	4732.11
950.244	4753.58
950.549	4669.96
950.854	4603.97
951.16	4668.38
951.465	4632.45
951.77	4611.66
952.075	4559
952.38	4577.99
952.685	4523.3
952.99	4548.38
953.294	4502.06
953.599	4531.21
953.904	4468.61
954.209	4449.85
954.513	4426.13
954.818	4440.59
955.122	4394.04
955.426	4388.16
955.731	4334.6
956.035	4311.55
956.339	4289.86
956.643	4296.19
956.948	4246.02
957.252	4247.83
957.556	4213.25
957.86	4204.66
958.163	4193.59
958.467	4163.31
958.771	4163.31
959.075	4161.73
959.378	4095.74
959.682	4126.93
959.985	4074.27
960.289	4057.77
960.592	4014.84
960.896	4026.14
961.199	4018.91
961.502	4023.2
961.805	4010.77
962.108	3927.38
962.411	3924.44
962.714	3949.75
963.017	3921.73
963.32	3933.71
963.623	3894.84
963.926	3882.19
964.228	3835.41
964.531	3818.68
964.833	3845.12
965.136	3765.35
965.438	3764.45
965.741	3734.17
966.043	3738.69
966.345	3748.18
966.648	3675.41
966.95	3670.67
967.252	3672.02
967.554	3665.47
967.856	3652.59
968.158	3627.5
968.46	3629.09
968.761	3603.55
969.063	3580.5
969.365	3564.91
969.666	3579.14
969.968	3539.37
970.269	3510.44
970.571	3496.89
970.872	3459.82
971.174	3478.81
971.475	3474.97
971.776	3432.03
972.077	3428.41
972.378	3420.05
972.679	3380.96
972.98	3365.14
973.281	3370.11
973.582	3378.02
973.883	3322.43
974.183	3335.76
974.484	3314.97
974.785	3254.63
975.085	3294.86
975.386	3255.99
975.686	3244.01
975.986	3264.35
976.287	3195.2
976.587	3188.87
976.887	3168.76
977.187	3196.1
977.487	3169.89
977.787	3155.88
978.087	3134.41
978.387	3103.22
978.687	3089.66
978.987	3091.92
979.286	3088.08
979.586	3061.87
979.885	3076.11
980.185	3063
980.484	3030.91
980.784	3007.18
981.083	2980.74
981.382	2982.77
981.682	2967.63
981.981	2987.97
982.28	2952.72
982.579	2968.54
982.878	2934.19
983.177	2902.32
983.475	2888.99
983.774	2891.03
984.073	2886.51
984.372	2856.9
984.67	2844.7
984.969	2841.08
985.267	2800.41
985.566	2820.52
985.864	2782.78
986.162	2767.41
986.461	2759.05
986.759	2724.48
987.057	2728.54
987.355	2717.24
987.653	2708.43
987.951	2705.95
988.249	2708.66
988.547	2657.36
988.844	2686.51
989.142	2649.68
989.44	2651.03
989.737	2634.54
990.035	2638.83
990.332	2580.75
990.63	2595.44
990.927	2556.57
991.224	2545.5
991.521	2561.32
991.819	2561.54
992.116	2522
992.413	2516.8
992.71	2517.7
993.006	2489.23
993.303	2438.16
993.6	2499.17
993.897	2454.2
994.193	2478.16
994.49	2441.32
994.787	2397.03
995.083	2375.78
995.379	2407.42
995.676	2424.82
995.972	2365.39
996.268	2397.48
996.565	2334.2
996.861	2331.72
997.157	2343.92
997.453	2336.46
997.749	2298.05
998.044	2292.85
998.34	2282.23
998.636	2283.58
998.932	2272.96
999.227	2240.2
999.523	2192.51
999.818	2249.23
1000.114	2207.2
1000.409	2207.43
1000.704	2185.28
1001	2151.16
1001.295	2146.41
1001.59	2159.07
1001.885	2140.76
1002.18	2124.27
1002.475	2090.59
1002.77	2092.85
1003.065	2079.52
1003.359	2060.99
1003.654	2060.54
1003.949	2066.64
1004.243	2037.04
1004.538	2023.7
1004.832	1993.42
1005.127	1997.04
1005.421	2011.05
1005.715	2012.86
1006.009	1996.36
1006.304	1957.94
1006.598	1965.85
1006.892	1981.22
1007.186	1927.21
1007.48	1916.59
1007.773	1888.57
1008.067	1890.83
1008.361	1927.89
1008.655	1882.24
1008.948	1882.01
1009.242	1837.49
1009.535	1856.48
1009.829	1839.53
1010.122	1814.67
1010.415	1842.24
1010.708	1815.35
1011.001	1789.36
1011.295	1765.63
1011.588	1764.5
1011.881	1784.61
1012.173	1758.4
1012.466	1737.38
1012.759	1730.6
1013.052	1740.77
1013.344	1757.27
1013.637	1719.08
1013.93	1701.45
1014.222	1694.22
1014.514	1660.55
1014.807	1668.91
1015.099	1665.3
1015.391	1645.63
1015.683	1642.24
1015.976	1646.76
1016.268	1618.29
1016.56	1610.83
1016.851	1572.87
1017.143	1585.52
1017.435	1592.08
1017.727	1553.43
1018.018	1560.67
1018.31	1534.45
1018.602	1540.1
1018.893	1509.82
1019.185	1523.15
1019.476	1498.52
1019.767	1503.04
1020.058	1461.68
1020.35	1496.71
1020.641	1422.36
1020.932	1448.58
1021.223	1438.86
1021.514	1426.21
1021.804	1424.4
1022.095	1409.48
1022.386	1414.91
1022.677	1392.53
1022.967	1360.44
1023.258	1378.07
1023.548	1374.46
1023.839	1368.13
1024.129	1352.99
1024.419	1345.76
1024.709	1315.25
1025	1349.6
1025.29	1318.41
1025.58	1302.37
1025.87	1283.84
1026.16	1279.77
1026.449	1267.11
1026.739	1271.63
1027.029	1277.73
1027.319	1249.94
1027.608	1235.02
1027.898	1233.89
1028.187	1236.61
1028.477	1202.03
1028.766	1231.41
1029.055	1209.94
1029.344	1194.57
1029.634	1201.35
1029.923	1206.1
1030.212	1200.22
1030.501	1155.7
1030.79	1177.85
1031.078	1127.91
1031.367	1138.08
1031.656	1138.08
1031.945	1129.94
1032.233	1127.68
1032.522	1123.16
1032.81	1108.47
1033.099	1098.98
1033.387	1091.52
1033.675	1107.12
1033.963	1094.46
1034.251	1109.38
1034.54	1071.19
1034.828	1075.93
1035.116	1042.26
1035.403	1035.71
1035.691	1052.66
1035.979	1053.56
1036.267	1039.55
1036.554	1021.47
1036.842	1027.12
1037.129	1007.46
1037.417	995.48
1037.704	985.99
1037.992	978.31
1038.279	972.66
1038.566	973.79
1038.853	973.79
1039.14	973.79
