Data from hue_110_FLMS001491_00069.txt Node
Date: Tue Feb 07 17:01:40 GMT 2017
User: dcchb
Spectrometer: FLMS00149
Trigger mode: 0
Integration Time (sec): 2.000000E-2
Scans to average: 10
Electric dark correction enabled: true
Nonlinearity correction enabled: false
Boxcar width: 0
XAxis mode: Wavelengths
Number of Pixels in Spectrum: 2048
>>>>>Begin Spectral Data<<<<<
341.393	-19.08
341.776	-19.08
342.16	-19.08
342.543	-65.63
342.927	-62.02
343.31	-64.5
343.693	-65.86
344.077	-61.57
344.46	-59.53
344.843	-56.37
345.226	-29.7
345.61	-50.94
345.993	-22.7
346.376	-8.46
346.759	23.86
347.142	38.54
347.525	48.26
347.908	44.65
348.291	56.85
348.674	90.07
349.057	117.41
349.44	116.28
349.823	148.6
350.206	176.85
350.588	201.93
350.971	194.47
351.354	230.18
351.737	237.18
352.119	249.39
352.502	269.95
352.884	268.59
353.267	307.01
353.65	299.1
354.032	303.85
354.414	308.14
354.797	299.78
355.179	297.29
355.562	316.73
355.944	321.7
356.326	339.1
356.709	318.99
357.091	331.64
357.473	340.01
357.855	329.84
358.238	334.81
358.62	360.57
359.002	351.53
359.384	328.93
359.766	327.35
360.148	341.36
360.53	327.58
360.912	332.77
361.294	337.07
361.676	340.23
362.057	351.98
362.439	333.68
362.821	349.27
363.203	329.38
363.584	347.46
363.966	335.03
364.348	309.05
364.729	334.81
365.111	305.66
365.493	329.16
365.874	321.47
366.256	312.89
366.637	314.24
367.019	301.81
367.4	287.13
367.781	325.99
368.163	298.65
368.544	289.16
368.925	325.09
369.306	338.2
369.688	325.77
370.069	299.78
370.45	309.5
370.831	323.06
371.212	313.34
371.593	313.34
371.974	319.44
372.355	320.8
372.736	314.24
373.117	333.68
373.498	334.13
373.879	314.47
374.26	312.21
374.641	311.98
375.021	304.75
375.402	313.11
375.783	333.68
376.163	336.84
376.544	316.95
376.925	343.39
377.305	323.73
377.686	339.78
378.066	333.23
378.447	353.11
378.827	328.93
379.208	310.63
379.588	348.14
379.968	331.19
380.349	327.35
380.729	331.64
381.109	337.29
381.489	356.05
381.87	339.78
382.25	342.94
382.63	337.52
383.01	337.29
383.39	330.74
383.77	363.06
384.15	333.68
384.53	337.75
384.91	365.54
385.29	354.69
385.67	373.9
386.049	374.13
386.429	338.88
386.809	354.02
387.189	363.06
387.568	357.63
387.948	350.4
388.328	359.89
388.707	365.77
389.087	331.19
389.466	379.1
389.846	354.69
390.225	355.82
390.605	378.2
390.984	363.06
391.363	360.12
391.743	395.14
392.122	377.74
392.501	384.3
392.881	377.74
393.26	379.55
393.639	379.1
394.018	382.94
394.397	406.44
394.776	375.71
395.155	380.23
395.534	380
395.913	399.44
396.292	382.04
396.671	378.87
397.05	391.98
397.429	399.89
397.808	405.31
398.186	378.2
398.565	399.89
398.944	407.35
399.323	389.04
399.701	381.81
400.08	398.99
400.458	408.93
400.837	410.74
401.215	415.71
401.594	415.03
401.972	407.57
402.351	411.19
402.729	394.92
403.107	429.72
403.486	421.36
403.864	424.3
404.242	431.98
404.62	415.48
404.999	441.47
405.377	439.21
405.755	432.43
406.133	433.79
406.511	437.4
406.889	433.11
407.267	441.02
407.645	451.64
408.023	437.63
408.401	449.61
408.779	469.27
409.156	457.97
409.534	461.13
409.912	466.33
410.29	472.43
410.667	472.43
411.045	471.3
411.422	470.17
411.8	488.48
412.178	478.76
412.555	519.44
412.933	476.95
413.31	485.99
413.687	487.35
414.065	489.38
414.442	501.81
414.819	510.4
415.197	552.65
415.574	522.6
415.951	506.1
416.328	504.07
416.705	530.73
417.082	511.3
417.46	535.25
417.837	532.32
418.214	526.89
418.591	557.85
418.967	537.97
419.344	548.81
419.721	562.82
420.098	556.72
420.475	556.72
420.852	569.6
421.228	566.21
421.605	559.21
421.982	542.49
422.358	562.15
422.735	573.67
423.111	585.42
423.488	575.03
423.864	590.39
424.241	551.3
424.617	587.46
424.994	601.24
425.37	604.63
425.746	598.53
426.123	615.93
426.499	620.45
426.875	606.21
427.251	607.79
427.627	611.41
428.003	644.18
428.379	645.76
428.756	653.9
429.132	645.99
429.507	642.37
429.883	681.47
430.259	650.51
430.635	669.94
431.011	678.53
431.387	666.78
431.763	697.74
432.138	715.14
432.514	704.52
432.89	702.26
433.265	726.44
433.641	709.26
434.016	747
434.392	723.95
434.767	729.15
435.143	745.42
435.518	732.76
435.894	745.87
436.269	767.11
436.644	777.06
437.02	770.73
437.395	766.66
437.77	786.32
438.145	795.59
438.52	801.91
438.895	795.13
439.271	817.51
439.646	847.11
440.021	818.86
440.395	834.46
440.77	827
441.145	856.6
441.52	848.92
441.895	860.9
442.27	851.63
442.645	874.45
443.019	864.29
443.394	875.81
443.769	859.09
444.143	876.04
444.518	880.1
444.892	887.34
445.267	880.1
445.641	917.62
446.016	907
446.39	913.1
446.764	918.97
447.139	920.1
447.513	921.46
447.887	940.67
448.262	935.92
448.636	960.78
449.01	966.2
449.384	973.89
449.758	957.39
450.132	983.6
450.506	998.07
450.88	998.29
451.254	991.97
451.628	1031.29
452.002	1020.67
452.376	1050.04
452.75	1041.23
453.123	1021.34
453.497	1044.17
453.871	1090.72
454.244	1078.74
454.618	1090.27
454.992	1104.73
455.365	1122.81
455.739	1142.92
456.112	1147.67
456.486	1129.59
456.859	1117.84
457.232	1161
457.606	1176.59
457.979	1197.61
458.352	1240.55
458.725	1245.52
459.099	1226.99
459.472	1259.08
459.845	1273.09
460.218	1298.85
460.591	1310.15
460.964	1312.18
461.337	1335.46
461.71	1351.96
462.083	1363.48
462.456	1419.3
462.829	1381.79
463.201	1450.48
463.574	1427.21
463.947	1463.82
464.32	1493.87
464.692	1502.91
465.065	1514.89
465.438	1532.52
465.81	1584.27
466.183	1588.11
466.555	1604.15
466.928	1650.48
467.3	1652.51
467.672	1635.34
468.045	1690.93
468.417	1703.59
468.789	1739.74
469.161	1784.71
469.534	1817.48
469.906	1842.11
470.278	1881.43
470.65	1901.77
471.022	1943.13
471.394	1984.93
471.766	1998.94
472.138	2040.07
472.51	2114.87
472.882	2118.72
473.253	2151.48
473.625	2239.39
473.997	2304.7
474.369	2304.25
474.74	2401.65
475.112	2435.09
475.484	2473.06
475.855	2570
476.227	2569.33
476.598	2672.6
476.97	2702.43
477.341	2788.53
477.713	2859.71
478.084	2893.38
478.455	3021.52
478.827	3082.76
479.198	3179.03
479.569	3203.21
479.94	3335.63
480.311	3408.17
480.682	3477.78
481.053	3639.81
481.424	3692.46
481.795	3728.62
482.166	3852.91
482.537	3966.12
482.908	4112.56
483.279	4162.05
483.65	4311.65
484.021	4436.39
484.391	4528.82
484.762	4650.17
485.133	4713.68
485.503	4842.49
485.874	4976.27
486.244	5081.8
486.615	5235.02
486.985	5371.96
487.356	5506.42
487.726	5609.02
488.097	5787.32
488.467	5886.53
488.837	6067.99
489.207	6163.58
489.578	6400.86
489.948	6465.49
490.318	6572.84
490.688	6685.83
491.058	6856.67
491.428	7041.75
491.798	7223.21
492.168	7378.69
492.538	7477.67
492.908	7625.69
493.278	7807.15
493.648	7886.47
494.017	8083.3
494.387	8183.19
494.757	8338.66
495.126	8532.56
495.496	8578.21
495.866	8715.15
496.235	8804.42
496.605	8952.21
496.974	9107.91
497.344	9225.42
497.713	9384.29
498.082	9454.12
498.452	9675.13
498.821	9703.6
499.19	9860.43
499.559	10024.95
499.928	10082.12
500.298	10217.26
500.667	10330.02
501.036	10356.24
501.405	10545.39
501.774	10510.81
502.143	10693.86
502.512	10774.99
502.88	10952.83
503.249	10952.16
503.618	11076.9
503.987	11133.85
504.356	11332.48
504.724	11407.06
505.093	11480.05
505.462	11559.82
505.83	11557.79
506.199	11698.35
506.567	11970.43
506.936	11912.81
507.304	12119.58
507.672	12078.45
508.041	12210.65
508.409	12222.4
508.777	12407.48
509.145	12437.09
509.514	12446.81
509.882	12556.18
510.25	12588.72
510.618	12683.64
510.986	12764.99
511.354	12952.78
511.722	12978.77
512.09	13134.92
512.458	13103.74
512.826	13152.1
513.193	13170.4
513.561	13260.8
513.929	13343.73
514.297	13433.45
514.664	13509.15
515.032	13567.91
515.4	13587.57
515.767	13612.42
516.135	13749.82
516.502	13585.08
516.869	13765.19
517.237	13828.92
517.604	13751.4
517.972	13993.43
518.339	13934.45
518.706	13977.61
519.073	14067.55
519.44	14047.44
519.808	14204.5
520.175	14208.34
520.542	14356.36
520.909	14348
521.276	14305.51
521.643	14478.16
522.009	14523.14
522.376	14512.74
522.743	14627.77
523.11	14647.88
523.477	14673.19
523.843	14792.28
524.21	14933.29
524.577	14836.12
524.943	14926.29
525.31	14944.82
525.676	15060.07
526.043	15074.53
526.409	15115.44
526.776	15200.41
527.142	15172.16
527.508	15271.14
527.874	15316.79
528.241	15291.7
528.607	15348.2
528.973	15407.41
529.339	15286.5
529.705	15352.27
530.071	15512.26
530.437	15570.57
530.803	15548.19
531.169	15489.44
531.535	15484.92
531.901	15458.7
532.267	15496.89
532.632	15486.05
532.998	15513.62
533.364	15618.02
533.73	15569.21
534.095	15664.35
534.461	15574.63
534.826	15658.7
535.192	15512.04
535.557	15621.19
535.923	15538.48
536.288	15501.87
536.653	15527.63
537.019	15451.25
537.384	15468.42
537.749	15523.79
538.114	15525.14
538.479	15480.17
538.845	15411.93
539.21	15368.08
539.575	15423.22
539.94	15333.96
540.305	15446.27
540.67	15348.65
541.034	15352.72
541.399	15295.54
541.764	15296.9
542.129	15331.93
542.494	15253.06
542.858	15293.28
543.223	15232.72
543.587	15310.46
543.952	15196.11
544.316	15198.15
544.681	15014.42
545.045	15157.24
545.41	15147.3
545.774	15154.76
546.138	15006.06
546.503	15002.22
546.867	14961.77
547.231	15042.67
547.595	14996.34
547.959	14958.6
548.324	14929.9
548.688	14871.6
549.052	14862.34
549.416	14818.04
549.779	14789.12
550.143	14848.55
550.507	14776.69
550.871	14801.55
551.235	14675.22
551.599	14784.82
551.962	14682.68
552.326	14765.61
552.689	14786.63
553.053	14581.44
553.417	14657.14
553.78	14811.72
554.143	14653.98
554.507	14694.88
554.87	14597.71
555.234	14699.4
555.597	14577.82
555.96	14571.5
556.323	14602.46
556.686	14512.74
557.05	14552.51
557.413	14548.22
557.776	14530.59
558.139	14576.24
558.502	14515.68
558.865	14556.81
559.228	14599.29
559.59	14573.76
559.953	14603.13
560.316	14664.15
560.679	14617.6
561.041	14661.44
561.404	14599.07
561.767	14669.8
562.129	14603.36
562.492	14651.72
562.854	14677.93
563.217	14597.03
563.579	14616.24
563.941	14613.08
564.304	14708.21
564.666	14748.67
565.028	14741.89
565.39	14764.48
565.753	14806.74
566.115	14815.78
566.477	14824.14
566.839	14787.53
567.201	14807.42
567.563	14816.23
567.925	14876.35
568.287	14966.29
568.648	14965.16
569.01	14916.8
569.372	15014.87
569.734	14933.75
570.095	15003.8
570.457	15086.96
570.819	14964.25
571.18	15019.85
571.542	15120.41
571.903	14989.79
572.265	15079.5
572.626	15070.01
572.987	14988.21
573.349	15128.09
573.71	15172.38
574.071	15151.59
574.432	15226.39
574.794	15307.07
575.155	15167.41
575.516	15202.67
575.877	15239.73
576.238	15208.99
576.599	15292.61
576.96	15196.79
577.32	15220.29
577.681	15322.44
578.042	15293.96
578.403	15251.48
578.763	15285.37
579.124	15421.87
579.485	15346.16
579.845	15350.91
580.206	15312.72
580.566	15269.1
580.927	15270.46
581.287	15372.15
581.648	15241.53
582.008	15364.47
582.368	15257.81
582.728	15286.05
583.089	15162.67
583.449	15262.32
583.809	15125.15
584.169	15284.7
584.529	15263.45
584.889	15258.93
585.249	15201.54
585.609	15138.71
585.969	15265.71
586.329	15152.27
586.688	15260.29
587.048	15204.7
587.408	15204.93
587.768	15084.48
588.127	15138.94
588.487	15116.34
588.846	15263.91
589.206	15058.94
589.565	15086.28
589.925	15101.2
590.284	15109.79
590.643	15063.01
591.003	15158.37
591.362	15175.32
591.721	15032.95
592.08	15070.92
592.44	15089.67
592.799	15033.86
593.158	15070.92
593.517	14991.82
593.876	15126.06
594.235	15016.68
594.593	15009
594.952	14957.93
595.311	14914.76
595.67	15067.75
596.029	15012.84
596.387	15080.41
596.746	15143.23
597.104	15026.62
597.463	14998.83
597.822	14929
598.18	14913.86
598.538	14938.72
598.897	14932.84
599.255	14847.65
599.613	15119.96
599.972	14937.81
600.33	14988.43
600.688	14882.9
601.046	15000.86
601.404	15049
601.762	14992.28
602.12	15059.17
602.478	15007.19
602.836	15024.82
603.194	14868.66
603.552	15016.23
603.91	14899.4
604.268	14956.8
604.625	15031.14
604.983	15015.1
605.341	15019.17
605.698	14999.96
606.056	15110.92
606.413	14988.21
606.771	15034.53
607.128	15027.3
607.485	14974.65
607.843	15076.34
608.2	15029.56
608.557	15137.58
608.914	14959.96
609.272	15032.95
609.629	15101.65
609.986	15021.65
610.343	15016.46
610.7	15080.41
611.057	15115.44
611.414	15105.72
611.771	15115.89
612.127	15151.37
612.484	15086.28
612.841	15127.41
613.198	15191.59
613.554	15106.62
613.911	15203.8
614.267	15185.49
614.624	15170.12
614.98	15309.56
615.337	15327.63
615.693	15326.96
616.05	15261.19
616.406	15336.9
616.762	15312.94
617.118	15301.19
617.475	15415.54
617.831	15380.74
618.187	15388.42
618.543	15470.91
618.899	15439.04
619.255	15484.69
619.611	15449.89
619.967	15451.25
620.323	15508.42
620.678	15444.01
621.034	15370.12
621.39	15422.09
621.746	15417.57
622.101	15480.17
622.457	15354.07
622.812	15460.51
623.168	15420.96
623.523	15439.72
623.879	15522.88
624.234	15291.25
624.589	15406.28
624.945	15414.19
625.3	15493.96
625.655	15424.81
626.01	15415.32
626.365	15478.82
626.72	15399.04
627.075	15480.4
627.43	15479.27
627.785	15402.66
628.14	15399.72
628.495	15519.72
628.85	15369.89
629.205	15403.11
629.559	15494.18
629.914	15337.8
630.269	15376.67
630.623	15316.33
630.978	15404.92
631.332	15379.84
631.687	15440.17
632.041	15311.36
632.396	15321.31
632.75	15247.41
633.104	15250.57
633.459	15173.06
633.813	15124.93
634.167	15185.49
634.521	15166.28
634.875	15174.42
635.229	15113.85
635.583	15067.75
635.937	15059.39
636.291	15124.48
636.645	15080.18
636.999	15004.25
637.352	14992.95
637.706	14893.29
638.06	14994.31
638.413	15022.33
638.767	14973.52
639.121	14920.86
639.474	14865.72
639.828	14886.52
640.181	14932.39
640.534	14912.5
640.888	14889
641.241	14742.79
641.594	14837.7
641.947	14895.55
642.301	14791.15
642.654	14797.25
643.007	14827.53
643.36	14774.88
643.713	14724.03
644.066	14853.75
644.419	14713.19
644.771	14634.77
645.124	14522.68
645.477	14540.08
645.83	14411.95
646.182	14387.55
646.535	14276.59
646.888	14325.85
647.24	14248.57
647.593	14355.23
647.945	14263.48
648.298	14168.12
648.65	14228.68
649.002	14247.21
649.355	14340.32
649.707	14314.1
650.059	14315.68
650.411	14561.33
650.763	14510.71
651.115	14669.57
651.467	14580.99
651.819	14584.15
652.171	14597.48
652.523	14535.56
652.875	14461.44
653.227	14472.97
653.578	14630.7
653.93	14544.83
654.282	14463.48
654.633	14409.47
654.985	14517.49
655.337	14544.38
655.688	14672.28
656.039	14608.1
656.391	14553.87
656.742	14512.74
657.094	14512.29
657.445	14636.13
657.796	14604.26
658.147	14625.73
658.498	14532.63
658.849	14636.58
659.2	14623.7
659.551	14578.5
659.902	14675.67
660.253	14554.55
660.604	14629.12
660.955	14571.72
661.306	14598.39
661.656	14675.67
662.007	14615.79
662.358	14611.04
662.708	14637.71
663.059	14713.86
663.409	14541.44
663.76	14636.8
664.11	14629.35
664.461	14693.07
664.811	14585.96
665.161	14535.79
665.511	14657.14
665.862	14623.47
666.212	14596.81
666.562	14634.54
666.912	14659.4
667.262	14566.75
667.612	14603.36
667.962	14700.76
668.312	14556.58
668.662	14712.96
669.011	14627.09
669.361	14659.63
669.711	14578.5
670.06	14608.1
670.41	14555.68
670.76	14567.43
671.109	14610.36
671.459	14579.18
671.808	14506.41
672.157	14618.27
672.507	14488.56
672.856	14498.73
673.205	14491.72
673.554	14527.65
673.904	14614.43
674.253	14537.15
674.602	14514.77
674.951	14315.91
675.3	14253.31
675.649	14451.05
675.998	14394.1
676.346	14421.22
676.695	14406.08
677.044	14386.19
677.393	14366.98
677.741	14436.36
678.09	14303.93
678.438	14265.29
678.787	14307.1
679.135	14297.15
679.484	14151.62
679.832	14312.29
680.181	14112.07
680.529	14151.62
680.877	14154.33
681.225	14124.28
681.573	14151.62
681.922	14090.83
682.27	14061.9
682.618	14057.38
682.966	13951.4
683.314	14031.4
683.661	13994.34
684.009	13846.32
684.357	13950.72
684.705	13839.09
685.053	13972.64
685.4	13813.55
685.748	13746.66
686.095	13884.06
686.443	13813.55
686.79	13709.6
687.138	13785.75
687.485	13792.08
687.832	13623.5
688.18	13688.35
688.527	13480.68
688.874	13527
689.221	13495.37
689.568	13408.81
689.915	13459.66
690.262	13442.26
690.609	13393.45
690.956	13343.73
691.303	13360
691.65	13293.11
691.997	13252.89
692.344	13108.26
692.69	13121.82
693.037	13128.6
693.383	13049.05
693.73	13028.03
694.077	12893.35
694.423	12924.99
694.769	12889.96
695.116	12849.73
695.462	12846.57
695.808	12688.83
696.155	12693.58
696.501	12621.49
696.847	12619.91
697.193	12547.14
697.539	12587.37
697.885	12443.42
698.231	12472.12
698.577	12368.84
698.923	12335.62
699.269	12320.71
699.614	12195.06
699.96	12216.3
700.306	12205
700.651	12155.74
700.997	12140.82
701.342	12029.87
701.688	12054.73
702.033	12014.95
702.379	11965.24
702.724	11886.59
703.069	12013.14
703.415	11762.08
703.76	11753.72
704.105	11853.37
704.45	11716.66
704.795	11622.42
705.14	11608.64
705.485	11543.55
705.83	11562.31
706.175	11570.22
706.52	11419.26
706.865	11441.18
707.209	11389.43
707.554	11357.57
707.899	11380.62
708.243	11305.59
708.588	11213.39
708.932	11184.69
709.277	11181.53
709.621	11170.68
709.966	11047.52
710.31	11090.46
710.654	10996.9
710.998	11085.71
711.342	11073.28
711.687	10931.59
712.031	10911.7
712.375	10954.64
712.719	10922.55
713.063	10941.31
713.407	10889.78
713.75	10839.62
714.094	10826.96
714.438	10838.71
714.782	10864.47
715.125	10777.47
715.469	10784.02
715.812	10709.22
716.156	10714.42
716.499	10671.71
716.843	10712.39
717.186	10699.73
717.53	10658.15
717.873	10661.32
718.216	10662.22
718.559	10551.04
718.902	10559.85
719.246	10562.79
719.589	10513.3
719.932	10554.65
720.275	10510.59
720.617	10417.25
720.96	10473.75
721.303	10449.8
721.646	10406.63
721.989	10341.55
722.331	10530.47
722.674	10424.03
723.016	10400.31
723.359	10421.32
723.701	10424.03
724.044	10307.88
724.386	10309.46
724.729	10392.4
725.071	10351.95
725.413	10346.07
725.755	10326.18
726.097	10298.61
726.439	10145.17
726.782	10250.25
727.124	10318.27
727.465	10234.66
727.807	10214.32
728.149	10176.81
728.491	10192.85
728.833	10191.72
729.175	10174.55
729.516	10222.46
729.858	10178.16
730.199	10217.49
730.541	10144.49
730.882	10179.52
731.224	10231.27
731.565	10152.85
731.906	10198.95
732.248	10188.33
732.589	10117.15
732.93	10042.35
733.271	10143.82
733.612	10132.29
733.953	10157.37
734.294	10088.9
734.635	10099.07
734.976	10126.41
735.317	10123.02
735.658	10094.32
735.999	10158.73
736.339	10082.57
736.68	10182.01
737.021	10106.3
737.361	10107.88
737.702	10144.04
738.042	10140.65
738.383	10125.51
738.723	10194.89
739.063	10115.34
739.404	10193.31
739.744	10215.9
740.084	10249.35
740.424	10210.71
740.764	10246.86
741.104	10236.02
741.444	10232.85
741.784	10250.48
742.124	10264.04
742.464	10260.42
742.804	10250.48
743.143	10330.93
743.483	10364.37
743.823	10285.73
744.162	10411.15
744.502	10354.21
744.841	10439.63
745.181	10407.54
745.52	10397.59
745.86	10544.48
746.199	10569.11
746.538	10648.43
746.877	10654.76
747.216	10660.41
747.556	10759.84
747.895	10774.31
748.234	10831.25
748.573	10872.84
748.911	10980.63
749.25	11105.82
749.589	11050.68
749.928	11129.78
750.267	11298.36
750.605	11250
750.944	11320.96
751.283	11372.94
751.621	11489.32
751.96	11574.29
752.298	11646.6
752.636	11815.86
752.975	11848.4
753.313	11870.1
753.651	12047.04
753.989	12221.73
754.327	12335.17
754.666	12346.47
755.004	12496.3
755.342	12583.53
755.679	12709.85
756.017	12801.15
756.355	12952.78
756.693	13091.99
757.031	13304.86
757.368	13370.17
757.706	13516.61
758.044	13695.13
758.381	13820.78
758.719	13896.71
759.056	14260.32
759.394	14305.97
759.731	14301.9
760.068	14524.26
760.405	14645.84
760.743	14854.65
761.08	15023.23
761.417	15098.04
761.754	15312.27
762.091	15445.37
762.428	15645.14
762.765	15692.6
763.102	15880.84
763.438	16039.71
763.775	16044.9
764.112	16319.47
764.449	16463.2
764.785	16561.73
765.122	16675.62
765.458	16838.33
765.795	16922.17
766.131	17017.98
766.467	17228.83
766.804	17389.27
767.14	17337.75
767.476	17550.85
767.812	17566.22
768.148	17769.6
768.485	17830.62
768.821	17927.11
769.157	17997.17
769.492	18166.88
769.828	18317.61
770.164	18209.59
770.5	18400.77
770.836	18448.91
771.171	18519.19
771.507	18690.03
771.842	18693.87
772.178	18754.21
772.513	18793.31
772.849	18874.21
773.184	18862.68
773.519	19015.9
773.855	18951.95
774.19	19037.59
774.525	19090.02
774.86	19167.31
775.195	19250.47
775.53	19248.66
775.865	19272.84
776.2	19207.98
776.535	19151.94
776.87	19251.15
777.205	19225.38
777.539	19243.91
777.874	19287.08
778.209	19231.03
778.543	19374.08
778.878	19306.74
779.212	19332.05
779.547	19248.43
779.881	19476.45
780.215	19335.21
780.55	19360.52
780.884	19367.08
781.218	19307.19
781.552	19332.95
781.886	19399.39
782.22	19337.25
782.554	19385.83
782.888	19187.87
783.222	19214.31
783.556	19196.01
783.889	19150.81
784.223	19067.2
784.557	19073.3
784.89	19028.55
785.224	19025.39
785.557	19006.86
785.891	18935.22
786.224	18921.89
786.558	19005.5
786.891	18816.36
787.224	18904.71
787.557	18786.53
787.891	18895
788.224	18800.54
788.557	18812.74
788.89	18716.02
789.223	18795.34
789.556	18664.27
789.888	18598.96
790.221	18711.5
790.554	18480.55
790.887	18450.72
791.219	18440.32
791.552	18373.2
791.884	18379.08
792.217	18381.79
792.549	18368.23
792.882	18242.36
793.214	18171.63
793.546	18280.78
793.879	18114
794.211	18134.79
794.543	18109.03
794.875	18033.33
795.207	18074.23
795.539	18043.72
795.871	18033.55
796.203	17877.17
796.535	17842.14
796.867	17781.58
797.198	17733.45
797.53	17670.85
797.862	17654.58
798.193	17669.72
798.525	17566.67
798.856	17618.42
799.188	17401.48
799.519	17325.1
799.85	17328.94
800.182	17278.99
800.513	17316.28
800.844	17229.28
801.175	17368.26
801.506	17189.96
801.837	17142.73
802.168	17077.42
802.499	16961.94
802.83	16953.13
803.161	16966.69
803.491	16929.4
803.822	16980.47
804.153	16842.4
804.483	16753.13
804.814	16718.78
805.145	16759.01
805.475	16645.57
805.805	16567.6
806.136	16505.46
806.466	16564.44
806.796	16566.25
807.126	16432.92
807.457	16440.82
807.787	16369.19
808.117	16335.74
808.447	16225.92
808.777	16335.29
809.107	16282.86
809.436	16102.08
809.766	16178.01
810.096	16092.13
810.426	16137.56
810.755	16154.73
811.085	16018.01
811.414	16078.8
811.744	15959.93
812.073	15850.11
812.403	15827.73
812.732	15778.24
813.061	15777.11
813.39	15640.85
813.719	15756.32
814.049	15773.72
814.378	15729.21
814.707	15665.48
815.036	15626.38
815.365	15510.23
815.693	15449.89
816.022	15361.08
816.351	15417.12
816.68	15338.03
817.008	15416.22
817.337	15330.35
817.665	15196.79
817.994	15250.57
818.322	15270.23
818.651	15133.74
818.979	15068.66
819.307	15200.86
819.636	15116.79
819.964	15069.56
820.292	15224.81
820.62	15167.41
820.948	15060.75
821.276	15052.16
821.604	15104.59
821.932	15057.36
822.259	15102.1
822.587	14990.69
822.915	14978.26
823.243	15009.9
823.57	15018.04
823.898	14964.03
824.225	14929.45
824.553	14981.88
824.88	14997.92
825.207	15053.52
825.535	14961.99
825.862	14995.67
826.189	14981.65
826.516	15087.41
826.843	15114.53
827.17	15037.47
827.497	15044.7
827.824	15092.61
828.151	15038.15
828.478	15076.34
828.805	15117.02
829.131	15012.84
829.458	14984.82
829.785	14954.31
830.111	14934.88
830.438	15090.35
830.764	15048.09
831.09	14987.08
831.417	15037.47
831.743	14969.68
832.069	15044.25
832.395	14920.19
832.722	14966.97
833.048	14839.96
833.374	14945.72
833.7	14891.71
834.026	14894.65
834.351	14960.41
834.677	14900.3
835.003	14916.57
835.329	14824.37
835.654	14787.99
835.98	14813.3
836.306	14870.7
836.631	14679.74
836.956	14799.74
837.282	14729.46
837.607	14802.22
837.932	14622.34
838.258	14747.54
838.583	14667.76
838.908	14578.05
839.233	14625.05
839.558	14587.54
839.883	14480.2
840.208	14487.88
840.533	14466.41
840.858	14583.02
841.182	14450.82
841.507	14450.14
841.832	14387.09
842.156	14303.25
842.481	14364.5
842.805	14375.12
843.13	14335.8
843.454	14281.11
843.778	14248.57
844.103	14166.08
844.427	14155.01
844.751	14113.2
845.075	14101.23
845.399	14042.7
845.723	13989.14
846.047	14015.58
846.371	13886.77
846.695	13968.8
847.019	13793.89
847.343	13692.65
847.666	13562.71
847.99	13570.17
848.313	13651.29
848.637	13517.96
848.96	13499.66
849.284	13445.42
849.607	13323.39
849.931	13329.72
850.254	13216.5
850.577	13168.37
850.9	13045.66
851.223	13022.84
851.546	12988.26
851.869	12842.5
852.192	12988.94
852.515	12838.89
852.838	12814.48
853.161	12790.07
853.483	12737.87
853.806	12667.82
854.129	12746.23
854.451	12642.28
854.774	12628.27
855.096	12482.06
855.419	12501.72
855.741	12471.66
856.063	12366.36
856.385	12395.51
856.708	12368.84
857.03	12261.05
857.352	12258.11
857.674	12261.95
857.996	12213.37
858.318	12118
858.64	12134.27
858.961	12214.72
859.283	12061.28
859.605	11966.14
859.926	12020.6
860.248	11912.58
860.57	11969.3
860.891	11985.57
861.212	11876.88
861.534	11855.86
861.855	11761.85
862.176	11812.47
862.498	11813.6
862.819	11765.02
863.14	11642.31
863.461	11663.55
863.782	11686.37
864.103	11738.58
864.424	11598.01
864.745	11608.18
865.065	11579.71
865.386	11503.1
865.707	11446.83
866.027	11498.58
866.348	11480.73
866.668	11491.8
866.989	11410.22
867.309	11383.78
867.63	11397.34
867.95	11424.23
868.27	11310.11
868.59	11340.39
868.91	11325.03
869.23	11281.86
869.55	11292.26
869.87	11279.83
870.19	11286.84
870.51	11298.81
870.83	11322.32
871.15	11242.32
871.469	11221.98
871.789	11257.23
872.109	11195.09
872.428	11076.45
872.748	11123
873.067	11078.03
873.386	11110.12
873.706	11073.96
874.025	11045.49
874.344	11057.69
874.663	11052.04
874.982	11000.97
875.301	10989.67
875.62	10953.06
875.939	10924.81
876.258	10881.87
876.577	10878.26
876.896	10838.71
877.214	10828.77
877.533	10932.95
877.852	10854.08
878.17	10867.86
878.489	10749.67
878.807	10791.26
879.125	10800.97
879.444	10760.97
879.762	10652.95
880.08	10791.26
880.398	10644.59
880.716	10699.73
881.034	10630.81
881.352	10666.51
881.67	10631.94
881.988	10614.31
882.306	10577.25
882.624	10450.93
882.941	10465.61
883.259	10420.87
883.577	10496.8
883.894	10460.64
884.212	10391.49
884.529	10370.48
884.846	10323.47
885.164	10315.11
885.481	10266.75
885.798	10293.64
886.115	10221.33
886.432	10238.05
886.75	10201.44
887.067	10330.93
887.383	10155.57
887.7	10188.56
888.017	10103.82
888.334	10092.74
888.651	10078.51
888.967	10015.01
889.284	9987.44
889.6	10005.97
889.917	9929.36
890.233	9942.46
890.55	9939.98
890.866	9988.57
891.182	9849.36
891.498	9825.63
891.815	9801.23
892.131	9778.85
892.447	9742.02
892.763	9696.6
893.079	9638.07
893.395	9666.54
893.71	9583.15
894.026	9532.31
894.342	9494.34
894.657	9468.13
894.973	9491.18
895.289	9433.1
895.604	9477.17
895.92	9368.24
896.235	9284.85
896.55	9309.03
896.865	9319.43
897.181	9272.88
897.496	9301.13
897.811	9200.34
898.126	9230.17
898.441	9085.09
898.756	9069.95
899.071	9054.8
899.386	9006.44
899.7	9004.86
900.015	8925.32
900.33	8882.61
900.644	8893.45
900.959	8940.46
901.273	8888.93
901.588	8792.89
901.902	8787.69
902.216	8730.52
902.531	8746.11
902.845	8695.49
903.159	8695.04
903.473	8617.75
903.787	8577.53
904.101	8519.9
904.415	8567.36
904.729	8480.13
905.042	8456.18
905.356	8442.39
905.67	8368.49
905.984	8436.97
906.297	8279.68
906.611	8342.51
906.924	8258.22
907.237	8274.71
907.551	8188.16
907.864	8224.77
908.177	8146.81
908.491	8081.95
908.804	8121.5
909.117	8081.04
909.43	7999.69
909.743	7937.09
910.056	7969.41
910.368	7976.87
910.681	7916.76
910.994	7823.88
911.307	7837.89
911.619	7744.33
911.932	7750.43
912.244	7688.29
912.557	7676.76
912.869	7605.12
913.181	7565.58
913.494	7614.16
913.806	7538.23
914.118	7513.15
914.43	7498.46
914.742	7437.67
915.054	7467.5
915.366	7406.49
915.678	7360.61
915.99	7304.12
916.302	7289.43
916.613	7269.99
916.925	7276.32
917.236	7227.28
917.548	7149.32
917.859	7163.78
918.171	7150.9
918.482	7098.47
918.794	7097.57
919.105	7058.02
919.416	7059.6
919.727	7034.29
920.038	6920.85
920.349	6879.27
920.66	6946.39
920.971	6823.9
921.282	6944.13
921.593	6816.45
921.903	6748.42
922.214	6743.23
922.525	6715.2
922.835	6666.39
923.146	6698.71
923.456	6690.35
923.767	6645.15
924.077	6593.63
924.387	6513.85
924.697	6539.62
925.008	6531.48
925.318	6445.83
925.628	6430.47
925.938	6458.49
926.248	6402.22
926.558	6357.02
926.867	6329.68
927.177	6352.5
927.487	6289.45
927.796	6279.06
928.106	6245.61
928.416	6222.56
928.725	6178.04
929.034	6146.63
929.344	6195.22
929.653	6146.18
929.962	6054.88
930.271	6040.65
930.581	6056.47
930.89	6058.95
931.199	5982.12
931.508	5996.13
931.817	5992.96
932.125	5962.68
932.434	5913.87
932.743	5846.08
933.051	5818.05
933.36	5817.15
933.669	5750.94
933.977	5763.59
934.286	5738.96
934.594	5765.4
934.902	5658.06
935.21	5660.09
935.519	5696.02
935.827	5655.57
936.135	5592.52
936.443	5549.13
936.751	5580.09
937.059	5557.5
937.367	5573.54
937.674	5538.96
937.982	5500.77
938.29	5473.2
938.597	5415.58
938.905	5387.1
939.213	5316.6
939.52	5369.03
939.827	5357.27
940.135	5350.95
940.442	5312.76
940.749	5263.49
941.056	5256.49
941.363	5184.17
941.67	5228.24
941.977	5115.7
942.284	5114.34
942.591	5121.57
942.898	5106.21
943.205	5069.82
943.511	5022.37
943.818	5039.32
944.125	5025.53
944.431	5002.93
944.738	5008.13
945.044	4948.7
945.35	4957.74
945.657	4881.58
945.963	4851.3
946.269	4875.03
946.575	4848.81
946.881	4820.34
947.187	4802.94
947.493	4731.53
947.799	4783.28
948.105	4727.46
948.41	4726.33
948.716	4731.98
949.022	4719.78
949.327	4631.42
949.633	4616.95
949.938	4606.79
950.244	4598.65
950.549	4553.68
950.854	4550.52
951.16	4521.59
951.465	4514.81
951.77	4480.01
952.075	4455.6
952.38	4457.41
952.685	4465.32
952.99	4425.77
953.294	4416.51
953.599	4413.8
953.904	4366.79
954.209	4313.01
954.513	4334.93
954.818	4301.93
955.122	4301.26
955.426	4210.41
955.731	4259.9
956.035	4223.74
956.339	4246.57
956.643	4204.76
956.948	4198.21
957.252	4178.1
957.556	4137.65
957.86	4120.02
958.163	4133.35
958.467	4106.69
958.771	4112.11
959.075	4047.03
959.378	4046.8
959.682	4048.83
959.985	3979.91
960.289	4019
960.592	3988.04
960.896	3984.2
961.199	3954.6
961.502	3932.91
961.805	3905.56
962.108	3846.13
962.411	3885.22
962.714	3857.43
963.017	3861.72
963.32	3864.43
963.623	3800.93
963.926	3792.34
964.228	3776.07
964.531	3778.56
964.833	3758.22
965.136	3701.05
965.438	3689.3
965.741	3693.14
966.043	3707.37
966.345	3661.05
966.648	3640.94
966.95	3645.91
967.252	3593.93
967.554	3592.58
967.856	3550.54
968.158	3568.39
968.46	3567.94
968.761	3560.26
969.063	3513.48
969.365	3501.73
969.666	3500.83
969.968	3501.5
970.269	3474.39
970.571	3497.21
970.872	3426.25
971.174	3419.92
971.475	3382.86
971.776	3374.5
972.077	3376.08
972.378	3385.8
972.679	3349.19
972.98	3333.15
973.281	3315.07
973.582	3294.96
973.883	3254.96
974.183	3238.91
974.484	3235.3
974.785	3226.03
975.085	3283.43
975.386	3270.32
975.686	3188.97
975.986	3220.16
976.287	3192.59
976.587	3136.99
976.887	3125.24
977.187	3156.2
977.487	3109.42
977.787	3113.49
978.087	3119.59
978.387	3058.35
978.687	3100.16
978.987	3070.1
979.286	3013.83
979.586	3055.87
979.885	2972.93
980.185	2957.79
980.484	2958.24
980.784	2976.09
981.083	2968.18
981.382	2938.35
981.682	2922.76
981.981	2890.22
982.28	2874.63
982.579	2882.31
982.878	2885.47
983.177	2864.23
983.475	2879.6
983.774	2816.55
984.073	2836.21
984.372	2788.3
984.67	2786.49
984.969	2800.51
985.267	2778.59
985.566	2739.26
985.864	2768.64
986.162	2762.99
986.461	2725.48
986.759	2706.04
987.057	2684.35
987.355	2692.03
987.653	2664.46
987.951	2669.89
988.249	2647.29
988.547	2671.47
988.844	2614.3
989.142	2632.6
989.44	2599.61
989.737	2592.6
990.035	2549.66
990.332	2550.79
990.63	2565.94
990.927	2529.78
991.224	2524.58
991.521	2552.83
991.819	2518.7
992.116	2494.3
992.413	2499.72
992.71	2452.72
993.006	2430.57
993.303	2423.34
993.6	2416.79
993.897	2421.31
994.193	2417.69
994.49	2414.98
994.787	2341.31
995.083	2397.13
995.379	2372.04
995.676	2382.66
995.972	2339.05
996.268	2337.24
996.565	2310.8
996.861	2281.2
997.157	2281.65
997.453	2313.29
997.749	2282.1
998.044	2254.08
998.34	2240.75
998.636	2252.27
998.932	2221.76
999.227	2200.75
999.523	2206.17
999.818	2197.13
1000.114	2182.44
1000.409	2162.56
1000.704	2142.67
1001	2156
1001.295	2132.05
1001.59	2113.29
1001.885	2127.08
1002.18	2102.44
1002.475	2112.39
1002.77	2114.42
1003.065	2104.93
1003.359	2040.3
1003.654	2060.64
1003.949	2024.25
1004.243	2032.16
1004.538	1988.78
1004.832	1990.81
1005.127	1977.93
1005.421	1962.79
1005.715	1981.32
1006.009	1976.57
1006.304	1940.64
1006.598	1933.41
1006.892	1934.31
1007.186	1922.56
1007.48	1925.73
1007.773	1876.01
1008.067	1897.48
1008.361	1842.34
1008.655	1856.12
1008.948	1864.48
1009.242	1838.72
1009.535	1842.11
1009.829	1825.84
1010.122	1801.21
1010.415	1828.55
1010.708	1783.58
1011.001	1787.65
1011.295	1784.94
1011.588	1757.37
1011.881	1753.08
1012.173	1705.84
1012.466	1744.26
1012.759	1739.74
1013.052	1691.83
1013.344	1697.03
1013.637	1707.2
1013.93	1678.73
1014.222	1680.99
1014.514	1659.52
1014.807	1653.64
1015.099	1668.33
1015.391	1621.33
1015.683	1629.01
1015.976	1616.36
1016.268	1620.2
1016.56	1587.43
1016.851	1602.34
1017.143	1572.74
1017.435	1577.49
1017.727	1579.97
1018.018	1530.48
1018.31	1557.37
1018.602	1541.33
1018.893	1525.96
1019.185	1506.3
1019.476	1476.7
1019.767	1512.63
1020.058	1469.92
1020.35	1454.1
1020.641	1431.28
1020.932	1459.75
1021.223	1436.25
1021.514	1410.71
1021.804	1416.81
1022.095	1396.02
1022.386	1422.91
1022.677	1379.75
1022.967	1372.29
1023.258	1370.03
1023.548	1361.45
1023.839	1377.27
1024.129	1382.01
1024.419	1356.7
1024.709	1351.28
1025	1312.41
1025.29	1308.12
1025.58	1319.41
1025.87	1320.77
1026.16	1289.36
1026.449	1286.65
1026.739	1270.6
1027.029	1244.39
1027.319	1283.03
1027.608	1214.33
1027.898	1233.32
1028.187	1224.5
1028.477	1232.64
1028.766	1204.62
1029.055	1218.63
1029.344	1203.49
1029.634	1208.23
1029.923	1216.59
1030.212	1170.72
1030.501	1170.94
1030.79	1150.15
1031.078	1167.78
1031.367	1149.93
1031.656	1156.93
1031.945	1127.1
1032.233	1130.72
1032.522	1115.8
1032.81	1107.22
1033.099	1095.24
1033.387	1087.78
1033.675	1092.98
1033.963	1088.23
1034.251	1081
1034.54	1071.51
1034.828	1081.45
1035.116	1012.76
1035.403	1040.55
1035.691	1041.68
1035.979	1030.16
1036.267	1038.07
1036.554	1018.18
1036.842	1019.08
1037.129	1022.93
1037.417	977.5
1037.704	1001.91
1037.992	991.74
1038.279	1004.39
1038.566	957.16
1038.853	957.16
1039.14	957.16
