Data from hue_26_FLMS001491_00083.txt Node
Date: Tue Feb 07 17:14:41 GMT 2017
User: dcchb
Spectrometer: FLMS00149
Trigger mode: 0
Integration Time (sec): 2.000000E-2
Scans to average: 10
Electric dark correction enabled: true
Nonlinearity correction enabled: false
Boxcar width: 0
XAxis mode: Wavelengths
Number of Pixels in Spectrum: 2048
>>>>>Begin Spectral Data<<<<<
341.393	-8.64
341.776	-8.64
342.16	-8.64
342.543	-68.76
342.927	-70.56
343.31	-68.3
343.693	-70.11
344.077	-52.94
344.46	-55.2
344.843	-51.13
345.226	-17.01
345.61	-32.6
345.993	-20.85
346.376	-7.29
346.759	0.62
347.142	25.93
347.525	22.09
347.908	67.51
348.291	65.48
348.674	90.11
349.057	103.67
349.44	118.13
349.823	141.86
350.206	153.61
350.588	203.78
350.971	229.09
351.354	241.52
351.737	220.95
352.119	267.06
352.502	290.11
352.884	278.81
353.267	284.23
353.65	304.79
354.032	312.7
354.414	336.66
354.797	314.74
355.179	336.88
355.562	325.13
355.944	325.81
356.326	326.26
356.709	340.95
357.091	353.61
357.473	341.63
357.855	331.91
358.238	340.05
358.62	358.13
359.002	335.53
359.384	357.9
359.766	338.24
360.148	343.89
360.53	347.05
360.912	344.12
361.294	335.3
361.676	330.78
362.057	346.83
362.439	322.65
362.821	318.13
363.203	324
363.584	328.75
363.966	335.98
364.348	315.64
364.729	350.44
365.111	330.78
365.493	326.49
365.874	333.49
366.256	343.44
366.637	326.71
367.019	322.87
367.4	332.14
367.781	333.27
368.163	296.88
368.544	300.73
368.925	328.52
369.306	321.29
369.688	328.07
370.069	319.94
370.45	314.06
370.831	315.42
371.212	326.26
371.593	325.58
371.974	296.21
372.355	311.57
372.736	317
373.117	312.25
373.498	332.82
373.879	325.81
374.26	312.93
374.641	309.54
375.021	320.16
375.402	318.35
375.783	333.49
376.163	335.08
376.544	335.98
376.925	340.95
377.305	331.91
377.686	341.63
378.066	333.27
378.447	330.78
378.827	314.51
379.208	320.84
379.588	318.13
379.968	340.5
380.349	349.54
380.729	322.87
381.109	343.89
381.489	342.76
381.87	340.73
382.25	335.08
382.63	349.99
383.01	354.51
383.39	335.08
383.77	348.41
384.15	338.92
384.53	366.04
384.91	353.83
385.29	340.5
385.67	335.3
386.049	349.54
386.429	356.09
386.809	351.8
387.189	355.64
387.568	336.43
387.948	361.52
388.328	355.41
388.707	368.07
389.087	348.18
389.466	370.78
389.846	370.56
390.225	351.35
390.605	383.89
390.984	371.46
391.363	377.56
391.743	384.11
392.122	379.37
392.501	374.4
392.881	367.62
393.26	370.56
393.639	377.11
394.018	363.32
394.397	387.96
394.776	379.37
395.155	400.61
395.534	375.3
395.913	373.04
396.292	378.46
396.671	392.02
397.05	395.87
397.429	386.15
397.808	389.09
398.186	374.4
398.565	390.89
398.944	399.93
399.323	400.84
399.701	404
400.08	397.9
400.458	408.75
400.837	392.7
401.215	399.71
401.594	396.09
401.972	386.83
402.351	384.34
402.729	389.31
403.107	398.58
403.486	397.45
403.864	403.55
404.242	418.01
404.62	409.88
404.999	389.99
405.377	406.03
405.755	415.75
406.133	437.67
406.511	423.21
406.889	411.01
407.267	425.7
407.645	415.07
408.023	413.49
408.401	457.11
408.779	439.03
409.156	434.28
409.534	444.23
409.912	440.16
410.29	447.84
410.667	432.02
411.045	437.45
411.422	449.2
411.8	469.99
412.178	449.42
412.555	458.69
412.933	453.94
413.31	459.59
413.687	469.76
414.065	461.4
414.442	487.39
414.819	467.28
415.197	477.45
415.574	490.55
415.951	490.78
416.328	488.29
416.705	486.03
417.082	470.89
417.46	496.2
417.837	502.76
418.214	486.48
418.591	515.64
418.967	505.24
419.344	519.7
419.721	519.7
420.098	525.58
420.475	522.19
420.852	516.99
421.228	515.41
421.605	512.25
421.982	524.9
422.358	514.96
422.735	528.97
423.111	523.55
423.488	535.3
423.864	530.1
424.241	538.23
424.617	550.89
424.994	540.49
425.37	551.34
425.746	535.3
426.123	564
426.499	543.43
426.875	569.87
427.251	586.37
427.627	593.15
428.003	584.79
428.379	577.56
428.756	575.97
429.132	586.14
429.507	597.67
429.883	587.5
430.259	608.52
430.635	615.07
431.011	598.35
431.387	606.48
431.763	613.71
432.138	625.69
432.514	632.02
432.89	625.24
433.265	632.24
433.641	642.19
434.016	625.69
434.392	653.03
434.767	658.68
435.143	670.43
435.518	653.71
435.894	666.14
436.269	643.54
436.644	681.28
437.02	691.45
437.395	661.62
437.77	695.74
438.145	693.94
438.52	692.13
438.895	719.7
439.271	683.32
439.646	694.39
440.021	723.54
440.395	735.52
440.77	723.31
441.145	713.82
441.52	771.67
441.895	721.05
442.27	732.58
442.645	735.29
443.019	768.51
443.394	748.4
443.769	742.75
444.143	747.27
444.518	761.28
444.892	751.56
445.267	797.66
445.641	772.8
446.016	769.64
446.39	794.72
446.764	774.84
447.139	771.9
447.513	774.39
447.887	789.98
448.262	791.11
448.636	795.18
449.01	805.8
449.384	820.49
449.758	818.45
450.132	839.24
450.506	819.13
450.88	836.76
451.254	841.96
451.628	839.24
452.002	834.05
452.376	864.55
452.75	859.81
453.123	882.41
453.497	855.74
453.871	872.46
454.244	882.63
454.618	872.91
454.992	906.36
455.365	917.89
455.739	915.17
456.112	922.63
456.486	921.73
456.859	963.53
457.232	975.29
457.606	980.26
457.979	983.65
458.352	964.89
458.725	978.45
459.099	943.87
459.472	1026.36
459.845	1021.16
460.218	1032.68
460.591	1024.55
460.964	1052.35
461.337	1064.32
461.71	1089.41
462.083	1084.66
462.456	1083.98
462.829	1088.28
463.201	1089.18
463.574	1103.19
463.947	1133.7
464.32	1123.98
464.692	1144.55
465.065	1150.2
465.438	1193.81
465.81	1164.43
466.183	1197.43
466.555	1229.29
466.928	1232
467.3	1233.36
467.672	1257.31
468.045	1277.88
468.417	1301.38
468.789	1324.2
469.161	1302.96
469.534	1353.58
469.906	1367.82
470.278	1354.71
470.65	1366.46
471.022	1395.84
471.394	1405.1
471.766	1406.23
472.138	1453.69
472.51	1481.49
472.882	1514.25
473.253	1535.04
473.625	1540.02
473.997	1587.25
474.369	1572.11
474.74	1640.8
475.112	1634.48
475.484	1660.69
475.855	1663.63
476.227	1706.34
476.598	1764.64
476.97	1794.25
477.341	1790.4
477.713	1866.79
478.084	1871.31
478.455	1944.98
478.827	1927.8
479.198	1994.47
479.569	1989.72
479.94	2067.23
480.311	2068.14
480.682	2174.35
481.053	2199.21
481.424	2248.92
481.795	2262.71
482.166	2283.95
482.537	2361.01
482.908	2376.38
483.279	2412.31
483.65	2478.52
484.021	2533.89
484.391	2554
484.762	2575.24
485.133	2619.99
485.503	2676.94
485.874	2715.35
486.244	2808.23
486.615	2822.47
486.985	2891.62
487.356	2945.18
487.726	2936.36
488.097	3048.22
488.467	3061.11
488.837	3122.35
489.207	3189.01
489.578	3241.44
489.948	3257.94
490.318	3359.63
490.688	3341.32
491.058	3422.45
491.428	3491.38
491.798	3488.67
492.168	3605.95
492.538	3654.76
492.908	3659.06
493.278	3730.24
493.648	3734.53
494.017	3790.58
494.387	3818.37
494.757	3856.57
495.126	3882.33
495.496	3922.1
495.866	3979.95
496.235	4040.74
496.605	4049.33
496.974	4092.27
497.344	4164.58
497.713	4193.73
498.082	4211.36
498.452	4239.15
498.821	4242.54
499.19	4312.6
499.559	4387.4
499.928	4420.62
500.298	4425.59
500.667	4481.41
501.036	4445.93
501.405	4548.52
501.774	4537.45
502.143	4566.15
502.512	4628.52
502.88	4695.41
503.249	4670.1
503.618	4701.06
503.987	4746.49
504.356	4786.94
504.724	4772.47
505.093	4827.16
505.462	4813.83
505.83	4878.23
506.199	4902.64
506.567	4965.69
506.936	4946.71
507.304	5016.31
507.672	5026.7
508.041	5056.53
508.409	5062.41
508.777	5129.3
509.145	5153.71
509.514	5170.43
509.882	5196.19
510.25	5198.9
510.618	5199.35
510.986	5236.64
511.354	5246.36
511.722	5327.04
512.09	5323.65
512.458	5349.63
512.826	5387.82
513.193	5412.91
513.561	5474.38
513.929	5464.66
514.297	5467.82
514.664	5554.6
515.032	5551.66
515.4	5631.66
515.767	5564.09
516.135	5607.03
516.502	5593.92
516.869	5664.43
517.237	5791.43
517.604	5698.78
517.972	5748.94
518.339	5823.07
518.706	5732.22
519.073	5762.73
519.44	5817.64
519.808	5848.15
520.175	5866.68
520.542	5920.92
520.909	5990.97
521.276	5971.54
521.643	6013.34
522.009	6054.47
522.376	6118.88
522.743	6127.01
523.11	6160.46
523.477	6227.35
523.843	6214.92
524.21	6226.9
524.577	6257.63
524.943	6256.5
525.31	6374.47
525.676	6402.94
526.043	6442.71
526.409	6400.68
526.776	6496.95
527.142	6447.01
527.508	6504.63
527.874	6580.34
528.241	6591.41
528.607	6632.31
528.973	6655.14
529.339	6687.23
529.705	6698.75
530.071	6810.84
530.437	6820.56
530.803	6838.41
531.169	6807.22
531.535	6946.65
531.901	6940.55
532.267	6887.45
532.632	6966.09
532.998	7001.79
533.364	7006.99
533.73	7110.49
534.095	7153.2
534.461	7132.41
534.826	7161.34
535.192	7198.17
535.557	7263.03
535.923	7215.8
536.288	7236.59
536.653	7303.03
537.019	7284.5
537.384	7312.29
537.749	7413.08
538.114	7378.96
538.479	7469.13
538.845	7441.56
539.21	7452.4
539.575	7527.88
539.94	7509.35
540.305	7598.16
540.67	7631.83
541.034	7590.48
541.399	7683.13
541.764	7767.2
542.129	7768.78
542.494	7765.84
542.858	7766.29
543.223	7775.78
543.587	7881.77
543.952	7847.65
544.316	7857.82
544.681	7936.68
545.045	7969
545.41	8061.88
545.774	8050.58
546.138	8110.01
546.503	8086.06
546.867	8070.24
547.231	8182.1
547.595	8280.4
547.959	8180.07
548.324	8288.77
548.688	8314.3
549.052	8276.11
549.416	8309.78
549.779	8285.15
550.143	8332.15
550.507	8425.94
550.871	8496.9
551.235	8407.18
551.599	8501.19
551.962	8526.72
552.326	8533.73
552.689	8580.28
553.053	8560.85
553.417	8578.93
553.78	8696.21
554.143	8677.23
554.507	8682.43
554.87	8743.89
555.234	8828.41
555.597	8794.29
555.96	8807.85
556.323	8851.69
556.686	8786.15
557.05	8940.95
557.413	8966.71
557.776	8974.85
558.139	9002.64
558.502	9037.9
558.865	9115.86
559.228	9164.45
559.59	9125.81
559.953	9177.56
560.316	9225.92
560.679	9206.03
561.041	9307.95
561.404	9315.86
561.767	9337.78
562.129	9320.6
562.492	9411.67
562.854	9404.67
563.217	9359.92
563.579	9424.1
563.941	9545.68
564.304	9533.93
564.666	9607.83
565.028	9636.07
565.39	9641.5
565.753	9622.52
566.115	9709.29
566.477	9759.46
566.839	9821.15
567.201	9887.59
567.563	9887.82
567.925	9965.11
568.287	9934.6
568.648	9939.34
569.01	10051.88
569.372	10088.27
569.734	10030.64
570.095	10109.96
570.457	10185.44
570.819	10212.1
571.18	10217.53
571.542	10315.38
571.903	10377.98
572.265	10438.99
572.626	10462.72
572.987	10474.24
573.349	10570.06
573.71	10576.61
574.071	10679.44
574.432	10672.21
574.794	10818.87
575.155	10892.09
575.516	10895.48
575.877	10989.26
576.238	11049.14
576.599	11107.9
576.96	11225.86
577.32	11301.34
577.681	11300.89
578.042	11454.33
578.403	11480.32
578.763	11570.49
579.124	11643.48
579.485	11945.62
579.845	11906.52
580.206	12059.74
580.566	12124.37
580.927	12355.32
581.287	12425.38
581.648	12556
582.008	12701.53
582.368	12820.4
582.728	13012.93
583.089	13097.68
583.449	13315.3
583.809	13480.27
584.169	13606.59
584.529	13737.89
584.889	14024.66
585.249	14207.48
585.609	14273.92
585.969	14580.58
586.329	14784.19
586.688	15080
587.048	15258.98
587.408	15435.24
587.768	15661.23
588.127	15876.14
588.487	16072.52
588.846	16487.65
589.206	16600.18
589.565	16846.96
589.925	17051.7
590.284	17377.11
590.643	17715.18
591.003	17999.24
591.362	18290.08
591.721	18500.25
592.08	18775.95
592.44	19121.25
592.799	19365.54
593.158	19635.81
593.517	19869.25
593.876	20124.16
594.235	20468.56
594.593	20852.95
594.952	21083.68
595.311	21285.03
595.67	21687.96
596.029	22151.45
596.387	22408.85
596.746	22618.78
597.104	22935.84
597.463	23224.42
597.822	23687.46
598.18	23868.24
598.538	24127.67
598.897	24525.17
599.255	24633.42
599.613	25229.11
599.972	25378.03
600.33	25728.53
600.688	25922.2
601.046	26284.22
601.404	26620.71
601.762	26793.14
602.12	27226.57
602.478	27583.63
602.836	27856.84
603.194	27919.44
603.552	28287.34
603.91	28408.01
604.268	29024.49
604.625	29007.77
604.983	29428.1
605.341	29458.38
605.698	29815.43
606.056	30203.9
606.413	30270.11
606.771	30741.51
607.128	31199.12
607.485	31065.34
607.843	31429.17
608.2	31838.65
608.557	32061.7
608.914	32019.89
609.272	32535.13
609.629	32660.33
609.986	32985.74
610.343	32996.36
610.7	33405.39
611.057	33563.81
611.414	33760.41
611.771	33848.77
612.127	34201.08
612.484	34474.52
612.841	34645.36
613.198	34686.49
613.554	34888.97
613.911	35211.9
614.267	35380.26
614.624	35473.36
614.98	35728.72
615.337	35998.77
615.693	36081.48
616.05	36189.73
616.406	36613.44
616.762	36611.41
617.118	36572.09
617.475	36777.06
617.831	37088.69
618.187	37322.13
618.543	37385.85
618.899	37602.57
619.255	37654.32
619.611	37720.53
619.967	37986.29
620.323	38203.23
620.678	38088.66
621.034	38168.88
621.39	38399.39
621.746	38326.85
622.101	38893.38
622.457	38742.88
622.812	38898.58
623.168	39019.71
623.523	39063.1
623.879	39414.5
624.234	39131.57
624.589	39455.4
624.945	39367.5
625.3	39558.23
625.655	39609.3
626.01	39652.46
626.365	39837.09
626.72	39988.04
627.075	39968.61
627.43	39871.21
627.785	39936.07
628.14	40103.07
628.495	40007.71
628.85	40276.4
629.205	40135.84
629.559	40360.92
629.914	40099.23
630.269	40321.14
630.623	40332.89
630.978	40300.13
631.332	40480.46
631.687	40581.25
632.041	40469.61
632.396	40692.21
632.75	40356.4
633.104	40687.24
633.459	40547.8
633.813	40658.08
634.167	40584.64
634.521	40510.97
634.875	40693.79
635.229	40604.3
635.583	40406.56
635.937	40641.81
636.291	40510.97
636.645	40557.52
636.999	40498.54
637.352	40664.86
637.706	40548.48
638.06	40693.56
638.413	40476.62
638.767	40475.49
639.121	40521.59
639.474	40379.67
639.828	40447.24
640.181	40601.59
640.534	40412.67
640.888	40311.43
641.241	40348.94
641.594	40407.69
641.947	40471.65
642.301	40322.27
642.654	40593.23
643.007	40539.22
643.36	40412.89
643.713	40472.55
644.066	40588.03
644.419	40305.32
644.771	40061.26
645.124	39713.02
645.477	39586.25
645.83	39318.91
646.182	39335.63
646.535	39185.58
646.888	39279.59
647.24	39176.54
647.593	39330.66
647.945	39399.13
648.298	39097.22
648.65	39164.79
649.002	38958.02
649.355	39246.37
649.707	39035.53
650.059	39431.68
650.411	39736.53
650.763	39886.13
651.115	40281.6
651.467	40120.02
651.819	40105.1
652.171	40079.34
652.523	40002.96
652.875	40084.77
653.227	39822.63
653.578	39984.65
653.93	40024.2
654.282	39874.83
654.633	39776.07
654.985	39933.36
655.337	39967.25
655.688	39757.77
656.039	40048.38
656.391	39605.23
656.742	39769.29
657.094	39728.62
657.445	39924.32
657.796	39791.89
658.147	39807.94
658.498	39756.64
658.849	39768.16
659.2	39783.98
659.551	39736.98
659.902	39860.82
660.253	39630.09
660.604	39775.17
660.955	39611.56
661.306	39901.04
661.656	39662.18
662.007	39731.1
662.358	39672.35
662.708	39641.39
663.059	39665.57
663.409	39562.52
663.76	39788.05
664.11	39753.93
664.461	39706.7
664.811	39801.16
665.161	39635.51
665.511	39530.66
665.862	39611.78
666.212	39847.48
666.562	39746.92
666.912	39740.37
667.262	39589.19
667.612	39558.68
667.962	39766.81
668.312	39615.85
668.662	39627.15
669.011	39695.4
669.361	39485.01
669.711	39531.33
670.06	39573.14
670.41	39455.63
670.76	39466.48
671.109	39588.06
671.459	39490.2
671.808	39402.98
672.157	39528.85
672.507	39311.9
672.856	39347.61
673.205	39400.26
673.554	39476.87
673.904	39361.17
674.253	39550.77
674.602	39428.74
674.951	38963.21
675.3	38661.3
675.649	39270.1
675.998	39257.67
676.346	39198.23
676.695	39323.2
677.044	39070.33
677.393	39063.78
677.741	39259.25
678.09	39093.6
678.438	39104.68
678.787	38998.24
679.135	39087.96
679.484	38781.52
679.832	39000.5
680.181	38742.65
680.529	38842.09
680.877	38737.23
681.225	38640.74
681.573	38921.86
681.922	38673.73
682.27	38619.72
682.618	38526.61
682.966	38638.93
683.314	38564.35
683.661	38475.99
684.009	38263.8
684.357	38344.92
684.705	38258.6
685.053	38176.34
685.4	38153.29
685.748	38179.05
686.095	38039.4
686.443	37929.57
686.79	37759.18
687.138	37965.5
687.485	37987.65
687.832	37697.94
688.18	37737.26
688.527	37566.19
688.874	37601.44
689.221	37458.62
689.568	37445.06
689.915	37245.29
690.262	37279.19
690.609	37151.96
690.956	37232.64
691.303	37138.4
691.65	36747.45
691.997	36953.77
692.344	36654.35
692.69	36656.38
693.037	36684.18
693.383	36465.88
693.73	36531.41
694.077	36363.73
694.423	36343.85
694.769	36255.04
695.116	36190.86
695.462	36152.44
695.808	36005.32
696.155	35983.4
696.501	35889.85
696.847	35765.56
697.193	35580.93
697.539	35650.98
697.885	35432.68
698.231	35304.55
698.577	35333.25
698.923	35338
699.269	35102.75
699.614	34935.07
699.96	34867.73
700.306	34818.69
700.651	34651.46
700.997	34696.43
701.342	34581.41
701.688	34569.88
702.033	34507.51
702.379	34406.95
702.724	34205.37
703.069	34408.3
703.415	34071.59
703.76	34056.45
704.105	34030.24
704.45	33939.62
704.795	33750.24
705.14	33566.29
705.485	33644.48
705.83	33592.05
706.175	33547.54
706.52	33499.4
706.865	33241.78
707.209	33256.02
707.554	33179.86
707.899	33203.82
708.243	32985.06
708.588	33083.37
708.932	32774.22
709.277	32728.35
709.621	32778.29
709.966	32639.09
710.31	32694.45
710.654	32384.4
710.998	32415.81
711.342	32546.21
711.687	32382.59
712.031	32357.51
712.375	32034.58
712.719	32141.25
713.063	31975.6
713.407	32219.21
713.75	31893.57
714.094	32009.95
714.438	31826.45
714.782	31806.11
715.125	31768.15
715.469	31834.13
715.812	31621.03
716.156	31421.26
716.499	31410.42
716.843	31540.36
717.186	31383.53
717.53	31489.74
717.873	31412
718.216	31361.15
718.559	31132.23
718.902	31113.7
719.246	31138.56
719.589	31028.73
719.932	30895.4
720.275	30871
720.617	30841.62
720.96	30677.78
721.303	30693.37
721.646	30692.47
721.989	30581.29
722.331	30565.24
722.674	30462.42
723.016	30620.16
723.359	30365.92
723.701	30537.22
724.044	30282.76
724.386	30150.79
724.729	30304.91
725.071	30121.41
725.413	30175.42
725.755	30106.5
726.097	30044.8
726.439	29901.08
726.782	29882.32
727.124	29913.73
727.465	29864.92
727.807	29862.21
728.149	29823.79
728.491	29667.19
728.833	29786.73
729.175	29715.77
729.516	29626.51
729.858	29612.05
730.199	29596
730.541	29495.21
730.882	29581.09
731.224	29622.44
731.565	29465.16
731.906	29437.81
732.248	29469
732.589	29257.48
732.93	29151.95
733.271	29201.89
733.612	29098.61
733.953	29211.83
734.294	29104.26
734.635	28960.99
734.976	29056.35
735.317	28973.87
735.658	28874.66
735.999	28847.77
736.339	28907.66
736.68	28941.1
737.021	28734.1
737.361	28644.39
737.702	28761.67
738.042	28726.19
738.383	28544.05
738.723	28575.24
739.063	28541.79
739.404	28454.34
739.744	28387.22
740.084	28364.62
740.424	28386.32
740.764	28356.71
741.104	28422.02
741.444	28189.26
741.784	28147.9
742.124	28175.25
742.464	28140.67
742.804	28105.65
743.143	27995.59
743.483	28083.05
743.823	27864.75
744.162	27918.76
744.502	27873.79
744.841	27852.54
745.181	27936.84
745.52	27810.06
745.86	27760.57
746.199	27687.58
746.538	27673.34
746.877	27904.07
747.216	27785.43
747.556	27667.46
747.895	27649.61
748.234	27569.16
748.573	27424.31
748.911	27411.2
749.25	27561.25
749.589	27378.66
749.928	27381.6
750.267	27302.05
750.605	27295.27
750.944	27174.6
751.283	27118.78
751.621	27204.65
751.96	27050.08
752.298	27005.34
752.636	27027.93
752.975	26872.91
753.313	26676.08
753.651	26878.56
753.989	26762.86
754.327	26756.98
754.666	26603.31
755.004	26635.18
755.342	26658.68
755.679	26600.6
756.017	26311.57
756.355	26502.52
756.693	26388.63
757.031	26368.06
757.368	26159.03
757.706	26221.85
758.044	26143.66
758.381	26154.28
758.719	25940.73
759.056	26075.87
759.394	25897.79
759.731	25720.4
760.068	25721.3
760.405	25725.37
760.743	25686.27
761.08	25676.33
761.417	25433.17
761.754	25456.45
762.091	25416.68
762.428	25280.41
762.765	25237.02
763.102	25278.37
763.438	25197.47
763.775	25016.91
764.112	25080.87
764.449	25048.32
764.785	24931.27
765.122	24693.53
765.458	24693.76
765.795	24716.81
766.131	24703.47
766.467	24545.74
766.804	24428
767.14	24276.14
767.476	24276.14
767.812	24083.6
768.148	24165.86
768.485	24051.97
768.821	23967.9
769.157	23826.89
769.492	23911.41
769.828	23734.91
770.164	23590.96
770.5	23607.46
770.836	23585.99
771.171	23353.91
771.507	23278.88
771.842	23152.78
772.178	23207.24
772.513	23050.64
772.849	23038.21
773.184	22891.77
773.519	22964.31
773.855	22820.81
774.19	22782.62
774.525	22668.5
774.86	22604.32
775.195	22561.16
775.53	22486.13
775.865	22368.17
776.2	22168.4
776.535	22018.8
776.87	22014.28
777.205	21910.1
777.539	21859.26
777.874	21911.46
778.209	21652.03
778.543	21675.53
778.878	21592.14
779.212	21550.34
779.547	21335.65
779.881	21442.54
780.215	21254.75
780.55	21332.26
780.884	21089.56
781.218	21119.84
781.552	21103.34
781.886	20847.98
782.22	20883.91
782.554	20736.57
782.888	20658.16
783.222	20505.85
783.556	20448.67
783.889	20368.67
784.223	20242.58
784.557	20182.69
784.89	20188.79
785.224	20082.81
785.557	19996.25
785.891	20023.6
786.224	19977.05
786.558	19853.88
786.891	19732.31
787.224	19714.23
787.557	19662.25
787.891	19690.95
788.224	19573.67
788.557	19460
788.89	19521.46
789.223	19441.92
789.556	19311.98
789.888	19229.04
790.221	19155.6
790.554	18998.54
790.887	19071.98
791.219	18957.41
791.552	18888.71
791.884	18828.15
792.217	18751.09
792.549	18768.94
792.882	18649.17
793.214	18474.71
793.546	18522.39
793.879	18385
794.211	18297.54
794.543	18345.45
794.875	18296.41
795.207	18318.78
795.539	18198.79
795.871	18223.42
796.203	17971
796.535	17872.69
796.867	17893.03
797.198	17864.33
797.53	17819.36
797.862	17613.72
798.193	17676.09
798.525	17548.63
798.856	17669.99
799.188	17417.56
799.519	17411.24
799.85	17349.54
800.182	17322.88
800.513	17407.62
800.844	17173.96
801.175	17197.46
801.506	17163.33
801.837	17046.5
802.168	17080.17
802.499	16972.6
802.83	16867.97
803.161	16726.51
803.491	16827.3
803.822	16840.86
804.153	16705.04
804.483	16578.94
804.814	16500.75
805.145	16493.52
805.475	16575.55
805.805	16492.62
806.136	16398.38
806.466	16489
806.796	16390.92
807.126	16242.68
807.457	16211.72
807.787	16244.49
808.117	16115
808.447	16098.73
808.777	16129.01
809.107	16011.73
809.436	15976.7
809.766	15897.83
810.096	15870.26
810.426	15886.31
810.755	15848.34
811.085	15761.79
811.414	15711.39
811.744	15552.75
812.073	15596.14
812.403	15561.57
812.732	15492.19
813.061	15499.2
813.39	15492.19
813.719	15408.58
814.049	15473.89
814.378	15411.29
814.707	15314.57
815.036	15308.47
815.365	15207.91
815.693	15016.95
816.022	15089.04
816.351	15006.33
816.68	14957.74
817.008	15092.2
817.337	14896.73
817.665	14823.96
817.994	15003.16
818.322	14904.86
818.651	14776.5
818.979	14733.57
819.307	14796.16
819.636	14733.34
819.964	14669.84
820.292	14724.3
820.62	14697.18
820.948	14599.79
821.276	14563.18
821.604	14623.74
821.932	14655.38
822.259	14621.93
822.587	14583.97
822.915	14525.89
823.243	14552.56
823.57	14545.55
823.898	14546.91
824.225	14428.94
824.553	14498.77
824.88	14515.72
825.207	14598.43
825.535	14508.04
825.862	14548.26
826.189	14512.78
826.516	14489.73
826.843	14600.92
827.17	14561.82
827.497	14575.83
827.824	14630.52
828.151	14671.65
828.478	14453.12
828.805	14618.54
829.131	14462.39
829.458	14477.75
829.785	14363.41
830.111	14548.04
830.438	14595.94
830.764	14511.2
831.09	14511.43
831.417	14490.18
831.743	14531.31
832.069	14435.72
832.395	14403.18
832.722	14440.47
833.048	14396.4
833.374	14386.68
833.7	14411.99
834.026	14364.54
834.351	14346.46
834.677	14356.4
835.003	14261.49
835.329	14310.98
835.654	14227.59
835.98	14254.71
836.306	14272.56
836.631	14096.52
836.956	14264.2
837.282	14253.81
837.607	14195.95
837.932	14151.89
838.258	14018.11
838.583	14128.39
838.908	14032.34
839.233	14068.05
839.558	14028.73
839.883	13990.08
840.208	13950.76
840.533	13972.23
840.858	13936.75
841.182	13907.15
841.507	13887.94
841.832	13825.12
842.156	13889.75
842.481	13803.65
842.805	13790.77
843.13	13774.04
843.454	13761.39
843.778	13714.39
844.103	13634.39
844.427	13519.81
844.751	13539.02
845.075	13513.49
845.399	13547.84
845.723	13449.31
846.047	13466.93
846.371	13273.04
846.695	13312.36
847.019	13177.22
847.343	13099.03
847.666	13071.69
847.99	13043.22
848.313	13046.15
848.637	12906.95
848.96	12978.59
849.284	12818.36
849.607	12810.68
849.931	12791.02
850.254	12633.74
850.577	12525.94
850.9	12504.47
851.223	12471.48
851.546	12464.47
851.869	12363.91
852.192	12465.38
852.515	12297.47
852.838	12285.04
853.161	12254.99
853.483	12124.37
853.806	12149.23
854.129	12150.58
854.451	12048.44
854.774	11981.78
855.096	11978.61
855.419	11970.7
855.741	11894.09
856.063	11830.59
856.385	11861.78
856.708	11749.24
857.03	11788.56
857.352	11784.27
857.674	11716.7
857.996	11696.36
858.318	11613.2
858.64	11601.45
858.961	11563.48
859.283	11573.2
859.605	11483.71
859.926	11551.5
860.248	11440.32
860.57	11382.24
860.891	11411.39
861.212	11378.18
861.534	11358.29
861.855	11372.53
862.176	11361.68
862.498	11310.83
862.819	11343.83
863.14	11220.21
863.461	11205.98
863.782	11203.94
864.103	11163.04
864.424	11150.61
864.745	11128.24
865.065	11056.38
865.386	11070.16
865.707	11020.22
866.027	11040.56
866.348	10962.14
866.668	11012.76
866.989	11015.93
867.309	10930.28
867.63	10918.75
867.95	10928.02
868.27	10790.39
868.59	10854.8
868.91	10810.05
869.23	10874.46
869.55	10804.63
869.87	10829.72
870.19	10814.57
870.51	10793.33
870.83	10859.54
871.15	10720.79
871.469	10732.09
871.789	10765.08
872.109	10682.15
872.428	10639.66
872.748	10682.15
873.067	10634.24
873.386	10598.53
873.706	10603.73
874.025	10554.92
874.344	10548.59
874.663	10593.11
874.982	10501.14
875.301	10544.98
875.62	10487.58
875.939	10460.23
876.258	10435.83
876.577	10387.02
876.896	10395.38
877.214	10426.56
877.533	10387.47
877.852	10355.38
878.17	10376.85
878.489	10252.56
878.807	10314.7
879.125	10201.94
879.444	10288.71
879.762	10255.27
880.08	10254.14
880.398	10107.25
880.716	10235.83
881.034	10149.96
881.352	10187.47
881.67	10152.22
881.988	10139.79
882.306	10033.58
882.624	10047.36
882.941	10041.04
883.259	9888.72
883.577	9977.76
883.894	10001.71
884.212	9878.33
884.529	9910.64
884.846	9885.56
885.164	9864.09
885.481	9913.13
885.798	9861.83
886.115	9760.14
886.432	9785.9
886.75	9784.32
887.067	9691.21
887.383	9698.45
887.7	9719.46
888.017	9702.97
888.334	9675.85
888.651	9641.72
888.967	9632.46
889.284	9521.28
889.6	9582.52
889.917	9505.91
890.233	9514.95
890.55	9411.67
890.866	9482.18
891.182	9492.12
891.498	9449.41
891.815	9394.95
892.131	9265.46
892.447	9325.12
892.763	9249.64
893.079	9154.51
893.395	9213.03
893.71	9219.36
894.026	9177.78
894.342	9186.82
894.657	9091.91
894.973	9102.98
895.289	9065.02
895.604	9083.55
895.92	9008.52
896.235	8947.05
896.55	8915.87
896.865	8866.6
897.181	8911.35
897.496	8891.91
897.811	8848.75
898.126	8765.14
898.441	8793.61
898.756	8734.18
899.071	8686.49
899.386	8703.44
899.7	8541.87
900.015	8642.65
900.33	8518.59
900.644	8482.88
900.959	8494.41
901.273	8476.56
901.588	8443.11
901.902	8390.01
902.216	8432.49
902.531	8408.08
902.845	8316.56
903.159	8275.88
903.473	8295.77
903.787	8215.77
904.101	8232.04
904.415	8207.64
904.729	8142.33
905.042	8137.81
905.356	8104.82
905.67	8159.05
905.984	8067.08
906.297	7995.44
906.611	7923.58
906.924	8023.24
907.237	7931.03
907.551	7905.05
907.864	7894.43
908.177	7918.83
908.491	7784.6
908.804	7755.67
909.117	7708.44
909.43	7721.1
909.743	7635.22
910.056	7609.01
910.368	7590.03
910.681	7537.82
910.994	7503.02
911.307	7475
911.619	7472.97
911.932	7463.48
912.244	7471.61
912.557	7351.61
912.869	7278.62
913.181	7353.42
913.494	7311.39
913.806	7255.8
914.118	7261.45
914.43	7247.66
914.742	7200.66
915.054	7129.25
915.366	7121.79
915.678	7106.65
915.99	7121.34
916.302	7044.5
916.613	6977.61
916.925	6977.39
917.236	6992.3
917.548	6924.73
917.859	6923.83
918.171	6864.62
918.482	6819.88
918.794	6824.4
919.105	6807.67
919.416	6687.9
919.727	6730.16
920.038	6719.54
920.349	6623.5
920.66	6684.74
920.971	6643.16
921.282	6597.28
921.593	6543.5
921.903	6492.65
922.214	6518.87
922.525	6513.22
922.835	6446.55
923.146	6394.35
923.456	6400.45
923.767	6330.4
924.077	6324.52
924.387	6310.74
924.697	6223.73
925.008	6266.67
925.318	6207.24
925.628	6161.14
925.938	6154.36
926.248	6156.17
926.558	6167.24
926.867	6092.89
927.177	6027.13
927.487	5996.4
927.796	6016.51
928.106	5969.96
928.416	5934.48
928.725	5929.73
929.034	5968.37
929.344	5936.96
929.653	5888.6
929.962	5855.38
930.271	5825.1
930.581	5794.59
930.89	5813.8
931.199	5695.84
931.508	5735.39
931.817	5696.52
932.125	5671.21
932.434	5622.62
932.743	5577.88
933.051	5592.11
933.36	5575.62
933.669	5530.19
933.977	5534.94
934.286	5509.86
934.594	5508.5
934.902	5456.75
935.21	5433.92
935.519	5422.17
935.827	5354.15
936.135	5342.4
936.443	5373.81
936.751	5362.97
937.059	5326.13
937.367	5253.14
937.674	5241.39
937.982	5242.74
938.29	5145.12
938.597	5207.26
938.905	5133.59
939.213	5135.85
939.52	5063.54
939.827	5117.1
940.135	5087.27
940.442	5070.32
940.749	5032.35
941.056	5027.38
941.363	4960.27
941.67	4988.74
941.977	4923.66
942.284	4894.73
942.591	4869.87
942.898	4878.69
943.205	4881.62
943.511	4842.98
943.818	4824.22
944.125	4796.2
944.431	4782.19
944.738	4757.11
945.044	4743.77
945.35	4735.86
945.657	4670.33
945.963	4686.6
946.269	4653.38
946.575	4642.76
946.881	4597.11
947.187	4608.64
947.493	4555.98
947.799	4558.69
948.105	4526.15
948.41	4488.64
948.716	4452.93
949.022	4465.81
949.327	4473.05
949.633	4437.57
949.938	4437.34
950.244	4369.32
950.549	4406.38
950.854	4360.96
951.16	4356.67
951.465	4324.58
951.77	4340.62
952.075	4280.73
952.38	4303.56
952.685	4240.51
952.99	4193.96
953.294	4222.66
953.599	4165.26
953.904	4141.3
954.209	4163
954.513	4102.43
954.818	4135.65
955.122	4110.57
955.426	4095.2
955.731	4039.84
956.035	4006.84
956.339	4000.74
956.643	3998.03
956.948	3999.61
957.252	3980.86
957.556	3979.5
957.86	3973.62
958.163	3943.34
958.467	3943.79
958.771	3892.72
959.075	3901.08
959.378	3868.09
959.682	3828.09
959.985	3836.68
960.289	3815.21
960.592	3820.63
960.896	3752.16
961.199	3734.99
961.502	3749.22
961.805	3728.66
962.108	3708.77
962.411	3664.03
962.714	3665.16
963.017	3693.41
963.32	3671.94
963.623	3623.35
963.926	3617.93
964.228	3589.91
964.531	3617.25
964.833	3580.87
965.136	3522.56
965.438	3562.34
965.741	3529.12
966.043	3498.83
966.345	3485.5
966.648	3506.97
966.95	3466.97
967.252	3450.93
967.554	3452.51
967.856	3440.08
968.158	3377.03
968.46	3388.78
968.761	3386.97
969.063	3386.75
969.365	3347.43
969.666	3321.89
969.968	3330.25
970.269	3278.73
970.571	3302.46
970.872	3289.57
971.174	3239.41
971.475	3267.2
971.776	3242.34
972.077	3202.8
972.378	3242.57
972.679	3212.74
972.98	3227.88
973.281	3178.17
973.582	3186.53
973.883	3154.44
974.183	3125.51
974.484	3130.48
974.785	3089.35
975.085	3068.79
975.386	3111.05
975.686	3065.4
975.986	3051.39
976.287	3012.29
976.587	2994.67
976.887	3015.46
977.187	2994.67
977.487	3010.03
977.787	2953.54
978.087	2942.24
978.387	2925.74
978.687	2922.8
978.987	2935.69
979.286	2872.41
979.586	2887.78
979.885	2869.25
980.185	2847.78
980.484	2872.41
980.784	2859.3
981.083	2830.15
981.382	2811.62
981.682	2800.55
981.981	2812.52
982.28	2754.67
982.579	2730.49
982.878	2748.57
983.177	2760.32
983.475	2727.33
983.774	2723.49
984.073	2694.11
984.372	2646.2
984.67	2708.12
984.969	2663.15
985.267	2645.75
985.566	2641.91
985.864	2618.63
986.162	2619.31
986.461	2596.03
986.759	2578.63
987.057	2567.11
987.355	2564.85
987.653	2566.2
987.951	2561.91
988.249	2521.01
988.547	2505.64
988.844	2539.54
989.142	2488.47
989.44	2478.75
989.737	2481.91
990.035	2482.14
990.332	2452.53
990.63	2397.39
990.927	2431.29
991.224	2403.04
991.521	2397.85
991.819	2412.54
992.116	2402.82
992.413	2371.63
992.71	2391.07
993.006	2349.49
993.303	2358.53
993.6	2387
993.897	2327.57
994.193	2304.74
994.49	2302.48
994.787	2313.55
995.083	2277.4
995.379	2297.96
995.676	2266.1
995.972	2230.62
996.268	2230.17
996.565	2232.65
996.861	2220.9
997.157	2224.52
997.453	2228.81
997.749	2152.43
998.044	2182.48
998.34	2151.07
998.636	2161.47
998.932	2158.98
999.227	2158.76
999.523	2155.37
999.818	2119.66
1000.114	2097.97
1000.409	2116.72
1000.704	2048.7
1001	2028.36
1001.295	2051.87
1001.59	2051.64
1001.885	2052.32
1002.18	2020.23
1002.475	2023.62
1002.77	1998.54
1003.065	2013.45
1003.359	1972.1
1003.654	1956.28
1003.949	1974.35
1004.243	1942.27
1004.538	1922.6
1004.832	1912.21
1005.127	1896.84
1005.421	1915.37
1005.715	1908.14
1006.009	1894.36
1006.304	1879.22
1006.598	1846.9
1006.892	1850.06
1007.186	1822.27
1007.48	1843.06
1007.773	1840.57
1008.067	1822.04
1008.361	1792.89
1008.655	1784.3
1008.948	1799.22
1009.242	1763.51
1009.535	1732.78
1009.829	1754.02
1010.122	1730.75
1010.415	1737.98
1010.708	1728.71
1011.001	1728.49
1011.295	1726.23
1011.588	1681.93
1011.881	1664.08
1012.173	1670.86
1012.466	1668.37
1012.759	1652.33
1013.052	1639.9
1013.344	1646.91
1013.637	1603.07
1013.93	1601.94
1014.222	1604.87
1014.514	1601.48
1014.807	1601.26
1015.099	1587.92
1015.391	1578.89
1015.683	1568.26
1015.976	1559.68
1016.268	1537.53
1016.56	1546.8
1016.851	1509.28
1017.143	1510.86
1017.435	1490.98
1017.727	1487.81
1018.018	1493.46
1018.31	1471.32
1018.602	1446.01
1018.893	1448.04
1019.185	1447.59
1019.476	1421.6
1019.767	1428.83
1020.058	1406.46
1020.35	1423.63
1020.641	1424.09
1020.932	1394.03
1021.223	1393.13
1021.514	1375.5
1021.804	1360.36
1022.095	1339.57
1022.386	1336.18
1022.677	1340.25
1022.967	1322.62
1023.258	1320.81
1023.548	1354.03
1023.839	1319
1024.129	1312.68
1024.419	1293.69
1024.709	1282.4
1025	1272
1025.29	1279.68
1025.58	1243.07
1025.87	1267.71
1026.16	1260.7
1026.449	1255.05
1026.739	1222.74
1027.029	1236.3
1027.319	1209.63
1027.608	1187.03
1027.898	1220.02
1028.187	1174.83
1028.477	1187.03
1028.766	1185
1029.055	1177.99
1029.344	1175.28
1029.634	1164.66
1029.923	1156.3
1030.212	1131.67
1030.501	1136.64
1030.79	1124.66
1031.078	1108.16
1031.367	1104.55
1031.656	1097.32
1031.945	1098.22
1032.233	1093.47
1032.522	1060.71
1032.81	1096.19
1033.099	1087.15
1033.387	1060.25
1033.675	1070.88
1033.963	1044.44
1034.251	1067.49
1034.54	1025.91
1034.828	1044.89
1035.116	1038.33
1035.403	1013.7
1035.691	1022.29
1035.979	992.46
1036.267	973.93
1036.554	987.26
1036.842	958.56
1037.129	996.53
1037.417	989.3
1037.704	949.98
1037.992	954.27
1038.279	963.99
1038.566	948.85
1038.853	948.85
1039.14	948.85
