Data from hue_38_FLMS001491_00018.txt Node
Date: Tue Feb 07 17:31:07 GMT 2017
User: dcchb
Spectrometer: FLMS00149
Trigger mode: 0
Integration Time (sec): 2.000000E-2
Scans to average: 10
Electric dark correction enabled: true
Nonlinearity correction enabled: false
Boxcar width: 0
XAxis mode: Wavelengths
Number of Pixels in Spectrum: 2048
>>>>>Begin Spectral Data<<<<<
341.393	-31.23
341.776	-31.23
342.16	-31.23
342.543	-57.22
342.927	-74.39
343.31	-47.95
343.693	-60.15
344.077	-73.26
344.46	-57.89
344.843	-64
345.226	-45.01
345.61	-52.47
345.993	-5.01
346.376	-6.6
346.759	18.94
347.142	32.73
347.525	35.89
347.908	53.52
348.291	79.28
348.674	90.35
349.057	101.65
349.44	145.49
349.823	147.52
350.206	141.2
350.588	176.45
350.971	212.61
351.354	244.7
351.737	243.34
352.119	273.17
352.502	271.81
352.884	269.78
353.267	302.55
353.65	301.19
354.032	305.49
354.414	325.15
354.797	329.89
355.179	328.08
355.562	325.15
355.944	320.4
356.326	330.12
356.709	323.11
357.091	333.28
357.473	340.51
357.855	341.42
358.238	349.55
358.62	348.65
359.002	338.25
359.384	372.83
359.766	355.65
360.148	335.77
360.53	323.56
360.912	332.15
361.294	358.59
361.676	322.21
362.057	319.05
362.439	311.36
362.821	326.73
363.203	318.82
363.584	333.96
363.966	342.1
364.348	333.06
364.729	318.82
365.111	315.66
365.493	325.15
365.874	318.14
366.256	322.89
366.637	321.31
367.019	303.68
367.4	308.65
367.781	329.21
368.163	323.34
368.544	323.34
368.925	304.58
369.306	320.85
369.688	321.53
370.069	326.28
370.45	333.51
370.831	292.61
371.212	310.91
371.593	305.26
371.974	316.33
372.355	285.15
372.736	334.64
373.117	323.79
373.498	315.2
373.879	311.59
374.26	326.05
374.641	335.32
375.021	298.03
375.402	316.79
375.783	332.83
376.163	328.76
376.544	313.85
376.925	342.32
377.305	332.38
377.686	324.69
378.066	334.41
378.447	333.96
378.827	353.85
379.208	343
379.588	333.51
379.968	318.37
380.349	329.67
380.729	334.86
381.109	348.42
381.489	347.75
381.87	353.17
382.25	347.07
382.63	331.7
383.01	339.61
383.39	345.26
383.77	341.42
384.15	359.95
384.53	349.33
384.91	355.88
385.29	320.85
385.67	345.71
386.049	346.16
386.429	351.36
386.809	351.81
387.189	355.88
387.568	363.79
387.948	366.05
388.328	368.08
388.707	360.85
389.087	347.52
389.466	353.62
389.846	349.33
390.225	367.63
390.605	366.5
390.984	376.67
391.363	344.81
391.743	364.24
392.122	372.15
392.501	363.34
392.881	372.83
393.26	371.93
393.639	372.15
394.018	385.48
394.397	373.51
394.776	368.99
395.155	387.97
395.534	391.59
395.913	372.15
396.292	378.93
396.671	378.7
397.05	392.49
397.429	381.87
397.808	390.46
398.186	393.39
398.565	372.6
398.944	364.92
399.323	394.75
399.701	382.09
400.08	386.39
400.458	401.75
400.837	392.72
401.215	400.85
401.594	393.85
401.972	382.55
402.351	403.56
402.729	416.9
403.107	405.37
403.486	385.71
403.864	410.79
404.242	400.4
404.62	429.32
404.999	399.72
405.377	420.29
405.755	407.4
406.133	412.6
406.511	429.32
406.889	432.26
407.267	433.62
407.645	408.08
408.023	403.11
408.401	401.08
408.779	457.12
409.156	450.34
409.534	444.69
409.912	444.47
410.29	459.38
410.667	477.69
411.045	444.24
411.422	483.79
411.8	458.48
412.178	470.68
412.555	475.88
412.933	463.9
413.31	478.82
413.687	472.26
414.065	472.49
414.442	462.54
414.819	475.88
415.197	467.29
415.574	500.51
415.951	486.72
416.328	496.44
416.705	511.13
417.082	499.15
417.46	500.06
417.837	509.55
418.214	494.86
418.591	502.09
418.967	498.48
419.344	514.52
419.721	521.07
420.098	531.24
420.475	543.9
420.852	540.73
421.228	544.12
421.605	539.6
421.982	532.82
422.358	535.99
422.735	541.41
423.111	546.84
423.488	543.9
423.864	551.81
424.241	531.92
424.617	558.36
424.994	552.49
425.37	554.29
425.746	572.15
426.123	551.58
426.499	547.06
426.875	575.99
427.251	577.34
427.627	582.32
428.003	593.84
428.379	585.03
428.756	594.29
429.132	586.83
429.507	604.01
429.883	610.79
430.259	615.76
430.635	624.12
431.011	629.55
431.387	623.67
431.763	647.4
432.138	641.3
432.514	653.05
432.89	627.74
433.265	662.31
433.641	665.93
434.016	662.31
434.392	665.25
434.767	676.1
435.143	662.77
435.518	677
435.894	684.69
436.269	709.32
436.644	704.57
437.02	693.95
437.395	696.21
437.77	699.15
438.145	711.58
438.52	707.28
438.895	718.81
439.271	734.18
439.646	739.6
440.021	764.46
440.395	701.86
440.77	747.96
441.145	741.41
441.52	761.75
441.895	768.98
442.27	748.19
442.645	771.24
443.019	817.34
443.394	788.19
443.769	799.03
444.143	786.38
444.518	775.08
444.892	800.39
445.267	801.52
445.641	807.62
446.016	790.9
446.39	810.78
446.764	804.23
447.139	805.59
447.513	829.77
447.887	832.25
448.262	838.81
448.636	842.65
449.01	848.07
449.384	872.7
449.758	834.06
450.132	853.95
450.506	880.39
450.88	876.77
451.254	869.09
451.628	865.7
452.002	898.24
452.376	900.05
452.75	910.22
453.123	905.7
453.497	905.47
453.871	929.65
454.244	930.1
454.618	951.12
454.992	959.25
455.365	965.13
455.739	983.89
456.112	966.71
456.486	974.17
456.859	994.51
457.232	1002.42
457.606	1029.08
457.979	1025.92
458.352	1049.42
458.725	1027.73
459.099	1050.55
459.472	1064.11
459.845	1064.11
460.218	1065.01
460.591	1075.86
460.964	1109.31
461.337	1101.17
461.71	1153.83
462.083	1154.28
462.456	1175.52
462.829	1186.82
463.201	1174.84
463.574	1194.73
463.947	1206.48
464.32	1231.79
464.692	1271.34
465.065	1262.52
465.438	1267.27
465.81	1291
466.183	1310.43
466.555	1348.62
466.928	1376.64
467.3	1353.37
467.672	1341.62
468.045	1396.76
468.417	1418.23
468.789	1428.17
469.161	1460.26
469.534	1467.94
469.906	1533.25
470.278	1512.01
470.65	1529.63
471.022	1573.7
471.394	1602.4
471.766	1650.31
472.138	1646.24
472.51	1707.94
472.882	1737.99
473.253	1730.99
473.625	1782.74
473.997	1806.69
474.369	1826.8
474.74	1886.91
475.112	1946.8
475.484	1954.26
475.855	1992.9
476.227	2025.89
476.598	2098.66
476.97	2131.65
477.341	2173.69
477.713	2224.98
478.084	2284.42
478.455	2327.81
478.827	2349.05
479.198	2448.93
479.569	2493.45
479.94	2563.96
480.311	2599.44
480.682	2735.93
481.053	2777.74
481.424	2849.83
481.795	2897.73
482.166	3001.01
482.537	3041.69
482.908	3133.21
483.279	3184.96
483.65	3272.19
484.021	3356.48
484.391	3452.97
484.762	3510.6
485.133	3574.55
485.503	3669.47
485.874	3772.29
486.244	3890.02
486.615	3951.49
486.985	4053.86
487.356	4168.44
487.726	4231.03
488.097	4371.14
488.467	4379.05
488.837	4553.74
489.207	4643.45
489.578	4732.04
489.948	4859.94
490.318	4961.18
490.688	5010.67
491.058	5137
491.428	5226.03
491.798	5320.04
492.168	5535.63
492.538	5582.18
492.908	5650.66
493.278	5808.84
493.648	5908.5
494.017	5974.49
494.387	6122.73
494.757	6190.53
495.126	6331.09
495.496	6386.23
495.866	6470.97
496.235	6599.56
496.605	6662.38
496.974	6770.85
497.344	6879.55
497.713	6979.66
498.082	7111.41
498.452	7191.63
498.821	7274.57
499.19	7251.74
499.559	7424.4
499.928	7524.51
500.298	7593.43
500.667	7730.83
501.036	7724.73
501.405	7820.99
501.774	7928.79
502.143	8033.42
502.512	8104.83
502.88	8190.93
503.249	8209.46
503.618	8345.05
503.987	8437.93
504.356	8468.44
504.724	8611.71
505.093	8623.69
505.462	8724.47
505.83	8816
506.199	8884.47
506.567	9067.52
506.936	9065.71
507.304	9228.42
507.672	9211.47
508.041	9295.53
508.409	9424.79
508.777	9440.61
509.145	9526.49
509.514	9650.1
509.882	9721.74
510.25	9736.65
510.618	9772.81
510.986	9818
511.354	9962.86
511.722	10068.17
512.09	10106.13
512.458	10131.22
512.826	10212.12
513.193	10275.39
513.561	10356.97
513.929	10501.83
514.297	10565.56
514.664	10698.43
515.032	10630.41
515.4	10748.6
515.767	10867.69
516.135	10895.72
516.502	10817.98
516.869	10992.66
517.237	11031.53
517.604	11060.68
517.972	11160.34
518.339	11321.24
518.706	11334.12
519.073	11359.66
519.44	11452.09
519.808	11636.94
520.175	11588.58
520.542	11688.92
520.909	11785.64
521.276	11782.92
521.643	11927.1
522.009	11976.14
522.376	12048
522.743	12038.29
523.11	12221.78
523.477	12391.04
523.843	12417.03
524.21	12560.98
524.577	12638.04
524.943	12690.02
525.31	12727.08
525.676	12860.64
526.043	12885.49
526.409	12974.08
526.776	13138.14
527.142	13104.25
527.508	13181.31
527.874	13311.7
528.241	13421.3
528.607	13482.99
528.973	13605.02
529.339	13535.87
529.705	13717.11
530.071	13760.27
530.437	13924.34
530.803	14017.22
531.169	13997.1
531.535	14000.04
531.901	14117.1
532.267	14193.26
532.632	14223.09
532.998	14312.35
533.364	14386.7
533.73	14384.44
534.095	14582.85
534.461	14680.02
534.826	14689.74
535.192	14755.73
535.557	14801.6
535.923	14776.07
536.288	14891.09
536.653	14979.68
537.019	14988.94
537.384	15019
537.749	15055.38
538.114	15139.22
538.479	15153.23
538.845	15244.3
539.21	15197.75
539.575	15384.64
539.94	15350.06
540.305	15628.47
540.67	15525.65
541.034	15656.95
541.399	15735.59
541.764	15741.01
542.129	15829.37
542.494	15856.26
542.858	15864.63
543.223	15870.95
543.587	16027.11
543.952	16014.9
544.316	16141.68
544.681	16052.87
545.045	16201.11
545.41	16364.73
545.774	16388.45
546.138	16418.28
546.503	16412.18
546.867	16369.7
547.231	16653.76
547.595	16563.14
547.959	16628.67
548.324	16717.26
548.688	16738.5
549.052	16803.13
549.416	16833.41
549.779	16894.2
550.143	16973.75
550.507	17101.43
550.871	17185.27
551.235	17202.22
551.599	17315.66
551.962	17328.09
552.326	17288.99
552.689	17475.2
553.053	17393.4
553.417	17433.4
553.78	17657.57
554.143	17700.51
554.507	17715.2
554.87	17773.73
555.234	17966.04
555.597	17844.46
555.96	17953.38
556.323	18031.35
556.686	18069.54
557.05	18135.98
557.413	18099.37
557.776	18211.23
558.139	18365.35
558.502	18371
558.865	18392.24
559.228	18543.88
559.59	18571.67
559.953	18601.05
560.316	18893.92
560.679	18755.62
561.041	18886.47
561.404	19021.15
561.767	19013.02
562.129	18938.44
562.492	19244.88
562.854	19290.3
563.217	19257.08
563.579	19303.86
563.941	19511.53
564.304	19498.43
564.666	19628.82
565.028	19566
565.39	19773.22
565.753	19866.33
566.115	19837.4
566.477	19961.92
566.839	20116.72
567.201	20180.22
567.563	20186.55
567.925	20429.25
568.287	20244.17
568.648	20473.09
569.01	20466.99
569.372	20652.3
569.734	20594.9
570.095	20705.4
570.457	20804.38
570.819	20918.05
571.18	21065.17
571.542	21061.78
571.903	21091.61
572.265	21171.83
572.626	21256.35
572.987	21273.3
573.349	21396.91
573.71	21569.33
574.071	21594.64
574.432	21719.84
574.794	21810.46
575.155	21984.69
575.516	22002.99
575.877	22025.37
576.238	22192.59
576.599	22277.34
576.96	22447.95
577.32	22496.99
577.681	22628.29
578.042	22807.27
578.403	22875.06
578.763	23018.56
579.124	23162.29
579.485	23372.68
579.845	23483.63
580.206	23608.83
580.566	23708.49
580.927	23788.26
581.287	23999.33
581.648	23954.81
582.008	24352.31
582.368	24432.99
582.728	24683.83
583.089	24678.18
583.449	24897.16
583.809	25157.49
584.169	25221.44
584.529	25405.39
584.889	25635.44
585.249	25726.51
585.609	25875.66
585.969	26123.56
586.329	26277.01
586.688	26523.78
587.048	26600.61
587.408	26841.74
587.768	27014.84
588.127	27231.33
588.487	27322.18
588.846	27685.56
589.206	27779.11
589.565	27913.35
589.925	28383.84
590.284	28527.34
590.643	28653.67
591.003	28789.71
591.362	29075.8
591.721	29205.07
592.08	29437.38
592.44	29811.38
592.799	29927.08
593.158	30036.46
593.517	30229.9
593.876	30565.93
594.235	30627.85
594.593	30858.36
594.952	31061.97
595.311	31220.61
595.67	31493.14
596.029	31802.29
596.387	31876.63
596.746	32205.21
597.104	32146.01
597.463	32311.88
597.822	32605.65
598.18	32873.44
598.538	32895.36
598.897	33315.69
599.255	33253.09
599.613	33840.88
599.972	33767.66
600.33	34013.3
600.688	33940.53
601.046	34312.95
601.404	34576.68
601.762	34821.87
602.12	34915.42
602.478	35045.59
602.836	35214.62
603.194	35169.43
603.552	35486.26
603.91	35595.86
604.268	35832.01
604.625	35773.71
604.983	36119.91
605.341	36043.76
605.698	36383.63
606.056	36609.39
606.413	36551.31
606.771	36941.36
607.128	37050.28
607.485	36954.47
607.843	37183.16
608.2	37514.9
608.557	37715.8
608.914	37580.66
609.272	37845.06
609.629	38013.42
609.986	38206.41
610.343	38201.67
610.7	38457.25
611.057	38527.31
611.414	38652.95
611.771	38775.21
612.127	38825.15
612.484	38974.75
612.841	39245.71
613.198	39170.68
613.554	39372.26
613.911	39572.25
614.267	39517.11
614.624	39521.18
614.98	39850.89
615.337	40002.52
615.693	40049.98
616.05	39947.83
616.406	40282.06
616.762	40181.27
617.118	40430.76
617.475	40411.78
617.831	40579.91
618.187	40727.93
618.543	40657.42
618.899	40942.61
619.255	40821.71
619.611	41062.61
619.967	41073.68
620.323	41271.19
620.678	41288.82
621.034	41114.13
621.39	41279.55
621.746	41138.54
622.101	41718.41
622.457	41470.73
622.812	41638.41
623.168	41730.84
623.523	41821.23
623.879	41967.44
624.234	41686.32
624.589	41828.24
624.945	41900.1
625.3	42068
625.655	41996.59
626.01	42215.57
626.365	42162.24
626.72	42155.91
627.075	42167.21
627.43	42233.2
627.785	42157.49
628.14	42190.26
628.495	42307.77
628.85	42280.65
629.205	42156.82
629.559	42493.53
629.914	42268.22
630.269	42416.47
630.623	42276.36
630.978	42135.12
631.332	42366.53
631.687	42483.81
632.041	42242.24
632.396	42449.69
632.75	42271.84
633.104	42475.9
633.459	42240.43
633.813	42318.39
634.167	42267.09
634.521	42307.77
634.875	42414.66
635.229	42411.5
635.583	42171.28
635.937	42223.03
636.291	42134.44
636.645	42217.38
636.999	42270.94
637.352	42164.27
637.706	42104.84
638.06	42316.81
638.413	42195.68
638.767	42076.82
639.121	42053.32
639.474	41972.64
639.828	42039.08
640.181	42069.36
640.534	41967.67
640.888	41828.01
641.241	41719.99
641.594	42020.1
641.947	41947.78
642.301	41935.58
642.654	41944.62
643.007	41902.36
643.36	41881.79
643.713	41782.81
644.066	41944.62
644.419	41694.68
644.771	41456.04
645.124	41126.56
645.477	41079.56
645.83	40729.51
646.182	40785.55
646.535	40689.51
646.888	40739.23
647.24	40492.23
647.593	40809.05
647.945	40657.19
648.298	40535.84
648.65	40463.07
649.002	40477.54
649.355	40621.71
649.707	40521.83
650.059	40752.78
650.411	41195.71
650.763	41114.58
651.115	41555.48
651.467	41480
651.819	41390.73
652.171	41319.1
652.523	41262.15
652.875	41302.83
653.227	41013.12
653.578	41358.64
653.93	41127.69
654.282	41050.18
654.633	41016.96
654.985	41037.97
655.337	41040.46
655.688	41084.3
656.039	41161.14
656.391	40954.59
656.742	41012.44
657.094	41155.94
657.445	41210.63
657.796	41032.55
658.147	41018.54
658.498	40936.96
658.849	41140.12
659.2	41051.53
659.551	40948.49
659.902	41108.48
660.253	40924.98
660.604	41144.41
660.955	40819.22
661.306	41054.02
661.656	40941.03
662.007	40924.08
662.358	40926.34
662.708	41037.75
663.059	40828.94
663.409	40643.86
663.76	40993.91
664.11	41004.08
664.461	40860.8
664.811	40736.29
665.161	40802.73
665.511	40769.73
665.862	40751.88
666.212	40913.91
666.562	40811.99
666.912	40818.77
667.262	40794.59
667.612	40838.66
667.962	40870.3
668.312	40824.87
668.662	41033.91
669.011	40795.95
669.361	40774.03
669.711	40694.03
670.06	40692.45
670.41	40574.26
670.76	40526.12
671.109	40584.2
671.459	40604.09
671.808	40459.23
672.157	40691.32
672.507	40418.78
672.856	40393.7
673.205	40467.82
673.554	40607.93
673.904	40481.61
674.253	40533.81
674.602	40526.8
674.951	40144.89
675.3	39823.09
675.649	40450.42
675.998	40441.38
676.346	40517.76
676.695	40567.25
677.044	40324.1
677.393	40419.69
677.741	40421.95
678.09	40270.09
678.438	40141.95
678.787	40294.72
679.135	40294.94
679.484	40005.23
679.832	40207.71
680.181	39846.14
680.529	40072.12
680.877	39811.11
681.225	39921.85
681.573	40009.53
681.922	39787.39
682.27	39748.29
682.618	39671.23
682.966	39554.4
683.314	39708.74
683.661	39622.42
684.009	39343.1
684.357	39359.15
684.705	39273.73
685.053	39409.54
685.4	39181.98
685.748	39054.98
686.095	38955.54
686.443	39012.94
686.79	38937.69
687.138	39045.94
687.485	39053.62
687.832	38874.87
688.18	38791.71
688.527	38643.24
688.874	38673.52
689.221	38618.38
689.568	38461.09
689.915	38397.59
690.262	38338.16
690.609	38457.03
690.956	38171.84
691.303	38254.32
691.65	38062.46
691.997	38037.15
692.344	37690.04
692.69	37838.96
693.037	37791.96
693.383	37447.11
693.73	37634.9
694.077	37280.79
694.423	37408.01
694.769	37288.02
695.116	37251.86
695.462	37259.99
695.808	36970.51
696.155	37049.83
696.501	36843.96
696.847	36885.99
697.193	36603.29
697.539	36815.03
697.885	36420.24
698.231	36454.59
698.577	36369.4
698.923	36345.44
699.269	36211.43
699.614	36119.23
699.96	35936.87
700.306	35959.46
700.651	35733.03
700.997	35704.56
701.342	35557.21
701.688	35507.72
702.033	35467.73
702.379	35415.3
702.724	35423.21
703.069	35507.95
703.415	35035.65
703.76	34984.35
704.105	34995.87
704.45	34876.33
704.795	34780.51
705.14	34619.61
705.485	34624.36
705.83	34547.75
706.175	34528.32
706.52	34507.75
706.865	34345.72
707.209	34224.82
707.554	34255.78
707.899	34194.54
708.243	34038.16
708.588	34020.76
708.932	33843.59
709.277	33625.06
709.621	33698.51
709.966	33727.88
710.31	33603.14
710.654	33278.63
710.998	33506.87
711.342	33445.41
711.687	33302.13
712.031	33178.97
712.375	33050.84
712.719	32965.19
713.063	32915.02
713.407	33176.94
713.75	32894.01
714.094	32888.58
714.438	32781.02
714.782	32815.14
715.125	32646.56
715.469	32665.09
715.812	32480.01
716.156	32417.64
716.499	32483.4
716.843	32357.98
717.186	32214.25
717.53	32378.77
717.873	32411.53
718.216	32288.37
718.559	32224.2
718.902	31885.67
719.246	31937.65
719.589	31954.15
719.932	31786.24
720.275	31759.35
720.617	31735.62
720.96	31724.77
721.303	31703.3
721.646	31676.64
721.989	31455.85
722.331	31560.94
722.674	31488.62
723.016	31377.89
723.359	31315.07
723.701	31373.37
724.044	31110.1
724.386	31127.73
724.729	31172.02
725.071	31157.78
725.413	30994.62
725.755	31012.02
726.097	31003.89
726.439	30714.86
726.782	30801.86
727.124	31005.92
727.465	30785.59
727.807	30768.19
728.149	30661.52
728.491	30456.56
728.833	30630.11
729.175	30468.54
729.516	30522.54
729.858	30421.76
730.199	30396.9
730.541	30354.64
730.882	30338.14
731.224	30411.36
731.565	30131.82
731.906	30244.81
732.248	30169.33
732.589	30022.45
732.93	29888.66
733.271	29951.71
733.612	30045.04
733.953	30051.6
734.294	29922.79
734.635	29824.94
734.976	29878.27
735.317	29757.14
735.658	29810.25
735.999	29598.73
736.339	29647.31
736.68	29719.85
737.021	29533.64
737.361	29463.59
737.702	29642.34
738.042	29483.7
738.383	29480.31
738.723	29347.43
739.063	29202.81
739.404	29384.27
739.744	29252.75
740.084	29133.2
740.424	29233.99
740.764	29205.74
741.104	29285.06
741.444	29015.47
741.784	29019.31
742.124	28966.43
742.464	28921.46
742.804	28958.97
743.143	28838.75
743.483	28881.68
743.823	28686.66
744.162	28763.5
744.502	28681.69
744.841	28531.41
745.181	28657.96
745.52	28555.36
745.86	28660
746.199	28473.11
746.538	28457.74
746.877	28603.27
747.216	28427.91
747.556	28340.46
747.895	28386.78
748.234	28275.82
748.573	28284.41
748.911	28221.36
749.25	28112.44
749.589	28044.87
749.928	28046.68
750.267	27997.64
750.605	28005.77
750.944	27901.6
751.283	27803.29
751.621	27804.2
751.96	27717.87
752.298	27752.67
752.636	27785.67
752.975	27660.47
753.313	27541.61
753.651	27502.96
753.989	27323.53
754.327	27271.78
754.666	27231.33
755.004	27262.74
755.342	27328.05
755.679	27179.58
756.017	27039.7
756.355	27130.54
756.693	27041.28
757.031	27203.31
757.368	26824.79
757.706	26935.75
758.044	26738.46
758.381	26810.1
758.719	26753.15
759.056	26823.21
759.394	26613.72
759.731	26394.29
760.068	26448.53
760.405	26342.77
760.743	26271.81
761.08	26259.38
761.417	26198.36
761.754	26172.83
762.091	26012.83
762.428	25916.34
762.765	25811.93
763.102	25883.34
763.438	25725.61
763.775	25624.14
764.112	25618.27
764.449	25658.49
764.785	25445.84
765.122	25299.86
765.458	25249.24
765.795	25272.29
766.131	25120.2
766.467	25072.52
766.804	24908.91
767.14	24890.15
767.476	24842.69
767.812	24779.65
768.148	24853.09
768.485	24639.08
768.821	24434.8
769.157	24304.4
769.492	24451.07
769.828	24381.69
770.164	24117.52
770.5	24184.41
770.836	24136.72
771.171	23963.85
771.507	23897.86
771.842	23625.33
772.178	23700.8
772.513	23538.55
772.849	23482.05
773.184	23428.49
773.519	23463.97
773.855	23263.07
774.19	23182.17
774.525	23133.81
774.86	23004.78
775.195	23015.85
775.53	22906.93
775.865	22846.14
776.2	22573.83
776.535	22593.71
776.87	22511.46
777.205	22484.11
777.539	22389.65
777.874	22313.04
778.209	22095.65
778.543	22192.37
778.878	22012.03
779.212	21952.15
779.547	21857.91
779.881	21907.18
780.215	21646.39
780.55	21791.7
780.884	21606.17
781.218	21579.73
781.552	21587.19
781.886	21509.22
782.22	21338.38
782.554	21280.3
782.888	21070.59
783.222	20946.3
783.556	20921.89
783.889	20946.3
784.223	20609.36
784.557	20731.84
784.89	20744.5
785.224	20717.15
785.557	20471.51
785.891	20472.41
786.224	20407.56
786.558	20376.6
786.891	20080.33
787.224	20032.43
787.557	20028.58
787.891	20066.55
788.224	20016.61
788.557	20019.54
788.89	19885.31
789.223	19824.75
789.556	19734.58
789.888	19697.07
790.221	19596.96
790.554	19512.89
790.887	19541.59
791.219	19346.34
791.552	19216.85
791.884	19220.02
792.217	19173.46
792.549	19119.68
792.882	19008.72
793.214	18914.71
793.546	18973.92
793.879	18872.68
794.211	18725.11
794.543	18817.09
794.875	18563.99
795.207	18764.89
795.539	18652.57
795.871	18531
796.203	18375.52
796.535	18241.51
796.867	18343.66
797.198	18223.89
797.53	18177.56
797.862	18086.49
798.193	18043.78
798.525	17954.51
798.856	18015.76
799.188	17773.28
799.519	17749.32
799.85	17724.24
800.182	17713.16
800.513	17732.15
800.844	17557.24
801.175	17569.21
801.506	17504.36
801.837	17435.43
802.168	17405.6
802.499	17391.59
802.83	17234.31
803.161	17149.79
803.491	17165.38
803.822	17305.49
804.153	17086.74
804.483	16908.21
804.814	16891.49
805.145	16964.94
805.475	16817.82
805.805	16856.69
806.136	16743.25
806.466	16836.35
806.796	16752.06
807.126	16596.58
807.457	16587.54
807.787	16572.63
808.117	16445.85
808.447	16386.65
808.777	16423.48
809.107	16355.01
809.436	16330.83
809.766	16291.28
810.096	16238.63
810.426	16140.55
810.755	16242.92
811.085	16115.92
811.414	16052.64
811.744	15941.69
812.073	15905.53
812.403	15989.37
812.732	15851.29
813.061	15850.84
813.39	15721.8
813.719	15711.63
814.049	15757.51
814.378	15759.77
814.707	15574.46
815.036	15586.44
815.365	15459.21
815.693	15363.4
816.022	15384.86
816.351	15431.87
816.68	15282.95
817.008	15285.21
817.337	15248.14
817.665	15193.23
817.994	15219.44
818.322	15220.57
818.651	15127.02
818.979	14996.4
819.307	15084.08
819.636	15097.41
819.964	14924.76
820.292	14931.09
820.62	14967.25
820.948	14898.1
821.276	14989.17
821.604	14904.88
821.932	14886.57
822.259	14910.98
822.587	14866.01
822.915	14901.26
823.243	14880.92
823.57	14846.8
823.898	14877.31
824.225	14794.82
824.553	14870.75
824.88	14820.58
825.207	14887.93
825.535	14785.56
825.862	14847.25
826.189	14781.26
826.516	14923.41
826.843	14845.44
827.17	14899.23
827.497	14786.24
827.824	14851.54
828.151	14904.42
828.478	14891.54
828.805	14893.58
829.131	14762.73
829.458	14781.94
829.785	14720.02
830.111	14809.74
830.438	14842.28
830.764	14781.72
831.09	14861.94
831.417	14696.75
831.743	14811.77
832.069	14806.12
832.395	14711.44
832.722	14768.61
833.048	14727.71
833.374	14762.96
833.7	14579.46
834.026	14647.71
834.351	14786.46
834.677	14671.89
835.003	14669.63
835.329	14694.03
835.654	14633.7
835.98	14493.59
836.306	14569.29
836.631	14543.53
836.956	14620.14
837.282	14545.56
837.607	14467.15
837.932	14383.08
838.258	14432.8
838.583	14434.38
838.908	14338.79
839.233	14376.3
839.558	14279.58
839.883	14214.05
840.208	14197.32
840.533	14179.47
840.858	14188.74
841.182	14124.33
841.507	14170.88
841.832	14128.17
842.156	14068.06
842.481	14046.82
842.805	14083.43
843.13	13990.32
843.454	13951.23
843.778	13985.35
844.103	13953.49
844.427	13859.25
844.751	13876.2
845.075	13784.23
845.399	13809.09
845.723	13750.78
846.047	13757.79
846.371	13606.83
846.695	13597.11
847.019	13483.44
847.343	13404.8
847.666	13343.56
847.99	13350.12
848.313	13321.87
848.637	13262.89
848.96	13209.1
849.284	13127.52
849.607	12997.81
849.931	13008.88
850.254	12934.76
850.577	12852.28
850.9	12875.1
851.223	12757.36
851.546	12782.67
851.869	12642.56
852.192	12705.39
852.515	12578.16
852.838	12539.97
853.161	12574.32
853.483	12513.75
853.806	12455.68
854.129	12422.23
854.451	12328.22
854.774	12210.71
855.096	12297.49
855.419	12200.54
855.741	12198.28
856.063	12087.78
856.385	12090.04
856.708	12083.03
857.03	11986.54
857.352	12008
857.674	11992.41
857.996	11916.48
858.318	11870.15
858.64	11865.41
858.961	11864.28
859.283	11791.74
859.605	11702.47
859.926	11723.94
860.248	11740.21
860.57	11682.14
860.891	11653.66
861.212	11520.33
861.534	11565.53
861.855	11505.64
862.176	11502.03
862.498	11520.33
862.819	11600.33
863.14	11441.92
863.461	11424.06
863.782	11403.05
864.103	11406.21
864.424	11328.7
864.745	11351.75
865.065	11298.64
865.386	11329.83
865.707	11290.51
866.027	11291.64
866.348	11243.73
866.668	11218.42
866.989	11160.12
867.309	11147.69
867.63	11112.89
867.95	11079.67
868.27	11104.52
868.59	11092.55
868.91	11090.51
869.23	11063.4
869.55	11086.67
869.87	11025.43
870.19	11019.33
870.51	11008.93
870.83	11031.76
871.15	10912.67
871.469	10973.68
871.789	10931.42
872.109	10837.19
872.428	10872.67
872.748	10877.64
873.067	10815.72
873.386	10860.46
873.706	10774.59
874.025	10717.87
874.344	10669.73
874.663	10724.87
874.982	10700.24
875.301	10737.08
875.62	10659.56
875.939	10631.54
876.258	10659.56
876.577	10600.81
876.896	10602.62
877.214	10546.35
877.533	10582.73
877.852	10554.26
878.17	10545.67
878.489	10539.34
878.807	10525.78
879.125	10481.04
879.444	10410.76
879.762	10444.88
880.08	10414.83
880.398	10407.82
880.716	10401.04
881.034	10390.87
881.352	10376.63
881.67	10345.9
881.988	10296.64
882.306	10309.29
882.624	10290.99
882.941	10246.92
883.259	10186.58
883.577	10225.68
883.894	10181.38
884.212	10114.27
884.529	10134.83
884.846	10196.3
885.164	10043.31
885.481	9994.27
885.798	10034.95
886.115	9905.23
886.432	9973.25
886.75	9960.83
887.067	9933.48
887.383	9889.19
887.7	9926.48
888.017	9883.99
888.334	9891.22
888.651	9846.93
888.967	9815.07
889.284	9780.04
889.6	9806.48
889.917	9739.81
890.233	9723.77
890.55	9589.54
890.866	9636.31
891.182	9634.96
891.498	9591.57
891.815	9593.83
892.131	9501.18
892.447	9470.44
892.763	9397.68
893.079	9417.79
893.395	9427.73
893.71	9415.3
894.026	9366.27
894.342	9367.39
894.657	9275.19
894.973	9337.34
895.289	9261.41
895.604	9235.42
895.92	9159.26
896.235	9149.55
896.55	9093.73
896.865	9067.52
897.181	9045.82
897.496	8990.91
897.811	8976.44
898.126	8988.42
898.441	8909.33
898.756	8889.22
899.071	8882.89
899.386	8827.3
899.7	8804.7
900.015	8720.86
900.33	8736.23
900.644	8713.85
900.959	8695.32
901.273	8676.11
901.588	8674.08
901.902	8539.39
902.216	8578.04
902.531	8531.71
902.845	8477.02
903.159	8459.17
903.473	8465.95
903.787	8440.41
904.101	8324.48
904.415	8357.93
904.729	8277.03
905.042	8243.81
905.356	8353.86
905.67	8266.86
905.984	8228.22
906.297	8171.27
906.611	8166.52
906.924	8128.78
907.237	8079.07
907.551	8052.63
907.864	7940.77
908.177	7975.34
908.491	7993.42
908.804	7960.88
909.117	7850.6
909.43	7755.69
909.743	7811.73
910.056	7854.21
910.368	7753.2
910.681	7752.07
910.994	7680.21
911.307	7638.63
911.619	7540.32
911.932	7608.57
912.244	7547.78
912.557	7532.64
912.869	7501.46
913.181	7465.52
913.494	7480.89
913.806	7437.5
914.118	7371.52
914.43	7343.95
914.742	7317.28
915.054	7334.68
915.366	7283.38
915.678	7270.95
915.99	7204.74
916.302	7166.77
916.613	7102.6
916.925	7111.64
917.236	7073.9
917.548	7020.79
917.859	7042.94
918.171	6983.5
918.482	6934.24
918.794	6954.13
919.105	6904.18
919.416	6816.5
919.727	6882.04
920.038	6881.58
920.349	6782.38
920.66	6722.72
920.971	6781.25
921.282	6732.89
921.593	6620.8
921.903	6649.95
922.214	6579.67
922.525	6629.61
922.835	6570.86
923.146	6495.61
923.456	6486.34
923.767	6477.53
924.077	6471.88
924.387	6431.43
924.697	6428.26
925.008	6385.33
925.318	6351.2
925.628	6304.65
925.938	6296.06
926.248	6211.55
926.558	6250.87
926.867	6176.97
927.177	6159.12
927.487	6113.92
927.796	6138.1
928.106	6118.44
928.416	6039.35
928.725	6051.1
929.034	6005.22
929.344	6010.42
929.653	5961.83
929.962	5923.42
930.271	5883.64
930.581	5910.54
930.89	5888.84
931.199	5848.17
931.508	5785.57
931.817	5818.34
932.125	5766.36
932.434	5764.55
932.743	5678.68
933.051	5676.19
933.36	5650.88
933.669	5615.86
933.977	5634.61
934.286	5608.85
934.594	5612.01
934.902	5539.7
935.21	5486.82
935.519	5511
935.827	5486.14
936.135	5450.66
936.443	5395.75
936.751	5400.49
937.059	5385.8
937.367	5338.35
937.674	5362.3
937.982	5364.11
938.29	5296.32
938.597	5311
938.905	5230.55
939.213	5239.37
939.52	5210.67
939.827	5223.55
940.135	5178.8
940.442	5135.64
940.749	5165.92
941.056	5122.99
941.363	5057.23
941.67	5061.07
941.977	5042.08
942.284	5016.1
942.591	5011.58
942.898	5019.94
943.205	4964.8
943.511	4879.15
943.818	4908.98
944.125	4926.38
944.431	4857.46
944.738	4842.77
945.044	4789.89
945.35	4849.32
945.657	4765.71
945.963	4749.21
946.269	4714.86
946.575	4715.09
946.881	4694.52
947.187	4693.17
947.493	4655.43
947.799	4589.44
948.105	4637.35
948.41	4608.2
948.716	4577.92
949.022	4544.47
949.327	4557.8
949.633	4486.62
949.938	4484.59
950.244	4487.52
950.549	4471.48
950.854	4426.06
951.16	4429.22
951.465	4398.26
951.77	4388.54
952.075	4356.91
952.38	4353.97
952.685	4354.65
952.99	4311.48
953.294	4261.54
953.599	4240.3
953.904	4212.73
954.209	4219.06
954.513	4209.79
954.818	4179.96
955.122	4175.89
955.426	4170.02
955.731	4132.5
956.035	4116.23
956.339	4119.62
956.643	4076.01
956.948	4094.54
957.252	4031.72
957.556	4062
957.86	4052.28
958.163	4018.84
958.467	4005.28
958.771	3961.89
959.075	3951.94
959.378	3920.31
959.682	3931.83
959.985	3904.26
960.289	3862.45
960.592	3837.37
960.896	3852.96
961.199	3804.38
961.502	3823.81
961.805	3814.77
962.108	3785.62
962.411	3776.58
962.714	3741.33
963.017	3738.39
963.32	3708.33
963.623	3687.54
963.926	3703.59
964.228	3672.18
964.531	3632.18
964.833	3616.36
965.136	3583.82
965.438	3621.11
965.741	3579.52
966.043	3575.46
966.345	3539.07
966.648	3520.09
966.95	3521.22
967.252	3516.7
967.554	3481.67
967.856	3459.53
968.158	3437.61
968.46	3486.65
968.761	3471.28
969.063	3424.27
969.365	3437.38
969.666	3382.69
969.968	3398.74
970.269	3364.84
970.571	3325.52
970.872	3357.61
971.174	3331.17
971.475	3341.34
971.776	3333.43
972.077	3266.99
972.378	3238.97
972.679	3243.94
972.98	3210.49
973.281	3184.28
973.582	3174.56
973.883	3214.56
974.183	3176.82
974.484	3147.22
974.785	3125.3
975.085	3147.45
975.386	3130.27
975.686	3128.24
975.986	3115.81
976.287	3060.67
976.587	3048.69
976.887	3085.3
977.187	3042.82
977.487	3006.43
977.787	2998.97
978.087	3023.15
978.387	3026.54
978.687	3016.83
978.987	3002.59
979.286	2927.34
979.586	2930.95
979.885	2886.21
980.185	2899.54
980.484	2898.41
980.784	2863.84
981.083	2895.02
981.382	2884.18
981.682	2829.26
981.981	2859.77
982.28	2777.96
982.579	2807.57
982.878	2805.31
983.177	2808.02
983.475	2807.79
983.774	2763.5
984.073	2725.54
984.372	2725.76
984.67	2745.87
984.969	2721.02
985.267	2725.08
985.566	2690.28
985.864	2672.2
986.162	2666.1
986.461	2634.24
986.759	2661.81
987.057	2617.74
987.355	2596.27
987.653	2588.82
987.951	2589.04
988.249	2563.73
988.547	2575.71
988.844	2550.4
989.142	2570.29
989.44	2574.13
989.737	2491.87
990.035	2496.84
990.332	2513.11
990.63	2479.67
990.927	2485.99
991.224	2441.48
991.521	2441.48
991.819	2452.55
992.116	2429.72
992.413	2423.85
992.71	2430.85
993.006	2441.93
993.303	2372.32
993.6	2381.82
993.897	2357.41
994.193	2318.31
994.49	2340.01
994.787	2366.9
995.083	2308.15
995.379	2338.65
995.676	2306.56
995.972	2297.52
996.268	2292.1
996.565	2271.31
996.861	2270.18
997.157	2262.95
997.453	2226.34
997.749	2222.05
998.044	2207.13
998.34	2168.94
998.636	2209.17
998.932	2160.35
999.227	2166.23
999.523	2158.09
999.818	2129.17
1000.114	2139.34
1000.409	2086.23
1000.704	2096.85
1001	2116.29
1001.295	2053.24
1001.59	2030.41
1001.885	2048.72
1002.18	2081.94
1002.475	2001.03
1002.77	2024.31
1003.065	2035.61
1003.359	2019.11
1003.654	1999.68
1003.949	1984.76
1004.243	1952.67
1004.538	1939.57
1004.832	1960.58
1005.127	1935.5
1005.421	1919.68
1005.715	1942.96
1006.009	1939.79
1006.304	1896.86
1006.598	1913.81
1006.892	1861.15
1007.186	1858.67
1007.48	1837.2
1007.773	1857.08
1008.067	1833.13
1008.361	1809.4
1008.655	1820.25
1008.948	1781.61
1009.242	1782.96
1009.535	1813.92
1009.829	1777.54
1010.122	1745.67
1010.415	1758.33
1010.708	1744.09
1011.001	1724.21
1011.295	1706.81
1011.588	1728.27
1011.881	1701.16
1012.173	1678.11
1012.466	1672.91
1012.759	1708.16
1013.052	1695.96
1013.344	1647.37
1013.637	1674.26
1013.93	1658.45
1014.222	1632.01
1014.514	1639.46
1014.807	1593.36
1015.099	1613.7
1015.391	1572.8
1015.683	1587.94
1015.976	1539.35
1016.268	1555.17
1016.56	1568.05
1016.851	1552.01
1017.143	1530.31
1017.435	1543.19
1017.727	1526.25
1018.018	1519.92
1018.31	1526.7
1018.602	1496.19
1018.893	1460.48
1019.185	1465.91
1019.476	1477.21
1019.767	1449.64
1020.058	1491.9
1020.35	1435.4
1020.641	1424.55
1020.932	1411.9
1021.223	1407.38
1021.514	1382.75
1021.804	1361.05
1022.095	1391.11
1022.386	1377.77
1022.677	1400.15
1022.967	1367.15
1023.258	1335.06
1023.548	1310.21
1023.839	1304.33
1024.129	1344.1
1024.419	1321.05
1024.709	1287.38
1025	1317.66
1025.29	1289.64
1025.58	1276.53
1025.87	1267.72
1026.16	1294.84
1026.449	1252.58
1026.739	1252.13
1027.029	1261.17
1027.319	1227.04
1027.608	1233.37
1027.898	1193.37
1028.187	1209.64
1028.477	1196.76
1028.766	1183.66
1029.055	1186.14
1029.344	1180.49
1029.634	1143.2
1029.923	1156.54
1030.212	1161.51
1030.501	1125.35
1030.79	1128.52
1031.078	1144.56
1031.367	1124.22
1031.656	1121.06
1031.945	1096.88
1032.233	1106.14
1032.522	1097.56
1032.81	1092.36
1033.099	1073.15
1033.387	1081.74
1033.675	1057.33
1033.963	1057.78
1034.251	1045.35
1034.54	1034.28
1034.828	1031.34
1035.116	1043.77
1035.403	1040.38
1035.691	1030.89
1035.979	1007.61
1036.267	999.03
1036.554	1001.06
1036.842	990.89
1037.129	994.73
1037.417	961.51
1037.704	979.59
1037.992	959.71
1038.279	966.03
1038.566	954.96
1038.853	954.96
1039.14	954.96
