Data from hue_320_FLMS001491_98.txt Node
Date: Mon Feb 06 15:48:00 GMT 2017
User: dcchb
Spectrometer: FLMS00149
Trigger mode: 0
Integration Time (sec): 2.000000E-2
Scans to average: 10
Electric dark correction enabled: true
Nonlinearity correction enabled: false
Boxcar width: 0
XAxis mode: Wavelengths
Number of Pixels in Spectrum: 2048
>>>>>Begin Spectral Data<<<<<
341.393	-33.8
341.776	-33.8
342.16	-33.8
342.543	-46.91
342.927	-62.27
343.31	-77.87
343.693	-63.85
344.077	-66.11
344.46	-43.52
344.843	-65.44
345.226	-55.94
345.61	-21.37
345.993	-25.66
346.376	-5.32
346.759	-15.95
347.142	33.09
347.525	45.75
347.908	85.07
348.291	64.28
348.674	110.15
349.057	102.7
349.44	121.23
349.823	147.67
350.206	156.25
350.588	207.1
350.971	206.42
351.354	238.51
351.737	231.51
352.119	268.11
352.502	259.53
352.884	290.94
353.267	281.22
353.65	288.9
354.032	301.33
354.414	297.27
354.797	313.08
355.179	332.07
355.562	318.96
355.944	326.19
356.326	325.97
356.709	336.59
357.091	333.65
357.473	324.38
357.855	342.46
358.238	328.45
358.62	345.4
359.002	336.14
359.384	318.06
359.766	331.62
360.148	341.56
360.53	344.04
360.912	331.39
361.294	315.12
361.676	329.81
362.057	321.67
362.439	332.97
362.821	304.27
363.203	331.39
363.584	334.33
363.966	338.4
364.348	319.86
364.729	324.16
365.111	318.51
365.493	288.9
365.874	311.05
366.256	317.15
366.637	292.52
367.019	302.92
367.4	307.66
367.781	312.18
368.163	326.87
368.544	302.69
368.925	288.45
369.306	314.21
369.688	309.7
370.069	327.77
370.45	315.12
370.831	309.7
371.212	316.02
371.593	293.42
371.974	302.24
372.355	333.2
372.736	297.94
373.117	290.26
373.498	313.08
373.879	306.08
374.26	327.1
374.641	301.33
375.021	333.42
375.402	309.47
375.783	308.57
376.163	319.19
376.544	313.08
376.925	330.71
377.305	295.68
377.686	308.11
378.066	311.96
378.447	311.28
378.827	317.6
379.208	323.93
379.588	313.99
379.968	338.4
380.349	318.28
380.729	336.59
381.109	325.29
381.489	333.65
381.87	315.12
382.25	329.81
382.63	336.81
383.01	331.16
383.39	327.77
383.77	342.91
384.15	341.56
384.53	334.1
384.91	331.16
385.29	349.69
385.67	324.84
386.049	358.73
386.429	347.21
386.809	347.66
387.189	345.17
387.568	354.44
387.948	346.53
388.328	347.43
388.707	326.42
389.087	336.14
389.466	350.6
389.846	350.6
390.225	356.25
390.605	367.32
390.984	364.16
391.363	340.43
391.743	341.33
392.122	375.68
392.501	360.09
392.881	344.27
393.26	342.01
393.639	360.99
394.018	367.09
394.397	389.02
394.776	373.87
395.155	367.55
395.534	387.21
395.913	377.72
396.292	397.83
396.671	375.91
397.05	393.53
397.429	369.13
397.808	381.33
398.186	384.27
398.565	380.2
398.944	377.26
399.323	396.7
399.701	389.02
400.08	408.22
400.458	389.69
400.837	399.18
401.215	428.56
401.594	391.05
401.972	389.02
402.351	375.23
402.729	394.89
403.107	410.03
403.486	394.44
403.864	401.22
404.242	425.85
404.62	416.13
404.999	407.09
405.377	412.52
405.755	427.66
406.133	435.57
406.511	425.85
406.889	421.33
407.267	441.9
407.645	422.23
408.023	443.03
408.401	457.04
408.779	431.73
409.156	458.39
409.534	464.95
409.912	489.8
410.29	461.56
410.667	462.69
411.045	494.1
411.422	483.25
411.8	486.41
412.178	478.05
412.555	505.62
412.933	503.36
413.31	498.84
413.687	511.27
414.065	516.7
414.442	529.12
414.819	563.25
415.197	532.29
415.574	548.56
415.951	544.49
416.328	556.24
416.705	545.62
417.082	559.41
417.46	576.13
417.837	572.74
418.214	580.87
418.591	587.88
418.967	572.97
419.344	585.85
419.721	616.35
420.098	605.28
420.475	612.06
420.852	646.86
421.228	623.36
421.605	633.08
421.982	648.67
422.358	641.89
422.735	657.93
423.111	652.06
423.488	663.13
423.864	685.96
424.241	680.31
424.617	681.89
424.994	672.62
425.37	698.16
425.746	694.54
426.123	712.62
426.499	713.75
426.875	717.59
427.251	725.5
427.627	740.19
428.003	724.37
428.379	753.53
428.756	756.46
429.132	768.44
429.507	779.06
429.883	784.71
430.259	787.2
430.635	812.96
431.011	798.04
431.387	811.38
431.763	816.12
432.138	834.2
432.514	849.79
432.89	846.63
433.265	856.57
433.641	877.82
434.016	891.6
434.392	875.56
434.767	903.58
435.143	892.96
435.518	910.36
435.894	932.05
436.269	947.19
436.644	937.7
437.02	960.3
437.395	956.91
437.77	952.84
438.145	978.6
438.52	981.32
438.895	978.38
439.271	984.03
439.646	1010.24
440.021	1023.57
440.395	993.29
440.77	996.46
441.145	1016.12
441.52	1011.6
441.895	1007.76
442.27	1052.73
442.645	1043.46
443.019	1050.69
443.394	1045.27
443.769	1047.53
444.143	1042.56
444.518	1068.77
444.892	1076.68
445.267	1066.74
445.641	1079.39
446.016	1088.43
446.39	1090.69
446.764	1115.78
447.139	1093.86
447.513	1098.6
447.887	1097.25
448.262	1127.53
448.636	1146.74
449.01	1110.58
449.384	1134.08
449.758	1125.49
450.132	1124.36
450.506	1138.83
450.88	1136.79
451.254	1158.71
451.628	1178.82
452.002	1165.49
452.376	1179.5
452.75	1155.1
453.123	1159.39
453.497	1196.9
453.871	1237.13
454.244	1221.54
454.618	1217.92
454.992	1235.77
455.365	1204.81
455.739	1238.48
456.112	1227.86
456.486	1252.04
456.859	1265.15
457.232	1265.15
457.606	1285.94
457.979	1297.01
458.352	1333.4
458.725	1308.09
459.099	1327.75
459.472	1349.89
459.845	1332.49
460.218	1347.41
460.591	1371.14
460.964	1375.88
461.337	1384.47
461.71	1358.26
462.083	1398.48
462.456	1409.78
462.829	1411.14
463.201	1426.73
463.574	1425.37
463.947	1446.39
464.32	1465.82
464.692	1501.08
465.065	1518.93
465.438	1528.65
465.81	1520.28
466.183	1544.92
466.555	1545.14
466.928	1555.54
467.3	1568.19
467.672	1603.22
468.045	1597.12
468.417	1597.35
468.789	1641.41
469.161	1644.12
469.534	1615.65
469.906	1694.97
470.278	1667.63
470.65	1699.26
471.022	1715.53
471.394	1753.73
471.766	1748.75
472.138	1762.54
472.51	1782.65
472.882	1797.11
473.253	1836.43
473.625	1874.17
473.997	1872.14
474.369	1847.28
474.74	1912.82
475.112	1908.52
475.484	1926.38
475.855	1939.48
476.227	1953.27
476.598	2011.35
476.97	2052.02
477.341	2078.91
477.713	2076.43
478.084	2080.95
478.455	2164.79
478.827	2170.66
479.198	2179.48
479.569	2188.52
479.94	2220.15
480.311	2233.94
480.682	2261.06
481.053	2304.45
481.424	2334.95
481.795	2360.26
482.166	2400.26
482.537	2411.56
482.908	2438.9
483.279	2478.23
483.65	2514.16
484.021	2518.22
484.391	2537.66
484.762	2576.98
485.133	2583.76
485.503	2626.7
485.874	2688.16
486.244	2683.64
486.615	2692.23
486.985	2702.85
487.356	2731.1
487.726	2786.01
488.097	2798.67
488.467	2814.94
488.837	2884.99
489.207	2894.03
489.578	2934.26
489.948	2988.49
490.318	2961.6
490.688	2968.61
491.058	3020.36
491.428	3071.2
491.798	3101.26
492.168	3138.1
492.538	3156.17
492.908	3156.85
493.278	3178.09
493.648	3211.54
494.017	3259.9
494.387	3275.72
494.757	3249.5
495.126	3328.82
495.496	3311.42
495.866	3342.38
496.235	3356.62
496.605	3359.56
496.974	3384.64
497.344	3425.32
497.713	3398.65
498.082	3459.67
498.452	3511.42
498.821	3511.19
499.19	3494.24
499.559	3513.68
499.928	3549.84
500.298	3559.78
500.667	3576.73
501.036	3560.01
501.405	3610.85
501.774	3574.24
502.143	3593.9
502.512	3627.8
502.88	3637.29
503.249	3608.14
503.618	3732.2
503.987	3683.17
504.356	3730.17
504.724	3732.43
505.093	3765.88
505.462	3734.46
505.83	3757.29
506.199	3806.78
506.567	3833.67
506.936	3850.17
507.304	3839.09
507.672	3885.87
508.041	3899.66
508.409	3838.42
508.777	3894.23
509.145	3933.55
509.514	3934.68
509.882	3927.23
510.25	3923.39
510.618	3948.47
510.986	3911.86
511.354	4003.61
511.722	4004.74
512.09	4074.12
512.458	4007
512.826	4042.48
513.193	4083.38
513.561	4067.34
513.929	4070.73
514.297	4093.55
514.664	4120.22
515.032	4093.55
515.4	4138.3
515.767	4133.78
516.135	4151.85
516.502	4074.57
516.869	4201.57
517.237	4190.95
517.604	4143.94
517.972	4203.15
518.339	4267.11
518.706	4211.97
519.073	4199.54
519.44	4191.63
519.808	4287.9
520.175	4261
520.542	4325.41
520.909	4318.63
521.276	4297.84
521.643	4301.45
522.009	4366.54
522.376	4353.88
522.743	4397.05
523.11	4419.42
523.477	4439.53
523.843	4435.46
524.21	4456.7
524.577	4492.41
524.943	4483.82
525.31	4557.72
525.676	4533.31
526.043	4600.2
526.409	4597.49
526.776	4631.84
527.142	4613.54
527.508	4690.82
527.874	4676.81
528.241	4731.5
528.607	4726.08
528.973	4743.7
529.339	4748
529.705	4749.13
530.071	4820.09
530.437	4826.86
530.803	4866.86
531.169	4921.33
531.535	4880.42
531.901	4866.19
532.267	4943.7
532.632	4926.75
532.998	4938.5
533.364	4979.85
533.73	4990.25
534.095	5026.41
534.461	5037.48
534.826	5084.48
535.192	5088.78
535.557	5070.7
535.923	5110.47
536.288	5094.43
536.653	5176.23
537.019	5178.95
537.384	5201.32
537.749	5236.35
538.114	5223.69
538.479	5253.75
538.845	5308.43
539.21	5339.39
539.575	5302.11
539.94	5298.94
540.305	5353.18
540.67	5351.82
541.034	5410.8
541.399	5438.37
541.764	5403.35
542.129	5472.95
542.494	5525.83
542.858	5482.89
543.223	5498.94
543.587	5544.81
543.952	5520.86
544.316	5574.64
544.681	5603.57
545.045	5616.67
545.41	5652.38
545.774	5669.78
546.138	5678.82
546.503	5702.32
546.867	5692.6
547.231	5741.64
547.595	5810.34
547.959	5761.08
548.324	5792.49
548.688	5850.57
549.052	5866.16
549.416	5867.06
549.779	5893.05
550.143	5931.24
550.507	5908.19
550.871	5974.41
551.235	5974.18
551.599	6043.1
551.962	6010.11
552.326	6023.9
552.689	6094.63
553.053	6074.74
553.417	6086.94
553.78	6118.36
554.143	6112.03
554.507	6108.86
554.87	6147.73
555.234	6249.2
555.597	6170.56
555.96	6196.09
556.323	6158.58
556.686	6269.54
557.05	6271.12
557.413	6300.72
557.776	6306.6
558.139	6373.94
558.502	6340.5
558.865	6366.71
559.228	6435.86
559.59	6360.61
559.953	6386.15
560.316	6431.34
560.679	6455.3
561.041	6503.66
561.404	6512.92
561.767	6559.02
562.129	6532.36
562.492	6595.63
562.854	6572.36
563.217	6601.96
563.579	6629.53
563.941	6601.73
564.304	6676.99
564.666	6667.27
565.028	6709.75
565.39	6733.48
565.753	6791.11
566.115	6821.61
566.477	6810.99
566.839	6788.39
567.201	6835.85
567.563	6895.28
567.925	6882.86
568.287	6867.49
568.648	6967.15
569.01	7035.62
569.372	7001.95
569.734	6968.5
570.095	7017.77
570.457	7073.59
570.819	7166.46
571.18	7110.65
571.542	7164.43
571.903	7202.4
572.265	7279.23
572.626	7262.73
572.987	7295.05
573.349	7392.22
573.71	7448.26
574.071	7435.38
574.432	7532.1
574.794	7584.31
575.155	7629.28
575.516	7670.41
575.877	7674.7
576.238	7782.27
576.599	7886.22
576.96	7928.25
577.32	7970.06
577.681	8034.92
578.042	8079.89
578.403	8194.23
578.763	8282.59
579.124	8374.57
579.485	8439.88
579.845	8526.43
580.206	8590.83
580.566	8753.77
580.927	8829.02
581.287	8968.22
581.648	9044.38
582.008	9248.22
582.368	9351.27
582.728	9482.56
583.089	9652.95
583.449	9814.3
583.809	9988.76
584.169	10092.49
584.529	10236.67
584.889	10542.42
585.249	10561.18
585.609	10779.25
585.969	11035.29
586.329	11125
586.688	11421.49
587.048	11607.25
587.408	11698.77
587.768	11997.52
588.127	12251.53
588.487	12429.15
588.846	12850.83
589.206	12888.12
589.565	13110.49
589.925	13459.63
590.284	13680.64
590.643	13931.94
591.003	14184.58
591.362	14540.28
591.721	14782.76
592.08	15013.04
592.44	15303.65
592.799	15632.91
593.158	15788.84
593.517	16130.3
593.876	16429.95
594.235	16630.17
594.593	16987.9
594.952	17218.18
595.311	17517.38
595.67	17803.47
596.029	18199.85
596.387	18477.13
596.746	18774.07
597.104	19010.67
597.463	19321.17
597.822	19555.06
598.18	19929.07
598.538	20088.61
598.897	20556.17
599.255	20571.99
599.613	21231.63
599.972	21268.01
600.33	21581.23
600.688	21781
601.046	22138.27
601.404	22456.68
601.762	22719.5
602.12	23023.22
602.478	23347.73
602.836	23528.29
603.194	23792.69
603.552	23977.32
603.91	24170.54
604.268	24512.45
604.625	24676.96
604.983	25003.51
605.341	25185.88
605.698	25501.12
606.056	25775.92
606.413	25902.02
606.771	26259.52
607.128	26423.81
607.485	26565.5
607.843	26819.05
608.2	27216.78
608.557	27516.66
608.914	27545.59
609.272	27899.7
609.629	28071.68
609.986	28357.55
610.343	28372.23
610.7	28852.67
611.057	28953.01
611.414	29155.26
611.771	29294.02
612.127	29574.46
612.484	29721.58
612.841	30000.89
613.198	29983.27
613.554	30188.23
613.911	30496.7
614.267	30753.64
614.624	30716.81
614.98	30951.15
615.337	31209.9
615.693	31371.7
616.05	31411.7
616.406	31767.85
616.762	31689.66
617.118	31754.52
617.475	32042.42
617.831	32130.78
618.187	32340.94
618.543	32632.24
618.899	32826.81
619.255	32846.24
619.611	32987.25
619.967	33147.93
620.323	33368.04
620.678	33224.76
621.034	33300.01
621.39	33338.88
621.746	33401.48
622.101	34008.24
622.457	33711.75
622.812	33832.43
623.168	34079.2
623.523	34199.65
623.879	34158.97
624.234	34351.74
624.589	34372.08
624.945	34505.41
625.3	34701.56
625.655	34576.59
626.01	34788.34
626.365	34874.89
626.72	34822.01
627.075	34837.83
627.43	34951.95
627.785	34982.23
628.14	35004.38
628.495	35196.01
628.85	35041.89
629.205	35154.88
629.559	35315.1
629.914	35198.95
630.269	35411.37
630.623	35272.39
630.978	35374.31
631.332	35465.38
631.687	35572.95
632.041	35523.46
632.396	35557.58
632.75	35641.65
633.104	35596.23
633.459	35405.27
633.813	35612.5
634.167	35534.98
634.521	35645.94
634.875	35685.94
635.229	35518.71
635.583	35547.19
635.937	35556.23
636.291	35589.45
636.645	35614.3
636.999	35509
637.352	35676
637.706	35464.48
638.06	35721.19
638.413	35709.44
638.767	35532.5
639.121	35545.38
639.474	35316.91
639.828	35476.45
640.181	35569.11
640.534	35633.74
640.888	35427.64
641.241	35366.63
641.594	35405.27
641.947	35664.7
642.301	35477.58
642.654	35563.46
643.007	35493.18
643.36	35286.85
643.713	35412.73
644.066	35505.15
644.419	35443.69
644.771	35247.53
645.124	34830.82
645.477	34767.55
645.83	34680.32
646.182	34478.51
646.535	34337.28
646.888	34496.59
647.24	34430.83
647.593	34557.16
647.945	34430.83
648.298	34329.37
648.65	34237.62
649.002	34210.95
649.355	34421.34
649.707	34362.13
650.059	34600.77
650.411	34749.69
650.763	34853.42
651.115	35179.06
651.467	35192.85
651.819	35163.47
652.171	35132.51
652.523	35082.57
652.875	34988.33
653.227	34851.84
653.578	35148.33
653.93	34981.78
654.282	34933.19
654.633	34779.3
654.985	34951.04
655.337	35003.02
655.688	34869.24
656.039	35153.98
656.391	34801.67
656.742	34864.27
657.094	34755.34
657.445	34913.08
657.796	34866.07
658.147	34801.9
658.498	34815.68
658.849	34884.61
659.2	34828.56
659.551	34798.05
659.902	34855
660.253	34859.52
660.604	34944.26
660.955	34614.1
661.306	34873.31
661.656	34692.52
662.007	34754.21
662.358	34683.93
662.708	34668.34
663.059	34606.65
663.409	34564.39
663.76	34726.64
664.11	34808.68
664.461	34845.96
664.811	34710.37
665.161	34653.2
665.511	34614.56
665.862	34716.25
666.212	34772.97
666.562	34733.87
666.912	34674.67
667.262	34638.06
667.612	34691.62
667.962	34702.46
668.312	34670.37
668.662	34704.5
669.011	34591.28
669.361	34605.52
669.711	34535.46
670.06	34561.68
670.41	34427.67
670.76	34466.99
671.109	34638.74
671.459	34431.51
671.808	34579.75
672.157	34489.81
672.507	34307.22
672.856	34445.07
673.205	34248.01
673.554	34506.08
673.904	34273.77
674.253	34543.6
674.602	34460.44
674.951	34042.59
675.3	33815.71
675.649	34257.73
675.998	34304.73
676.346	34349.03
676.695	34452.3
677.044	34134.34
677.393	34354.22
677.741	34424.96
678.09	34199.43
678.438	34027.68
678.787	34236.94
679.135	34114.46
679.484	33907.46
679.832	34128.02
680.181	33754.47
680.529	33958.75
680.877	33808.7
681.225	33935.7
681.573	34035.59
681.922	33869.26
682.27	33775.26
682.618	33732.09
682.966	33784.97
683.314	33704.52
683.661	33512.66
684.009	33470.18
684.357	33324.87
684.705	33349.05
685.053	33461.82
685.4	33404.42
685.748	33139.79
686.095	33123.75
686.443	33157.87
686.79	33029.96
687.138	33148.38
687.485	33085.56
687.832	33086.23
688.18	33100.25
688.527	32761.72
688.874	32734.83
689.221	32688.73
689.568	32605.12
689.915	32585.23
690.262	32571.45
690.609	32461.62
690.956	32383.88
691.303	32196.77
691.65	32224.34
691.997	32166.26
692.344	31877
692.69	32031.35
693.037	32004.91
693.383	31733.73
693.73	31812.82
694.077	31684.69
694.423	31696.67
694.769	31502.1
695.116	31440.85
695.462	31387.3
695.808	31370.57
696.155	31475.43
696.501	31178.94
696.847	31025.27
697.193	30938.49
697.539	31154.31
697.885	30879.29
698.231	30772.62
698.577	30774.88
698.923	30652.63
699.269	30620.08
699.614	30442.69
699.96	30375.35
700.306	30502.57
700.651	30317.27
700.997	30228.23
701.342	30179.64
701.688	30097.39
702.033	30013.1
702.379	30017.39
702.724	29913.89
703.069	29915.7
703.415	29588.25
703.76	29705.53
704.105	29694.91
704.45	29549.83
704.795	29390.74
705.14	29259.89
705.485	29376.73
705.83	29181.93
706.175	29249.5
706.52	29107.13
706.865	29022.61
707.209	29007.92
707.554	28918.21
707.899	28986.68
708.243	28700.81
708.588	28786.23
708.932	28521.38
709.277	28654.26
709.621	28476.41
709.966	28393.25
710.31	28391.89
710.654	28236.64
710.998	28209.53
711.342	28386.02
711.687	28100.6
712.031	28082.75
712.375	27995.75
712.719	27952.36
713.063	27999.14
713.407	28129.75
713.75	27881.63
714.094	27765.24
714.438	27653.61
714.782	27642.31
715.125	27593.72
715.469	27706.94
715.812	27541.97
716.156	27395.31
716.499	27375.2
716.843	27458.59
717.186	27343.56
717.53	27419.94
717.873	27300.17
718.216	27254.52
718.559	27156
718.902	26906.74
719.246	27059.5
719.589	27004.13
719.932	26899.73
720.275	26781.54
720.617	26866.06
720.96	26878.94
721.303	26776.8
721.646	26751.03
721.989	26567.54
722.331	26751.94
722.674	26514.2
723.016	26601.21
723.359	26417.26
723.701	26493.19
724.044	26392.85
724.386	26308.56
724.729	26378.16
725.071	26216.13
725.413	26300.88
725.755	26251.84
726.097	26130.71
726.439	26048.23
726.782	26076.7
727.124	25980.66
727.465	25938.4
727.807	26008.68
728.149	25970.94
728.491	25766.43
728.833	25888.68
729.175	25835.35
729.516	25698.18
729.858	25700.89
730.199	25756.48
730.541	25625.19
730.882	25669.03
731.224	25643.27
731.565	25568.01
731.906	25522.59
732.248	25589.93
732.589	25369.6
732.93	25282.82
733.271	25280.79
733.612	25314.91
733.953	25228.14
734.294	25268.59
734.635	25206.44
734.976	25278.3
735.317	25033.11
735.658	25118.53
735.999	25051.64
736.339	25099.1
736.68	25068.59
737.021	24941.14
737.361	24875.38
737.702	24959.89
738.042	24912.89
738.383	24721.26
738.723	24768.71
739.063	24771.88
739.404	24878.31
739.744	24724.65
740.084	24607.14
740.424	24605.55
740.764	24549.28
741.104	24572.33
741.444	24487.82
741.784	24393.36
742.124	24536.63
742.464	24322.4
742.804	24351.32
743.143	24255.73
743.483	24314.04
743.823	24222.51
744.162	24190.65
744.502	24138.22
744.841	24118.56
745.181	24216.86
745.52	24123.31
745.86	24071.1
746.199	23976.19
746.538	24043.53
746.877	24033.82
747.216	24105.68
747.556	23942.52
747.895	23932.58
748.234	23780.04
748.573	23888.51
748.911	23860.26
749.25	23755.63
749.589	23645.8
749.928	23705.92
750.267	23750.21
750.605	23647.39
750.944	23467.96
751.283	23500.27
751.621	23524.23
751.96	23446.04
752.298	23346.15
752.636	23440.16
752.975	23155.42
753.313	23185.7
753.651	23233.39
753.989	22998.82
754.327	23142.99
754.666	22957.24
755.004	22994.75
755.342	22945.71
755.679	22856.9
756.017	22789.1
756.355	22844.47
756.693	22746.39
757.031	22792.04
757.368	22525.16
757.706	22622.55
758.044	22455.55
758.381	22452.39
758.719	22460.3
759.056	22437.93
759.394	22323.58
759.731	22123.58
760.068	22170.59
760.405	22093.3
760.743	21988
761.08	22067.77
761.417	21943.02
761.754	21832.75
762.091	21738.06
762.428	21725.86
762.765	21643.37
763.102	21680.66
763.438	21543.71
763.775	21495.8
764.112	21369.03
764.449	21455.35
764.785	21424.62
765.122	21215.13
765.458	21195.47
765.795	21096.27
766.131	21078.19
766.467	20957.06
766.804	20918.19
767.14	20843.17
767.476	20828.03
767.812	20643.62
768.148	20812.88
768.485	20674.36
768.821	20485.44
769.157	20496.74
769.492	20361.15
769.828	20369.28
770.164	20153.92
770.5	20176.07
770.836	20217.19
771.171	20067.82
771.507	20028.5
771.842	19925
772.178	19902.85
772.513	19822.4
772.849	19689.75
773.184	19760.03
773.519	19631
773.855	19580.15
774.19	19377.89
774.525	19321.4
774.86	19337.44
775.195	19338.35
775.53	19136.54
775.865	19168.63
776.2	18962.09
776.535	18945.14
776.87	18966.15
777.205	18915.53
777.539	18744.46
777.874	18768.87
778.209	18627.41
778.543	18603.9
778.878	18438.03
779.212	18432.61
779.547	18344.25
779.881	18408.43
780.215	18209.79
780.55	18299.05
780.884	18104.03
781.218	18133.41
781.552	18040.3
781.886	18024.26
782.22	17902.23
782.554	17881.21
782.888	17666.75
783.222	17574.33
783.556	17615
783.889	17577.49
784.223	17404.61
784.557	17377.04
784.89	17384.27
785.224	17345.18
785.557	17228.57
785.891	17159.65
786.224	17132.98
786.558	17132.08
786.891	16955.59
787.224	16921.69
787.557	16878.53
787.891	16877.62
788.224	16799.66
788.557	16745.2
788.89	16711.52
789.223	16681.24
789.556	16559.21
789.888	16463.62
790.221	16423.4
790.554	16276.73
790.887	16187.02
791.219	16091.88
791.552	16201.25
791.884	16115.38
792.217	16047.13
792.549	16001.94
792.882	15883.07
793.214	15806.91
793.546	15931.88
793.879	15716.3
794.211	15612.34
794.543	15697.31
794.875	15594.94
795.207	15642.17
795.539	15519.01
795.871	15531.22
796.203	15405.34
796.535	15326.02
796.867	15254.39
797.198	15236.31
797.53	15287.83
797.862	15129.42
798.193	15100.04
798.525	15051
798.856	15103.66
799.188	14896.43
799.519	14871.8
799.85	14790.9
800.182	14842.87
800.513	14816.43
800.844	14697.79
801.175	14711.8
801.506	14728.75
801.837	14611.92
802.168	14585.48
802.499	14476.78
802.83	14372.15
803.161	14443.33
803.491	14427.52
803.822	14380.96
804.153	14397.46
804.483	14219.61
804.814	14167.41
805.145	14167.86
805.475	14145.26
805.805	14044.7
806.136	14161.31
806.466	14050.8
806.796	14058.03
807.126	13868.43
807.457	13910.69
807.787	13914.31
808.117	13813.29
808.447	13747.76
808.777	13708.89
809.107	13612.62
809.436	13669.34
809.766	13710.92
810.096	13646.29
810.426	13618.72
810.755	13585.05
811.085	13551.83
811.414	13442.01
811.744	13394.77
812.073	13403.14
812.403	13318.39
812.732	13351.16
813.061	13266.64
813.39	13177.15
813.719	13129.02
814.049	13264.38
814.378	13124.05
814.707	13114.56
815.036	13094.67
815.365	13056.7
815.693	12908.69
816.022	12980.1
816.351	12868.69
816.68	12846.31
817.008	12927.67
817.337	12784.85
817.665	12741.68
817.994	12748.69
818.322	12708.69
818.651	12660.33
818.979	12588.02
819.307	12735.81
819.636	12656.04
819.964	12592.31
820.292	12588.92
820.62	12596.83
820.948	12498.75
821.276	12558.64
821.604	12420.11
821.932	12509.37
822.259	12455.82
822.587	12445.2
822.915	12398.42
823.243	12459.88
823.57	12449.26
823.898	12458.75
824.225	12384.63
824.553	12432.77
824.88	12404.74
825.207	12475.48
825.535	12435.03
825.862	12318.65
826.189	12397.06
826.516	12415.37
826.843	12454.01
827.17	12416.5
827.497	12477.28
827.824	12365.2
828.151	12547.79
828.478	12476.38
828.805	12385.54
829.131	12392.09
829.458	12315.26
829.785	12425.08
830.111	12392.54
830.438	12488.58
830.764	12368.81
831.09	12357.29
831.417	12369.04
831.743	12475.25
832.069	12432.77
832.395	12372.43
832.722	12375.14
833.048	12271.87
833.374	12319.32
833.7	12241.13
834.026	12284.07
834.351	12343.05
834.677	12238.65
835.003	12265.09
835.329	12262.83
835.654	12238.65
835.98	12149.16
836.306	12173.34
836.631	12163.85
836.956	12196.39
837.282	12174.47
837.607	12161.59
837.932	12101.48
838.258	12100.8
838.583	12043.62
838.908	12015.15
839.233	12016.28
839.558	11976.28
839.883	11981.7
840.208	11933.12
840.533	11902.16
840.858	11871.43
841.182	11873.01
841.507	11827.13
841.832	11790.07
842.156	11823.74
842.481	11804.53
842.805	11734.25
843.13	11732.22
843.454	11804.76
843.778	11726.8
844.103	11659.91
844.427	11618.78
844.751	11571.09
845.075	11611.32
845.399	11446.8
845.723	11512.34
846.047	11478.44
846.371	11426.92
846.695	11351.44
847.019	11270.09
847.343	11308.95
847.666	11200.03
847.99	11211.33
848.313	11197.32
848.637	11049.07
848.96	11106.02
849.284	11055.4
849.607	10941.05
849.931	10907.38
850.254	10868.51
850.577	10849.53
850.9	10758.69
851.223	10754.84
851.546	10668.74
851.869	10597.79
852.192	10673.72
852.515	10509.65
852.838	10475.08
853.161	10518.92
853.483	10466.49
853.806	10362.99
854.129	10366.61
854.451	10278.02
854.774	10307.85
855.096	10305.59
855.419	10263.11
855.741	10248.64
856.063	10178.14
856.385	10116.22
856.708	10141.98
857.03	10074.86
857.352	10068.53
857.674	9997.58
857.996	10076.9
858.318	9945.6
858.64	10003.23
858.961	9966.62
859.283	9831.25
859.605	9790.8
859.926	9862.44
860.248	9844.36
860.57	9736.79
860.891	9744.7
861.212	9685.49
861.534	9698.15
861.855	9680.97
862.176	9662.44
862.498	9692.73
862.819	9702.22
863.14	9583.35
863.461	9564.82
863.782	9593.74
864.103	9536.57
864.424	9502.67
864.745	9551.94
865.065	9517.14
865.386	9453.18
865.707	9438.95
866.027	9488.44
866.348	9455.44
866.668	9354.2
866.989	9384.26
867.309	9329.35
867.63	9419.96
867.95	9386.97
868.27	9254.09
868.59	9330.02
868.91	9254.77
869.23	9293.64
869.55	9229.91
869.87	9258.39
870.19	9181.55
870.51	9227.2
870.83	9227.65
871.15	9207.99
871.469	9199.41
871.789	9159.18
872.109	9168.9
872.428	9130.25
872.748	9156.24
873.067	9114.89
873.386	9084.38
873.706	9100.88
874.025	9054.78
874.344	9025.17
874.663	9060.2
874.982	8999.86
875.301	9038.05
875.62	8983.14
875.939	8912.41
876.258	9014.55
876.577	8895.68
876.896	8918.06
877.214	8873.76
877.533	8845.74
877.852	8839.87
878.17	8823.37
878.489	8853.65
878.807	8828.79
879.125	8849.13
879.444	8870.6
879.762	8746.08
880.08	8766.87
880.398	8826.53
880.716	8799.87
881.034	8819.53
881.352	8711.06
881.67	8713.32
881.988	8686.88
882.306	8665.18
882.624	8597.84
882.941	8647.1
883.259	8583.6
883.577	8588.8
883.894	8561.23
884.212	8560.33
884.529	8530.95
884.846	8472.42
885.164	8518.74
885.481	8446.43
885.798	8467.22
886.115	8426.32
886.432	8425.19
886.75	8368.01
887.067	8403.27
887.383	8294.12
887.7	8355.81
888.017	8355.59
888.334	8284.63
888.651	8281.92
888.967	8249.83
889.284	8208.7
889.6	8188.81
889.917	8124.41
890.233	8201.92
890.55	8153.78
890.866	8170.05
891.182	8077.17
891.498	8068.81
891.815	8104.74
892.131	8090.51
892.447	8017.29
892.763	7963.73
893.079	7942.04
893.395	8013.22
893.71	7916.27
894.026	7854.13
894.342	7904.3
894.657	7910.63
894.973	7780.69
895.289	7756.96
895.604	7726.9
895.92	7733.45
896.235	7627.24
896.55	7689.16
896.865	7625.21
897.181	7603.29
897.496	7596.74
897.811	7522.84
898.126	7567.58
898.441	7538.66
898.756	7476.51
899.071	7491.43
899.386	7457.76
899.7	7439.68
900.015	7326.01
900.33	7328.04
900.644	7336.63
900.959	7297.08
901.273	7255.73
901.588	7226.58
901.902	7175.5
902.216	7153.13
902.531	7111.32
902.845	7131.21
903.159	7075.39
903.473	7096.41
903.787	7115.84
904.101	6987.71
904.415	7032.23
904.729	6981.16
905.042	6975.51
905.356	6866.81
905.67	6921.05
905.984	6906.58
906.297	6878.34
906.611	6845.57
906.924	6833.14
907.237	6787.49
907.551	6773.93
907.864	6723.31
908.177	6772.12
908.491	6676.99
908.804	6725.12
909.117	6541.62
909.43	6553.82
909.743	6605.8
910.056	6548.85
910.368	6575.52
910.681	6542.53
910.994	6471.12
911.307	6460.72
911.619	6372.59
911.932	6382.98
912.244	6389.31
912.557	6310.22
912.869	6327.62
913.181	6302.76
913.494	6312.48
913.806	6252.14
914.118	6218.92
914.43	6170.78
914.742	6207.62
915.054	6167.85
915.366	6144.57
915.678	6119.03
915.99	6039.49
916.302	6003.1
916.613	6001.07
916.925	6034.52
917.236	5978.92
917.548	5948.19
917.859	5953.61
918.171	5889.44
918.482	5900.73
918.794	5852.37
919.105	5817.57
919.416	5799.04
919.727	5814.18
920.038	5771.7
920.349	5736.22
920.66	5731.7
920.971	5716.56
921.282	5630.23
921.593	5624.36
921.903	5604.25
922.214	5567.18
922.525	5592.95
922.835	5542.33
923.146	5535.55
923.456	5536
923.767	5462.33
924.077	5489.67
924.387	5446.96
924.697	5425.72
925.008	5387.3
925.318	5371.94
925.628	5360.18
925.938	5316.8
926.248	5244.93
926.558	5258.72
926.867	5283.58
927.177	5249.45
927.487	5187.31
927.796	5201.09
928.106	5199.51
928.416	5170.58
928.725	5127.65
929.034	5115.44
929.344	5152.05
929.653	5055.56
929.962	5040.19
930.271	5013.98
930.581	4983.24
930.89	4969.46
931.199	4971.04
931.508	4919.07
931.817	4963.13
932.125	4864.38
932.434	4868.9
932.743	4849.46
933.051	4774.89
933.36	4815.34
933.669	4769.69
933.977	4757.71
934.286	4726.08
934.594	4792.74
934.902	4680.2
935.21	4704.38
935.519	4697.83
935.827	4691.73
936.135	4612.63
936.443	4612.41
936.751	4603.82
937.059	4555.46
937.367	4574.22
937.674	4497.16
937.982	4523.6
938.29	4479.3
938.597	4469.36
938.905	4460.32
939.213	4401.11
939.52	4460.09
939.827	4468.46
940.135	4379.64
940.442	4338.52
940.749	4342.81
941.056	4374.67
941.363	4273.21
941.67	4292.87
941.977	4260.55
942.284	4224.39
942.591	4299.19
942.898	4253.77
943.205	4251.51
943.511	4188.01
943.818	4185.3
944.125	4140.55
944.431	4096.94
944.738	4131.52
945.044	4085.19
945.35	4064.62
945.657	4070.73
945.963	4064.85
946.269	3986.89
946.575	4018.3
946.881	4011.29
947.187	3983.95
947.493	3983.5
947.799	3935.14
948.105	3921.8
948.41	3922.26
948.716	3916.83
949.022	3870.05
949.327	3884.52
949.633	3859.66
949.938	3809.04
950.244	3831.18
950.549	3791.64
950.854	3796.61
951.16	3799.32
951.465	3741.7
951.77	3728.81
952.075	3708.93
952.38	3691.3
952.685	3650.4
952.99	3634.13
953.294	3654.01
953.599	3595.94
953.904	3622.15
954.209	3597.07
954.513	3593.68
954.818	3590.06
955.122	3533.57
955.426	3524.53
955.731	3515.94
956.035	3475.71
956.339	3474.81
956.643	3496.28
956.948	3457.86
957.252	3483.4
957.556	3437.75
957.86	3439.56
958.163	3419.22
958.467	3419.9
958.771	3412.21
959.075	3351.88
959.378	3360.46
959.682	3327.02
959.985	3310.29
960.289	3300.8
960.592	3300.8
960.896	3279.79
961.199	3255.83
961.502	3235.95
961.805	3252.44
962.108	3226.91
962.411	3223.29
962.714	3202.05
963.017	3161.37
963.32	3182.84
963.623	3176.51
963.926	3178.55
964.228	3150.3
964.531	3130.41
964.833	3110.3
965.136	3085.67
965.438	3044.99
965.741	3077.31
966.043	3025.56
966.345	3085.67
966.648	2989.62
966.95	3019.45
967.252	2994.14
967.554	2970.42
967.856	2969.51
968.158	2976.29
968.46	2984.88
968.761	2883.86
969.063	2934.48
969.365	2894.49
969.666	2937.65
969.968	2884.99
970.269	2868.27
970.571	2898.78
970.872	2852.23
971.174	2835.5
971.475	2830.98
971.776	2796.64
972.077	2827.37
972.378	2761.83
972.679	2799.8
972.98	2786.24
973.281	2742.4
973.582	2744.89
973.883	2717.32
974.183	2716.41
974.484	2727.26
974.785	2689.75
975.085	2680.48
975.386	2654.04
975.686	2678.45
975.986	2642.52
976.287	2636.64
976.587	2633.7
976.887	2581.95
977.187	2605.91
977.487	2590.77
977.787	2601.16
978.087	2624.44
978.387	2561.61
978.687	2531.78
978.987	2519.13
979.286	2527.26
979.586	2529.98
979.885	2488.85
980.185	2471.45
980.484	2472.8
980.784	2455.18
981.083	2450.88
981.382	2457.66
981.682	2411.79
981.981	2462.18
982.28	2426.48
982.579	2406.14
982.878	2359.81
983.177	2374.95
983.475	2405.69
983.774	2342.41
984.073	2369.53
984.372	2342.64
984.67	2301.73
984.969	2315.52
985.267	2314.61
985.566	2331.11
985.864	2300.38
986.162	2260.15
986.461	2258.34
986.759	2226.03
987.057	2247.72
987.355	2246.82
987.653	2217.44
987.951	2263.09
988.249	2208.18
988.547	2221.28
988.844	2210.44
989.142	2213.83
989.44	2202.98
989.737	2142.64
990.035	2187.39
990.332	2152.36
990.63	2112.36
990.927	2131.12
991.224	2099.25
991.521	2102.64
991.819	2086.15
992.116	2087.5
992.413	2084.56
992.71	2094.96
993.006	2049.54
993.303	2058.8
993.6	2080.95
993.897	2047.5
994.193	1999.37
994.49	2026.03
994.787	2009.09
995.083	1987.84
995.379	2001.85
995.676	1985.13
995.972	2003.21
996.268	1930.67
996.565	1941.74
996.861	1975.87
997.157	1937
997.453	1966.6
997.749	1911.46
998.044	1871.24
998.34	1867.17
998.636	1869.65
998.932	1867.85
999.227	1838.24
999.523	1833.05
999.818	1864.23
1000.114	1830.79
1000.409	1822.42
1000.704	1818.36
1001	1843.21
1001.295	1817.23
1001.59	1822.88
1001.885	1771.35
1002.18	1779.26
1002.475	1762.99
1002.77	1760.5
1003.065	1725.48
1003.359	1738.81
1003.654	1737.68
1003.949	1736.32
1004.243	1730.22
1004.538	1699.49
1004.832	1711.47
1005.127	1661.07
1005.421	1680.96
1005.715	1630.11
1006.009	1658.59
1006.304	1622.43
1006.598	1644.35
1006.892	1649.32
1007.186	1629.89
1007.48	1642.99
1007.773	1619.04
1008.067	1612.49
1008.361	1580.4
1008.655	1564.58
1008.948	1563.45
1009.242	1577.23
1009.535	1554.18
1009.829	1557.12
1010.122	1535.43
1010.415	1539.72
1010.708	1541.08
1011.001	1523.67
1011.295	1477.35
1011.588	1484.58
1011.881	1470.57
1012.173	1481.42
1012.466	1479.83
1012.759	1477.12
1013.052	1475.31
1013.344	1474.86
1013.637	1438.71
1013.93	1443
1014.222	1405.49
1014.514	1408.42
1014.807	1387.18
1015.099	1381.76
1015.391	1379.05
1015.683	1394.19
1015.976	1391.47
1016.268	1361.64
1016.56	1350.57
1016.851	1367.52
1017.143	1337.01
1017.435	1348.99
1017.727	1312.38
1018.018	1285.71
1018.31	1314.87
1018.602	1309.67
1018.893	1283.23
1019.185	1291.36
1019.476	1284.58
1019.767	1262.21
1020.058	1275.32
1020.35	1248.43
1020.641	1243.46
1020.932	1249.11
1021.223	1255.66
1021.514	1222.21
1021.804	1231.03
1022.095	1196.45
1022.386	1212.72
1022.677	1183.8
1022.967	1187.86
1023.258	1176.34
1023.548	1195.1
1023.839	1157.58
1024.129	1134.31
1024.419	1158.94
1024.709	1155.32
1025	1103.57
1025.29	1125.49
1025.58	1133.4
1025.87	1116.91
1026.16	1108.32
1026.449	1097.02
1026.739	1071.94
1027.029	1097.47
1027.319	1076.45
1027.608	1088.21
1027.898	1076
1028.187	1061.09
1028.477	1043.91
1028.766	1056.57
1029.055	1047.3
1029.344	1052.95
1029.634	1022.9
1029.923	1023.57
1030.212	1011.37
1030.501	1032.16
1030.79	999.62
1031.078	973.86
1031.367	997.81
1031.656	969.34
1031.945	981.32
1032.233	969.56
1032.522	958.04
1032.81	965.5
1033.099	990.36
1033.387	950.36
1033.675	954.2
1033.963	932.28
1034.251	948.32
1034.54	959.85
1034.828	901.09
1035.116	936.8
1035.403	914.43
1035.691	905.16
1035.979	904.48
1036.267	883.24
1036.554	891.15
1036.842	884.14
1037.129	877.14
1037.417	886.63
1037.704	863.58
1037.992	888.89
1038.279	864.71
1038.566	844.37
1038.853	844.37
1039.14	844.37
