Data from hue_130_FLMS001491_00013.txt Node
Date: Tue Feb 07 16:57:14 GMT 2017
User: dcchb
Spectrometer: FLMS00149
Trigger mode: 0
Integration Time (sec): 2.000000E-2
Scans to average: 10
Electric dark correction enabled: true
Nonlinearity correction enabled: false
Boxcar width: 0
XAxis mode: Wavelengths
Number of Pixels in Spectrum: 2048
>>>>>Begin Spectral Data<<<<<
341.393	-13.73
341.776	-13.73
342.16	-13.73
342.543	-40.17
342.927	-34.74
343.31	-76.1
343.693	-78.81
344.077	-65.7
344.46	-55.54
344.843	-56.44
345.226	-48.53
345.61	-22.99
345.993	-49.43
346.376	-4.69
346.759	19.04
347.142	33.5
347.525	40.51
347.908	70.79
348.291	78.02
348.674	87.74
349.057	128.64
349.44	121.86
349.823	148.53
350.206	156.66
350.588	198.7
350.971	191.69
351.354	238.02
351.737	253.16
352.119	231.46
352.502	255.42
352.884	262.2
353.267	293.83
353.65	283.66
354.032	293.61
354.414	294.74
354.797	296.32
355.179	323.44
355.562	315.98
355.944	321.18
356.326	334.96
356.709	330.44
357.091	310.56
357.473	325.25
357.855	340.61
358.238	349.43
358.62	348.3
359.002	329.31
359.384	337.22
359.766	341.97
360.148	337.67
360.53	340.61
360.912	326.38
361.294	317.56
361.676	326.15
362.057	324.12
362.439	360.27
362.821	324.79
363.203	325.25
363.584	318.92
363.966	316.66
364.348	324.34
364.729	317.34
365.111	312.14
365.493	312.36
365.874	322.31
366.256	315.08
366.637	321.63
367.019	317.11
367.4	337
367.781	334.28
368.163	300.84
368.544	313.72
368.925	311.91
369.306	315.08
369.688	304.23
370.069	333.83
370.45	327.96
370.831	325.92
371.212	315.75
371.593	302.42
371.974	311.91
372.355	326.6
372.736	318.01
373.117	322.76
373.498	310.78
373.879	317.79
374.26	307.17
374.641	317.79
375.021	306.04
375.402	329.54
375.783	321.4
376.163	315.75
376.544	302.65
376.925	345.81
377.305	331.35
377.686	317.34
378.066	325.7
378.447	314.62
378.827	332.25
379.208	331.12
379.588	336.54
379.968	329.09
380.349	327.96
380.729	326.15
381.109	330.44
381.489	335.19
381.87	325.7
382.25	340.39
382.63	348.52
383.01	340.84
383.39	337.9
383.77	349.43
384.15	328.86
384.53	334.06
384.91	340.39
385.29	327.96
385.67	344
386.049	365.24
386.429	360.72
386.809	365.92
387.189	361.85
387.568	333.83
387.948	349.88
388.328	336.54
388.707	345.58
389.087	352.36
389.466	379.93
389.846	360.95
390.225	365.92
390.605	359.6
390.984	348.97
391.363	350.33
391.743	370.22
392.122	372.7
392.501	375.19
392.881	372.93
393.26	368.18
393.639	385.81
394.018	343.78
394.397	363.66
394.776	371.12
395.155	386.94
395.534	367.5
395.913	385.58
396.292	372.48
396.671	399.37
397.05	390.33
397.429	390.1
397.808	362.31
398.186	375.87
398.565	402.98
398.944	377.22
399.323	387.84
399.701	392.36
400.08	384.68
400.458	384.68
400.837	410.67
401.215	412.48
401.594	398.92
401.972	406.37
402.351	409.54
402.729	419.25
403.107	385.58
403.486	420.84
403.864	409.99
404.242	440.5
404.62	400.72
404.999	425.36
405.377	426.26
405.755	428.75
406.133	430.55
406.511	415.64
406.889	445.24
407.267	422.42
407.645	413.15
408.023	448.86
408.401	447.95
408.779	438.24
409.156	439.82
409.534	438.46
409.912	454.73
410.29	463.77
410.667	456.54
411.045	456.77
411.422	466.71
411.8	461.74
412.178	450.67
412.555	470.1
412.933	461.97
413.31	473.49
413.687	474.62
414.065	485.24
414.442	484.56
414.819	477.78
415.197	501.74
415.574	496.09
415.951	507.61
416.328	478.46
416.705	501.74
417.082	527.05
417.46	513.72
417.837	529.99
418.214	518.46
418.591	515.98
418.967	517.33
419.344	511.23
419.721	535.18
420.098	540.61
420.475	516.65
420.852	526.6
421.228	532.92
421.605	522.08
421.982	545.8
422.358	528.86
422.735	551
423.111	568.86
423.488	543.32
423.864	569.53
424.241	546.26
424.617	540.61
424.994	577.67
425.37	566.6
425.746	570.21
426.123	576.76
426.499	581.06
426.875	595.97
427.251	565.24
427.627	608.63
428.003	590.78
428.379	627.84
428.756	616.76
429.132	597.78
429.507	650.66
429.883	630.77
430.259	613.83
430.635	633.49
431.011	640.72
431.387	641.17
431.763	649.3
432.138	648.85
432.514	679.59
432.89	677.78
433.265	659.7
433.641	661.96
434.016	689.76
434.392	683.2
434.767	708.06
435.143	699.93
435.518	720.49
435.894	677.78
436.269	693.82
436.644	721.39
437.02	692.69
437.395	735.86
437.77	733.6
438.145	747.38
438.52	751.68
438.895	739.7
439.271	773.14
439.646	772.01
440.021	782.18
440.395	764.56
440.77	797.1
441.145	770.88
441.52	793.93
441.895	821.96
442.27	822.63
442.645	807.04
443.019	797.1
443.394	806.81
443.769	838.9
444.143	814.72
444.518	829.41
444.892	829.64
445.267	832.35
445.641	826.02
446.016	844.55
446.39	854.95
446.764	836.87
447.139	858.79
447.513	859.92
447.887	871.67
448.262	877.55
448.636	888.85
449.01	901.73
449.384	881.16
449.758	926.81
450.132	912.35
450.506	907.6
450.88	913.25
451.254	901.05
451.628	916.87
452.002	944.21
452.376	958
452.75	957.55
453.123	944.66
453.497	975.17
453.871	988.51
454.244	997.77
454.618	1004.1
454.992	1018.11
455.365	1025.11
455.739	1038
456.112	1048.39
456.486	1029.18
456.859	1043.42
457.232	1091.1
457.606	1073.25
457.979	1086.36
458.352	1107.37
458.725	1119.12
459.099	1117.54
459.472	1134.72
459.845	1165.22
460.218	1167.94
460.591	1172.68
460.964	1183.98
461.337	1221.49
461.71	1245
462.083	1263.3
462.456	1271.44
462.829	1261.27
463.201	1288.61
463.574	1285.9
463.947	1295.16
464.32	1359.34
464.692	1408.61
465.065	1367.48
465.438	1397.53
465.81	1401.15
466.183	1441.6
466.555	1484.54
466.928	1469.85
467.3	1467.81
467.672	1498.77
468.045	1555.95
468.417	1541.26
468.789	1560.02
469.161	1586.46
469.534	1594.14
469.906	1675.72
470.278	1680.92
470.65	1707.13
471.022	1784.19
471.394	1791.87
471.766	1798.65
472.138	1854.7
472.51	1890.18
472.882	1918.65
473.253	1954.13
473.625	1965.65
473.997	2066.89
474.369	2082.94
474.74	2114.8
475.112	2171.52
475.484	2199.55
475.855	2299.21
476.227	2284.29
476.598	2376.04
476.97	2425.76
477.341	2508.01
477.713	2572.42
478.084	2616.26
478.455	2735.13
478.827	2736.93
479.198	2811.96
479.569	2844.28
479.94	2961.79
480.311	3065.51
480.682	3139.41
481.053	3233.42
481.424	3341.66
481.795	3395.9
482.166	3493.07
482.537	3578.49
482.908	3688.32
483.279	3766.29
483.65	3860.52
484.021	3991.59
484.391	4151.81
484.762	4192.94
485.133	4270.45
485.503	4379.83
485.874	4540.95
486.244	4597.45
486.615	4713.6
486.985	4902.3
487.356	5003.09
487.726	5123.99
488.097	5278.56
488.467	5359.69
488.837	5503.87
489.207	5631.77
489.578	5767.36
489.948	5883.29
490.318	6030.18
490.688	6112.66
491.058	6313.34
491.428	6481.24
491.798	6529.38
492.168	6762.14
492.538	6817.73
492.908	7006.88
493.278	7129.13
493.648	7238.28
494.017	7400.77
494.387	7493.64
494.757	7683.92
495.126	7763.92
495.496	7867.42
495.866	7990.58
496.235	8158.94
496.605	8211.14
496.974	8368.2
497.344	8538.59
497.713	8628.3
498.082	8725.25
498.452	8822.88
498.821	8961.85
499.19	9029.42
499.559	9176.09
499.928	9348.74
500.298	9312.58
500.667	9538.34
501.036	9572.23
501.405	9628.05
501.774	9793.25
502.143	9863.75
502.512	9935.16
502.88	10085.89
503.249	10089.28
503.618	10137.87
503.987	10322.95
504.356	10365.21
504.724	10508.71
505.093	10582.38
505.462	10567.69
505.83	10697.4
506.199	10810.39
506.567	10948.24
506.936	10925.64
507.304	11039.54
507.672	11139.65
508.041	11154.79
508.409	11281.12
508.777	11339.87
509.145	11460.09
509.514	11430.94
509.882	11544.39
510.25	11496.93
510.618	11607.43
510.986	11630.49
511.354	11729.24
511.722	11893.53
512.09	11915.22
512.458	11958.61
512.826	12012.85
513.193	12093.98
513.561	12105.27
513.929	12258.27
514.297	12345.49
514.664	12341.2
515.032	12345.72
515.4	12394.53
515.767	12453.97
516.135	12543.68
516.502	12434.98
516.869	12549.56
517.237	12611.25
517.604	12531.25
517.972	12740.96
518.339	12735.54
518.706	12704.81
519.073	12753.17
519.44	12790.91
519.808	12907.51
520.175	12870.9
520.542	12981.41
520.909	13005.14
521.276	12985.03
521.643	13158.58
522.009	13133.5
522.376	13147.73
522.743	13155.19
523.11	13235.87
523.477	13304.57
523.843	13387.28
524.21	13440.83
524.577	13506.59
524.943	13470.44
525.31	13564.9
525.676	13601.28
526.043	13578
526.409	13585.01
526.776	13712.01
527.142	13658.68
527.508	13678.34
527.874	13712.24
528.241	13715.4
528.607	13751.56
528.973	13737.32
529.339	13798.56
529.705	13805.12
530.071	13726.02
530.437	13891.44
530.803	13876.75
531.169	13944.55
531.535	13851.22
531.901	13732.58
532.267	13908.39
532.632	13935.28
532.998	13859.35
533.364	13864.1
533.73	13812.57
534.095	13952.01
534.461	13843.76
534.826	13873.36
535.192	13774.61
535.557	13913.81
535.923	13808.96
536.288	13810.31
536.653	13829.07
537.019	13656.65
537.384	13670.43
537.749	13695.97
538.114	13728.28
538.479	13662.52
538.845	13713.59
539.21	13594.28
539.575	13517.22
539.94	13563.32
540.305	13543.88
540.67	13501.85
541.034	13473.15
541.399	13552.92
541.764	13463.21
542.129	13484.67
542.494	13421.85
542.858	13392.7
543.223	13423.43
543.587	13322.87
543.952	13293.72
544.316	13408.74
544.681	13181.18
545.045	13194.51
545.41	13214.62
545.774	13186.6
546.138	13164
546.503	13149.09
546.867	13039.49
547.231	13093.05
547.595	13048.75
547.959	13073.61
548.324	12973.73
548.688	12953.16
549.052	12955.2
549.416	12876.78
549.779	12917.68
550.143	12807.86
550.507	12921.98
550.871	12812.15
551.235	12779.83
551.599	12772.83
551.962	12738.48
552.326	12681.3
552.689	12721.98
553.053	12623.91
553.417	12646.5
553.78	12672.04
554.143	12631.14
554.507	12570.8
554.87	12595.88
555.234	12672.94
555.597	12575.77
555.96	12510.91
556.323	12494.87
556.686	12507.3
557.05	12617.8
557.413	12533.51
557.776	12495.1
558.139	12554.53
558.502	12465.04
558.865	12530.8
559.228	12526.96
559.59	12489.45
559.953	12478.15
560.316	12549.11
560.679	12473.4
561.041	12524.92
561.404	12568.09
561.767	12548.43
562.129	12500.29
562.492	12555.66
562.854	12535.77
563.217	12473.85
563.579	12485.38
563.941	12600.18
564.304	12564.92
564.666	12568.77
565.028	12626.17
565.39	12593.62
565.753	12667.07
566.115	12677.92
566.477	12711.13
566.839	12606.5
567.201	12725.37
567.563	12620.06
567.925	12695.77
568.287	12683.79
568.648	12649.22
569.01	12732.38
569.372	12785.93
569.734	12687.41
570.095	12765.37
570.457	12813.73
570.819	12825.26
571.18	12825.48
571.542	12792.94
571.903	12818.7
572.265	12822.77
572.626	12873.84
572.987	12854.86
573.349	12992.71
573.71	12867.97
574.071	12900.96
574.432	12874.97
574.794	13011.47
575.155	12926.5
575.516	13013.95
575.877	12970.56
576.238	12941.86
576.599	12958.36
576.96	13012.82
577.32	12970.34
577.681	13005.82
578.042	12990.22
578.403	12980.51
578.763	12986.16
579.124	13011.92
579.485	13027.28
579.845	13116.1
580.206	13086.94
580.566	12958.59
580.927	12962.2
581.287	13048.07
581.648	12987.06
582.008	12963.11
582.368	13072.71
582.728	13011.24
583.089	13031.58
583.449	12927.17
583.809	13055.08
584.169	13000.62
584.529	12931.47
584.889	13064.57
585.249	12918.36
585.609	12881.75
585.969	13015.53
586.329	12952.03
586.688	12931.24
587.048	12873.62
587.408	12846.27
587.768	12855.31
588.127	12856.44
588.487	12827.06
588.846	12881.07
589.206	12760.62
589.565	12805.82
589.925	12918.81
590.284	12841.3
590.643	12822.77
591.003	12886.5
591.362	12923.33
591.721	12845.59
592.08	12895.99
592.44	12920.39
592.799	12794.97
593.158	12765.14
593.517	12793.17
593.876	12796.1
594.235	12841.3
594.593	12783.9
594.952	12796.33
595.311	12739.83
595.67	12759.72
596.029	12785.93
596.387	12823.22
596.746	12825.26
597.104	12686.5
597.463	12687.41
597.822	12790.23
598.18	12771.25
598.538	12701.64
598.897	12735.09
599.255	12584.58
599.613	12838.14
599.972	12708.65
600.33	12816.89
600.688	12656.67
601.046	12751.81
601.404	12796.56
601.762	12735.99
602.12	12791.58
602.478	12735.09
602.836	12743.22
603.194	12761.75
603.552	12614.41
603.91	12697.35
604.268	12774.41
604.625	12684.24
604.983	12737.57
605.341	12635.2
605.698	12795.2
606.056	12777.57
606.413	12743.68
606.771	12819.38
607.128	12817.57
607.485	12715.88
607.843	12768.08
608.2	12788.65
608.557	12871.13
608.914	12798.82
609.272	12899.83
609.629	12872.03
609.986	12925.59
610.343	12805.82
610.7	12959.04
611.057	12860.06
611.414	12877.23
611.771	12833.62
612.127	12919.26
612.484	12910.45
612.841	12959.04
613.198	12947.29
613.554	12909.55
613.911	12984.12
614.267	12941.41
614.624	12910
614.98	12924.91
615.337	13057.79
615.693	13017.12
616.05	13006.49
616.406	13163.55
616.762	13093.27
617.118	13072.93
617.475	13068.41
617.831	13079.03
618.187	13076.55
618.543	13115.19
618.899	13196.32
619.255	13097.34
619.611	13165.81
619.967	13119.03
620.323	13191.57
620.678	13084.01
621.034	13072.03
621.39	13121.75
621.746	13033.39
622.101	13223.89
622.457	13172.82
622.812	13110.45
623.168	13173.95
623.523	13145.7
623.879	13182.99
624.234	13124.91
624.589	13172.59
624.945	13181.86
625.3	13175.3
625.655	13118.36
626.01	13151.58
626.365	13186.15
626.72	13143.67
627.075	13143.89
627.43	13142.99
627.785	13130.33
628.14	13096.66
628.495	13190.44
628.85	13121.75
629.205	13119.26
629.559	13178.69
629.914	13072.48
630.269	13112.25
630.623	13054.18
630.978	13040.17
631.332	13055.76
631.687	13139.15
632.041	13026.61
632.396	12976.44
632.75	13012.6
633.104	12914.07
633.459	12880.4
633.813	12907.06
634.167	12937.8
634.521	12921.98
634.875	12910.23
635.229	12901.41
635.583	12882.88
635.937	12877.01
636.291	12810.34
636.645	12837.01
636.999	12795.43
637.352	12806.27
637.706	12710.91
638.06	12812.83
638.413	12740.51
638.767	12737.35
639.121	12730.34
639.474	12668.88
639.828	12625.04
640.181	12706.16
640.534	12716.33
640.888	12636.79
641.241	12586.84
641.594	12635.2
641.947	12600.86
642.301	12661.64
642.654	12704.13
643.007	12629.33
643.36	12592.72
643.713	12502.78
644.066	12613.96
644.419	12466.17
644.771	12495.1
645.124	12382.78
645.477	12371.03
645.83	12306.17
646.182	12200.87
646.535	12201.77
646.888	12195.89
647.24	12223.92
647.593	12256.01
647.945	12236.12
648.298	12139.17
648.65	12066.86
649.002	12102.11
649.355	12132.17
649.707	12114.99
650.059	12194.54
650.411	12307.08
650.763	12344.36
651.115	12480.63
651.467	12449.9
651.819	12489.45
652.171	12379.17
652.523	12422.55
652.875	12363.57
653.227	12312.05
653.578	12435.66
653.93	12396.57
654.282	12337.81
654.633	12410.8
654.985	12381.43
655.337	12347.98
655.688	12403.57
656.039	12434.98
656.391	12309.34
656.742	12321.99
657.094	12406.51
657.445	12363.57
657.796	12423.23
658.147	12361.09
658.498	12321.09
658.849	12441.09
659.2	12394.08
659.551	12428.88
659.902	12403.35
660.253	12478.37
660.604	12478.82
660.955	12400.18
661.306	12418.94
661.656	12442.44
662.007	12443.8
662.358	12442.89
662.708	12475.66
663.059	12471.14
663.409	12420.75
663.76	12488.77
664.11	12385.72
664.461	12536.68
664.811	12524.25
665.161	12522.44
665.511	12446.96
665.862	12486.96
666.212	12480.86
666.562	12454.87
666.912	12478.15
667.262	12451.25
667.612	12505.49
667.962	12521.76
668.312	12450.8
668.662	12511.59
669.011	12497.36
669.361	12468.43
669.711	12449.45
670.06	12460.97
670.41	12427.3
670.76	12392.05
671.109	12485.83
671.459	12389.56
671.808	12401.31
672.157	12424.14
672.507	12303.46
672.856	12355.44
673.205	12351.37
673.554	12331.48
673.904	12360.64
674.253	12420.97
674.602	12382.56
674.951	12151.15
675.3	12089.91
675.649	12333.74
675.998	12283.8
676.346	12293.97
676.695	12237.7
677.044	12312.28
677.393	12233.86
677.741	12246.06
678.09	12247.19
678.438	12129.68
678.787	12262.56
679.135	12184.59
679.484	12121.32
679.832	12222.11
680.181	12110.02
680.529	12108.21
680.877	12063.24
681.225	12093.52
681.573	12163.35
681.922	12005.84
682.27	11974.66
682.618	11976.24
682.966	11884.49
683.314	11974.2
683.661	11896.24
684.009	11834.32
684.357	11776.02
684.705	11825.51
685.053	11798.84
685.4	11841.55
685.748	11810.14
686.095	11732.18
686.443	11685.17
686.79	11728.11
687.138	11676.13
687.485	11676.13
687.832	11604.95
688.18	11652.86
688.527	11513.88
688.874	11555.46
689.221	11579.19
689.568	11498.29
689.915	11465.29
690.262	11370.38
690.609	11451.05
690.956	11345.52
691.303	11361.79
691.65	11301.68
691.997	11314.11
692.344	11216.48
692.69	11200.67
693.037	11142.14
693.383	11056.71
693.73	11121.12
694.077	11042.25
694.423	10986.89
694.769	11021.46
695.116	10925.19
695.462	10931.29
695.808	10869.83
696.155	10836.16
696.501	10766.78
696.847	10848.36
697.193	10689.94
697.539	10761.81
697.885	10631.87
698.231	10624.41
698.577	10549.61
698.923	10578.08
699.269	10522.27
699.614	10512.77
699.96	10476.62
700.306	10441.82
700.651	10402.04
700.997	10306.23
701.342	10356.62
701.688	10246.34
702.033	10230.3
702.379	10243.4
702.724	10161.82
703.069	10226.45
703.415	10055.39
703.76	10070.53
704.105	10078.21
704.45	10104.2
704.795	9889.06
705.14	9967.48
705.485	9941.72
705.83	9867.14
706.175	9913.02
706.52	9806.58
706.865	9822.4
707.209	9757.54
707.554	9698.33
707.899	9727.48
708.243	9666.92
708.588	9697.2
708.932	9573.14
709.277	9597.09
709.621	9626.7
709.966	9564.55
710.31	9572.46
710.654	9524.33
710.998	9458.11
711.342	9452.69
711.687	9347.38
712.031	9394.39
712.375	9338.57
712.719	9400.71
713.063	9376.99
713.407	9353.03
713.75	9256.31
714.094	9270.55
714.438	9228.97
714.782	9238.46
715.125	9199.36
715.469	9253.82
715.812	9191.23
716.156	9183.09
716.499	9119.36
716.843	9180.83
717.186	9132.25
717.53	9122.3
717.873	9143.32
718.216	9075.07
718.559	9048.41
718.902	9059.48
719.246	8990.1
719.589	9054.96
719.932	8980.16
720.275	9012.47
720.617	8972.48
720.96	9012.47
721.303	8905.59
721.646	8955.75
721.989	8908.3
722.331	8951.69
722.674	8884.79
723.016	8895.87
723.359	8880.27
723.701	8890.44
724.044	8855.42
724.386	8800.96
724.729	8955.3
725.071	8912.82
725.413	8839.37
725.755	8826.94
726.097	8764.57
726.439	8737.91
726.782	8810.9
727.124	8806.6
727.465	8782.65
727.807	8720.73
728.149	8725.7
728.491	8732.93
728.833	8791.69
729.175	8800.96
729.516	8733.84
729.858	8689.32
730.199	8696.55
730.541	8749.66
730.882	8737.23
731.224	8812.93
731.565	8702.65
731.906	8703.1
732.248	8759.6
732.589	8656.78
732.93	8664.46
733.271	8711.01
733.612	8768.87
733.953	8731.58
734.294	8720.28
734.635	8665.82
734.976	8711.47
735.317	8654.74
735.658	8716.89
735.999	8697.91
736.339	8703.33
736.68	8721.18
737.021	8725.93
737.361	8655.65
737.702	8681.64
738.042	8638.25
738.383	8638.25
738.723	8754.63
739.063	8711.47
739.404	8770.9
739.744	8693.84
740.084	8782.2
740.424	8752.37
740.764	8766.38
741.104	8821.29
741.444	8768.19
741.784	8779.49
742.124	8783.78
742.464	8800.28
742.804	8830.78
743.143	8818.58
743.483	8837.56
743.823	8845.02
744.162	8875.76
744.502	8964.11
744.841	8961.18
745.181	9052.02
745.52	9020.61
745.86	9082.76
746.199	9071.91
746.538	9129.08
746.877	9208.85
747.216	9236.42
747.556	9237.78
747.895	9344.22
748.234	9380.15
748.573	9338.57
748.911	9480.26
749.25	9475.74
749.589	9543.99
749.928	9572.91
750.267	9747.14
750.605	9744.66
750.944	9781.49
751.283	9853.81
751.621	9962.28
751.96	10040.7
752.298	10122.95
752.636	10180.81
752.975	10330.41
753.313	10386
753.651	10585.77
753.989	10613.34
754.327	10665.31
754.666	10822.6
755.004	10995.93
755.342	11037.05
755.679	11218.52
756.017	11256.03
756.355	11393.88
756.693	11497.61
757.031	11653.08
757.368	11745.96
757.706	11902.57
758.044	12094.43
758.381	12279.06
758.719	12336.23
759.056	12505.04
759.394	12758.14
759.731	12809.66
760.068	12957
760.405	13106.83
760.743	13245.13
761.08	13472.47
761.417	13460.27
761.754	13716.98
762.091	13877.43
762.428	14028.61
762.765	14132.11
763.102	14374.14
763.438	14466.57
763.775	14600.8
764.112	14781.14
764.449	15014.8
764.785	15069.72
765.122	15138.42
765.458	15278.3
765.795	15513.32
766.131	15632.64
766.467	15718.97
766.804	15893.2
767.14	16017.71
767.476	16100.65
767.812	16208.9
768.148	16371.6
768.485	16486.4
768.821	16567.08
769.157	16668.77
769.492	16872.61
769.828	16970.91
770.164	16923.91
770.5	17119.83
770.836	17309.21
771.171	17159.15
771.507	17325.25
771.842	17433.95
772.178	17502.87
772.513	17539.48
772.849	17628.29
773.184	17691.34
773.519	17785.8
773.855	17830.77
774.19	17911.45
774.525	17941.51
774.86	18160.48
775.195	18258.11
775.53	18172.91
775.865	18081.84
776.2	18149.18
776.535	18181.73
776.87	18143.31
777.205	18225.11
777.539	18178.11
777.874	18405.22
778.209	18314.15
778.543	18304.66
778.878	18291.55
779.212	18401.15
779.547	18337.65
779.881	18433.24
780.215	18385.79
780.55	18473.47
780.884	18452.23
781.218	18433.24
781.552	18509.63
781.886	18407.71
782.22	18466.46
782.554	18415.62
782.888	18363.64
783.222	18242.51
783.556	18313.47
783.889	18259.92
784.223	18222.18
784.557	18198.22
784.89	18376.75
785.224	18205.68
785.557	18153.48
785.891	18134.04
786.224	18252.68
786.558	18135.62
786.891	18191.44
787.224	18047.94
787.557	18040.94
787.891	18066.02
788.224	18016.53
788.557	17985.35
788.89	18097.43
789.223	18027.61
789.556	17885.24
789.888	17962.75
790.221	17832.81
790.554	17762.75
790.887	17786.48
791.219	17810.21
791.552	17698.35
791.884	17676.65
792.217	17678.69
792.549	17620.38
792.882	17534.28
793.214	17531.12
793.546	17508.07
793.879	17459.94
794.211	17290.22
794.543	17409.54
794.875	17347.85
795.207	17474.85
795.539	17359.15
795.871	17463.33
796.203	17153.05
796.535	17106.05
796.867	17200.96
797.198	17058.82
797.53	17056.11
797.862	16911.93
798.193	17094.97
798.525	16966.62
798.856	16983.11
799.188	16772.72
799.519	16771.82
799.85	16637.36
800.182	16811.14
800.513	16722.33
800.844	16609.79
801.175	16644.14
801.506	16607.3
801.837	16584.25
802.168	16599.17
802.499	16460.19
802.83	16355.78
803.161	16483.24
803.491	16312.17
803.822	16410.7
804.153	16304.71
804.483	16148.33
804.814	16041.67
805.145	16154.66
805.475	16182.91
805.805	16041.89
806.136	16032.63
806.466	15957.38
806.796	15966.42
807.126	15909.02
807.457	15862.92
807.787	15838.74
808.117	15759.42
808.447	15787.66
808.777	15793.09
809.107	15702.24
809.436	15730.72
809.766	15707.21
810.096	15577.05
810.426	15522.81
810.755	15672.86
811.085	15503.83
811.414	15543.83
811.744	15444.17
812.073	15386.32
812.403	15363.95
812.732	15312.65
813.061	15323.04
813.39	15256.83
813.719	15236.04
814.049	15309.26
814.378	15198.75
814.707	15183.61
815.036	15211.41
815.365	15118.98
815.693	15058.64
816.022	14981.58
816.351	15021.58
816.68	14914.69
817.008	14979.78
817.337	14806.67
817.665	14787.24
817.994	14903.85
818.322	14795.83
818.651	14734.58
818.979	14751.98
819.307	14812.55
819.636	14695.94
819.964	14666.11
820.292	14696.85
820.62	14676.96
820.948	14656.39
821.276	14643.29
821.604	14583.18
821.932	14668.82
822.259	14660.46
822.587	14619.33
822.915	14557.87
823.243	14663.17
823.57	14510.41
823.898	14583.18
824.225	14549.05
824.553	14479.22
824.88	14596.06
825.207	14629.5
825.535	14617.3
825.862	14577.75
826.189	14520.58
826.516	14648.03
826.843	14557.87
827.17	14589.28
827.497	14579.79
827.824	14644.87
828.151	14653.68
828.478	14543.4
828.805	14660.91
829.131	14562.84
829.458	14638.54
829.785	14521.48
830.111	14541.6
830.438	14630.86
830.764	14611.88
831.09	14643.97
831.417	14498.66
831.743	14546.34
832.069	14514.03
832.395	14556.74
832.722	14562.84
833.048	14451.2
833.374	14498.43
833.7	14452.33
834.026	14465.44
834.351	14504.76
834.677	14513.35
835.003	14494.14
835.329	14415.04
835.654	14448.49
835.98	14348.61
836.306	14487.59
836.631	14402.84
836.956	14355.39
837.282	14491.2
837.607	14387.25
837.932	14356.06
838.258	14301.6
838.583	14291.66
838.908	14251.21
839.233	14185.45
839.558	14175.95
839.883	14112.23
840.208	14088.5
840.533	14150.42
840.858	14139.35
841.182	14098.22
841.507	14135.05
841.832	14044.21
842.156	14058.44
842.481	14018.22
842.805	13993.81
843.13	13969.63
843.454	13899.35
843.778	13851.22
844.103	13799.24
844.427	13779.81
844.751	13746.14
845.075	13690.54
845.399	13666.14
845.723	13707.72
846.047	13627.95
846.371	13475.18
846.695	13496.88
847.019	13427.95
847.343	13350.67
847.666	13210.1
847.99	13246.49
848.313	13281.97
848.637	13131.69
848.96	13115.19
849.284	13078.36
849.607	12957
849.931	12991.81
850.254	12853.5
850.577	12857.35
850.9	12781.19
851.223	12769.21
851.546	12713.85
851.869	12619.39
852.192	12604.02
852.515	12499.61
852.838	12440.63
853.161	12488.77
853.483	12502.78
853.806	12334.65
854.129	12378.94
854.451	12218.04
854.774	12256.01
855.096	12166.97
855.419	12122.45
855.741	12204.03
856.063	12122.22
856.385	12125.39
856.708	11984.83
857.03	11995.9
857.352	12018.72
857.674	11871.83
857.996	11858.95
858.318	11799.97
858.64	11750.71
858.961	11767.66
859.283	11738.96
859.605	11711.61
859.926	11700.99
860.248	11674.55
860.57	11633.42
860.891	11629.58
861.212	11534.89
861.534	11547.55
861.855	11499.19
862.176	11552.97
862.498	11502.58
862.819	11480.66
863.14	11479.75
863.461	11428
863.782	11341.91
864.103	11356.59
864.424	11330.61
864.745	11388.46
865.065	11330.61
865.386	11251.51
865.707	11265.97
866.027	11318.4
866.348	11254.22
866.668	11200.21
866.989	11202.47
867.309	11149.59
867.63	11166.09
867.95	11147.56
868.27	11097.84
868.59	11051.29
868.91	11067.79
869.23	11017.85
869.55	10967.45
869.87	11067.11
870.19	10983.5
870.51	10987.56
870.83	11031.4
871.15	10957.51
871.469	10928.13
871.789	10915.7
872.109	10921.8
872.428	10898.08
872.748	10903.05
873.067	10843.84
873.386	10846.55
873.706	10739.21
874.025	10750.96
874.344	10761.36
874.663	10700.79
874.982	10711.19
875.301	10758.19
875.62	10679.32
875.939	10648.82
876.258	10637.74
876.577	10590.96
876.896	10657.86
877.214	10527.92
877.533	10617.18
877.852	10633.22
878.17	10465.77
878.489	10545.32
878.807	10511.19
879.125	10522.49
879.444	10536.73
879.762	10465.54
880.08	10441.36
880.398	10379.22
880.716	10380.35
881.034	10330.18
881.352	10300.8
881.67	10287.92
881.988	10317.75
882.306	10348.94
882.624	10304.87
882.941	10206.57
883.259	10195.95
883.577	10159.79
883.894	10112.11
884.212	10151.88
884.529	10183.97
884.846	10124.99
885.164	10097.87
885.481	10062.84
885.798	10054.71
886.115	10021.94
886.432	9961.6
886.75	10027.14
887.067	9979
887.383	9878.67
887.7	9938.78
888.017	9908.27
888.334	9884.09
888.651	9889.51
888.967	9825.79
889.284	9762.96
889.6	9754.38
889.917	9699.91
890.233	9671.21
890.55	9629.86
890.866	9619.92
891.182	9654.94
891.498	9569.97
891.815	9551.9
892.131	9459.69
892.447	9497.43
892.763	9491.78
893.079	9488.85
893.395	9393.48
893.71	9408.4
894.026	9378.57
894.342	9279.81
894.657	9252.69
894.973	9194.39
895.289	9188.29
895.604	9219.93
895.92	9177.22
896.235	9076.2
896.55	9106.94
896.865	9096.31
897.181	9046.37
897.496	9085.02
897.811	8997.11
898.126	8977.67
898.441	8867.17
898.756	8908.75
899.071	8822.65
899.386	8887.96
899.7	8756.21
900.015	8715.31
900.33	8635.54
900.644	8661.52
900.959	8672.6
901.273	8708.53
901.588	8548.53
901.902	8570.68
902.216	8547.63
902.531	8496.1
902.845	8498.59
903.159	8473.73
903.473	8355.77
903.787	8350.8
904.101	8369.78
904.415	8306.28
904.729	8312.15
905.042	8211.14
905.356	8205.72
905.67	8228.54
905.984	8147.41
906.297	8184.02
906.611	8089.79
906.924	8083.01
907.237	8029.68
907.551	7989
907.864	7998.49
908.177	7971.37
908.491	7939.96
908.804	7897.25
909.117	7904.71
909.43	7743.36
909.743	7741.32
910.056	7729.57
910.368	7729.57
910.681	7668.78
910.994	7635.34
911.307	7636.92
911.619	7588.11
911.932	7567.99
912.244	7517.6
912.557	7508.79
912.869	7405.29
913.181	7466.3
913.494	7394.89
913.806	7358.96
914.118	7341.78
914.43	7287.32
914.742	7252.97
915.054	7237.15
915.366	7258.62
915.678	7204.16
915.99	7138.4
916.302	7084.39
916.613	7057.72
916.925	7035.8
917.236	7045.29
917.548	7021.79
917.859	6999.65
918.171	6947.44
918.482	6904.73
918.794	6897.73
919.105	6879.65
919.416	6822.02
919.727	6830.84
920.038	6769.14
920.349	6736.38
920.66	6686.89
920.971	6737.51
921.282	6673.1
921.593	6657.96
921.903	6645.31
922.214	6622.71
922.525	6613.89
922.835	6571.18
923.146	6489.38
923.456	6518.08
923.767	6471.52
924.077	6465.42
924.387	6435.14
924.697	6367.12
925.008	6317.18
925.318	6356.73
925.628	6314.01
925.938	6307.91
926.248	6229.72
926.558	6217.52
926.867	6247.58
927.177	6183.85
927.487	6190.18
927.796	6120.8
928.106	6073.34
928.416	6121.7
928.725	6102.72
929.034	6013.46
929.344	6069.5
929.653	5991.09
929.962	5973.01
930.271	5968.94
930.581	5909.05
930.89	5862.73
931.199	5837.64
931.508	5875.38
931.817	5822.95
932.125	5768.49
932.434	5810.98
932.743	5740.47
933.051	5692.34
933.36	5709.74
933.669	5639.23
933.977	5641.04
934.286	5625.67
934.594	5636.97
934.902	5575.05
935.21	5533.47
935.519	5473.58
935.827	5486.47
936.135	5464.77
936.443	5411.67
936.751	5408.73
937.059	5426.81
937.367	5392.01
937.674	5394.04
937.982	5362.18
938.29	5298.9
938.597	5331.22
938.905	5271.1
939.213	5272.69
939.52	5216.64
939.827	5242.4
940.135	5146.81
940.442	5187.94
940.749	5142.97
941.056	5137.32
941.363	5057.78
941.67	5064.1
941.977	5013.48
942.284	5010.09
942.591	5025.69
942.898	5015.29
943.205	4979.59
943.511	5001.73
943.818	4910.89
944.125	4889.42
944.431	4905.69
944.738	4885.58
945.044	4854.39
945.35	4819.14
945.657	4796.77
945.963	4757.67
946.269	4736.66
946.575	4744.34
946.881	4683.32
947.187	4727.62
947.493	4737.33
947.799	4635.19
948.105	4655.08
948.41	4631.8
948.716	4661.85
949.022	4605.59
949.327	4573.72
949.633	4518.58
949.938	4524.68
950.244	4514.51
950.549	4453.5
950.854	4451.92
951.16	4445.59
951.465	4454.4
951.77	4390
952.075	4434.74
952.38	4375.99
952.685	4353.61
952.99	4324.01
953.294	4265.03
953.599	4275.2
953.904	4272.71
954.209	4238.59
954.513	4216.89
954.818	4240.4
955.122	4212.38
955.426	4246.95
955.731	4186.16
956.035	4111.59
956.339	4155.2
956.643	4128.08
956.948	4098.25
957.252	4128.99
957.556	4060.74
957.86	3994.98
958.163	3989.33
958.467	4016.45
958.771	4023.23
959.075	3985.94
959.378	3973.29
959.682	3953.62
959.985	3918.6
960.289	3975.55
960.592	3898.26
960.896	3860.75
961.199	3911.14
961.502	3834.08
961.805	3839.73
962.108	3803.8
962.411	3796.79
962.714	3794.53
963.017	3762.44
963.32	3770.35
963.623	3730.58
963.926	3696
964.228	3699.17
964.531	3691.26
964.833	3667.08
965.136	3669.34
965.438	3615.78
965.741	3622.11
966.043	3590.92
966.345	3584.82
966.648	3578.95
966.95	3550.92
967.252	3538.04
967.554	3568.55
967.856	3498.72
968.158	3501.66
968.46	3514.09
968.761	3499.63
969.063	3448.1
969.365	3413.07
969.666	3455.78
969.968	3390.7
970.269	3380.76
970.571	3400.87
970.872	3378.05
971.174	3335.34
971.475	3310.03
971.776	3336.69
972.077	3318.61
972.378	3295.34
972.679	3253.3
972.98	3265.06
973.281	3230.71
973.582	3223.93
973.883	3200.42
974.183	3202.46
974.484	3187.32
974.785	3196.36
975.085	3136.25
975.386	3162.23
975.686	3163.82
975.986	3137.6
976.287	3116.58
976.587	3118.39
976.887	3059.41
977.187	3083.82
977.487	3056.02
977.787	3049.02
978.087	3017.6
978.387	3022.35
978.687	3011.73
978.987	2973.54
979.286	2993.88
979.586	2978.96
979.885	2942.13
980.185	2937.15
980.484	2922.69
980.784	2919.3
981.083	2882.92
981.382	2906.42
981.682	2894.9
981.981	2840.21
982.28	2855.35
982.579	2821.45
982.878	2807.44
983.177	2853.77
983.475	2818.29
983.774	2781.45
984.073	2751.85
984.372	2768.57
984.67	2701
984.969	2743.94
985.267	2736.71
985.566	2723.6
985.864	2715.24
986.162	2707.33
986.461	2663.94
986.759	2686.54
987.057	2608.35
987.355	2644.05
987.653	2602.7
987.951	2614
988.249	2640.21
988.547	2609.71
988.844	2553.89
989.142	2558.63
989.44	2574.45
989.737	2548.24
990.035	2538.07
990.332	2550.5
990.63	2510.72
990.927	2484.28
991.224	2510.5
991.521	2461.91
991.819	2434.34
992.116	2446.32
992.413	2445.19
992.71	2419.2
993.006	2419.2
993.303	2409.03
993.6	2437.73
993.897	2415.59
994.193	2395.93
994.49	2368.36
994.787	2311.86
995.083	2333.55
995.379	2284.97
995.676	2277.06
995.972	2307.57
996.268	2264.86
996.565	2264.86
996.861	2237.96
997.157	2237.06
997.453	2236.61
997.749	2256.72
998.044	2239.32
998.34	2206.1
998.636	2208.13
998.932	2181.47
999.227	2172.2
999.523	2164.29
999.818	2137.63
1000.114	2160.23
1000.409	2110.51
1000.704	2085.2
1001	2104.86
1001.295	2127.46
1001.59	2089.72
1001.885	2087.69
1002.18	2041.36
1002.475	2074.13
1002.77	2040.68
1003.065	2016.95
1003.359	2018.76
1003.654	2018.08
1003.949	1972.43
1004.243	1993.68
1004.538	1959.1
1004.832	1962.94
1005.127	1954.36
1005.421	1960.46
1005.715	1935.15
1006.009	1904.87
1006.304	1915.26
1006.598	1930.4
1006.892	1863.74
1007.186	1852.44
1007.48	1876.62
1007.773	1863.06
1008.067	1845.66
1008.361	1848.37
1008.655	1857.63
1008.948	1819.67
1009.242	1814.02
1009.535	1792.33
1009.829	1807.01
1010.122	1759.78
1010.415	1760.01
1010.708	1750.07
1011.001	1745.1
1011.295	1722.27
1011.588	1704.64
1011.881	1710.97
1012.173	1704.87
1012.466	1684.98
1012.759	1646.79
1013.052	1684.98
1013.344	1663.52
1013.637	1668.04
1013.93	1647.24
1014.222	1648.37
1014.514	1627.81
1014.807	1644.31
1015.099	1619.22
1015.391	1617.19
1015.683	1592.11
1015.976	1609.05
1016.268	1555.95
1016.56	1551.88
1016.851	1574.7
1017.143	1536.06
1017.435	1536.29
1017.727	1516.85
1018.018	1512.33
1018.31	1506.01
1018.602	1524.08
1018.893	1467.14
1019.185	1484.09
1019.476	1479.57
1019.767	1473.92
1020.058	1461.49
1020.35	1462.16
1020.641	1443.63
1020.932	1424.43
1021.223	1422.84
1021.514	1391.21
1021.804	1358.21
1022.095	1376.29
1022.386	1380.81
1022.677	1387.59
1022.967	1364.31
1023.258	1355.28
1023.548	1349.85
1023.839	1326.58
1024.129	1320.93
1024.419	1330.64
1024.709	1269.4
1025	1280.7
1025.29	1294.26
1025.58	1288.16
1025.87	1266.46
1026.16	1265.33
1026.449	1250.42
1026.739	1236.63
1027.029	1261.27
1027.319	1241.38
1027.608	1215.17
1027.898	1220.59
1028.187	1217.2
1028.477	1224.66
1028.766	1186.69
1029.055	1202.06
1029.344	1199.12
1029.634	1187.37
1029.923	1154.83
1030.212	1143.98
1030.501	1156.41
1030.79	1115.51
1031.078	1138.56
1031.367	1149.18
1031.656	1096.52
1031.945	1108.73
1032.233	1082.97
1032.522	1095.85
1032.81	1096.07
1033.099	1079.12
1033.387	1075.06
1033.675	1057.43
1033.963	1073.47
1034.251	1074.15
1034.54	1054.94
1034.828	1019.46
1035.116	1023.53
1035.403	1034.61
1035.691	1042.74
1035.979	1006.13
1036.267	978.56
1036.554	1012.69
1036.842	979.01
1037.129	973.36
1037.417	972.46
1037.704	977.88
1037.992	948.96
1038.279	983.76
1038.566	935.63
1038.853	935.63
1039.14	935.63
