Data from hue_130_FLMS001491_00072.txt Node
Date: Tue Feb 07 16:58:04 GMT 2017
User: dcchb
Spectrometer: FLMS00149
Trigger mode: 0
Integration Time (sec): 2.000000E-2
Scans to average: 10
Electric dark correction enabled: true
Nonlinearity correction enabled: false
Boxcar width: 0
XAxis mode: Wavelengths
Number of Pixels in Spectrum: 2048
>>>>>Begin Spectral Data<<<<<
341.393	-15.25
341.776	-15.25
342.16	-15.25
342.543	-50.96
342.927	-67.68
343.31	-54.57
343.693	-62.26
344.077	-74.91
344.46	-78.3
344.843	-54.35
345.226	-34.69
345.61	-29.49
345.993	-10.96
346.376	-15.71
346.759	16.84
347.142	22.94
347.525	36.95
347.908	54.35
348.291	61.58
348.674	99.77
349.057	122.82
349.44	115.59
349.823	141.58
350.206	167.11
350.588	176.15
350.971	199.43
351.354	201.24
351.737	234.01
352.119	269.03
352.502	268.13
352.884	262.93
353.267	282.82
353.65	273.55
354.032	300.67
354.414	296.15
354.797	311.07
355.179	316.71
355.562	323.27
355.944	324.4
356.326	338.64
356.709	346.09
357.091	330.5
357.473	324.4
357.855	342.93
358.238	346.54
358.62	343.61
359.002	342.7
359.384	345.87
359.766	331.18
360.148	346.32
360.53	356.71
360.912	349.48
361.294	327.79
361.676	306.32
362.057	324.62
362.439	349.26
362.821	329.82
363.203	319.65
363.584	342.02
363.966	312.42
364.348	339.77
364.729	327.56
365.111	320.78
365.493	319.43
365.874	330.27
366.256	307.9
366.637	325.75
367.019	304.96
367.4	318.97
367.781	325.75
368.163	308.58
368.544	306.09
368.925	319.2
369.306	316.26
369.688	296.15
370.069	302.25
370.45	291.63
370.831	304.96
371.212	328.24
371.593	337.28
371.974	323.72
372.355	315.81
372.736	317.62
373.117	316.04
373.498	329.37
373.879	314.68
374.26	309.26
374.641	310.39
375.021	309.71
375.402	311.52
375.783	314
376.163	330.05
376.544	328.24
376.925	338.41
377.305	309.03
377.686	330.5
378.066	329.6
378.447	338.86
378.827	333.44
379.208	317.62
379.588	332.99
379.968	335.47
380.349	341.12
380.729	336.15
381.109	318.97
381.489	341.35
381.87	339.99
382.25	328.47
382.63	337.28
383.01	307.45
383.39	354
383.77	317.39
384.15	350.84
384.53	364.85
384.91	334.57
385.29	326.88
385.67	344.28
386.049	363.04
386.429	351.97
386.809	348.58
387.189	345.64
387.568	357.84
387.948	358.07
388.328	360.1
388.707	354.91
389.087	376.6
389.466	373.21
389.846	359.65
390.225	365.98
390.605	365.75
390.984	379.31
391.363	354.91
391.743	373.66
392.122	344.06
392.501	357.17
392.881	371.18
393.26	380.22
393.639	357.62
394.018	380.44
394.397	390.61
394.776	368.24
395.155	371.85
395.534	390.39
395.913	378.41
396.292	392.42
396.671	379.31
397.05	398.07
397.429	372.08
397.808	375.24
398.186	388.13
398.565	393.55
398.944	358.75
399.323	379.54
399.701	390.84
400.08	407.56
400.458	376.15
400.837	392.87
401.215	390.84
401.594	407.79
401.972	401.46
402.351	394
402.729	396.94
403.107	413.89
403.486	420.44
403.864	407.11
404.242	416.15
404.62	395.36
404.999	418.86
405.377	427.45
405.755	425.86
406.133	431.29
406.511	414.11
406.889	429.71
407.267	423.83
407.645	426.77
408.023	445.3
408.401	438.52
408.779	450.04
409.156	429.25
409.534	431.74
409.912	453.43
410.29	434.9
410.667	452.08
411.045	437.62
411.422	453.66
411.8	469.93
412.178	464.06
412.555	458.41
412.933	455.02
413.31	453.89
413.687	483.72
414.065	516.94
414.442	494.34
414.819	483.94
415.197	474
415.574	489.37
415.951	486.88
416.328	493.89
416.705	492.08
417.082	497.05
417.46	503.38
417.837	501.34
418.214	521.91
418.591	497.5
418.967	507.22
419.344	520.33
419.721	497.05
420.098	514.22
420.475	510.16
420.852	510.61
421.228	535.24
421.605	521.91
421.982	507.22
422.358	542.92
422.735	518.74
423.111	531.4
423.488	546.99
423.864	539.31
424.241	545.86
424.617	544.28
424.994	539.31
425.37	550.83
425.746	556.93
426.123	538.63
426.499	565.52
426.875	569.14
427.251	587.22
427.627	594.22
428.003	596.26
428.379	585.63
428.756	599.65
429.132	583.6
429.507	610.49
429.883	622.47
430.259	642.58
430.635	636.48
431.011	626.09
431.387	629.02
431.763	620.21
432.138	649.36
432.514	649.14
432.89	630.15
433.265	651.4
433.641	666.31
434.016	665.41
434.392	679.19
434.767	685.52
435.143	659.98
435.518	678.74
435.894	697.27
436.269	700.21
436.644	719.87
437.02	712.41
437.395	692.07
437.77	725.52
438.145	722.13
438.52	710.83
438.895	756.93
439.271	724.61
439.646	746.31
440.021	747.21
440.395	739.75
440.77	758.74
441.145	756.25
441.52	767.78
441.895	789.7
442.27	768.45
442.645	792.63
443.019	774.56
443.394	789.24
443.769	803.26
444.143	793.31
444.518	797.83
444.892	818.62
445.267	828.79
445.641	836.25
446.016	837.83
446.39	813.88
446.764	854.55
447.139	812.97
447.513	860.88
447.887	836.93
448.262	862.24
448.636	860.88
449.01	865.4
449.384	858.85
449.758	867.43
450.132	893.42
450.506	892.74
450.88	878.28
451.254	885.29
451.628	910.37
452.002	921.44
452.376	928.22
452.75	941.11
453.123	935.23
453.497	911.5
453.871	966.42
454.244	958.51
454.618	976.81
454.992	990.14
455.365	991.27
455.739	993.99
456.112	1036.47
456.486	1030.14
456.859	1061.78
457.232	1036.92
457.606	1019.52
457.979	1060.65
458.352	1050.48
458.725	1106.07
459.099	1119.18
459.472	1111.95
459.845	1116.92
460.218	1120.76
460.591	1150.37
460.964	1169.35
461.337	1192.62
461.71	1190.59
462.083	1205.05
462.456	1201.66
462.829	1224.26
463.201	1233.3
463.574	1250.93
463.947	1261.55
464.32	1302
464.692	1321.66
465.065	1308.1
465.438	1347.87
465.81	1379.74
466.183	1400.53
466.555	1395.78
466.928	1404.14
467.3	1437.14
467.672	1428.78
468.045	1484.82
468.417	1485.5
468.789	1536.34
469.161	1566.17
469.534	1591.03
469.906	1620.86
470.278	1619.05
470.65	1655.21
471.022	1700.63
471.394	1751.71
471.766	1703.57
472.138	1780.63
472.51	1849.56
472.882	1878.26
473.253	1891.14
473.625	1941.98
473.997	1983.11
474.369	2013.39
474.74	2061.98
475.112	2090
475.484	2162.77
475.855	2193.5
476.227	2249.77
476.598	2314.18
476.97	2366.15
477.341	2415.42
477.713	2502.42
478.084	2553.27
478.455	2615.64
478.827	2699.7
479.198	2739.25
479.569	2819.25
479.94	2889.53
480.311	2960.94
480.682	3062.86
481.053	3113.93
481.424	3197.54
481.795	3287.48
482.166	3412.45
482.537	3475.95
482.908	3575.39
483.279	3653.12
483.65	3772.9
484.021	3891.08
484.391	3961.82
484.762	4074.13
485.133	4181.25
485.503	4246.56
485.874	4378.53
486.244	4494.46
486.615	4662.14
486.985	4714.34
487.356	4877.95
487.726	4926.76
488.097	5129.02
488.467	5201.56
488.837	5380.76
489.207	5490.36
489.578	5649
489.948	5747.31
490.318	5889
490.688	5979.62
491.058	6095.32
491.428	6256.9
491.798	6367.4
492.168	6551.58
492.538	6671.12
492.908	6853.49
493.278	6895.75
493.648	7070.21
494.017	7187.49
494.387	7291.22
494.757	7370.54
495.126	7553.81
495.496	7608.73
495.866	7735.28
496.235	7898.44
496.605	8008.49
496.974	8063.86
497.344	8234.25
497.713	8307.69
498.082	8389.04
498.452	8588.81
498.821	8662.71
499.19	8667.91
499.559	8850.95
499.928	8930.95
500.298	9048.24
500.667	9158.97
501.036	9203.26
501.405	9333.88
501.774	9417.27
502.143	9510.82
502.512	9561.9
502.88	9662.91
503.249	9712.17
503.618	9851.38
503.987	9981.77
504.356	10005.5
504.724	10115.78
505.093	10128.66
505.462	10103.35
505.83	10256.11
506.199	10403.68
506.567	10466.05
506.936	10484.58
507.304	10622.21
507.672	10700.85
508.041	10764.35
508.409	10789.66
508.777	10833.5
509.145	10942.88
509.514	10954.85
509.882	11138.58
510.25	11148.07
510.618	11215.41
510.986	11217.67
511.354	11266.03
511.722	11360.04
512.09	11445.91
512.458	11476.42
512.826	11580.37
513.193	11542.86
513.561	11605.46
513.929	11676.87
514.297	11714.38
514.664	11709.41
515.032	11920.93
515.4	11886.58
515.767	11922.29
516.135	11936.52
516.502	11862.17
516.869	12037.08
517.237	12091.55
517.604	12042.51
517.972	12155.27
518.339	12223.07
518.706	12154.14
519.073	12246.12
519.44	12211.32
519.808	12417.87
520.175	12273.24
520.542	12323.63
520.909	12407.24
521.276	12345.78
521.643	12493.57
522.009	12489.95
522.376	12531.53
522.743	12595.94
523.11	12655.15
523.477	12700.8
523.843	12741.92
524.21	12812.66
524.577	12834.58
524.943	12780.34
525.31	12851.3
525.676	12864.41
526.043	12939.21
526.409	12923.16
526.776	13021.69
527.142	13023.95
527.508	13061.92
527.874	13054.01
528.241	13093.55
528.607	13053.1
528.973	13103.27
529.339	12988.92
529.705	13070.5
530.071	13187.56
530.437	13126.1
530.803	13154.34
531.169	13188.69
531.535	13096.04
531.901	13164.51
532.267	13096.49
532.632	13174.46
532.998	13196.15
533.364	13132.2
533.73	13121.58
534.095	13193.66
534.461	13103.95
534.826	13162.7
535.192	13082.48
535.557	13145.08
535.923	13120.45
536.288	13099.88
536.653	13089.71
537.019	13000.9
537.384	13011.97
537.749	12951.41
538.114	12905.76
538.479	12967.68
538.845	12910.73
539.21	12862.83
539.575	12871.41
539.94	12804.07
540.305	12846.78
540.67	12782.83
541.034	12785.31
541.399	12707.58
541.764	12765.88
542.129	12731.76
542.494	12640.91
542.858	12553
543.223	12637.52
543.587	12583.28
543.952	12485.89
544.316	12536.96
544.681	12514.36
545.045	12513.46
545.41	12477.3
545.774	12492.44
546.138	12467.81
546.503	12360.92
546.867	12329.28
547.231	12367.7
547.595	12269.62
547.959	12287.25
548.324	12298.77
548.688	12236.18
549.052	12190.3
549.416	12112.79
549.779	12099
550.143	12005.9
550.507	12112.11
550.871	12032.34
551.235	12028.95
551.599	11971.1
551.962	11991.44
552.326	11902.85
552.689	11991.44
553.053	11885.45
553.417	11843.42
553.78	11960.25
554.143	11871.89
554.507	11839.58
554.87	11801.84
555.234	11845
555.597	11762.06
555.96	11758.45
556.323	11766.81
556.686	11732.69
557.05	11778.11
557.413	11679.13
557.776	11701.73
558.139	11729.52
558.502	11741.5
558.865	11694.95
559.228	11695.17
559.59	11688.85
559.953	11697.21
560.316	11712.8
560.679	11757.54
561.041	11667.38
561.404	11754.61
561.767	11776.98
562.129	11701.5
562.492	11734.27
562.854	11707.6
563.217	11688.17
563.579	11672.8
563.941	11822.63
564.304	11768.39
564.666	11774.27
565.028	11795.28
565.39	11742.63
565.753	11839.12
566.115	11750.54
566.477	11829.41
566.839	11779.69
567.201	11899.46
567.563	11844.1
567.925	11845.23
568.287	11865.56
568.648	11877.77
569.01	11890.42
569.372	11895.17
569.734	11894.94
570.095	11959.8
570.457	11972.68
570.819	11996.86
571.18	11985.56
571.542	11996.18
571.903	11923.64
572.265	12030.76
572.626	11959.8
572.987	12074.6
573.349	12081.15
573.71	12039.8
574.071	12047.25
574.432	12060.81
574.794	12092.22
575.155	12117.08
575.516	12041.6
575.877	12007.48
576.238	12069.85
576.599	12100.81
576.96	12056.75
577.32	12115.27
577.681	12156.63
578.042	12083.19
578.403	12097.65
578.763	12140.58
579.124	12141.26
579.485	12147.59
579.845	12157.08
580.206	12144.43
580.566	12121.15
580.927	12077.54
581.287	12094.94
581.648	12127.7
582.008	12222.84
582.368	12103.3
582.728	12071.66
583.089	12121.15
583.449	12122.96
583.809	12097.2
584.169	12099.91
584.529	12057.65
584.889	12098.33
585.249	12064.65
585.609	11927.71
585.969	12084.09
586.329	12060.36
586.688	12031.21
587.048	11959.35
587.408	11979.69
587.768	11946.24
588.127	11966.8
588.487	11948.95
588.846	11983.53
589.206	11953.02
589.565	11878.44
589.925	11955.28
590.284	11928.16
590.643	11926.13
591.003	11902.17
591.362	11997.76
591.721	11986.92
592.08	11909.86
592.44	11952.57
592.799	11860.82
593.158	11917.99
593.517	11840.03
593.876	11909.18
594.235	11834.6
594.593	11908.95
594.952	11908.05
595.311	11827.82
595.67	11810.42
596.029	11890.65
596.387	11865.11
596.746	11876.18
597.104	11849.52
597.463	11796.41
597.822	11925.45
598.18	11822.18
598.538	11876.18
598.897	11815.17
599.255	11737.21
599.613	11860.82
599.972	11822.63
600.33	11802.29
600.688	11747.15
601.046	11817.2
601.404	11805.45
601.762	11839.35
602.12	11895.17
602.478	11928.16
602.836	11839.58
603.194	11782.4
603.552	11779.69
603.91	11775.4
604.268	11839.58
604.625	11786.24
604.983	11803.64
605.341	11804.55
605.698	11786.92
606.056	11794.38
606.413	11774.49
606.771	11802.29
607.128	11804.55
607.485	11806.36
607.843	11779.01
608.2	11835.28
608.557	11955.73
608.914	11820.82
609.272	11866.92
609.629	11915.73
609.986	11975.62
610.343	11931.32
610.7	11999.12
611.057	11973.81
611.414	11923.19
611.771	11905.34
612.127	11953.47
612.484	11951.66
612.841	11971.1
613.198	11904.21
613.554	11956.18
613.911	12007.71
614.267	12016.29
614.624	11950.08
614.98	11948.95
615.337	12080.93
615.693	11967.03
616.05	11970.42
616.406	12093.13
616.762	11989.63
617.118	12067.14
617.475	12005.45
617.831	12140.58
618.187	12072.79
618.543	12081.38
618.899	12186.91
619.255	12142.62
619.611	12172.22
619.967	12246.12
620.323	12229.4
620.678	12123.86
621.034	12206.35
621.39	12081.6
621.746	12138.55
622.101	12253.35
622.457	12215.61
622.812	12222.62
623.168	12179.23
623.523	12186.23
623.879	12186.69
624.234	12105.56
624.589	12219.45
624.945	12186.46
625.3	12178.32
625.655	12163.86
626.01	12105.78
626.365	12106.91
626.72	12083.64
627.075	12153.69
627.43	12136.74
627.785	12148.49
628.14	12087.93
628.495	12123.18
628.85	12087.48
629.205	11990.76
629.559	12128.38
629.914	12077.99
630.269	12054.26
630.623	12005.22
630.978	12026.46
631.332	12014.71
631.687	12031.21
632.041	12002.51
632.396	11977.43
632.75	12066.01
633.104	11920.25
633.459	11899.46
633.813	11987.37
634.167	11953.25
634.521	12024.43
634.875	12044.99
635.229	11972.23
635.583	11827.37
635.937	11886.13
636.291	11886.81
636.645	11840.71
636.999	11822.63
637.352	11842.74
637.706	11754.83
638.06	11877.09
638.413	11835.06
638.767	11772.01
639.121	11792.12
639.474	11703.08
639.828	11762.97
640.181	11759.58
640.534	11771.1
640.888	11703.76
641.241	11590.09
641.594	11708.73
641.947	11693.82
642.301	11678.22
642.654	11604.55
643.007	11696.98
643.36	11694.27
643.713	11685.46
644.066	11701.95
644.419	11510.09
644.771	11492.47
645.124	11459.47
645.477	11362.07
645.83	11285.92
646.182	11347.61
646.535	11300.61
646.888	11299.25
647.24	11179.03
647.593	11248.18
647.945	11290.21
648.298	11198.24
648.65	11235.07
649.002	11136.09
649.355	11302.87
649.707	11174.06
650.059	11205.69
650.411	11445.01
650.763	11417.21
651.115	11547.15
651.467	11420.38
651.819	11548.28
652.171	11472.58
652.523	11420.83
652.875	11436.87
653.227	11415.63
653.578	11507.61
653.93	11556.65
654.282	11447.5
654.633	11433.26
654.985	11544.67
655.337	11462.41
655.688	11436.2
656.039	11470.32
656.391	11430.32
656.742	11376.99
657.094	11429.64
657.445	11537.89
657.796	11459.25
658.147	11492.92
658.498	11467.38
658.849	11451.34
659.2	11473.94
659.551	11483.65
659.902	11523.43
660.253	11453.37
660.604	11516.42
660.955	11546.02
661.306	11476.42
661.656	11468.29
662.007	11554.84
662.358	11520.04
662.708	11567.94
663.059	11511.67
663.409	11454.05
663.76	11556.19
664.11	11537.89
664.461	11501.73
664.811	11532.47
665.161	11524.33
665.511	11499.02
665.862	11557.32
666.212	11523.43
666.562	11503.31
666.912	11586.25
667.262	11485.01
667.612	11518.23
667.962	11571.11
668.312	11463.09
668.662	11549.19
669.011	11520.71
669.361	11565.68
669.711	11596.42
670.06	11518.68
670.41	11466.25
670.76	11544.44
671.109	11527.04
671.459	11579.92
671.808	11546.02
672.157	11534.5
672.507	11444.56
672.856	11516.19
673.205	11496.31
673.554	11467.38
673.904	11542.86
674.253	11510.09
674.602	11447.5
674.951	11308.29
675.3	11195.75
675.649	11424.67
675.998	11418.34
676.346	11405.24
676.695	11380.83
677.044	11331.34
677.393	11352.36
677.741	11302.19
678.09	11330.89
678.438	11192.59
678.787	11259.7
679.135	11340.15
679.484	11238.46
679.832	11262.42
680.181	11158.92
680.529	11224.68
680.877	11134.96
681.225	11207.28
681.573	11284.34
681.922	11154.4
682.27	11082.76
682.618	11105.36
682.966	11143.55
683.314	11079.37
683.661	11045.92
684.009	10984
684.357	10933.16
684.705	10892.26
685.053	11006.83
685.4	10958.47
685.748	10942.2
686.095	10831.24
686.443	10836.89
686.79	10810.9
687.138	10837.57
687.485	10804.35
687.832	10793.5
688.18	10838.02
688.527	10719.83
688.874	10698.14
689.221	10759.15
689.568	10600.96
689.915	10597.57
690.262	10615.88
690.609	10542.66
690.956	10550.12
691.303	10508.54
691.65	10465.83
691.997	10503.11
692.344	10354.19
692.69	10336.79
693.037	10407.97
693.383	10296.11
693.73	10257.24
694.077	10250.69
694.423	10160.52
694.769	10132.73
695.116	10058.15
695.462	10085.05
695.808	10035.56
696.155	10066.29
696.501	9988.55
696.847	9964.82
697.193	9848.89
697.539	9930.93
697.885	9838.95
698.231	9789.69
698.577	9732.74
698.923	9772.29
699.269	9741.78
699.614	9671.27
699.96	9684.6
700.306	9584.72
700.651	9553.53
700.997	9531.39
701.342	9492.74
701.688	9491.84
702.033	9458.85
702.379	9433.76
702.724	9330.94
703.069	9410.04
703.415	9293.43
703.76	9360.32
704.105	9306.31
704.45	9256.14
704.795	9210.27
705.14	9195.58
705.485	9174.34
705.83	9138.86
706.175	9127.78
706.52	9122.36
706.865	8983.83
707.209	9041.68
707.554	8996.03
707.899	8992.64
708.243	8948.8
708.588	8937.28
708.932	8852.99
709.277	8893.21
709.621	8856.6
709.966	8871.52
710.31	8849.15
710.654	8684.18
710.998	8812.76
711.342	8806.21
711.687	8739.09
712.031	8676.72
712.375	8596.95
712.719	8707.23
713.063	8599.21
713.407	8634.01
713.75	8615.03
714.094	8590.62
714.438	8574.8
714.782	8514.92
715.125	8553.79
715.469	8534.8
715.812	8452.55
716.156	8376.84
716.499	8494.8
716.843	8464.07
717.186	8321.02
717.53	8445.99
717.873	8448.03
718.216	8366.67
718.559	8352.44
718.902	8347.46
719.246	8396.5
719.589	8347.01
719.932	8284.64
720.275	8275.83
720.617	8298.43
720.96	8306.34
721.303	8245.77
721.646	8279.22
721.989	8244.87
722.331	8262.27
722.674	8244.64
723.016	8243.29
723.359	8172.1
723.701	8160.58
724.044	8203.06
724.386	8124.87
724.729	8127.13
725.071	8151.31
725.413	8279.44
725.755	8202.84
726.097	8138.2
726.439	8119.45
726.782	8153.57
727.124	8156.73
727.465	8109.73
727.807	8119.67
728.149	8191.76
728.491	8112.89
728.833	8172.33
729.175	8088.26
729.516	8085.78
729.858	8097.75
730.199	8065.66
730.541	8088.26
730.882	8077.41
731.224	8045.1
731.565	8061.37
731.906	8049.84
732.248	8100.69
732.589	8048.94
732.93	7982.28
733.271	8059.79
733.612	8007.13
733.953	8014.37
734.294	8003.97
734.635	8050.97
734.976	8069.73
735.317	8043.74
735.658	7971.2
735.999	8057.75
736.339	8022.73
736.68	8044.65
737.021	8016.17
737.361	7988.6
737.702	8065.89
738.042	8086.91
738.383	8025.66
738.723	8084.19
739.063	8098.21
739.404	8093.01
739.744	8082.61
740.084	8089.17
740.424	8074.7
740.764	8088.26
741.104	8169.16
741.444	8124.19
741.784	8136.62
742.124	8215.49
742.464	8175.94
742.804	8233.12
743.143	8224.3
743.483	8284.41
743.823	8274.02
744.162	8221.14
744.502	8323.51
744.841	8346.33
745.181	8364.64
745.52	8398.31
745.86	8439.21
746.199	8467.01
746.538	8548.59
746.877	8591.53
747.216	8661.35
747.556	8620.45
747.895	8669.94
748.234	8689.83
748.573	8783.61
748.911	8817.28
749.25	8883.04
749.589	8906.77
749.928	9006.2
750.267	9067.67
750.605	9095.69
750.944	9223.37
751.283	9252.98
751.621	9436.7
751.96	9379.08
752.298	9519.41
752.636	9636.24
752.975	9650.71
753.313	9779.97
753.651	9888.89
753.989	9932.28
754.327	10043.69
754.666	10088.89
755.004	10328.43
755.342	10422.66
755.679	10522.32
756.017	10572.94
756.355	10764.58
756.693	10810.45
757.031	11102.42
757.368	11128.86
757.706	11193.72
758.044	11415.86
758.381	11530.88
758.719	11665.34
759.056	11844.55
759.394	11994.15
759.731	12089.06
760.068	12299.68
760.405	12413.8
760.743	12511.65
761.08	12774.47
761.417	12802.49
761.754	13061.24
762.091	13171.97
762.428	13292.64
762.765	13398.4
763.102	13720.43
763.438	13814.44
763.775	13905.06
764.112	14096.24
764.449	14304.14
764.785	14392.5
765.122	14395.21
765.458	14597.02
765.795	14728.09
766.131	14900.29
766.467	15057.57
766.804	15176.66
767.14	15273.61
767.476	15381.4
767.812	15475.19
768.148	15664.79
768.485	15705.24
768.821	15755.18
769.157	15883.09
769.492	16045.57
769.828	16153.59
770.164	16217.99
770.5	16216.86
770.836	16462.73
771.171	16510.87
771.507	16569.39
771.842	16610.52
772.178	16659.34
772.513	16804.87
772.849	16861.59
773.184	16865.43
773.519	17067.46
773.855	17105.2
774.19	17122.6
774.525	17214.58
774.86	17264.97
775.195	17335.48
775.53	17384.29
775.865	17483.72
776.2	17282.6
776.535	17313.1
776.87	17479.88
777.205	17468.35
777.539	17422.03
777.874	17511.06
778.209	17562.14
778.543	17564.85
778.878	17553.55
779.212	17630.38
779.547	17604.4
779.881	17592.42
780.215	17574.57
780.55	17690.5
780.884	17624.96
781.218	17570.72
781.552	17666.54
781.886	17647.33
782.22	17561.91
782.554	17621.8
782.888	17504.06
783.222	17478.98
783.556	17541.8
783.889	17410.05
784.223	17394.23
784.557	17430.16
784.89	17455.93
785.224	17478.07
785.557	17429.94
785.891	17383.16
786.224	17412.54
786.558	17481.69
786.891	17270.39
787.224	17379.09
787.557	17368.47
787.891	17295.7
788.224	17319.43
788.557	17350.84
788.89	17232.65
789.223	17257.29
789.556	17161.02
789.888	17176.16
790.221	17151.3
790.554	17041.7
790.887	16997.63
791.219	16982.27
791.552	16935.03
791.884	16951.98
792.217	16918.76
792.549	16886.22
792.882	16831.53
793.214	16780.69
793.546	16904.53
793.879	16729.39
794.211	16594.7
794.543	16734.59
794.875	16597.87
795.207	16711.54
795.539	16589.06
795.871	16670.86
796.203	16544.54
796.535	16464.09
796.867	16489.62
797.198	16400.13
797.53	16381.83
797.862	16230.19
798.193	16352.23
798.525	16248.27
798.856	16287.59
799.188	16159.69
799.519	16048.73
799.85	15969.41
800.182	16016.19
800.513	16039.24
800.844	15900.03
801.175	16003.31
801.506	15928.96
801.837	15854.16
802.168	15829.3
802.499	15825.91
802.83	15666.59
803.161	15689.42
803.491	15749.53
803.822	15727.38
804.153	15616.88
804.483	15547.5
804.814	15410.78
805.145	15473.15
805.475	15413.49
805.805	15434.06
806.136	15418.01
806.466	15454.62
806.796	15281.75
807.126	15182.99
807.457	15222.09
807.787	15283.33
808.117	15182.31
808.447	15078.36
808.777	15095.76
809.107	15111.81
809.436	15025.71
809.766	15096.21
810.096	14903.68
810.426	14902.55
810.755	15008.98
811.085	14955.88
811.414	14859.61
811.744	14812.83
812.073	14797.69
812.403	14775.77
812.732	14757.92
813.061	14717.24
813.39	14641.54
813.719	14588.2
814.049	14670.46
814.378	14504.59
814.707	14602.89
815.036	14558.15
815.365	14531.93
815.693	14346.4
816.022	14423.69
816.351	14409.23
816.68	14255.33
817.008	14294.43
817.337	14195.67
817.665	14189.34
817.994	14130.36
818.322	14151.38
818.651	14171.04
818.979	14084.71
819.307	14123.13
819.636	14077.71
819.964	13989.58
820.292	14134.88
820.62	14051.72
820.948	13982.8
821.276	14070.48
821.604	13959.07
821.932	14002.68
822.259	14061.44
822.587	14067.77
822.915	13927.2
823.243	14042.91
823.57	13919.97
823.898	13987.32
824.225	13955.45
824.553	13954.77
824.88	13919.3
825.207	13936.47
825.535	13939.18
825.862	14035.68
826.189	13917.94
826.516	14042.91
826.843	13990.48
827.17	13955.23
827.497	13987.09
827.824	13947.99
828.151	14111.38
828.478	14019.86
828.805	14082.45
829.131	14017.82
829.458	13988.9
829.785	13933.08
830.111	13927.43
830.438	14098.27
830.764	13992.06
831.09	14054.88
831.417	13945.28
831.743	13977.6
832.069	14019.86
832.395	13918.84
832.722	13992.74
833.048	14004.94
833.374	13975.79
833.7	13858.05
834.026	13949.12
834.351	13844.95
834.677	13933.53
835.003	13993.87
835.329	13872.97
835.654	13927.66
835.98	13779.86
836.306	13803.14
836.631	13768.11
836.956	13840.43
837.282	13820.77
837.607	13750.26
837.932	13667.78
838.258	13652.18
838.583	13618.06
838.908	13636.36
839.233	13621.68
839.558	13655.57
839.883	13608.57
840.208	13564.05
840.533	13560.89
840.858	13525.63
841.182	13562.02
841.507	13560.66
841.832	13422.13
842.156	13440.21
842.481	13362.47
842.805	13434.34
843.13	13325.19
843.454	13345.52
843.778	13300.1
844.103	13228.24
844.427	13152.76
844.751	13228.01
845.075	13211.07
845.399	13117.51
845.723	13021.92
846.047	13088.36
846.371	12924.29
846.695	12942.6
847.019	12881.81
847.343	12842.04
847.666	12771.53
847.99	12685.2
848.313	12734.92
848.637	12503.51
848.96	12545.77
849.284	12618.31
849.607	12396.4
849.931	12455.38
850.254	12350.75
850.577	12269.39
850.9	12284.99
851.223	12234.14
851.546	12094.03
851.869	12033.92
852.192	12106.46
852.515	11984.43
852.838	11947.37
853.161	11896.07
853.483	11864.89
853.806	11786.24
854.129	11819.01
854.451	11786.02
854.774	11763.19
855.096	11666.25
855.419	11699.24
855.741	11679.35
856.063	11620.37
856.385	11529.75
856.708	11521.17
857.03	11484.1
857.352	11436.2
857.674	11439.81
857.996	11386.48
858.318	11386.48
858.64	11301.06
858.961	11247.05
859.283	11264.22
859.605	11271.91
859.926	11249.76
860.248	11205.92
860.57	11061.74
860.891	11177.45
861.212	11096.54
861.534	10977.68
861.855	10921.41
862.176	11017.68
862.498	11019.03
862.819	11047.28
863.14	10972.25
863.461	10943.1
863.782	10902.43
864.103	10845.7
864.424	10854.97
864.745	10908.3
865.065	10771.36
865.386	10810.22
865.707	10784.91
866.027	10809.09
866.348	10783.33
866.668	10770.68
866.989	10668.31
867.309	10608.65
867.63	10669.21
867.95	10673.28
868.27	10581.53
868.59	10614.07
868.91	10636.9
869.23	10533.85
869.55	10566.39
869.87	10538.82
870.19	10543.79
870.51	10573.39
870.83	10540.17
871.15	10426.05
871.469	10512.83
871.789	10510.12
872.109	10405.04
872.428	10402.55
872.748	10431.48
873.067	10358.48
873.386	10360.74
873.706	10344.47
874.025	10326.85
874.344	10281.65
874.663	10282.1
874.982	10308.54
875.301	10299.05
875.62	10285.94
875.939	10276.68
876.258	10227.41
876.577	10178.15
876.896	10234.42
877.214	10108.32
877.533	10132.95
877.852	10097.93
878.17	10135.67
878.489	10106.51
878.807	10062
879.125	10047.08
879.444	9979.06
879.762	10034.2
880.08	10045.5
880.398	9930.02
880.716	9992.39
881.034	9935.22
881.352	9975.9
881.67	9880.98
881.988	9904.71
882.306	9895.22
882.624	9837.82
882.941	9774.55
883.259	9838.27
883.577	9825.62
883.894	9750.14
884.212	9792.62
884.529	9732.74
884.846	9713.76
885.164	9724.38
885.481	9632.18
885.798	9665.17
886.115	9627.88
886.432	9619.3
886.75	9612.29
887.067	9582.01
887.383	9526.87
887.7	9458.62
888.017	9510.37
888.334	9495.68
888.651	9394.89
888.967	9450.49
889.284	9388.57
889.6	9328.46
889.917	9253.65
890.233	9259.53
890.55	9285.29
890.866	9319.19
891.182	9283.03
891.498	9219.08
891.815	9187.89
892.131	9126.2
892.447	9170.72
892.763	9086.2
893.079	9057.28
893.395	8987.67
893.71	8944.06
894.026	8971.4
894.342	8956.04
894.657	8885.3
894.973	8843.95
895.289	8806.66
895.604	8909.26
895.92	8713.33
896.235	8760.56
896.55	8728.02
896.865	8725.53
897.181	8736.83
897.496	8691.64
897.811	8662.48
898.126	8578.42
898.441	8588.59
898.756	8564.63
899.071	8531.87
899.386	8461.36
899.7	8413
900.015	8392.89
900.33	8376.39
900.644	8330.52
900.959	8310.85
901.273	8271.99
901.588	8237.18
901.902	8196.96
902.216	8220.24
902.531	8147.24
902.845	8111.99
903.159	8080.8
903.473	8075.38
903.787	8061.37
904.101	8031.31
904.415	7990.19
904.729	7970.75
905.042	7883.97
905.356	7895.5
905.67	7873.58
905.984	7892.79
906.297	7766.91
906.611	7738.89
906.924	7794.03
907.237	7707.03
907.551	7742.51
907.864	7667.03
908.177	7656.86
908.491	7603.75
908.804	7514.49
909.117	7554.49
909.43	7456.64
909.743	7438.56
910.056	7448.28
910.368	7352.69
910.681	7375.74
910.994	7394.04
911.307	7325.34
911.619	7222.75
911.932	7280.83
912.244	7205.12
912.557	7209.41
912.869	7118.34
913.181	7189.3
913.494	7144.78
913.806	7026.14
914.118	7037.44
914.43	7007.84
914.742	6990.66
915.054	6947.27
915.366	6948.63
915.678	6913.6
915.99	6923.09
916.302	6844.9
916.613	6764.68
916.925	6751.57
917.236	6706.83
917.548	6680.62
917.859	6730.33
918.171	6679.03
918.482	6650.11
918.794	6609.88
919.105	6663.89
919.416	6605.82
919.727	6609.43
920.038	6521.52
920.349	6450.56
920.66	6459.6
920.971	6474.52
921.282	6407.18
921.593	6336.44
921.903	6331.92
922.214	6336.67
922.525	6332.83
922.835	6274.98
923.146	6248.31
923.456	6197.69
923.767	6209.89
924.077	6238.82
924.387	6201.53
924.697	6164.02
925.008	6114.08
925.318	6052.16
925.628	6030.01
925.938	6051.71
926.248	6016.68
926.558	5996.34
926.867	6010.8
927.177	5975.32
927.487	5905.72
927.796	5849.45
928.106	5869.79
928.416	5810.81
928.725	5852.84
929.034	5738.27
929.344	5790.24
929.653	5794.31
929.962	5724.03
930.271	5692.62
930.581	5674.99
930.89	5644.71
931.199	5642.22
931.508	5578.95
931.817	5597.71
932.125	5590.7
932.434	5538.72
932.743	5495.56
933.051	5465.51
933.36	5452.85
933.669	5413.08
933.977	5376.02
934.286	5390.03
934.594	5385.28
934.902	5311.39
935.21	5316.58
935.519	5324.04
935.827	5267.32
936.135	5258.51
936.443	5225.51
936.751	5229.58
937.059	5220.31
937.367	5163.82
937.674	5137.83
937.982	5174.89
938.29	5093.54
938.597	5090.6
938.905	5055.8
939.213	5039.98
939.52	5034.56
939.827	5019.64
940.135	4978.06
940.442	5011.28
940.749	4965.86
941.056	4960.43
941.363	4912.75
941.67	4900.78
941.977	4851.74
942.284	4835.92
942.591	4844.51
942.898	4776.26
943.205	4780.55
943.511	4722.47
943.818	4720.21
944.125	4701.23
944.431	4698.29
944.738	4664.17
945.044	4679.09
945.35	4633.44
945.657	4620.78
945.963	4562.93
946.269	4556.38
946.575	4603.83
946.881	4541.46
947.187	4552.08
947.493	4534.23
947.799	4512.99
948.105	4459.2
948.41	4435.25
948.716	4458.53
949.022	4383.73
949.327	4397.96
949.633	4327.23
949.938	4367.23
950.244	4337.17
950.549	4305.54
950.854	4272.32
951.16	4255.14
951.465	4252.66
951.77	4221.92
952.075	4212.66
952.38	4205.2
952.685	4215.6
952.99	4109.61
953.294	4135.37
953.599	4128.59
953.904	4102.38
954.209	4087.69
954.513	4047.46
954.818	4025.54
955.122	4039.78
955.426	4006.56
955.731	4027.58
956.035	4010.63
956.339	3948.71
956.643	3988.03
956.948	3872.78
957.252	3928.6
957.556	3907.35
957.86	3915.72
958.163	3882.5
958.467	3889.95
958.771	3865.32
959.075	3866.68
959.378	3852.22
959.682	3802.05
959.985	3752.1
960.289	3790.97
960.592	3735.16
960.896	3701.03
961.199	3686.57
961.502	3697.19
961.805	3713.46
962.108	3658.1
962.411	3633.24
962.714	3644.54
963.017	3616.74
963.32	3641.83
963.623	3572.45
963.926	3571.32
964.228	3547.36
964.531	3538.1
964.833	3537.2
965.136	3476.41
965.438	3456.52
965.741	3479.8
966.043	3479.57
966.345	3469.4
966.648	3483.64
966.95	3423.98
967.252	3408.84
967.554	3399.8
967.856	3370.87
968.158	3364.54
968.46	3351.66
968.761	3311.21
969.063	3309.18
969.365	3294.26
969.666	3290.2
969.968	3249.75
970.269	3238.67
970.571	3254.49
970.872	3264.66
971.174	3225.79
971.475	3201.61
971.776	3211.33
972.077	3165.91
972.378	3181.05
972.679	3174.72
972.98	3162.29
973.281	3131.1
973.582	3120.93
973.883	3042.29
974.183	3057.43
974.484	3078.68
974.785	3071.22
975.085	3038.45
975.386	3013.82
975.686	3017.21
975.986	3003.88
976.287	3034.38
976.587	2961.17
976.887	2997.55
977.187	2943.76
977.487	2932.01
977.787	2870.32
978.087	2907.61
978.387	2908.51
978.687	2867.16
978.987	2878.91
979.286	2861.51
979.586	2846.59
979.885	2818.8
980.185	2824.45
980.484	2789.87
980.784	2798.68
981.083	2821.06
981.382	2758.91
981.682	2786.03
981.981	2742.41
982.28	2730.66
982.579	2745.58
982.878	2726.14
983.177	2690.21
983.475	2697.44
983.774	2663.32
984.073	2647.95
984.372	2638.01
984.67	2616.54
984.969	2620.16
985.267	2597.56
985.566	2622.64
985.864	2577.22
986.162	2604.56
986.461	2591.23
986.759	2560.5
987.057	2544.45
987.355	2502.87
987.653	2526.83
987.951	2487.96
988.249	2491.35
988.547	2522.08
988.844	2470.78
989.142	2464.91
989.44	2424.46
989.737	2451.35
990.035	2406.15
990.332	2427.62
990.63	2412.03
990.927	2426.49
991.224	2370.9
991.521	2377.68
991.819	2385.81
992.116	2341.07
992.413	2331.8
992.71	2312.14
993.006	2315.31
993.303	2310.11
993.6	2284.35
993.897	2315.31
994.193	2319.37
994.49	2291.13
994.787	2252.48
995.083	2254.74
995.379	2265.36
995.676	2238.47
995.972	2220.62
996.268	2178.59
996.565	2150.56
996.861	2202.99
997.157	2155.54
997.453	2160.96
997.749	2152.6
998.044	2143.79
998.34	2121.19
998.636	2116.67
998.932	2130.9
999.227	2101.3
999.523	2109.44
999.818	2067.86
1000.114	2083.9
1000.409	2071.92
1000.704	2046.84
1001	2006.84
1001.295	2006.84
1001.59	2028.08
1001.885	2024.92
1002.18	1972.49
1002.475	1996.22
1002.77	1958.93
1003.065	1936.11
1003.359	1943.56
1003.654	1959.38
1003.949	1943.11
1004.243	1962.77
1004.538	1898.37
1004.832	1886.62
1005.127	1904.02
1005.421	1863.79
1005.715	1873.96
1006.009	1861.31
1006.304	1814.08
1006.598	1814.98
1006.892	1839.16
1007.186	1831.25
1007.48	1816.79
1007.773	1794.87
1008.067	1777.92
1008.361	1781.76
1008.655	1735.66
1008.948	1757.13
1009.242	1736.56
1009.535	1734.08
1009.829	1714.19
1010.122	1717.58
1010.415	1700.18
1010.708	1701.54
1011.001	1704.02
1011.295	1674.65
1011.588	1668.32
1011.881	1645.49
1012.173	1637.13
1012.466	1641.88
1012.759	1641.65
1013.052	1643.23
1013.344	1635.78
1013.637	1599.62
1013.93	1601.88
1014.222	1607.3
1014.514	1566.17
1014.807	1551.94
1015.099	1538.6
1015.391	1555.33
1015.683	1515.55
1015.976	1516.23
1016.268	1498.83
1016.56	1500.19
1016.851	1511.49
1017.143	1500.19
1017.435	1512.84
1017.727	1462.9
1018.018	1480.07
1018.31	1474.2
1018.602	1455.89
1018.893	1477.36
1019.185	1442.11
1019.476	1421.32
1019.767	1401.43
1020.058	1403.92
1020.35	1387.42
1020.641	1396.23
1020.932	1370.92
1021.223	1380.64
1021.514	1358.72
1021.804	1353.3
1022.095	1336.35
1022.386	1337.7
1022.677	1320.76
1022.967	1328.44
1023.258	1302
1023.548	1323.92
1023.839	1277.37
1024.129	1266.75
1024.419	1262.23
1024.709	1255.9
1025	1264.49
1025.29	1234.43
1025.58	1274.66
1025.87	1212.51
1026.16	1193.75
1026.449	1211.61
1026.739	1212.74
1027.029	1183.58
1027.319	1189.23
1027.608	1201.44
1027.898	1201.44
1028.187	1181.1
1028.477	1157.6
1028.766	1171.83
1029.055	1154.43
1029.344	1157.37
1029.634	1154.88
1029.923	1134.09
1030.212	1130.03
1030.501	1116.47
1030.79	1120.31
1031.078	1087.32
1031.367	1097.03
1031.656	1113.08
1031.945	1087.77
1032.233	1057.71
1032.522	1071.72
1032.81	1049.8
1033.099	1055.68
1033.387	1033.98
1033.675	1025.85
1033.963	1022.91
1034.251	1033.08
1034.54	1017.94
1034.828	1008.45
1035.116	991.5
1035.403	1017.49
1035.691	1012.29
1035.979	977.04
1036.267	961.9
1036.554	968
1036.842	959.18
1037.129	952.18
1037.417	934.55
1037.704	967.77
1037.992	928.45
1038.279	941.56
1038.566	924.38
1038.853	924.38
1039.14	924.38
