Data from hue_180_FLMS001491_00005.txt Node
Date: Tue Feb 07 16:46:29 GMT 2017
User: dcchb
Spectrometer: FLMS00149
Trigger mode: 0
Integration Time (sec): 2.000000E-2
Scans to average: 10
Electric dark correction enabled: true
Nonlinearity correction enabled: false
Boxcar width: 0
XAxis mode: Wavelengths
Number of Pixels in Spectrum: 2048
>>>>>Begin Spectral Data<<<<<
341.393	-19.52
341.776	-19.52
342.16	-19.52
342.543	-36.47
342.927	-73.08
343.31	-68.33
343.693	-59.97
344.077	-70.37
344.46	-64.94
344.843	-56.58
345.226	-37.15
345.61	-27.65
345.993	-10.48
346.376	13.47
346.759	-0.31
347.142	5.79
347.525	65.68
347.908	48.73
348.291	70.2
348.674	91.21
349.057	100.7
349.44	122.17
349.823	138.22
350.206	149.52
350.588	184.77
350.971	214.37
351.354	227.93
351.737	228.16
352.119	238.55
352.502	241.72
352.884	266.8
353.267	295.27
353.65	275.39
354.032	296.63
354.414	306.8
354.797	304.09
355.179	328.72
355.562	330.75
355.944	316.52
356.326	343.64
356.709	323.3
357.091	335.5
357.473	317.2
357.855	356.52
358.238	336.18
358.62	352.45
359.002	331.88
359.384	340.02
359.766	327.82
360.148	344.31
360.53	325.56
360.912	343.18
361.294	338.66
361.676	331.88
362.057	331.43
362.439	316.74
362.821	314.26
363.203	342.28
363.584	348.83
363.966	330.3
364.348	311.55
364.729	315.39
365.111	321.49
365.493	312.22
365.874	319.23
366.256	318.32
366.637	293.92
367.019	314.94
367.4	313.81
367.781	315.16
368.163	305.67
368.544	304.77
368.925	316.74
369.306	329.4
369.688	326.46
370.069	322.62
370.45	304.99
370.831	315.61
371.212	323.52
371.593	331.66
371.974	320.81
372.355	313.35
372.736	319.91
373.117	304.99
373.498	302.96
373.879	325.56
374.26	327.36
374.641	295.5
375.021	316.07
375.402	304.77
375.783	311.77
376.163	333.47
376.544	335.5
376.925	327.59
377.305	316.52
377.686	331.88
378.066	322.62
378.447	333.92
378.827	353.8
379.208	327.14
379.588	323.97
379.968	337.99
380.349	340.92
380.729	340.47
381.109	335.73
381.489	341.6
381.87	342.51
382.25	336.4
382.63	349.51
383.01	344.54
383.39	344.76
383.77	335.73
384.15	356.52
384.53	344.09
384.91	339.79
385.29	346.57
385.67	362.17
386.049	345.67
386.429	361.49
386.809	362.62
387.189	369.85
387.568	353.35
387.948	344.76
388.328	349.28
388.707	359
389.087	372.11
389.466	348.38
389.846	354.48
390.225	370.3
390.605	359.45
390.984	359
391.363	376.63
391.743	378.44
392.122	391.09
392.501	375.27
392.881	367.14
393.26	387.7
393.639	366.46
394.018	392.22
394.397	376.85
394.776	386.8
395.155	391.77
395.534	382.96
395.913	390.87
396.292	379.34
396.671	391.09
397.05	393.35
397.429	381.6
397.808	389.06
398.186	380.92
398.565	405.78
398.944	419.11
399.323	412.11
399.701	396.74
400.08	404.42
400.458	431.09
400.837	424.31
401.215	422.05
401.594	406.91
401.972	434.48
402.351	427.25
402.729	418.89
403.107	431.54
403.486	444.65
403.864	431.77
404.242	435.61
404.62	444.42
404.999	453.24
405.377	445.78
405.755	441.49
406.133	464.76
406.511	462.95
406.889	466.57
407.267	473.35
407.645	494.82
408.023	481.71
408.401	504.53
408.779	493.91
409.156	515.16
409.534	489.39
409.912	519.9
410.29	524.42
410.667	529.84
411.045	522.61
411.422	531.2
411.8	541.6
412.178	562.39
412.555	567.13
412.933	577.75
413.31	574.59
413.687	610.29
414.065	607.58
414.442	586.34
414.819	620.46
415.197	611.65
415.574	634.47
415.951	636.96
416.328	639.22
416.705	674.7
417.082	649.39
417.46	659.78
417.837	683.06
418.214	674.93
418.591	673.57
418.967	682.16
419.344	704.98
419.721	706.34
420.098	727.58
420.475	730.29
420.852	750.4
421.228	766.9
421.605	770.97
421.982	792.89
422.358	808.93
422.735	814.36
423.111	810.97
423.488	829.27
423.864	844.86
424.241	853.9
424.617	871.3
424.994	874.02
425.37	892.32
425.746	877.41
426.123	903.17
426.499	930.29
426.875	945.65
427.251	949.49
427.627	982.71
428.003	965.99
428.379	979.1
428.756	1001.92
429.132	1013.45
429.507	1043.5
429.883	1035.37
430.259	1059.77
430.635	1067.91
431.011	1074.24
431.387	1068.36
431.763	1114.91
432.138	1083.05
432.514	1153.33
432.89	1114.46
433.265	1154.01
433.641	1197.62
434.016	1224.52
434.392	1216.83
434.767	1268.13
435.143	1250.96
435.518	1266.1
435.894	1309.26
436.269	1333.67
436.644	1363.72
437.02	1353.33
437.395	1387
437.77	1390.84
438.145	1437.62
438.52	1428.8
438.895	1473.32
439.271	1489.59
439.646	1505.86
440.021	1514.9
440.395	1538.63
440.77	1548.8
441.145	1565.98
441.52	1571.4
441.895	1622.47
442.27	1596.48
442.645	1629.7
443.019	1660.89
443.394	1644.39
443.769	1676.26
444.143	1685.29
444.518	1738.63
444.892	1691.17
445.267	1743.82
445.641	1749.93
446.016	1770.26
446.39	1793.99
446.764	1826.08
447.139	1773.2
447.513	1833.54
447.887	1804.84
448.262	1849.81
448.636	1885.74
449.01	1930.71
449.384	1906.76
449.758	1890.71
450.132	1961.9
450.506	1953.54
450.88	1979.98
451.254	1957.83
451.628	2017.94
452.002	2019.75
452.376	2046.42
452.75	2079.18
453.123	2085.28
453.497	2139.75
453.871	2121.89
454.244	2167.54
454.618	2177.94
454.992	2210.25
455.365	2212.96
455.739	2268.1
456.112	2293.64
456.486	2330.02
456.859	2362.56
457.232	2419.96
457.606	2403.02
457.979	2454.54
458.352	2495.22
458.725	2489.12
459.099	2526.18
459.472	2563.46
459.845	2547.87
460.218	2614.99
460.591	2693.18
460.964	2707.87
461.337	2734.31
461.71	2769.33
462.083	2806.85
462.456	2826.06
462.829	2840.29
463.201	2900.4
463.574	2896.79
463.947	2952.83
464.32	3042.77
464.692	3043
465.065	3080.96
465.438	3168.42
465.81	3146.27
466.183	3198.25
466.555	3273.73
466.928	3304.91
467.3	3299.49
467.672	3357.57
468.045	3484.12
468.417	3495.64
468.789	3520.73
469.161	3573.15
469.534	3682.98
469.906	3725.24
470.278	3706.48
470.65	3837.55
471.022	3867.38
471.394	3932.02
471.766	3962.97
472.138	4072.58
472.51	4113.25
472.882	4183.08
473.253	4211.56
473.625	4334.26
473.997	4460.59
474.369	4465.56
474.74	4568.83
475.112	4605.9
475.484	4695.39
475.855	4765.67
476.227	4849.73
476.598	5023.06
476.97	5064.64
477.341	5188.03
477.713	5255.6
478.084	5256.95
478.455	5496.27
478.827	5547.34
479.198	5670.5
479.569	5719.99
479.94	5889.7
480.311	5950.04
480.682	6132.18
481.053	6253.76
481.424	6346.19
481.795	6481.55
482.166	6527.2
482.537	6639.29
482.908	6829.57
483.279	6864.59
483.65	7056.23
484.021	7231.59
484.391	7295.32
484.762	7397.69
485.133	7483.33
485.503	7533.5
485.874	7771.69
486.244	7838.58
486.615	8039.48
486.985	8118.8
487.356	8305.23
487.726	8382.97
488.097	8580.71
488.467	8614.15
488.837	8836.29
489.207	8919.68
489.578	9108.15
489.948	9111.99
490.318	9362.83
490.688	9293.91
491.058	9508.82
491.428	9633.33
491.798	9750.85
492.168	9930.28
492.538	9995.58
492.908	10113.32
493.278	10250.49
493.648	10260.44
494.017	10504.27
494.387	10527.1
494.757	10609.13
495.126	10790.59
495.496	10764.6
495.866	10862.45
496.235	10960.98
496.605	11037.59
496.974	11069.45
497.344	11218.6
497.713	11338.37
498.082	11329.33
498.452	11408.65
498.821	11494.3
499.19	11485.26
499.559	11635.54
499.928	11703.11
500.298	11700.62
500.667	11878.25
501.036	11818.36
501.405	11972.26
501.774	12002.31
502.143	12065.59
502.512	12141.06
502.88	12106.94
503.249	12224.45
503.618	12213.15
503.987	12292.25
504.356	12338.57
504.724	12454.73
505.093	12367.05
505.462	12395.52
505.83	12534.05
506.199	12581.28
506.567	12740.6
506.936	12775.17
507.304	12838
507.672	12812.69
508.041	12777.88
508.409	12906.02
508.777	12971.78
509.145	13056.75
509.514	12995.28
509.882	13066.46
510.25	13063.53
510.618	13091.32
510.986	13133.81
511.354	13263.97
511.722	13180.81
512.09	13397.08
512.458	13276.63
512.826	13342.62
513.193	13396.85
513.561	13372.67
513.929	13427.13
514.297	13460.8
514.664	13599.33
515.032	13443.86
515.4	13569.28
515.767	13552.33
516.135	13571.54
516.502	13541.03
516.869	13761.36
517.237	13679.56
517.604	13592.55
517.972	13695.15
518.339	13748.71
518.706	13738.09
519.073	13793
519.44	13758.42
519.808	13782.6
520.175	13675.71
520.542	13886.1
520.909	13860.34
521.276	13805.88
521.643	13754.36
522.009	13850.4
522.376	13908.48
522.743	13883.62
523.11	13911.41
523.477	14004.97
523.843	13957.06
524.21	14064.86
524.577	14016.95
524.943	14134.46
525.31	14110.28
525.676	14107.11
526.043	14228.02
526.409	14066.89
526.776	14174.91
527.142	14050.85
527.508	14072.99
527.874	14195.47
528.241	14209.03
528.607	14098.75
528.973	14188.92
529.339	14078.19
529.705	14148.92
530.071	14281.57
530.437	14070.51
530.803	14136.04
531.169	14138.75
531.535	14031.86
531.901	14005.65
532.267	14028.25
532.632	14014.24
532.998	13962.26
533.364	14020.56
533.73	13937.4
534.095	13965.2
534.461	13943.96
534.826	13816.5
535.192	13868.48
535.557	13920.68
535.923	13708.71
536.288	13724.75
536.653	13704.87
537.019	13600.69
537.384	13583.96
537.749	13560.69
538.114	13504.64
538.479	13348.72
538.845	13528.37
539.21	13367.25
539.575	13343.97
539.94	13270.3
540.305	13331.32
540.67	13099.23
541.034	13160.25
541.399	13087.93
541.764	13115.05
542.129	12986.92
542.494	12971.55
542.858	12920.93
543.223	12804.55
543.587	12787.6
543.952	12747.83
544.316	12720.48
544.681	12661.96
545.045	12634.16
545.41	12618.11
545.774	12489.98
546.138	12486.14
546.503	12432.81
546.867	12297.22
547.231	12348.07
547.595	12279.14
547.959	12221.51
548.324	12159.82
548.688	11985.36
549.052	12038.69
549.416	12035.98
549.779	11963.44
550.143	11937
550.507	11926.16
550.871	11840.28
551.235	11811.81
551.599	11815.2
551.962	11791.7
552.326	11693.62
552.689	11702.66
553.053	11560.06
553.417	11493.62
553.78	11643.68
554.143	11417.24
554.507	11468.09
554.87	11465.6
555.234	11471.48
555.597	11311.26
555.96	11292.05
556.323	11367.53
556.686	11255.21
557.05	11272.16
557.413	11247.08
557.776	11185.38
558.139	11228.09
558.502	11155.33
558.865	11103.58
559.228	11097.48
559.59	11069.23
559.953	11029
560.316	11133.86
560.679	11088.89
561.041	11007.76
561.404	11090.92
561.767	11046.63
562.129	10996.24
562.492	11059.29
562.854	11088.89
563.217	10927.09
563.579	10913.07
563.941	11030.59
564.304	10972.28
564.666	10977.71
565.028	10990.81
565.39	10922.34
565.753	10919.18
566.115	10931.38
566.477	10908.1
566.839	10906.75
567.201	10978.16
567.563	10917.82
567.925	10991.72
568.287	10990.13
568.648	10944.03
569.01	10989
569.372	10981.77
569.734	10932.28
570.095	11085.05
570.457	10970.47
570.819	10941.77
571.18	10986.75
571.542	10950.81
571.903	10929.35
572.265	10979.51
572.626	10966.86
572.987	10964.15
573.349	10995.11
573.71	10916.92
574.071	11007.76
574.432	10979.74
574.794	11074.65
575.155	11015.9
575.516	11039.85
575.877	11028.33
576.238	10937.71
576.599	11008.89
576.96	11022
577.32	10939.06
577.681	10980.87
578.042	11011.83
578.403	10960.08
578.763	10957.37
579.124	10966.18
579.485	10992.39
579.845	11025.39
580.206	10999.4
580.566	10980.64
580.927	10923.47
581.287	10883.47
581.648	10956.69
582.008	10971.15
582.368	10961.89
582.728	10931.61
583.089	10937.93
583.449	10942.9
583.809	10917.37
584.169	10911.27
584.529	10878.05
584.889	10930.7
585.249	10912.17
585.609	10783.36
585.969	10885.73
586.329	10828.33
586.688	10825.39
587.048	10791.5
587.408	10812.51
587.768	10777.71
588.127	10717.15
588.487	10777.94
588.846	10789.91
589.206	10761.44
589.565	10809.12
589.925	10713.53
590.284	10702.23
590.643	10767.32
591.003	10774.1
591.362	10763.93
591.721	10715.34
592.08	10676.7
592.44	10697.71
592.799	10723.02
593.158	10648.67
593.517	10613.2
593.876	10627.21
594.235	10664.72
594.593	10556.02
594.952	10637.6
595.311	10597.15
595.67	10598.73
596.029	10660.2
596.387	10572.97
596.746	10573.65
597.104	10600.31
597.463	10515.8
597.822	10583.14
598.18	10548.79
598.538	10552.18
598.897	10570.03
599.255	10508.79
599.613	10645.06
599.972	10478.06
600.33	10588.34
600.688	10533.42
601.046	10513.54
601.404	10551.05
601.762	10531.62
602.12	10527.32
602.478	10551.73
602.836	10565.06
603.194	10522.8
603.552	10500.66
603.91	10507.21
604.268	10503.37
604.625	10471.28
604.983	10503.82
605.341	10477.15
605.698	10492.29
606.056	10527.55
606.413	10483.03
606.771	10532.52
607.128	10551.28
607.485	10459.53
607.843	10461.34
608.2	10481.45
608.557	10539.75
608.914	10481.22
609.272	10497.94
609.629	10536.14
609.986	10523.25
610.343	10493.88
610.7	10563.25
611.057	10559.64
611.414	10562.35
611.771	10579.98
612.127	10601.67
612.484	10613.42
612.841	10603.7
613.198	10551.5
613.554	10565.74
613.911	10650.71
614.267	10627.88
614.624	10630.6
614.98	10597.38
615.337	10591.73
615.693	10674.66
616.05	10633.53
616.406	10674.66
616.762	10617.04
617.118	10678.28
617.475	10632.4
617.831	10663.14
618.187	10672.18
618.543	10683.48
618.899	10676.02
619.255	10736.13
619.611	10678.96
619.967	10716.92
620.323	10709.69
620.678	10685.51
621.034	10683.93
621.39	10679.18
621.746	10676.24
622.101	10851.61
622.457	10713.08
622.812	10681.22
623.168	10737.26
623.523	10680.54
623.879	10761.67
624.234	10767.77
624.589	10720.76
624.945	10723.7
625.3	10730.25
625.655	10738.62
626.01	10721.22
626.365	10767.54
626.72	10728.9
627.075	10675.57
627.43	10691.61
627.785	10673.31
628.14	10731.61
628.495	10734.32
628.85	10652.29
629.205	10648.9
629.559	10675.57
629.914	10607.55
630.269	10627.43
630.623	10607.09
630.978	10583.14
631.332	10611.61
631.687	10625.62
632.041	10521.9
632.396	10604.38
632.75	10532.52
633.104	10558.73
633.459	10514.22
633.813	10436.03
634.167	10481.22
634.521	10435.57
634.875	10545.17
635.229	10501.79
635.583	10429.92
635.937	10497.72
636.291	10403.48
636.645	10435.57
636.999	10386.08
637.352	10397.83
637.706	10385.18
638.06	10379.53
638.413	10324.84
638.767	10328.68
639.121	10331.85
639.474	10377.5
639.828	10341.11
640.181	10314.22
640.534	10396.93
640.888	10237.61
641.241	10217.27
641.594	10294.11
641.947	10249.36
642.301	10215.24
642.654	10257.95
643.007	10195.58
643.36	10276.03
643.713	10250.95
644.066	10234.9
644.419	10158.97
644.771	10137.05
645.124	10001.69
645.477	9982.25
645.83	9959.65
646.182	9900.9
646.535	9859.09
646.888	9959.65
647.24	9815.93
647.593	9955.13
647.945	9934.12
648.298	9822.93
648.65	9811.63
649.002	9765.31
649.355	9864.74
649.707	9909.26
650.059	9944.29
650.411	9997.84
650.763	10043.49
651.115	10159.87
651.467	10017.5
651.819	10149.25
652.171	10100.44
652.523	10077.39
652.875	10066.54
653.227	10057.5
653.578	10132.76
653.93	10063.83
654.282	10087.56
654.633	10051.63
654.985	10100.89
655.337	10045.98
655.688	10099.31
656.039	10098.41
656.391	10004.85
656.742	10041.01
657.094	10104.73
657.445	10166.88
657.796	10115.36
658.147	10159.87
658.498	10093.66
658.849	10144.73
659.2	10088.46
659.551	10167.33
659.902	10218.18
660.253	10174.79
660.604	10100.89
660.955	10058.41
661.306	10220.44
661.656	10172.3
662.007	10153.09
662.358	10136.82
662.708	10184.05
663.059	10170.5
663.409	10109.71
663.76	10145.41
664.11	10179.08
664.461	10227.89
664.811	10222.92
665.161	10208.23
665.511	10211.4
665.862	10195.35
666.212	10232.41
666.562	10241
666.912	10174.11
667.262	10260.44
667.612	10160.78
667.962	10210.27
668.312	10193.09
668.662	10267.44
669.011	10219.76
669.361	10161
669.711	10253.43
670.06	10164.17
670.41	10113.1
670.76	10197.39
671.109	10228.8
671.459	10201.91
671.808	10169.59
672.157	10208.69
672.507	10091.18
672.856	10097.5
673.205	10077.62
673.554	10138.86
673.904	10146.32
674.253	10151.29
674.602	10146.09
674.951	10022.7
675.3	9980.9
675.649	10062.93
675.998	10096.82
676.346	10084.62
676.695	10029.03
677.044	10085.53
677.393	10035.36
677.741	10050.27
678.09	10034
678.438	9992.87
678.787	10044.85
679.135	9926.66
679.484	9904.51
679.832	9879.66
680.181	9862.25
680.529	9965.98
680.877	9815.7
681.225	9838.07
681.573	9900.22
681.922	9777.29
682.27	9768.25
682.618	9799.66
682.966	9808.47
683.314	9794.46
683.661	9773.67
684.009	9780.68
684.357	9698.64
684.705	9650.73
685.053	9690.51
685.4	9610.06
685.748	9563.96
686.095	9621.81
686.443	9599.66
686.79	9500
687.138	9537.07
687.485	9567.35
687.832	9537.52
688.18	9508.37
688.527	9415.94
688.874	9383.4
689.221	9418.65
689.568	9365.09
689.915	9355.38
690.262	9223.4
690.609	9309.05
690.956	9254.36
691.303	9195.83
691.65	9166.91
691.997	9149.05
692.344	9105.21
692.69	9081.48
693.037	9083.07
693.383	9093.91
693.73	9020.24
694.077	8997.64
694.423	8956.74
694.769	8952.67
695.116	8865.44
695.462	8918.55
695.808	8745.22
696.155	8836.29
696.501	8749.52
696.847	8746.58
697.193	8676.98
697.539	8640.14
697.885	8612.57
698.231	8606.69
698.577	8654.38
698.923	8517.21
699.269	8498
699.614	8483.31
699.96	8428.85
700.306	8422.29
700.651	8368.51
700.997	8378
701.342	8318.57
701.688	8294.84
702.033	8296.87
702.379	8273.82
702.724	8169.87
703.069	8247.61
703.415	8087.39
703.76	8144.56
704.105	8124.45
704.45	8067.5
704.795	8001.74
705.14	8064.79
705.485	8009.87
705.83	7955.64
706.175	7952.02
706.52	7934.62
706.865	7913.15
707.209	7910.89
707.554	7866.6
707.899	7871.12
708.243	7824.79
708.588	7791.12
708.932	7721.07
709.277	7694.63
709.621	7715.64
709.966	7632.26
710.31	7702.09
710.654	7602.88
710.998	7602.65
711.342	7634.06
711.687	7604.01
712.031	7563.56
712.375	7551.81
712.719	7506.16
713.063	7495.99
713.407	7544.58
713.75	7456.67
714.094	7492.37
714.438	7471.81
714.782	7465.93
715.125	7423.22
715.469	7391.36
715.812	7391.13
716.156	7337.12
716.499	7338.93
716.843	7327.18
717.186	7297.35
717.53	7329.21
717.873	7375.31
718.216	7343.22
718.559	7262.32
718.902	7246.5
719.246	7295.77
719.589	7252.38
719.932	7264.36
720.275	7277.24
720.617	7220.74
720.96	7210.57
721.303	7210.8
721.646	7233.62
721.989	7167.18
722.331	7180.52
722.674	7175.32
723.016	7176.68
723.359	7154.76
723.701	7205.38
724.044	7136
724.386	7124.47
724.729	7220.52
725.071	7129.45
725.413	7169.67
725.755	7139.39
726.097	7136.9
726.439	7084.47
726.782	7088.99
727.124	7106.62
727.465	7050.35
727.807	7107.52
728.149	7106.17
728.491	7110.69
728.833	7148.65
729.175	7080.63
729.516	7073.63
729.858	7087.19
730.199	7080.41
730.541	7112.5
730.882	7059.16
731.224	7116.79
731.565	7053.74
731.906	7062.78
732.248	7076.11
732.589	7039.5
732.93	7045.61
733.271	7112.72
733.612	7062.55
733.953	7110.91
734.294	7103.68
734.635	7062.33
734.976	7130.35
735.317	7081.76
735.658	7081.76
735.999	7108.2
736.339	7125.6
736.68	7111.82
737.021	7128.77
737.361	7121.99
737.702	7134.87
738.042	7150.01
738.383	7125.15
738.723	7236.56
739.063	7129.22
739.404	7206.05
739.744	7152.72
740.084	7213.06
740.424	7230.91
740.764	7224.13
741.104	7238.59
741.444	7184.59
741.784	7260.74
742.124	7277.24
742.464	7324.92
742.804	7309.33
743.143	7328.99
743.483	7333.96
743.823	7393.62
744.162	7401.53
744.502	7395.65
744.841	7427.97
745.181	7513.84
745.52	7537.34
745.86	7572.6
746.199	7597.91
746.538	7703.67
746.877	7690.11
747.216	7689.43
747.556	7777.56
747.895	7873.61
748.234	7880.39
748.573	7912.7
748.911	7975.07
749.25	8042.19
749.589	8156.31
749.928	8198.8
750.267	8321.28
750.605	8392.69
750.944	8440.82
751.283	8491.22
751.621	8595.62
751.96	8642.63
752.298	8796.97
752.636	8950.87
752.975	8974.37
753.313	9076.74
753.651	9229.5
753.989	9290.97
754.327	9453.23
754.666	9558.76
755.004	9723.28
755.342	9904.74
755.679	10031.97
756.017	10127.56
756.355	10384.05
756.693	10446.19
757.031	10617.49
757.368	10738.62
757.706	10920.53
758.044	11125.5
758.381	11329.56
758.719	11445.49
759.056	11647.97
759.394	11876.44
759.731	11992.14
760.068	12223.77
760.405	12347.16
760.743	12503.99
761.08	12707.15
761.417	12935.39
761.754	13082.51
762.091	13305.55
762.428	13483.18
762.765	13613.12
763.102	13904.18
763.438	14011.07
763.775	14219.43
764.112	14437.28
764.449	14769.24
764.785	14837.72
765.122	14945.28
765.458	15124.04
765.795	15375.1
766.131	15504.82
766.467	15720.18
766.804	15858.93
767.14	16055.31
767.476	16215.53
767.812	16260.96
768.148	16503.66
768.485	16742.3
768.821	16753.6
769.157	16949.07
769.492	17138.9
769.828	17317.43
770.164	17318.78
770.5	17454.15
770.836	17698.88
771.171	17776.85
771.507	17916.51
771.842	17928.26
772.178	18047.35
772.513	18213.22
772.849	18286.89
773.184	18339.77
773.519	18478.07
773.855	18542.25
774.19	18624.28
774.525	18839.65
774.86	18851.4
775.195	18903.15
775.53	18995.12
775.865	18944.73
776.2	19028.57
776.535	19060.88
776.87	19163.03
777.205	19152.18
777.539	19238.28
777.874	19389.91
778.209	19333.19
778.543	19344.72
778.878	19363.47
779.212	19487.99
779.547	19458.61
779.881	19540.87
780.215	19484.83
780.55	19627.87
780.884	19579.97
781.218	19694.76
781.552	19622.22
781.886	19689.34
782.22	19652.73
782.554	19719.17
782.888	19555.11
783.222	19626.29
783.556	19659.29
783.889	19652.96
784.223	19438.5
784.557	19628.55
784.89	19636.69
785.224	19567.76
785.557	19544.03
785.891	19505.17
786.224	19656.57
786.558	19677.82
786.891	19442.12
787.224	19492.06
787.557	19482.34
787.891	19505.17
788.224	19517.37
788.557	19550.36
788.89	19548.1
789.223	19493.64
789.556	19414.09
789.888	19343.36
790.221	19445.28
790.554	19232.18
790.887	19305.4
791.219	19164.84
791.552	19309.46
791.884	19199.86
792.217	19154.67
792.549	19177.72
792.882	19072.41
793.214	18973.43
793.546	19097.94
793.879	18956.7
794.211	18875.13
794.543	19016.36
794.875	18855.69
795.207	19011.17
795.539	18930.49
795.871	18891.85
796.203	18726.65
796.535	18681.68
796.867	18617.96
797.198	18638.07
797.53	18728.91
797.862	18518.52
798.193	18553.55
798.525	18479.66
798.856	18457.28
799.188	18339.55
799.519	18267.68
799.85	18153.34
800.182	18209.15
800.513	18253.9
800.844	18021.81
801.175	18172.54
801.506	18153.34
801.837	18116.28
802.168	18056.62
802.499	18055.03
802.83	18032.44
803.161	17916.73
803.491	18001.48
803.822	17936.39
804.153	17848.94
804.483	17690.75
804.814	17745.21
805.145	17669.51
805.475	17605.33
805.805	17671.99
806.136	17626.34
806.466	17700.01
806.796	17589.06
807.126	17394.49
807.457	17379.57
807.787	17417.99
808.117	17232.46
808.447	17358.55
808.777	17248.05
809.107	17301.16
809.436	17198.79
809.766	17260.25
810.096	17084.89
810.426	17075.4
810.755	17142.74
811.085	17107.49
811.414	17000.6
811.744	16861.62
812.073	16963.99
812.403	16851.9
812.732	16835.63
813.061	16885.35
813.39	16740.04
813.719	16742.75
814.049	16826.82
814.378	16670.21
814.707	16636.31
815.036	16706.14
815.365	16599.48
815.693	16417.34
816.022	16464.57
816.351	16472.7
816.68	16415.98
817.008	16392.25
817.337	16291.24
817.665	16239.04
817.994	16346.15
818.322	16300.96
818.651	16231.58
818.979	16174.86
819.307	16297.57
819.636	16169.43
819.964	16082.43
820.292	16197.91
820.62	16117.68
820.948	16157
821.276	16130.34
821.604	16097.35
821.932	16045.82
822.259	16138.25
822.587	16092.37
822.915	16050.34
823.243	16146.61
823.57	16087.4
823.898	16153.61
824.225	15939.84
824.553	15976.67
824.88	15969.44
825.207	16087.63
825.535	16039.49
825.862	16164.24
826.189	16090.79
826.516	16107.74
826.843	16106.84
827.17	16090.11
827.497	16222.54
827.824	16074.75
828.151	16116.55
828.478	16104.58
828.805	16097.12
829.131	16105.71
829.458	16049.89
829.785	15998.59
830.111	16052.37
830.438	16159.26
830.764	16077.23
831.09	16146.61
831.417	16087.4
831.743	16183.44
832.069	16064.35
832.395	16010.79
832.722	16051.92
833.048	15956.11
833.374	16023.45
833.7	15971.02
834.026	15966.05
834.351	15959.5
834.677	15971.92
835.003	16027.97
835.329	15969.44
835.654	15926.73
835.98	15930.12
836.306	15943.9
836.631	15890.12
836.956	15878.82
837.282	15876.11
837.607	15715.66
837.932	15773.96
838.258	15730.8
838.583	15797.01
838.908	15626.17
839.233	15662.33
839.558	15691.93
839.883	15533.07
840.208	15582.56
840.533	15556.12
840.858	15573.29
841.182	15523.12
841.507	15548.21
841.832	15410.13
842.156	15441.77
842.481	15351.38
842.805	15340.98
843.13	15307.31
843.454	15394.09
843.778	15268.67
844.103	15240.42
844.427	15193.64
844.751	15180.99
845.075	15144.83
845.399	15060.08
845.723	15052.17
846.047	15058.05
846.371	14916.81
846.695	14916.81
847.019	14771.05
847.343	14742.35
847.666	14699.42
847.99	14703.71
848.313	14592.75
848.637	14568.35
848.96	14549.14
849.284	14383.72
849.607	14381.23
849.931	14310.95
850.254	14251.97
850.577	14139.43
850.9	14138.3
851.223	14109.37
851.546	14058.53
851.869	13929.49
852.192	13997.97
852.515	13868.25
852.838	13779.44
853.161	13778.08
853.483	13728.37
853.806	13673.45
854.129	13671.42
854.451	13626.68
854.774	13493.8
855.096	13422.39
855.419	13517.3
855.741	13471.2
856.063	13350.52
856.385	13315.95
856.708	13268.27
857.03	13247.02
857.352	13279.79
857.674	13194.6
857.996	13080.7
858.318	13037.09
858.64	13082.51
858.961	13036.41
859.283	13016.75
859.605	12886.36
859.926	12947.37
860.248	12943.53
860.57	12849.52
860.891	12761.84
861.212	12768.39
861.534	12683.88
861.855	12687.72
862.176	12727.72
862.498	12702.41
862.819	12731.78
863.14	12618.34
863.461	12549.42
863.782	12574.95
864.103	12533.37
864.424	12585.35
864.745	12513.48
865.065	12487.27
865.386	12454.28
865.707	12456.99
866.027	12382.87
866.348	12350.32
866.668	12376.99
866.989	12397.78
867.309	12373.83
867.63	12307.16
867.95	12245.69
868.27	12214.96
868.59	12241.18
868.91	12234.17
869.23	12092.25
869.55	12231.91
869.87	12137.22
870.19	12205.7
870.51	12178.8
870.83	12169.09
871.15	12013.16
871.469	12024.68
871.789	12063.33
872.109	12084.12
872.428	11986.94
872.748	12047.06
873.067	12028.07
873.386	12012.71
873.706	11865.37
874.025	11878.47
874.344	11880.28
874.663	11940.62
874.982	11880.96
875.301	11851.13
875.62	11860.39
875.939	11758.48
876.258	11804.12
876.577	11752.15
876.896	11673.96
877.214	11677.8
877.533	11692.04
877.852	11597.12
878.17	11638.03
878.489	11618.59
878.807	11685.03
879.125	11594.64
879.444	11615.66
879.762	11523.68
880.08	11622.21
880.398	11449.11
880.716	11472.61
881.034	11514.64
881.352	11547.18
881.67	11338.6
881.988	11378.37
882.306	11296.12
882.624	11255.89
882.941	11299.96
883.259	11172.05
883.577	11231.94
883.894	11224.48
884.212	11200.75
884.529	11193.29
884.846	11073.07
885.164	11127.31
885.481	11046.63
885.798	11094.54
886.115	11004.82
886.432	10996.91
886.75	10959.63
887.067	10982.68
887.383	10901.1
887.7	10941.55
888.017	10866.07
888.334	10874.66
888.651	10866.3
888.967	10802.12
889.284	10774.1
889.6	10739.52
889.917	10651.61
890.233	10666.53
890.55	10634.66
890.866	10640.99
891.182	10499.3
891.498	10578.85
891.815	10551.05
892.131	10428.34
892.447	10490.26
892.763	10464.95
893.079	10392.41
893.395	10409.59
893.71	10362.35
894.026	10258.63
894.342	10304.73
894.657	10281.68
894.973	10146.54
895.289	10214.56
895.604	10157.61
895.92	10061.35
896.235	10027.9
896.55	10092.53
896.865	10019.99
897.181	9995.13
897.496	10031.74
897.811	9994.45
898.126	9925.08
898.441	9907.23
898.756	9784.06
899.071	9769.15
899.386	9739.32
899.7	9622.04
900.015	9627.46
900.33	9554.24
900.644	9605.09
900.959	9497.52
901.273	9564.41
901.588	9444.86
901.902	9440.12
902.216	9422.27
902.531	9426.33
902.845	9373.91
903.159	9297.3
903.473	9295.49
903.787	9218.43
904.101	9166.45
904.415	9174.59
904.729	9101.82
905.042	9018.89
905.356	8992.45
905.67	9047.13
905.984	8999.9
906.297	9006.46
906.611	8925.1
906.924	8915.61
907.237	8853.69
907.551	8840.59
907.864	8789.51
908.177	8728.5
908.491	8733.02
908.804	8700.7
909.117	8606.02
909.43	8562.85
909.743	8568.5
910.056	8514.72
910.368	8463.65
910.681	8494.16
910.994	8419.81
911.307	8356.98
911.619	8290.32
911.932	8366.47
912.244	8299.81
912.557	8282.18
912.869	8241.96
913.181	8159.25
913.494	8161.06
913.806	8076.77
914.118	8086.93
914.43	8008.74
914.742	8016.88
915.054	7968.52
915.366	7920.61
915.678	7917.22
915.99	7868.18
916.302	7858.92
916.613	7797
916.925	7845.13
917.236	7767.62
917.548	7702.99
917.859	7750.22
918.171	7642.65
918.482	7629.55
918.794	7602.43
919.105	7613.5
919.416	7521.53
919.727	7453.05
920.038	7452.83
920.349	7445.14
920.66	7400.17
920.971	7358.82
921.282	7364.24
921.593	7298.93
921.903	7288.76
922.214	7324.02
922.525	7244.24
922.835	7177.13
923.146	7134.87
923.456	7137.35
923.767	7058.71
924.077	7120.63
924.387	7098.49
924.697	7073.18
925.008	6985.27
925.318	6934.65
925.628	6922.22
925.938	6918.83
926.248	6838.15
926.558	6791.83
926.867	6833.86
927.177	6847.64
927.487	6736.01
927.796	6687.65
928.106	6714.31
928.416	6700.3
928.725	6643.81
929.034	6591.83
929.344	6634.77
929.653	6591.83
929.962	6559.97
930.271	6505.28
930.581	6452.17
930.89	6457.82
931.199	6435
931.508	6418.73
931.817	6427.54
932.125	6412.63
932.434	6364.95
932.743	6285.4
933.051	6251.73
933.36	6250.37
933.669	6166.98
933.977	6241.56
934.286	6218.73
934.594	6170.37
934.902	6128.57
935.21	6108.23
935.519	6076.14
935.827	6046.31
936.135	6031.85
936.443	5987.55
936.751	5979.19
937.059	5947.56
937.367	5922.02
937.674	5919.31
937.982	5885.18
938.29	5912.08
938.597	5878.18
938.905	5798.86
939.213	5741.69
939.52	5710.27
939.827	5728.13
940.135	5731.97
940.442	5671.63
940.749	5686.77
941.056	5664.4
941.363	5614.46
941.67	5561.8
941.977	5512.31
942.284	5534.01
942.591	5520.67
942.898	5447.46
943.205	5514.35
943.511	5426.44
943.818	5453.11
944.125	5337.63
944.431	5383.95
944.738	5362.94
945.044	5321.81
945.35	5317.29
945.657	5205.65
945.963	5197.97
946.269	5298.53
946.575	5221.25
946.881	5129.05
947.187	5155.71
947.493	5138.09
947.799	5092.89
948.105	5072.1
948.41	5055.38
948.716	5086.56
949.022	5023.51
949.327	5020.35
949.633	4994.36
949.938	4989.84
950.244	4939.22
950.549	4942.84
950.854	4877.98
951.16	4909.16
951.465	4842.5
951.77	4823.29
952.075	4791.88
952.38	4837.75
952.685	4783.97
952.99	4709.62
953.294	4745.78
953.599	4706.91
953.904	4675.95
954.209	4630.3
954.513	4614.48
954.818	4678.66
955.122	4653.35
955.426	4606.8
955.731	4592.56
956.035	4556.86
956.339	4535.84
956.643	4523.41
956.948	4484.54
957.252	4422.4
957.556	4475.5
957.86	4414.94
958.163	4376.3
958.467	4395.28
958.771	4377.88
959.075	4384.21
959.378	4332
959.682	4347.37
959.985	4325.45
960.289	4320.48
960.592	4246.36
960.896	4259.92
961.199	4201.61
961.502	4210.43
961.805	4209.07
962.108	4135.4
962.411	4128.85
962.714	4158.22
963.017	4102.41
963.32	4130.43
963.623	4079.81
963.926	4045.01
964.228	4043.2
964.531	4037.32
964.833	4021.05
965.136	3992.35
965.438	3992.13
965.741	3976.08
966.043	3965.46
966.345	3972.01
966.648	3904.9
966.95	3897.44
967.252	3861.73
967.554	3844.33
967.856	3809.08
968.158	3820.15
968.46	3798.91
968.761	3780.83
969.063	3760.95
969.365	3753.71
969.666	3740.38
969.968	3718.01
970.269	3713.04
970.571	3651.34
970.872	3696.54
971.174	3633.27
971.475	3693.83
971.776	3636.2
972.077	3608.86
972.378	3581.06
972.679	3562.53
972.98	3569.31
973.281	3536.77
973.582	3529.54
973.883	3508.52
974.183	3521.63
974.484	3485.25
974.785	3461.52
975.085	3487.51
975.386	3458.58
975.686	3449.77
975.986	3437.56
976.287	3431.01
976.587	3357.12
976.887	3372.48
977.187	3377.91
977.487	3343.78
977.787	3329.32
978.087	3299.26
978.387	3295.87
978.687	3313.73
978.987	3256.1
979.286	3230.11
979.586	3225.37
979.885	3202.99
980.185	3202.99
980.484	3166.16
980.784	3180.17
981.083	3158.25
981.382	3130.68
981.682	3143.56
981.981	3114.41
982.28	3081.87
982.579	3074.86
982.878	3051.13
983.177	3061.08
983.475	3026.73
983.774	2996.22
984.073	3003
984.372	2975.43
984.67	3014.07
984.969	2957.13
985.267	2973.62
985.566	2970.01
985.864	2927.07
986.162	2915.77
986.461	2922.55
986.759	2881.65
987.057	2890.23
987.355	2840.29
987.653	2835.55
987.951	2819.95
988.249	2847.3
988.547	2825.6
988.844	2806.17
989.142	2807.98
989.44	2751.03
989.737	2756
990.035	2760.75
990.332	2770.24
990.63	2743.57
990.927	2712.84
991.224	2713.29
991.521	2702.44
991.819	2686.4
992.116	2659.96
992.413	2673.97
992.71	2591.03
993.006	2620.41
993.303	2571.83
993.6	2596.68
993.897	2598.27
994.193	2604.59
994.49	2570.02
994.787	2566.85
995.083	2536.8
995.379	2542.9
995.676	2512.84
995.972	2516.01
996.268	2503.35
996.565	2461.55
996.861	2484.14
997.157	2468.32
997.453	2436.01
997.749	2417.93
998.044	2423.81
998.34	2399.17
998.636	2418.38
998.932	2387.2
999.227	2382.68
999.523	2346.75
999.818	2357.82
1000.114	2333.19
1000.409	2335.22
1000.704	2327.76
1001	2287.31
1001.295	2270.36
1001.59	2269.23
1001.885	2263.81
1002.18	2221.55
1002.475	2199.63
1002.77	2228.33
1003.065	2203.93
1003.359	2178.62
1003.654	2212.96
1003.949	2146.53
1004.243	2164.6
1004.538	2142.91
1004.832	2147.88
1005.127	2141.33
1005.421	2116.02
1005.715	2101.33
1006.009	2082.8
1006.304	2084.83
1006.598	2012.29
1006.892	2059.3
1007.186	2043.03
1007.48	2015.91
1007.773	2017.26
1008.067	1992.41
1008.361	1971.84
1008.655	1998.51
1008.948	1960.54
1009.242	1953.08
1009.535	1966.87
1009.829	1941.33
1010.122	1940.2
1010.415	1943.37
1010.708	1913.99
1011.001	1849.81
1011.295	1874.67
1011.588	1868.57
1011.881	1838.28
1012.173	1846.65
1012.466	1841.45
1012.759	1828.12
1013.052	1814.56
1013.344	1779.76
1013.637	1817.95
1013.93	1795.57
1014.222	1767.55
1014.514	1735.46
1014.807	1710.83
1015.099	1735.69
1015.391	1716.71
1015.683	1745.18
1015.976	1711.51
1016.268	1713.99
1016.56	1673.77
1016.851	1639.65
1017.143	1663.37
1017.435	1669.02
1017.727	1618.4
1018.018	1638.97
1018.31	1641.23
1018.602	1620.66
1018.893	1607.56
1019.185	1562.59
1019.476	1588.57
1019.767	1583.83
1020.058	1563.94
1020.35	1545.19
1020.641	1517.16
1020.932	1502.93
1021.223	1502.93
1021.514	1517.39
1021.804	1514.68
1022.095	1493.66
1022.386	1494.79
1022.677	1470.16
1022.967	1452.98
1023.258	1454.34
1023.548	1453.44
1023.839	1436.94
1024.129	1399.65
1024.419	1406.88
1024.709	1408.01
1025	1378.86
1025.29	1381.35
1025.58	1377.51
1025.87	1366.21
1026.16	1365.53
1026.449	1342.25
1026.739	1329.15
1027.029	1342.03
1027.319	1331.41
1027.608	1301.8
1027.898	1287.34
1028.187	1278.98
1028.477	1295.93
1028.766	1275.36
1029.055	1262.48
1029.344	1232.43
1029.634	1228.13
1029.923	1250.96
1030.212	1254.8
1030.501	1228.81
1030.79	1206.66
1031.078	1221.13
1031.367	1204.86
1031.656	1209.15
1031.945	1207.34
1032.233	1188.13
1032.522	1174.12
1032.81	1184.52
1033.099	1140.68
1033.387	1173.67
1033.675	1143.84
1033.963	1136.38
1034.251	1122.15
1034.54	1103.16
1034.828	1121.69
1035.116	1111.07
1035.403	1121.47
1035.691	1123.28
1035.979	1072.66
1036.267	1081.69
1036.554	1058.19
1036.842	1084.41
1037.129	1057.97
1037.417	1023.39
1037.704	1051.64
1037.992	1033.33
1038.279	1023.84
1038.566	998.76
1038.853	998.76
1039.14	998.76
