Data from hue_10_FLMS001491_11.txt Node
Date: Mon Feb 06 15:31:29 GMT 2017
User: dcchb
Spectrometer: FLMS00149
Trigger mode: 0
Integration Time (sec): 2.000000E-2
Scans to average: 10
Electric dark correction enabled: true
Nonlinearity correction enabled: false
Boxcar width: 0
XAxis mode: Wavelengths
Number of Pixels in Spectrum: 2048
>>>>>Begin Spectral Data<<<<<
341.393	-10.93
341.776	-10.93
342.16	-10.93
342.543	-62.23
342.927	-72.4
343.31	-75.11
343.693	-57.48
344.077	-55.9
344.46	-68.56
344.843	-37.37
345.226	-34.89
345.61	-38.28
345.993	-26.98
346.376	-2.12
346.759	-3.02
347.142	18.22
347.525	64.77
347.908	63.42
348.291	94.6
348.674	73.81
349.057	84.88
349.44	128.05
349.823	154.04
350.206	179.12
350.588	175.96
350.971	196.97
351.354	215.5
351.737	236.52
352.119	238.1
352.502	254.37
352.884	275.61
353.267	276.97
353.65	292.34
354.032	296.63
354.414	309.29
354.797	319
355.179	312
355.562	308.83
355.944	326.01
356.326	342.73
356.709	345.89
357.091	335.05
357.473	355.61
357.855	330.53
358.238	325.33
358.62	336.18
359.002	347.25
359.384	343.18
359.766	324.43
360.148	334.14
360.53	321.94
360.912	323.3
361.294	336.18
361.676	309.74
362.057	338.21
362.439	328.49
362.821	338.44
363.203	338.21
363.584	326.01
363.966	317.87
364.348	322.17
364.729	312.9
365.111	327.82
365.493	323.75
365.874	339.79
366.256	330.08
366.637	324.43
367.019	305.67
367.4	311.55
367.781	292.34
368.163	321.04
368.544	297.08
368.925	326.01
369.306	319.45
369.688	310.42
370.069	300.25
370.45	279.46
370.831	310.64
371.212	286.91
371.593	312.45
371.974	286.46
372.355	310.42
372.736	316.74
373.117	302.96
373.498	298.89
373.879	308.61
374.26	307.25
374.641	309.74
375.021	321.71
375.402	321.71
375.783	302.51
376.163	307.48
376.544	330.08
376.925	331.43
377.305	312.22
377.686	303.18
378.066	304.09
378.447	306.57
378.827	315.84
379.208	318.1
379.588	332.11
379.968	318.78
380.349	319.91
380.729	318.78
381.109	334.82
381.489	314.03
381.87	356.97
382.25	335.5
382.63	333.47
383.01	312
383.39	322.39
383.77	339.57
384.15	331.88
384.53	305.9
384.91	340.25
385.29	321.04
385.67	317.65
386.049	324.43
386.429	329.85
386.809	327.14
387.189	335.95
387.568	343.64
387.948	347.02
388.328	341.15
388.707	331.43
389.087	353.8
389.466	338.89
389.846	336.86
390.225	339.34
390.605	356.52
390.984	368.49
391.363	337.53
391.743	368.04
392.122	351.09
392.501	344.99
392.881	364.65
393.26	346.12
393.639	361.71
394.018	380.24
394.397	360.36
394.776	369.62
395.155	376.18
395.534	385.44
395.913	354.26
396.292	379.79
396.671	359.68
397.05	371.66
397.429	367.14
397.808	361.71
398.186	356.29
398.565	378.44
398.944	373.01
399.323	362.17
399.701	377.53
400.08	372.33
400.458	372.79
400.837	374.59
401.215	387.7
401.594	347.7
401.972	377.08
402.351	371.43
402.729	390.41
403.107	392.67
403.486	391.54
403.864	407.14
404.242	378.44
404.62	383.41
404.999	401.94
405.377	414.82
405.755	396.51
406.133	389.06
406.511	406.91
406.889	406.46
407.267	392.9
407.645	411.88
408.023	397.87
408.401	398.55
408.779	393.13
409.156	414.82
409.534	420.92
409.912	406.23
410.29	418.44
410.667	419.11
411.045	431.54
411.422	433.8
411.8	447.36
412.178	434.48
412.555	425.21
412.933	443.52
413.31	424.76
413.687	450.52
414.065	439.9
414.442	429.73
414.819	445.55
415.197	439
415.574	431.99
415.951	450.75
416.328	424.99
416.705	443.29
417.082	448.72
417.46	467.7
417.837	465.89
418.214	464.31
418.591	461.15
418.967	464.76
419.344	466.12
419.721	469.73
420.098	472.22
420.475	481.26
420.852	486
421.228	494.82
421.605	489.85
421.982	475.16
422.358	490.98
422.735	517.64
423.111	478.77
423.488	498.66
423.864	500.92
424.241	522.39
424.617	516.29
424.994	528.94
425.37	502.5
425.746	520.58
426.123	520.81
426.499	514.25
426.875	513.35
427.251	519.68
427.627	539.79
428.003	530.75
428.379	540.92
428.756	532.33
429.132	554.7
429.507	558.32
429.883	548.38
430.259	554.7
430.635	537.3
431.011	567.13
431.387	550.64
431.763	554.25
432.138	570.07
432.514	566.23
432.89	581.82
433.265	568.26
433.641	600.8
434.016	583.85
434.392	602.16
434.767	604.42
435.143	607.58
435.518	619.11
435.894	618.2
436.269	613.23
436.644	619.79
437.02	632.67
437.395	641.93
437.77	646.68
438.145	647.58
438.52	631.09
438.895	621.37
439.271	646.68
439.646	662.72
440.021	663.85
440.395	649.84
440.77	651.2
441.145	671.31
441.52	671.31
441.895	669.73
442.27	672.89
442.645	685.32
443.019	700.24
443.394	682.38
443.769	680.58
444.143	686.9
444.518	681.03
444.892	686.45
445.267	691.2
445.641	700.46
446.016	718.99
446.39	711.08
446.764	720.57
447.139	737.75
447.513	705.66
447.887	710.18
448.262	724.64
448.636	742.72
449.01	731.65
449.384	751.08
449.758	718.99
450.132	735.04
450.506	743.85
450.88	755.83
451.254	737.52
451.628	728.26
452.002	758.77
452.376	771.42
452.75	766.22
453.123	799.67
453.497	783.17
453.871	774.81
454.244	795.6
454.618	800.57
454.992	809.39
455.365	783.62
455.739	806.9
456.112	848.03
456.486	828.14
456.859	833.57
457.232	849.16
457.606	836.5
457.979	848.71
458.352	859.1
458.725	891.87
459.099	880.34
459.472	883.51
459.845	909.27
460.218	907.91
460.591	905.88
460.964	898.65
461.337	919.67
461.71	980.45
462.083	973.22
462.456	945.65
462.829	963.05
463.201	984.3
463.574	978.42
463.947	1000.79
464.32	987.91
464.692	1005.09
465.065	1013.9
465.438	1010.96
465.81	1046.22
466.183	1041.24
466.555	1088.47
466.928	1085.08
467.3	1096.61
467.672	1098.42
468.045	1106.78
468.417	1104.74
468.789	1155.14
469.161	1122.6
469.534	1154.91
469.906	1195.14
470.278	1198.75
470.65	1199.43
471.022	1223.39
471.394	1250.5
471.766	1233.33
472.138	1269.94
472.51	1268.81
472.882	1305.87
473.253	1336.6
473.625	1368.24
473.997	1343.83
474.369	1349.48
474.74	1395.58
475.112	1429.26
475.484	1429.03
475.855	1436.04
476.227	1469.93
476.598	1500.21
476.97	1550.61
477.341	1592.42
477.713	1568.91
478.084	1616.14
478.455	1653.66
478.827	1676.26
479.198	1678.06
479.569	1722.36
479.94	1749.25
480.311	1783.6
480.682	1823.14
481.053	1902.69
481.424	1897.27
481.795	1892.52
482.166	1949.92
482.537	2001.22
482.908	2033.31
483.279	2057.49
483.65	2122.57
484.021	2111.05
484.391	2166.41
484.762	2181.55
485.133	2227.2
485.503	2289.8
485.874	2307.88
486.244	2330.02
486.615	2402.56
486.985	2399.4
487.356	2457.93
487.726	2512.17
488.097	2533.63
488.467	2536.8
488.837	2622.45
489.207	2672.84
489.578	2699.51
489.948	2706.74
490.318	2803.46
490.688	2763.01
491.058	2841.42
491.428	2888.2
491.798	2899.27
492.168	2977.24
492.538	3000.74
492.908	3002.32
493.278	3086.16
493.648	3078.93
494.017	3118.03
494.387	3166.39
494.757	3181.3
495.126	3226.5
495.496	3266.5
495.866	3330.9
496.235	3279.15
496.605	3330.45
496.974	3354.63
497.344	3400.73
497.713	3427.85
498.082	3428.98
498.452	3518.69
498.821	3488.64
499.19	3522.31
499.559	3527.51
499.928	3571.35
500.298	3578.58
500.667	3605.02
501.036	3642.53
501.405	3649.76
501.774	3653.38
502.143	3711.68
502.512	3687.05
502.88	3766.14
503.249	3784.45
503.618	3774.28
503.987	3845.92
504.356	3828.52
504.724	3840.72
505.093	3867.38
505.462	3885.69
505.83	3905.35
506.199	3904.45
506.567	3997.78
506.936	3946.03
507.304	3989.87
507.672	4043.2
508.041	4031.22
508.409	4084.78
508.777	4068.96
509.145	4121.84
509.514	4143.08
509.882	4158.22
510.25	4105.8
510.618	4185.12
510.986	4158.9
511.354	4191.67
511.722	4239.58
512.09	4281.38
512.458	4221.73
512.826	4262.63
513.193	4294.04
513.561	4273.25
513.929	4308.28
514.297	4334.49
514.664	4339.01
515.032	4418.56
515.4	4386.47
515.767	4411.55
516.135	4472.57
516.502	4392.79
516.869	4461.94
517.237	4485.67
517.604	4482.74
517.972	4518.67
518.339	4506.92
518.706	4528.38
519.073	4509.63
519.44	4560.47
519.808	4616.74
520.175	4596.18
520.542	4640.7
520.909	4654.93
521.276	4686.57
521.643	4683.86
522.009	4687.48
522.376	4735.61
522.743	4751.43
523.11	4754.37
523.477	4790.52
523.843	4796.63
524.21	4840.92
524.577	4879.56
524.943	4865.78
525.31	4907.13
525.676	4918.88
526.043	5017.64
526.409	4989.39
526.776	5022.38
527.142	4991.65
527.508	5033
527.874	5091.76
528.241	5100.35
528.607	5136.96
528.973	5159.1
529.339	5146.22
529.705	5224.64
530.071	5198.2
530.437	5266.67
530.803	5287.46
531.169	5293.11
531.535	5252.66
531.901	5344.18
532.267	5351.64
532.632	5414.24
532.998	5411.98
533.364	5405.42
533.73	5397.97
534.095	5505.99
534.461	5491.07
534.826	5526.78
535.192	5541.92
535.557	5556.38
535.923	5527
536.288	5608.36
536.653	5690.84
537.019	5629.37
537.384	5694.68
537.749	5674.12
538.114	5684.74
538.479	5716.83
538.845	5750.5
539.21	5738.75
539.575	5802.02
539.94	5839.31
540.305	5856.03
540.67	5860.1
541.034	5954.33
541.399	5879.76
541.764	5939.87
542.129	5987.78
542.494	5967.67
542.858	5979.65
543.223	5978.06
543.587	6077.04
543.952	5980.77
544.316	6063.26
544.681	6099.19
545.045	6107.33
545.41	6124.27
545.774	6165.4
546.138	6157.04
546.503	6212.41
546.867	6239.53
547.231	6313.87
547.595	6358.17
547.959	6356.36
548.324	6349.13
548.688	6383.93
549.052	6404.27
549.416	6369.47
549.779	6420.09
550.143	6447.88
550.507	6510.93
550.871	6531.04
551.235	6497.82
551.599	6525.62
551.962	6588.22
552.326	6602.23
552.689	6528.33
553.053	6600.65
553.417	6607.43
553.78	6702.11
554.143	6625.05
554.507	6711.83
554.87	6674.77
555.234	6772.39
555.597	6747.76
555.96	6727.87
556.323	6767.42
556.686	6779.17
557.05	6826.18
557.413	6864.14
557.776	6846.06
558.139	6919.51
558.502	6884.93
558.865	6917.25
559.228	6928.09
559.59	7013.52
559.953	7007.64
560.316	7052.61
560.679	7117.24
561.041	7084.93
561.404	7162.21
561.767	7157.24
562.129	7195.88
562.492	7238.37
562.854	7181.65
563.217	7237.92
563.579	7209.22
563.941	7297.8
564.304	7359.04
564.666	7327.63
565.028	7370.12
565.39	7358.59
565.753	7342.77
566.115	7427.52
566.477	7449.44
566.839	7471.81
567.201	7463.9
567.563	7544.58
567.925	7565.59
568.287	7608.3
568.648	7634.52
569.01	7680.39
569.372	7659.37
569.734	7718.13
570.095	7747.96
570.457	7690.11
570.819	7796.55
571.18	7833.16
571.542	7854.62
571.903	7857.11
572.265	7901.4
572.626	7983.21
572.987	8016.2
573.349	8101.62
573.71	8092.81
574.071	8156.31
574.432	8213.71
574.794	8366.7
575.155	8324.67
575.516	8377.55
575.877	8417.77
576.238	8423.65
576.599	8563.53
576.96	8600.59
577.32	8698.22
577.681	8771.44
578.042	8899.57
578.403	8850.98
578.763	8930.3
579.124	9027.93
579.485	9157.41
579.845	9247.81
580.206	9349.05
580.566	9399.44
580.927	9578.19
581.287	9685.31
581.648	9747
582.008	9975.92
582.368	9996.71
582.728	10130.5
583.089	10305.18
583.449	10401.45
583.809	10581.11
584.169	10812.06
584.529	10937.93
584.889	11155.78
585.249	11327.98
585.609	11413.17
585.969	11675.54
586.329	11907.17
586.688	12057
587.048	12266.94
587.408	12463.54
587.768	12683.88
588.127	12840.71
588.487	12999.8
588.846	13362.95
589.206	13451.09
589.565	13764.75
589.925	14060.79
590.284	14290.39
590.643	14504.84
591.003	14810.83
591.362	15074.32
591.721	15289.68
592.08	15563.35
592.44	15916.11
592.799	16213.73
593.158	16431.57
593.517	16703.2
593.876	16973.25
594.235	17203.08
594.593	17602.62
594.952	17888.26
595.311	18080.12
595.67	18461.58
596.029	18777.73
596.387	19029.02
596.746	19336.81
597.104	19608.44
597.463	19848.43
597.822	20127.52
598.18	20441.64
598.538	20664.23
598.897	21134.27
599.255	21219.24
599.613	21784.2
599.972	21991.43
600.33	22366.78
600.688	22482.04
601.046	22924.28
601.404	23275.24
601.762	23453.76
602.12	23866.18
602.478	24094.87
602.836	24326.06
603.194	24515.43
603.552	24845.82
603.91	25113.15
604.268	25460.94
604.625	25516.53
604.983	25913.58
605.341	26047.82
605.698	26414.14
606.056	26756.73
606.413	26987.45
606.771	27187
607.128	27526.88
607.485	27521.23
607.843	27896.13
608.2	28256.57
608.557	28450.47
608.914	28603.23
609.272	29049.32
609.629	29174.97
609.986	29511.68
610.343	29628.06
610.7	29935.17
611.057	30146.92
611.414	30206.13
611.771	30565.89
612.127	30770.41
612.484	30968.37
612.841	31191.64
613.198	31192.77
613.554	31414.46
613.911	31670.49
614.267	31891.28
614.624	31993.42
614.98	32270.03
615.337	32519.51
615.693	32574.2
616.05	32708.21
616.406	33085.37
616.762	33027.75
617.118	33268.42
617.475	33430.67
617.831	33670.22
618.187	33718.35
618.543	33861.85
618.899	34165.8
619.255	34220.26
619.611	34465.45
619.967	34467.26
620.323	34714.03
620.678	34716.74
621.034	34818.89
621.39	34929.39
621.746	35029.05
622.101	35522.6
622.457	35191.53
622.812	35476.95
623.168	35535.93
623.523	35711.74
623.879	35735.02
624.234	35796.71
624.589	35964.17
624.945	36036.93
625.3	36208
625.655	36348.79
626.01	36360.09
626.365	36391.05
626.72	36518.28
627.075	36511.95
627.43	36528.22
627.785	36457.49
628.14	36814.77
628.495	36696.13
628.85	36699.29
629.205	36653.87
629.559	37033.74
629.914	36865.16
630.269	36935.22
630.623	37012.95
630.978	36887.08
631.332	37154.87
631.687	37145.83
632.041	37097.47
632.396	37145.15
632.75	37002.56
633.104	37293.62
633.459	37110.13
633.813	37106.51
634.167	37186.51
634.521	37275.09
634.875	37247.07
635.229	37218.37
635.583	37145.61
635.937	37161.2
636.291	37248.2
636.645	37274.19
636.999	37181.08
637.352	37225.83
637.706	37053.63
638.06	37402.32
638.413	37219.05
638.767	37263.57
639.121	37263.34
639.474	37061.31
639.828	37174.08
640.181	37296.56
640.534	37328.88
640.888	37102.89
641.241	37072.84
641.594	37220.41
641.947	37188.77
642.301	37172.5
642.654	37163.46
643.007	37257.69
643.36	37282.55
643.713	37113.74
644.066	37265.15
644.419	37051.6
644.771	36768.44
645.124	36625.84
645.477	36509.92
645.83	36306.31
646.182	36170.94
646.535	36099.76
646.888	36203.26
647.24	35939.54
647.593	36052.53
647.945	36012.98
648.298	35901.57
648.65	35891.85
649.002	35840.1
649.355	36037.16
649.707	35947.67
650.059	36111.51
650.411	36395.57
650.763	36520.08
651.115	36889.79
651.467	36828.55
651.819	36674.66
652.171	36922.11
652.523	36746.29
652.875	36725.28
653.227	36497.03
653.578	36879.85
653.93	36862.22
654.282	36613.64
654.633	36655.9
654.985	36669.46
655.337	36771.83
655.688	36671.27
656.039	36801.43
656.391	36368.68
656.742	36567.99
657.094	36484.61
657.445	36742.45
657.796	36576.58
658.147	36470.14
658.498	36574.77
658.849	36662.23
659.2	36476.02
659.551	36453.87
659.902	36472.63
660.253	36552.4
660.604	36400.09
660.955	36358.73
661.306	36425.62
661.656	36413.65
662.007	36431.27
662.358	36371.84
662.708	36418.84
663.059	36369.35
663.409	36276.7
663.76	36490.03
664.11	36491.39
664.461	36403.93
664.811	36444.38
665.161	36340.88
665.511	36272.63
665.862	36477.37
666.212	36592.17
666.562	36464.95
666.912	36377.94
667.262	36410.71
667.612	36406.19
667.962	36457.04
668.312	36208.45
668.662	36418.17
669.011	36261.56
669.361	36228.34
669.711	36437.83
670.06	36340.88
670.41	36262.92
670.76	36228.34
671.109	36458.17
671.459	36172.07
671.808	36227.89
672.157	36325.29
672.507	36054.33
672.856	36213.43
673.205	35992.19
673.554	36239.64
673.904	36058.85
674.253	36273.76
674.602	36193.09
674.951	35646.44
675.3	35534.12
675.649	36068.8
675.998	36097.05
676.346	36148.12
676.695	36119.64
677.044	35818.86
677.393	36062.24
677.741	36061.34
678.09	35988.12
678.438	35971.85
678.787	35899.54
679.135	35963.49
679.484	35655.25
679.832	35883.04
680.181	35723.72
680.529	35865.86
680.877	35667.9
681.225	35669.26
681.573	35787.67
681.922	35504.74
682.27	35427.01
682.618	35499.09
682.966	35362.15
683.314	35463.16
683.661	35350.17
684.009	35233.34
684.357	34984.31
684.705	35124.87
685.053	35031.08
685.4	35003.97
685.748	34847.81
686.095	34910.41
686.443	34913.12
686.79	34691.43
687.138	34828.83
687.485	34851.43
687.832	34620.02
688.18	34570.98
688.527	34498.22
688.874	34442.4
689.221	34504.09
689.568	34370.76
689.915	34213.48
690.262	34201.95
690.609	34223.65
690.956	34074.27
691.303	34065.46
691.65	33919.7
691.997	33914.96
692.344	33759.48
692.69	33708.41
693.037	33719.25
693.383	33455.53
693.73	33537.79
694.077	33241.75
694.423	33353.84
694.769	33315.2
695.116	33095.54
695.462	33091.25
695.808	33059.38
696.155	33077.01
696.501	32768.09
696.847	32744.14
697.193	32533.07
697.539	32785.49
697.885	32432.51
698.231	32292.4
698.577	32429.12
698.923	32393.87
699.269	32239.07
699.614	31903.71
699.96	32001.11
700.306	32060.99
700.651	31809.93
700.997	31691.29
701.342	31775.8
701.688	31666.43
702.033	31509.82
702.379	31480.22
702.724	31332.42
703.069	31576.26
703.415	31131.07
703.76	31175.37
704.105	31235.48
704.45	31031.87
704.795	30908.93
705.14	30921.59
705.485	30917.52
705.83	30641.82
706.175	30859.22
706.52	30688.37
706.865	30547.59
707.209	30481.83
707.554	30342.39
707.899	30475.72
708.243	30224.66
708.588	30259.91
708.932	30106.92
709.277	29995.06
709.621	30089.97
709.966	29843.42
710.31	29993.48
710.654	29618.8
710.998	29733.82
711.342	29690.43
711.687	29634.16
712.031	29604.11
712.375	29306.26
712.719	29322.99
713.063	29406.37
713.407	29429.88
713.75	29356.21
714.094	29297
714.438	29199.15
714.782	29155.08
715.125	29049.09
715.469	29102.65
715.812	28890.23
716.156	28816.78
716.499	28830.57
716.843	28827.86
717.186	28711.7
717.53	28741.98
717.873	28759.39
718.216	28601.2
718.559	28619.73
718.902	28308.32
719.246	28483.01
719.589	28263.35
719.932	28229.91
720.275	28162.79
720.617	28223.35
720.96	28147.88
721.303	28083.24
721.646	28107.42
721.989	27768.68
722.331	28073.98
722.674	27932.29
723.016	27900.2
723.359	27862.91
723.701	27839.41
724.044	27647.32
724.386	27591.73
724.729	27649.81
725.071	27584.05
725.413	27526.42
725.755	27644.39
726.097	27413.43
726.439	27443.49
726.782	27251.18
727.124	27447.78
727.465	27396.71
727.807	27262.02
728.149	27268.35
728.491	27118.3
728.833	27234.68
729.175	27071.29
729.516	27137.96
729.858	26987.23
730.199	27097.06
730.541	27004.63
730.882	26971.18
731.224	26929.38
731.565	26822.71
731.906	26763.73
732.248	26770.74
732.589	26724.41
732.93	26584.08
733.271	26643.06
733.612	26582.72
733.953	26670.4
734.294	26546.34
734.635	26471.76
734.976	26602.61
735.317	26251.65
735.658	26360.13
735.999	26321.26
736.339	26336.4
736.68	26386.79
737.021	26276.74
737.361	26128.04
737.702	26342.95
738.042	26193.8
738.383	26098.21
738.723	26180.24
739.063	26074.26
739.404	26119.23
739.744	25939.35
740.084	25949.06
740.424	25979.35
740.764	25905.22
741.104	25950.87
741.444	25890.53
741.784	25740.93
742.124	25786.81
742.464	25698.45
742.804	25674.04
743.143	25632.91
743.483	25655.74
743.823	25553.14
744.162	25601.28
744.502	25652.57
744.841	25413.71
745.181	25546.59
745.52	25436.99
745.86	25465.69
746.199	25386.14
746.538	25384.56
746.877	25398.12
747.216	25462.52
747.556	25225.69
747.895	25309.98
748.234	25134.62
748.573	25131.68
748.911	25121.97
749.25	24972.37
749.589	24970.33
749.928	25098.24
750.267	24986.15
750.605	24898.24
750.944	24921.75
751.283	24820.96
751.621	24874.97
751.96	24728.98
752.298	24705.71
752.636	24785.03
752.975	24649.89
753.313	24462.77
753.651	24564.92
753.989	24418.93
754.327	24416.9
754.666	24291.48
755.004	24321.54
755.342	24394.53
755.679	24213.06
756.017	24193.86
756.355	24272.95
756.693	24073.18
757.031	24221.88
757.368	24022.79
757.706	23914.77
758.044	23876.35
758.381	23968.55
758.719	23899.85
759.056	23907.08
759.394	23796.35
759.731	23633.42
760.068	23705.28
760.405	23588.22
760.743	23594.78
761.08	23551.61
761.417	23386.19
761.754	23344.84
762.091	23295.35
762.428	23258.51
762.765	23098.06
763.102	23169.93
763.438	23023.04
763.775	22976.26
764.112	22990.05
764.449	23015.13
764.785	22859.43
765.122	22736.04
765.458	22648.81
765.795	22635.93
766.131	22541.92
766.467	22463.28
766.804	22323.62
767.14	22285.43
767.476	22327.46
767.812	22132.21
768.148	22256.51
768.485	22056.06
768.821	22044.31
769.157	21950.3
769.492	21903.29
769.828	21869.62
770.164	21672.79
770.5	21557.31
770.836	21477.54
771.171	21452.46
771.507	21378.11
771.842	21212.46
772.178	21268.51
772.513	21194.16
772.849	21130.66
773.184	21047.5
773.519	21058.8
773.855	20867.16
774.19	20814.51
774.525	20765.47
774.86	20833.27
775.195	20706.72
775.53	20601.18
775.865	20478.02
776.2	20450.9
776.535	20172.49
776.87	20235.09
777.205	20235.32
777.539	20057.01
777.874	20148.09
778.209	19942.44
778.543	19945.61
778.878	19847.53
779.212	19768.89
779.547	19549.91
779.881	19666.52
780.215	19417.48
780.55	19539.51
780.884	19479.18
781.218	19368.22
781.552	19447.54
781.886	19222.69
782.22	19122.35
782.554	19104.95
782.888	18994.67
783.222	18916.71
783.556	18830.38
783.889	18793.09
784.223	18627.22
784.557	18572.31
784.89	18628.58
785.224	18516.94
785.557	18470.62
785.891	18434.23
786.224	18317.4
786.558	18461.58
786.891	18182.49
787.224	18025.66
787.557	18090.29
787.891	18062.49
788.224	17995.37
788.557	18010.97
788.89	17828.15
789.223	17879.22
789.556	17749.28
789.888	17591.54
790.221	17607.14
790.554	17462.28
790.887	17444.43
791.219	17361.94
791.552	17339.57
791.884	17238.11
792.217	17107.49
792.549	17195.17
792.882	16984.55
793.214	16969.64
793.546	17006.93
793.879	16741.4
794.211	16821.85
794.543	16821.62
794.875	16712.24
795.207	16778.23
795.539	16612.59
795.871	16576.65
796.203	16446.04
796.535	16442.19
796.867	16425.92
797.198	16289.66
797.53	16312.93
797.862	16259.15
798.193	16270.22
798.525	16149.1
798.856	16156.33
799.188	16057.35
799.519	15945.03
799.85	15847.18
800.182	15923.34
800.513	15854.64
800.844	15788.43
801.175	15848.76
801.506	15743.91
801.837	15719.05
802.168	15576.45
802.499	15509.56
802.83	15475.21
803.161	15447.87
803.491	15460.98
803.822	15495.33
804.153	15248.33
804.483	15274.77
804.814	15127.43
805.145	15145.96
805.475	15172.62
805.805	15096.47
806.136	14988
806.466	15079.97
806.796	14987.09
807.126	14922.23
807.457	14847.43
807.787	14861.22
808.117	14759.08
808.447	14741.45
808.777	14744.16
809.107	14711.39
809.436	14691.51
809.766	14597.95
810.096	14598.85
810.426	14453.32
810.755	14492.64
811.085	14449.25
811.414	14403.15
811.744	14328.8
812.073	14339.65
812.403	14348.92
812.732	14173.78
813.061	14219.65
813.39	14127
813.719	14049.94
814.049	14188.24
814.378	14066.89
814.707	13974.24
815.036	13946.67
815.365	13956.38
815.693	13833.68
816.022	13807.24
816.351	13821.92
816.68	13694.02
817.008	13809.27
817.337	13596.62
817.665	13686.11
817.994	13649.5
818.322	13652.21
818.651	13522.5
818.979	13530.41
819.307	13516.4
819.636	13593.46
819.964	13480.46
820.292	13565.21
820.62	13479.11
820.948	13399.11
821.276	13470.75
821.604	13362.5
821.932	13323.41
822.259	13418.32
822.587	13329.28
822.915	13337.19
823.243	13395.27
823.57	13355.95
823.898	13423.97
824.225	13294.03
824.553	13316.18
824.88	13275.05
825.207	13322.5
825.535	13267.14
825.862	13293.8
826.189	13286.8
826.516	13361.82
826.843	13318.21
827.17	13382.61
827.497	13372.44
827.824	13283.41
828.151	13405.89
828.478	13253.13
828.805	13327.7
829.131	13238.44
829.458	13333.58
829.785	13173.81
830.111	13301.26
830.438	13346.68
830.764	13267.14
831.09	13272.56
831.417	13152.34
831.743	13341.71
832.069	13240.7
832.395	13247.7
832.722	13308.04
833.048	13213.13
833.374	13136.52
833.7	13157.99
834.026	13178.55
834.351	13156.86
834.677	13189.17
835.003	13215.61
835.329	13246.12
835.654	13190.3
835.98	13065.11
836.306	13064.43
836.631	13034.83
836.956	13045.9
837.282	13072.79
837.607	12948.95
837.932	13053.58
838.258	12986.24
838.583	12903.76
838.908	12861.72
839.233	12900.82
839.558	12911.44
839.883	12819.92
840.208	12769.07
840.533	12821.5
840.858	12786.7
841.182	12704.67
841.507	12795.29
841.832	12654.72
842.156	12576.99
842.481	12671.67
842.805	12622.41
843.13	12514.61
843.454	12597.78
843.778	12468.97
844.103	12474.62
844.427	12443.43
844.751	12371.34
845.075	12381.74
845.399	12398.23
845.723	12306.26
846.047	12362.08
846.371	12179.71
846.695	12280.95
847.019	12101.29
847.343	12132.03
847.666	12051.8
847.99	11906.49
848.313	11998.7
848.637	11806.84
848.96	11803.22
849.284	11857.68
849.607	11753.73
849.931	11658.82
850.254	11606.62
850.577	11530.01
850.9	11465.38
851.223	11470.8
851.546	11441.42
851.869	11372.05
852.192	11391.71
852.515	11283.46
852.838	11287.08
853.161	11255.21
853.483	11169.34
853.806	11127.08
854.129	11157.36
854.451	11055.9
854.774	10982.45
855.096	11046.18
855.419	10935.9
855.741	11027.2
856.063	10882.34
856.385	10887.54
856.708	10890.93
857.03	10788.33
857.352	10845.73
857.674	10807.99
857.996	10723.02
858.318	10576.81
858.64	10641.67
858.961	10566.42
859.283	10577.04
859.605	10531.16
859.926	10582.46
860.248	10551.28
860.57	10475.12
860.891	10509.7
861.212	10429.02
861.534	10390.83
861.855	10336.14
862.176	10369.59
862.498	10331.4
862.819	10346.99
863.14	10278.06
863.461	10299.53
863.782	10259.98
864.103	10171.63
864.424	10245.97
864.745	10202.58
865.065	10063.83
865.386	10102.47
865.707	10133.21
866.027	10144.73
866.348	10124.85
866.668	10056.15
866.989	10085.53
867.309	9999.43
867.63	10035.13
867.95	10031.52
868.27	9995.13
868.59	9912.42
868.91	9918.07
869.23	9924.63
869.55	9897.06
869.87	9938.86
870.19	9857.74
870.51	9835.59
870.83	9932.76
871.15	9761.01
871.469	9845.53
871.789	9828.58
872.109	9771.41
872.428	9776.38
872.748	9793.1
873.067	9712.43
873.386	9794.91
873.706	9696.38
874.025	9683.95
874.344	9693.22
874.663	9694.12
874.982	9665.65
875.301	9661.58
875.62	9631.3
875.939	9610.28
876.258	9607.12
876.577	9574.13
876.896	9573.67
877.214	9524.41
877.533	9520.79
877.852	9489.38
878.17	9469.72
878.489	9526.67
878.807	9425.2
879.125	9469.72
879.444	9448.48
879.762	9392.21
880.08	9430.63
880.398	9289.39
880.716	9358.99
881.034	9437.63
881.352	9318.77
881.67	9324.64
881.988	9295.04
882.306	9300.69
882.624	9240.12
882.941	9212.78
883.259	9179.79
883.577	9097.53
883.894	9215.72
884.212	9128.04
884.529	9103.18
884.846	9115.61
885.164	9071.09
885.481	9080.58
885.798	9039
886.115	8947.25
886.432	8988.83
886.75	8947.7
887.067	8954.26
887.383	8883.07
887.7	8982.28
888.017	8827.71
888.334	8863.64
888.651	8792.23
888.967	8771.66
889.284	8826.58
889.6	8766.46
889.917	8675.62
890.233	8700.7
890.55	8734.6
890.866	8662.74
891.182	8645.11
891.498	8641.04
891.815	8589.97
892.131	8506.13
892.447	8484.89
892.763	8529.86
893.079	8548.62
893.395	8476.3
893.71	8477.21
894.026	8471.1
894.342	8441.5
894.657	8332.35
894.973	8290.54
895.289	8304.1
895.604	8354.5
895.92	8248.96
896.235	8208.29
896.55	8257.55
896.865	8176.42
897.181	8146.59
897.496	8163.32
897.811	8082.87
898.126	8104.33
898.441	8007.61
898.756	8036.99
899.071	7992.02
899.386	7991.57
899.7	7919.48
900.015	7904.57
900.33	7754.51
900.644	7829.31
900.959	7868.63
901.273	7828.18
901.588	7757
901.902	7700.5
902.216	7699.83
902.531	7706.15
902.845	7594.52
903.159	7625.25
903.473	7610.56
903.787	7524.69
904.101	7523.79
904.415	7505.71
904.729	7469.78
905.042	7422.54
905.356	7376.44
905.67	7429.78
905.984	7412.15
906.297	7357.91
906.611	7274.07
906.924	7206.51
907.237	7263.45
907.551	7183
907.864	7166.73
908.177	7147.98
908.491	7172.83
908.804	7152.04
909.117	7061.65
909.43	7044.7
909.743	7016.23
910.056	7002.44
910.368	6950.24
910.681	6934.87
910.994	6890.58
911.307	6867.76
911.619	6883.35
911.932	6806.74
912.244	6783.24
912.557	6784.37
912.869	6745.27
913.181	6674.77
913.494	6689.46
913.806	6698.72
914.118	6663.02
914.43	6606.75
914.742	6567.2
915.054	6549.35
915.366	6545.28
915.678	6488.33
915.99	6476.36
916.302	6390.26
916.613	6399.3
916.925	6459.18
917.236	6346.19
917.548	6369.69
917.859	6334.21
918.171	6280.88
918.482	6257.15
918.794	6242.01
919.105	6248.56
919.416	6166.31
919.727	6189.36
920.038	6119.75
920.349	6080.43
920.66	6068.23
920.971	6076.37
921.282	6050.6
921.593	6012.64
921.903	5958.18
922.214	5975.13
922.525	5957.27
922.835	5970.38
923.146	5872.98
923.456	5845.86
923.767	5898.74
924.077	5846.99
924.387	5822.14
924.697	5741.69
925.008	5764.74
925.318	5753.21
925.628	5701.23
925.938	5673.44
926.248	5649.26
926.558	5658.98
926.867	5625.76
927.177	5594.57
927.487	5587.79
927.796	5525.42
928.106	5532.65
928.416	5459.43
928.725	5476.83
929.034	5452.2
929.344	5432.09
929.653	5440.9
929.962	5374.46
930.271	5358.87
930.581	5336.72
930.89	5275.71
931.199	5278.42
931.508	5259.44
931.817	5214.47
932.125	5204.75
932.434	5183.06
932.743	5154.81
933.051	5142.15
933.36	5083.17
933.669	5049.27
933.977	5068.48
934.286	5028.48
934.594	5030.97
934.902	4981.25
935.21	5003.85
935.519	5018.09
935.827	4953.68
936.135	4928.6
936.443	4878.43
936.751	4890.41
937.059	4905.77
937.367	4819.22
937.674	4850.86
937.982	4794.14
938.29	4817.64
938.597	4797.08
938.905	4731.32
939.213	4754.37
939.52	4700.13
939.827	4673.24
940.135	4656.74
940.442	4657.42
940.749	4651.32
941.056	4600.25
941.363	4624.88
941.67	4576.74
941.977	4508.72
942.284	4484.32
942.591	4494.94
942.898	4533.13
943.205	4502.62
943.511	4428.05
943.818	4449.97
944.125	4400.48
944.431	4412.45
944.738	4379.24
945.044	4323.42
945.35	4346.69
945.657	4311.89
945.963	4313.25
946.269	4288.62
946.575	4313.47
946.881	4245.45
947.187	4191.9
947.493	4176.98
947.799	4185.34
948.105	4122.52
948.41	4153.7
948.716	4168.39
949.022	4136.53
949.327	4122.07
949.633	4063.31
949.938	4033.26
950.244	4077.77
950.549	4009.53
950.854	4007.72
951.16	3983.09
951.465	4006.14
951.77	4003.43
952.075	3938.34
952.38	3931.34
952.685	3924.78
952.99	3859.25
953.294	3835.75
953.599	3874.84
953.904	3827.39
954.209	3824.67
954.513	3809.31
954.818	3769.76
955.122	3783.77
955.426	3746.26
955.731	3719.82
956.035	3727.95
956.339	3679.82
956.643	3693.83
956.948	3682.3
957.252	3672.36
957.556	3686.6
957.86	3662.19
958.163	3661.29
958.467	3611.57
958.771	3603.21
959.075	3594.85
959.378	3570.67
959.682	3544.91
959.985	3535.19
960.289	3511.24
960.592	3463.33
960.896	3534.74
961.199	3433.72
961.502	3497.68
961.805	3400.96
962.108	3421.75
962.411	3394.18
962.714	3401.86
963.017	3390.33
963.32	3348.08
963.623	3321.64
963.926	3332.26
964.228	3337
964.531	3293.39
964.833	3284.35
965.136	3308.98
965.438	3266.72
965.741	3264.69
966.043	3234.63
966.345	3224.46
966.648	3202.32
966.95	3231.02
967.252	3198.48
967.554	3164.8
967.856	3142.88
968.158	3127.74
968.46	3087.52
968.761	3100.4
969.063	3104.24
969.365	3093.39
969.666	3053.85
969.968	3053.62
970.269	3069.21
970.571	3012.72
970.872	2995.99
971.174	3028.99
971.475	2983.57
971.776	2980.4
972.077	2950.57
972.378	2962.1
972.679	2926.39
972.98	2923.68
973.281	2946.5
973.582	2932.95
973.883	2892.04
974.183	2879.61
974.484	2848.88
974.785	2854.08
975.085	2827.64
975.386	2821.31
975.686	2848.88
975.986	2819.95
976.287	2786.06
976.587	2753.06
976.887	2777.7
977.187	2744.48
977.487	2753.29
977.787	2724.14
978.087	2717.13
978.387	2690.47
978.687	2708.09
978.987	2658.83
979.286	2675.55
979.586	2649.34
979.885	2668.32
980.185	2638.49
980.484	2633.29
980.784	2637.36
981.083	2597.14
981.382	2569.11
981.682	2571.83
981.981	2564.59
982.28	2588.77
982.579	2546.97
982.878	2565.05
983.177	2529.79
983.475	2516.46
983.774	2495.89
984.073	2478.49
984.372	2493.41
984.67	2466.29
984.969	2427.2
985.267	2455.44
985.566	2462.45
985.864	2425.39
986.162	2408.21
986.461	2413.19
986.759	2412.73
987.057	2414.77
987.355	2391.26
987.653	2368.67
987.951	2354.43
988.249	2326.41
988.547	2387.42
988.844	2323.92
989.142	2307.43
989.44	2295.67
989.737	2273.75
990.035	2281.44
990.332	2277.6
990.63	2292.74
990.927	2225.17
991.224	2244.38
991.521	2202.34
991.819	2233.75
992.116	2224.04
992.413	2210.25
992.71	2187.88
993.006	2177.71
993.303	2189.91
993.6	2149.92
993.897	2182
994.193	2167.09
994.49	2144.94
994.787	2111.05
995.083	2097.94
995.379	2149.46
995.676	2114.89
995.972	2094.1
996.268	2081.89
996.565	2073.53
996.861	2047.55
997.157	2020.88
997.453	2031.05
997.749	2025.17
998.044	2009.58
998.34	2040.77
998.636	1999.18
998.932	1998.96
999.227	1965.97
999.523	1960.99
999.818	1933.2
1000.114	1921.9
1000.409	1916.7
1000.704	1909.02
1001	1900.2
1001.295	1888
1001.59	1902.46
1001.885	1892.97
1002.18	1896.36
1002.475	1842.58
1002.77	1861.56
1003.065	1850.26
1003.359	1833.77
1003.654	1845.97
1003.949	1853.2
1004.243	1814.1
1004.538	1806.2
1004.832	1821.34
1005.127	1773.43
1005.421	1777.5
1005.715	1770.72
1006.009	1763.94
1006.304	1751.28
1006.598	1701.57
1006.892	1709.93
1007.186	1705.18
1007.48	1725.29
1007.773	1702.47
1008.067	1693.43
1008.361	1698.63
1008.655	1676.71
1008.948	1651.85
1009.242	1636.93
1009.535	1633.09
1009.829	1631.06
1010.122	1623.38
1010.415	1614.79
1010.708	1597.61
1011.001	1591.06
1011.295	1571.85
1011.588	1585.64
1011.881	1570.5
1012.173	1546.32
1012.466	1547.22
1012.759	1563.04
1013.052	1556.26
1013.344	1550.61
1013.637	1492.08
1013.93	1510.38
1014.222	1472.87
1014.514	1495.7
1014.807	1500.21
1015.099	1468.58
1015.391	1456.37
1015.683	1468.8
1015.976	1450.27
1016.268	1457.28
1016.56	1437.84
1016.851	1405.53
1017.143	1422.93
1017.435	1423.15
1017.727	1389.48
1018.018	1405.08
1018.31	1368.92
1018.602	1375.7
1018.893	1370.5
1019.185	1354.46
1019.476	1336.15
1019.767	1340.44
1020.058	1325.3
1020.35	1320.11
1020.641	1322.59
1020.932	1304.06
1021.223	1311.07
1021.514	1276.27
1021.804	1271.52
1022.095	1264.97
1022.386	1256.83
1022.677	1260.22
1022.967	1246.44
1023.258	1223.61
1023.548	1214.12
1023.839	1232.88
1024.129	1204.4
1024.419	1201.69
1024.709	1202.37
1025	1200.34
1025.29	1173.67
1025.58	1193.78
1025.87	1164.18
1026.16	1176.38
1026.449	1128.93
1026.739	1147.46
1027.029	1128.02
1027.319	1127.34
1027.608	1122.82
1027.898	1144.74
1028.187	1133.67
1028.477	1102.49
1028.766	1109.26
1029.055	1125.54
1029.344	1097.51
1029.634	1094.12
1029.923	1069.49
1030.212	1076.72
1030.501	1069.27
1030.79	1052.54
1031.078	1058.87
1031.367	1055.03
1031.656	1021.13
1031.945	1023.39
1032.233	1025.2
1032.522	991.75
1032.81	1002.83
1033.099	1004.86
1033.387	1018.87
1033.675	989.72
1033.963	966.67
1034.251	966.44
1034.54	980
1034.828	982.71
1035.116	960.34
1035.403	955.14
1035.691	937.97
1035.979	940.91
1036.267	926.67
1036.554	931.64
1036.842	898.2
1037.129	917.86
1037.417	918.31
1037.704	903.39
1037.992	905.2
1038.279	878.54
1038.566	904.52
1038.853	904.52
1039.14	904.52
