Data from hue_110_FLMS001491_00088.txt Node
Date: Tue Feb 07 17:01:57 GMT 2017
User: dcchb
Spectrometer: FLMS00149
Trigger mode: 0
Integration Time (sec): 2.000000E-2
Scans to average: 10
Electric dark correction enabled: true
Nonlinearity correction enabled: false
Boxcar width: 0
XAxis mode: Wavelengths
Number of Pixels in Spectrum: 2048
>>>>>Begin Spectral Data<<<<<
341.393	-4.73
341.776	-4.73
342.16	-4.73
342.543	-42.92
342.927	-67.78
343.31	-76.37
343.693	-88.12
344.077	-71.62
344.46	-59.65
344.843	-42.7
345.226	-45.41
345.61	-35.24
345.993	0.69
346.376	-9.7
346.759	15.15
347.142	37.3
347.525	27.58
347.908	58.54
348.291	70.97
348.674	91.99
349.057	126.56
349.44	115.04
349.823	137.86
350.206	162.72
350.588	193.91
350.971	192.33
351.354	221.7
351.737	226.67
352.119	245.88
352.502	261.48
352.884	276.62
353.267	278.65
353.65	260.8
354.032	287.92
354.414	324.07
354.797	306.9
355.179	315.26
355.562	321.36
355.944	322.94
356.326	325.88
356.709	317.97
357.091	330.63
357.473	338.31
357.855	332.89
358.238	341.93
358.62	338.54
359.002	338.31
359.384	317.52
359.766	342.83
360.148	336.95
360.53	345.99
360.912	329.05
361.294	342.38
361.676	339.21
362.057	321.14
362.439	322.27
362.821	317.97
363.203	340.34
363.584	316.62
363.966	303.73
364.348	314.36
364.729	323.85
365.111	317.52
365.493	307.35
365.874	334.69
366.256	318.2
366.637	319.1
367.019	317.07
367.4	296.96
367.781	314.58
368.163	299.89
368.544	304.19
368.925	292.89
369.306	317.07
369.688	327.24
370.069	308.25
370.45	310.74
370.831	314.36
371.212	325.88
371.593	331.53
371.974	303.51
372.355	310.74
372.736	316.62
373.117	301.93
373.498	293.57
373.879	313.9
374.26	314.13
374.641	321.14
375.021	316.84
375.402	335.37
375.783	327.24
376.163	320.01
376.544	307.35
376.925	316.84
377.305	320.91
377.686	344.41
378.066	325.43
378.447	329.5
378.827	326.79
379.208	333.79
379.588	343.96
379.968	330.85
380.349	324.53
380.729	332.89
381.109	343.51
381.489	335.6
381.87	319.55
382.25	351.19
382.63	330.85
383.01	337.18
383.39	331.98
383.77	345.77
384.15	331.98
384.53	349.38
384.91	359.33
385.29	355.71
385.67	344.41
386.049	330.85
386.429	369.72
386.809	343.96
387.189	344.41
387.568	359.1
387.948	340.8
388.328	364.3
388.707	367.69
389.087	361.81
389.466	370.17
389.846	350.06
390.225	381.7
390.605	368.37
390.984	373.56
391.363	350.29
391.743	353.68
392.122	394.58
392.501	358.65
392.881	383.96
393.26	377.41
393.639	369.5
394.018	374.69
394.397	376.05
394.776	371.08
395.155	382.38
395.534	385.09
395.913	389.83
396.292	392.32
396.671	381.47
397.05	381.02
397.429	368.59
397.808	395.94
398.186	376.05
398.565	397.74
398.944	383.73
399.323	420.79
399.701	390.74
400.08	404.75
400.458	432.32
400.837	412.88
401.215	413.56
401.594	403.17
401.972	404.07
402.351	426.9
402.729	388.7
403.107	440.45
403.486	409.49
403.864	421.25
404.242	409.72
404.62	445.65
404.999	434.8
405.377	431.87
405.755	422.83
406.133	439.78
406.511	425.31
406.889	403.85
407.267	450.17
407.645	429.83
408.023	415.14
408.401	414.24
408.779	436.84
409.156	426.67
409.534	453.11
409.912	445.88
410.29	465.76
410.667	438.19
411.045	438.87
411.422	458.99
411.8	454.47
412.178	434.8
412.555	462.37
412.933	474.58
413.31	480.91
413.687	496.27
414.065	479.78
414.442	471.41
414.819	488.36
415.197	500.79
415.574	471.87
415.951	504.41
416.328	501.7
416.705	494.24
417.082	528.14
417.46	524.52
417.837	520.68
418.214	482.26
418.591	497.4
418.967	508.93
419.344	544.41
419.721	516.61
420.098	535.14
420.475	539.21
420.852	527.23
421.228	537.63
421.605	522.94
421.982	554.12
422.358	546.21
422.735	550.51
423.111	534.01
423.488	581.92
423.864	552.32
424.241	555.25
424.617	557.29
424.994	579.21
425.37	555.25
425.746	570.17
426.123	607.68
426.499	594.57
426.875	592.99
427.251	601.58
427.627	594.12
428.003	602.71
428.379	608.36
428.756	598.19
429.132	608.13
429.507	645.65
429.883	639.55
430.259	659.66
430.635	627.79
431.011	622.82
431.387	648.36
431.763	648.13
432.138	661.24
432.514	652.2
432.89	660.11
433.265	698.07
433.641	692.88
434.016	692.2
434.392	693.78
434.767	692.43
435.143	699.88
435.518	700.33
435.894	698.3
436.269	713.89
436.644	730.84
437.02	744.4
437.395	743.5
437.77	745.98
438.145	742.37
438.52	752.99
438.895	760.45
439.271	764.29
439.646	767.9
440.021	801.35
440.395	785.53
440.77	782.59
441.145	806.09
441.52	803.83
441.895	787.79
442.27	785.98
442.645	773.1
443.019	806.77
443.394	829.82
443.769	824.63
444.143	847
444.518	844.29
444.892	859.88
445.267	855.13
445.641	863.04
446.016	847.68
446.39	829.14
446.764	837.05
447.139	866.43
447.513	867.11
447.887	872.31
448.262	884.74
448.636	896.71
449.01	904.62
449.384	911.4
449.758	926.32
450.132	915.02
450.506	910.5
450.88	922.48
451.254	942.36
451.628	927.45
452.002	959.99
452.376	969.48
452.75	958.63
453.123	951.4
453.497	988.91
453.871	970.61
454.244	1023.72
454.618	1032.08
454.992	1015.35
455.365	1016.26
455.739	1040.89
456.112	1076.14
456.486	1064.62
456.859	1086.31
457.232	1079.53
457.606	1079.76
457.979	1121.57
458.352	1129.02
458.725	1141.23
459.099	1136.03
459.472	1167.67
459.845	1188.46
460.218	1192.75
460.591	1169.7
460.964	1226.2
461.337	1251.51
461.71	1260.09
462.083	1267.55
462.456	1301.22
462.829	1290.15
463.201	1326.53
463.574	1327.21
463.947	1328.57
464.32	1363.37
464.692	1377.15
465.065	1371.5
465.438	1392.29
465.81	1435.23
466.183	1472.07
466.555	1474.1
466.928	1492.86
467.3	1491.5
467.672	1535.57
468.045	1559.97
468.417	1583.48
468.789	1613.31
469.161	1639.07
469.534	1653.76
469.906	1694.43
470.278	1686.07
470.65	1722
471.022	1773.3
471.394	1791.83
471.766	1817.59
472.138	1858.04
472.51	1929.23
472.882	1950.92
473.253	1962
473.625	2028.44
473.997	2122.67
474.369	2072.5
474.74	2155.89
475.112	2210.35
475.484	2251.71
475.855	2317.69
476.227	2337.81
476.598	2411.02
476.97	2440.63
477.341	2536.9
477.713	2597.69
478.084	2672.26
478.455	2728.98
478.827	2778.25
479.198	2876.55
479.569	2927.39
479.94	3026.6
480.311	3088.97
480.682	3208.52
481.053	3251.91
481.424	3349.53
481.795	3453.26
482.166	3544.78
482.537	3621.84
482.908	3755.85
483.279	3841.72
483.65	3925.11
484.021	4070.87
484.391	4123.3
484.762	4217.98
485.133	4338.43
485.503	4415.49
485.874	4583.4
486.244	4662.26
486.615	4748.82
486.985	4926.21
487.356	5091.41
487.726	5231.97
488.097	5316.71
488.467	5382.92
488.837	5543.82
489.207	5688.68
489.578	5872.63
489.948	5941.78
490.318	6098.84
490.688	6227.42
491.058	6371.6
491.428	6495.66
491.798	6551.71
492.168	6791.25
492.538	6868.08
492.908	7015.42
493.278	7135.19
493.648	7224.46
494.017	7432.81
494.387	7534.05
494.757	7736.99
495.126	7799.36
495.496	7942.63
495.866	8027.83
496.235	8203.64
496.605	8316.63
496.974	8435.95
497.344	8562.05
497.713	8583.52
498.082	8779.22
498.452	8879.55
498.821	8919.1
499.19	9117.97
499.559	9210.17
499.928	9395.25
500.298	9382.14
500.667	9582.14
501.036	9595.69
501.405	9750.72
501.774	9797.04
502.143	9896.03
502.512	10040.65
502.88	10181.89
503.249	10193.64
503.618	10277.26
503.987	10402.68
504.356	10473.64
504.724	10590.7
505.093	10636.57
505.462	10657.36
505.83	10832.05
506.199	10910.69
506.567	11037.69
506.936	11061.19
507.304	11170.12
507.672	11273.16
508.041	11309.32
508.409	11275.88
508.777	11514.74
509.145	11628.86
509.514	11581.4
509.882	11684.9
510.25	11700.72
510.618	11772.13
510.986	11825.01
511.354	11905.46
511.722	12044.67
512.09	12212.35
512.458	12139.13
512.826	12192.91
513.193	12197.89
513.561	12317.66
513.929	12392.91
514.297	12480.36
514.664	12448.73
515.032	12482.85
515.4	12621.15
515.767	12674.03
516.135	12660.92
516.502	12584.09
516.869	12764.65
517.237	12872.44
517.604	12675.84
517.972	12881.26
518.339	12933.01
518.706	12939.79
519.073	12901.37
519.44	13064.53
519.808	13124.19
520.175	13072.66
520.542	13235.37
520.909	13276.5
521.276	13233.11
521.643	13298.2
522.009	13359.89
522.376	13451.41
522.743	13418.87
523.11	13515.14
523.477	13550.17
523.843	13605.76
524.21	13722.59
524.577	13677.39
524.943	13724.17
525.31	13852.31
525.676	13933.66
526.043	13825.64
526.409	13902.02
526.776	14027.67
527.142	14028.35
527.508	13949.48
527.874	14046.2
528.241	13994.22
528.607	14019.53
528.973	14102.24
529.339	14114.9
529.705	14125.29
530.071	14176.59
530.437	14158.74
530.803	14238.28
531.169	14150.83
531.535	14063.15
531.901	14167.55
532.267	14096.82
532.632	14192.41
532.998	14237.38
533.364	14240.54
533.73	14203.93
534.095	14278.28
534.461	14160.55
534.826	14322.35
535.192	14195.12
535.557	14327.32
535.923	14148.79
536.288	14221.34
536.653	14216.59
537.019	14092.3
537.384	14098.63
537.749	14111.28
538.114	14113.32
538.479	14066.54
538.845	14024.96
539.21	13943.15
539.575	14067.67
539.94	14010.27
540.305	14045.52
540.67	13919.65
541.034	13873.32
541.399	13904.28
541.764	13836.26
542.129	13850.72
542.494	13872.19
542.858	13875.81
543.223	13824.74
543.587	13772.76
543.952	13752.42
544.316	13733.89
544.681	13649.37
545.045	13616.38
545.41	13677.17
545.774	13627.68
546.138	13608.02
546.503	13567.57
546.867	13572.09
547.231	13484.63
547.595	13508.59
547.959	13486.44
548.324	13396.95
548.688	13365.31
549.052	13443.73
549.416	13358.53
549.779	13282.15
550.143	13285.99
550.507	13292.32
550.871	13295.26
551.235	13178.2
551.599	13322.6
551.962	13215.94
552.326	13300.91
552.689	13304.98
553.053	13126.9
553.417	13117.18
553.78	13221.81
554.143	13139.33
554.507	13142.95
554.87	13162.15
555.234	13191.53
555.597	13007.36
555.96	13081.03
556.323	13128.71
556.686	12982.72
557.05	13066.56
557.413	13051.42
557.776	13064.08
558.139	13134.58
558.502	13030.86
558.865	13001.25
559.228	13119.44
559.59	13092.55
559.953	13026.34
560.316	13079.22
560.679	13112.44
561.041	13111.99
561.404	13147.01
561.767	13074.92
562.129	13006.9
562.492	13080.8
562.854	13082.61
563.217	13072.89
563.579	13127.8
563.941	13186.33
564.304	13102.04
564.666	13169.61
565.028	13142.27
565.39	13290.06
565.753	13235.37
566.115	13220.23
566.477	13181.81
566.839	13221.81
567.201	13297.97
567.563	13222.94
567.925	13328.7
568.287	13344.3
568.648	13345.2
569.01	13368.48
569.372	13371.87
569.734	13340.68
570.095	13364.41
570.457	13341.81
570.819	13441.02
571.18	13432.88
571.542	13427.01
571.903	13477.85
572.265	13492.31
572.626	13436.27
572.987	13503.16
573.349	13540.9
573.71	13585.87
574.071	13512.2
574.432	13587.23
574.794	13545.87
575.155	13540.45
575.516	13586.1
575.877	13593.1
576.238	13596.72
576.599	13639.2
576.96	13616.38
577.32	13605.53
577.681	13617.28
578.042	13658.86
578.403	13644.18
578.763	13643.5
579.124	13584.06
579.485	13599.43
579.845	13683.5
580.206	13681.24
580.566	13636.49
580.927	13639.43
581.287	13807.33
581.648	13601.92
582.008	13643.95
582.368	13621.12
582.728	13697.51
583.089	13676.72
583.449	13657.73
583.809	13605.76
584.169	13613.89
584.529	13581.35
584.889	13620.22
585.249	13533.9
585.609	13483.28
585.969	13559.88
586.329	13537.96
586.688	13557.17
587.048	13517.62
587.408	13529.6
587.768	13537.51
588.127	13578.41
588.487	13518.3
588.846	13574.12
589.206	13482.6
589.565	13471.07
589.925	13470.39
590.284	13438.76
590.643	13581.35
591.003	13558.75
591.362	13470.85
591.721	13508.36
592.08	13464.07
592.44	13435.14
592.799	13445.08
593.158	13453.67
593.517	13378.65
593.876	13491.41
594.235	13460.45
594.593	13412.77
594.952	13402.37
595.311	13368.48
595.67	13342.26
596.029	13471.52
596.387	13445.54
596.746	13494.8
597.104	13398.08
597.463	13366.67
597.822	13387.91
598.18	13352.88
598.538	13350.62
598.897	13432.2
599.255	13335.26
599.613	13471.52
599.972	13311.98
600.33	13475.37
600.688	13409.38
601.046	13484.86
601.404	13491.18
601.762	13428.59
602.12	13469.94
602.478	13420.9
602.836	13403.96
603.194	13337.29
603.552	13390.85
603.91	13281.47
604.268	13310.17
604.625	13363.5
604.983	13321.02
605.341	13347.69
605.698	13424.52
606.056	13450.06
606.413	13430.4
606.771	13402.15
607.128	13481.24
607.485	13368.02
607.843	13415.25
608.2	13478.53
608.557	13454.35
608.914	13490.05
609.272	13527.34
609.629	13482.82
609.986	13547.23
610.343	13484.63
610.7	13585.87
611.057	13534.8
611.414	13504.07
611.771	13470.85
612.127	13589.26
612.484	13599.88
612.841	13655.47
613.198	13551.3
613.554	13558.98
613.911	13609.83
614.267	13652.08
614.624	13600.79
614.98	13681.46
615.337	13715.81
615.693	13683.72
616.05	13719.88
616.406	13712.2
616.762	13759.43
617.118	13643.95
617.475	13766.43
617.831	13772.53
618.187	13829.48
618.543	13744.74
618.899	13763.04
619.255	13725.3
619.611	13829.48
619.967	13828.58
620.323	13897.05
620.678	13848.46
621.034	13785.41
621.39	13833.55
621.746	13791.29
622.101	13882.13
622.457	13829.03
622.812	13810.5
623.168	13795.81
623.523	13893.66
623.879	13871.74
624.234	13760.1
624.589	13879.2
624.945	13783.15
625.3	13874.45
625.655	13823.38
626.01	13823.15
626.365	13766.88
626.72	13797.62
627.075	13860.67
627.43	13776.15
627.785	13754.68
628.14	13824.74
628.495	13704.06
628.85	13828.58
629.205	13680.78
629.559	13808.69
629.914	13628.58
630.269	13746.09
630.623	13652.76
630.978	13716.72
631.332	13815.24
631.687	13749.48
632.041	13670.16
632.396	13653.89
632.75	13672.42
633.104	13688.24
633.459	13689.37
633.813	13605.76
634.167	13630.84
634.521	13617.74
634.875	13586.55
635.229	13586.32
635.583	13539.55
635.937	13477.85
636.291	13476.5
636.645	13493.67
636.999	13454.35
637.352	13460.23
637.706	13392.88
638.06	13464.74
638.413	13460.9
638.767	13455.48
639.121	13438.76
639.474	13408.02
639.828	13351.53
640.181	13395.82
640.534	13358.53
640.888	13317.63
641.241	13268.59
641.594	13278.54
641.947	13383.17
642.301	13331.87
642.654	13366.67
643.007	13227.46
643.36	13264.3
643.713	13268.59
644.066	13231.76
644.419	13268.14
644.771	13151.76
645.124	13048.71
645.477	13094.36
645.83	12986.34
646.182	12850.98
646.535	12847.81
646.888	12876.29
647.24	12789.28
647.593	12815.04
647.945	12853.46
648.298	12775.5
648.65	12721.49
649.002	12731.66
649.355	12807.36
649.707	12762.16
650.059	12787.02
650.411	13044.64
650.763	13004.64
651.115	13119.44
651.467	13041.48
651.819	13050.29
652.171	13067.02
652.523	13012.33
652.875	13107.47
653.227	12959.45
653.578	13140.91
653.93	13059.33
654.282	13043.51
654.633	13061.14
654.985	13045.32
655.337	13069.28
655.688	13084.19
656.039	13087.35
656.391	12932.56
656.742	13144.3
657.094	13079.22
657.445	13048.26
657.796	12945.89
658.147	13051.42
658.498	13030.86
658.849	13022.27
659.2	13068.6
659.551	12984.08
659.902	13067.24
660.253	13169.16
660.604	13081.93
660.955	13057.75
661.306	13195.83
661.656	13173.23
662.007	13097.97
662.358	13107.69
662.708	13104.3
663.059	13068.6
663.409	13012.1
663.76	13060.91
664.11	13113.12
664.461	13164.87
664.811	13105.21
665.161	13089.84
665.511	13058.65
665.862	13179.55
666.212	13141.14
666.562	13166.67
666.912	13157.63
667.262	13163.28
667.612	13020.01
667.962	13095.94
668.312	13180.46
668.662	13234.47
669.011	13145.43
669.361	13154.47
669.711	13090.29
670.06	13103.4
670.41	13168.26
670.76	13096.62
671.109	13130.74
671.459	13058.2
671.808	13051.65
672.157	13064.53
672.507	13003.97
672.856	12984.76
673.205	13072.21
673.554	13083.29
673.904	12991.99
674.253	13037.86
674.602	13013.23
674.951	12813.24
675.3	12780.02
675.649	12888.04
675.998	12912.67
676.346	12867.7
676.695	12972.55
677.044	12921.03
677.393	12925.32
677.741	12915.38
678.09	12887.58
678.438	12825.44
678.787	12899.79
679.135	12870.41
679.484	12772.79
679.832	12732.56
680.181	12755.38
680.529	12719.68
680.877	12758.55
681.225	12648.5
681.573	12791.09
681.922	12643.75
682.27	12686.23
682.618	12655.73
682.966	12597.87
683.314	12671.32
683.661	12535.28
684.009	12529.4
684.357	12510.42
684.705	12470.87
685.053	12497.99
685.4	12474.04
685.748	12461.61
686.095	12351.33
686.443	12307.26
686.79	12382.06
687.138	12329.86
687.485	12254.61
687.832	12213.25
688.18	12373.7
688.527	12280.14
688.874	12227.72
689.221	12178.22
689.568	12105.46
689.915	12102.97
690.262	12021.17
690.609	11992.24
690.956	11999.25
691.303	11914.96
691.65	11902.3
691.997	11935.97
692.344	11741.85
692.69	11792.47
693.037	11774.39
693.383	11668.63
693.73	11685.36
694.077	11620.95
694.423	11621.4
694.769	11525.36
695.116	11492.37
695.462	11458.02
695.808	11454.18
696.155	11411.47
696.501	11329.43
696.847	11413.73
697.193	11278.14
697.539	11325.37
697.885	11290.79
698.231	11217.57
698.577	11141.64
698.923	11105.71
699.269	11042.89
699.614	11061.87
699.96	11036.11
700.306	10890.58
700.651	10913.4
700.997	10847.64
701.342	10851.25
701.688	10823.91
702.033	10824.36
702.379	10796.11
702.724	10705.04
703.069	10740.3
703.415	10583.46
703.76	10600.87
704.105	10661.2
704.45	10597.93
704.795	10453.07
705.14	10405.16
705.485	10382.11
705.83	10408.33
706.175	10281.55
706.52	10377.37
706.865	10265.28
707.209	10331.72
707.554	10282.23
707.899	10247.88
708.243	10300.08
708.588	10130.37
708.932	10063.03
709.277	10140.31
709.621	10063.7
709.966	10003.37
710.31	10067.55
710.654	9941.45
710.998	10009.92
711.342	9964.72
711.687	9973.09
712.031	9849.7
712.375	9887.66
712.719	9869.81
713.063	9843.15
713.407	9815.8
713.75	9765.86
714.094	9815.58
714.438	9744.16
714.782	9802.24
715.125	9695.8
715.469	9769.93
715.812	9675.69
716.156	9646.31
716.499	9632.76
716.843	9640.21
717.186	9618.97
717.53	9606.09
717.873	9580.78
718.216	9614
718.559	9543.49
718.902	9479.31
719.246	9545.98
719.589	9513.66
719.932	9446.77
720.275	9474.34
720.617	9461.69
720.96	9406.32
721.303	9475.02
721.646	9410.84
721.989	9425.53
722.331	9392.99
722.674	9381.91
723.016	9328.13
723.359	9372.88
723.701	9356.38
724.044	9308.02
724.386	9329.71
724.729	9401.57
725.071	9327.23
725.413	9331.52
725.755	9389.15
726.097	9278.19
726.439	9254.23
726.782	9285.42
727.124	9266.66
727.465	9256.72
727.807	9256.95
728.149	9252.2
728.491	9238.87
728.833	9223.05
729.175	9179.66
729.516	9231.18
729.858	9196.83
730.199	9168.59
730.541	9249.71
730.882	9151.19
731.224	9189.15
731.565	9178.3
731.906	9237.06
732.248	9169.04
732.589	9128.14
732.93	9083.17
733.271	9143.95
733.612	9173.78
733.953	9227.79
734.294	9097.4
734.635	9200.45
734.976	9119.55
735.317	9155.48
735.658	9142.82
735.999	9135.82
736.339	9096.27
736.68	9193.67
737.021	9163.16
737.361	9162.71
737.702	9249.71
738.042	9189.83
738.383	9188.47
738.723	9185.99
739.063	9207
739.404	9225.08
739.744	9256.49
740.084	9227.34
740.424	9250.17
740.764	9196.83
741.104	9295.59
741.444	9243.16
741.784	9265.31
742.124	9258.08
742.464	9317.51
742.804	9387.56
743.143	9279.09
743.483	9329.49
743.823	9379.2
744.162	9366.77
744.502	9463.95
744.841	9448.35
745.181	9477.28
745.52	9535.58
745.86	9575.36
746.199	9608.35
746.538	9565.86
746.877	9654.9
747.216	9699.19
747.556	9694.22
747.895	9736.48
748.234	9814.45
748.573	9815.35
748.911	9842.69
749.25	10011.73
749.589	10044.5
749.928	10130.6
750.267	10168.56
750.605	10246.75
750.944	10267.54
751.283	10361.1
751.621	10422.34
751.96	10498.04
752.298	10628.44
752.636	10729.45
752.975	10744.36
753.313	10817.36
753.651	11011.25
753.989	10997.24
754.327	11163.56
754.666	11258.93
755.004	11337.12
755.342	11573.27
755.679	11628.18
756.017	11705.92
756.355	11932.81
756.693	11897.78
757.031	12173.71
757.368	12292.57
757.706	12335.96
758.044	12424.77
758.381	12670.42
758.719	12839.9
759.056	12987.47
759.394	13126.45
759.731	13123.06
760.068	13373
760.405	13496.61
760.743	13690.05
761.08	13802.36
761.417	13949.7
761.754	14093.2
762.091	14211.17
762.428	14385.17
762.765	14468.56
763.102	14648.22
763.438	14784.71
763.775	14932.28
764.112	15165.94
764.449	15384.47
764.785	15345.6
765.122	15520.28
765.458	15649.09
765.795	15765.48
766.131	15958.01
766.467	16157.33
766.804	16235.07
767.14	16257.44
767.476	16433.48
767.812	16493.14
768.148	16679.58
768.485	16694.72
768.821	16822.85
769.157	17014.71
769.492	17107.59
769.828	17154.14
770.164	17209.28
770.5	17297.64
770.836	17432.32
771.171	17466.67
771.507	17486.33
771.842	17603.17
772.178	17648.14
772.513	17888.81
772.849	17847.45
773.184	17921.35
773.519	17994.34
773.855	18032.76
774.19	17995.47
774.525	17977.17
774.86	18185.75
775.195	18262.58
775.53	18171.74
775.865	18190.72
776.2	18185.07
776.535	18174.68
776.87	18294
777.205	18237.73
777.539	18269.14
777.874	18435.01
778.209	18403.37
778.543	18350.49
778.878	18359.53
779.212	18475.46
779.547	18356.37
779.881	18409.7
780.215	18401.11
780.55	18477.04
780.884	18385.29
781.218	18455.57
781.552	18457.38
781.886	18469.58
782.22	18481.56
782.554	18399.53
782.888	18275.01
783.222	18322.7
783.556	18253.77
783.889	18308.46
784.223	18159.76
784.557	18221.23
784.89	18253.09
785.224	18123.83
785.557	18085.19
785.891	18249.48
786.224	18077.28
786.558	18112.76
786.891	17998.64
787.224	17981.01
787.557	17992.99
787.891	17940.79
788.224	18031.18
788.557	17977.17
788.89	17932.42
789.223	17991.18
789.556	17932.88
789.888	17776.72
790.221	17828.92
790.554	17799.55
790.887	17680.23
791.219	17720.68
791.552	17679.78
791.884	17639.78
792.217	17602.04
792.549	17563.62
792.882	17449.05
793.214	17433.68
793.546	17432.78
793.879	17270.07
794.211	17217.64
794.543	17382.61
794.875	17294.93
795.207	17227.58
795.539	17251.09
795.871	17224.42
796.203	16926.35
796.535	17044.76
796.867	16948.27
797.198	16912.79
797.53	16959.57
797.862	16906.69
798.193	16918.21
798.525	16793.02
798.856	16891.77
799.188	16662.85
799.519	16609.07
799.85	16558.67
800.182	16564.55
800.513	16637.99
800.844	16518.22
801.175	16484.55
801.506	16508.51
801.837	16376.53
802.168	16416.76
802.499	16392.8
802.83	16279.81
803.161	16276.2
803.491	16281.39
803.822	16269.64
804.153	16180.38
804.483	16077.78
804.814	16099.7
805.145	16089.08
805.475	16007.28
805.805	16015.64
806.136	16028.07
806.466	15953.94
806.796	16001.85
807.126	15837.79
807.457	15781.52
807.787	15825.59
808.117	15745.81
808.447	15707.17
808.777	15689.32
809.107	15527.97
809.436	15643.44
809.766	15523.22
810.096	15553.05
810.426	15366.84
810.755	15484.58
811.085	15447.52
811.414	15324.81
811.744	15360.29
812.073	15241.65
812.403	15253.4
812.732	15191.48
813.061	15209.56
813.39	15154.42
813.719	15092.95
814.049	15156.45
814.378	15188.32
814.707	15005.95
815.036	15070.35
815.365	14998.72
815.693	14846.86
816.022	14825.61
816.351	14836.23
816.68	14813.64
817.008	14834.65
817.337	14729.34
817.665	14678.5
817.994	14747.87
818.322	14713.98
818.651	14670.36
818.979	14527.09
819.307	14655.22
819.636	14567.31
819.964	14512.4
820.292	14571.83
820.62	14564.15
820.948	14489.12
821.276	14549.46
821.604	14577.71
821.932	14469.92
822.259	14516.02
822.587	14499.75
822.915	14454.32
823.243	14497.94
823.57	14540.42
823.898	14440.54
824.225	14319.64
824.553	14551.72
824.88	14408.67
825.207	14484.61
825.535	14515.34
825.862	14512.63
826.189	14473.98
826.516	14537.94
826.843	14448
827.17	14580.2
827.497	14534.55
827.824	14506.75
828.151	14459.52
828.478	14512.85
828.805	14557.37
829.131	14511.5
829.458	14429.47
829.785	14420.2
830.111	14530.03
830.438	14493.64
830.764	14424.49
831.09	14511.95
831.417	14482.12
831.743	14555.56
832.069	14558.95
832.395	14438.96
832.722	14404.83
833.048	14404.61
833.374	14382.69
833.7	14384.27
834.026	14333.2
834.351	14410.03
834.677	14324.84
835.003	14391.95
835.329	14388.79
835.654	14292.52
835.98	14283.03
836.306	14227.44
836.631	14256.59
836.956	14286.42
837.282	14252.75
837.607	14179.08
837.932	14213.2
838.258	14170.49
838.583	14163.03
838.908	14071.96
839.233	14160.09
839.558	14122.35
839.883	13959.65
840.208	13997.16
840.533	13966.43
840.858	13916.71
841.182	13969.36
841.507	13915.81
841.832	13895.92
842.156	13882.59
842.481	13884.85
842.805	13797.84
843.13	13762.82
843.454	13783.15
843.778	13719.65
844.103	13694.8
844.427	13608.7
844.751	13674.91
845.075	13607.79
845.399	13624.06
845.723	13615.25
846.047	13511.75
846.371	13398.98
846.695	13432.43
847.019	13310.62
847.343	13283.51
847.666	13184.75
847.99	13146.34
848.313	13128.03
848.637	12980.01
848.96	12953.35
849.284	12877.42
849.607	12984.31
849.931	12930.3
850.254	12783.86
850.577	12720.58
850.9	12563.3
851.223	12675.16
851.546	12574.15
851.869	12429.97
852.192	12534.15
852.515	12374.38
852.838	12389.74
853.161	12403.53
853.483	12351.33
853.806	12219.13
854.129	12282.63
854.451	12146.81
854.774	12197.66
855.096	12027.04
855.419	12116.31
855.741	12038.57
856.063	11991.11
856.385	11929.87
856.708	11913.15
857.03	11780.04
857.352	11901.17
857.674	11776.2
857.996	11816.2
858.318	11720.16
858.64	11659.37
858.961	11632.25
859.283	11597
859.605	11540.5
859.926	11686.03
860.248	11550.9
860.57	11538.24
860.891	11514.97
861.212	11390.22
861.534	11414.18
861.855	11362.65
862.176	11397.91
862.498	11325.14
862.819	11408.08
863.14	11283.56
863.461	11267.29
863.782	11327.4
864.103	11357.46
864.424	11226.16
864.745	11214.18
865.065	11168.08
865.386	11212.6
865.707	11143.45
866.027	11172.6
866.348	11105.94
866.668	11135.54
866.989	11159.95
867.309	10966.05
867.63	11087.18
867.95	10997.92
868.27	10934.64
868.59	11014.19
868.91	10919.5
869.23	10983.68
869.55	10906.39
869.87	10949.1
870.19	10936.22
870.51	10914.53
870.83	10939.61
871.15	10790.92
871.469	10836.34
871.789	10857.36
872.109	10762.22
872.428	10743.23
872.748	10774.19
873.067	10696.68
873.386	10732.39
873.706	10726.74
874.025	10656.91
874.344	10639.96
874.663	10680.86
874.982	10671.6
875.301	10596.57
875.62	10560.87
875.939	10513.41
876.258	10525.16
876.577	10445.16
876.896	10495.33
877.214	10523.58
877.533	10490.59
877.852	10418.27
878.17	10450.59
878.489	10428.67
878.807	10430.02
879.125	10450.59
879.444	10386.63
879.762	10448.55
880.08	10365.39
880.398	10324.26
880.716	10335.11
881.034	10275.9
881.352	10299.63
881.67	10239.07
881.988	10209.24
882.306	10264.6
882.624	10200.2
882.941	10144.83
883.259	10127.21
883.577	10105.96
883.894	10118.62
884.212	10112.52
884.529	10058.73
884.846	10043.37
885.164	9990.49
885.481	9942.35
885.798	10032.29
886.115	9913.43
886.432	9905.74
886.75	9888.57
887.067	9890.6
887.383	9785.97
887.7	9879.53
888.017	9749.81
888.334	9829.13
888.651	9773.54
888.967	9717.95
889.284	9695.35
889.6	9666.2
889.917	9541.68
890.233	9629.59
890.55	9518.63
890.866	9565.86
891.182	9544.4
891.498	9465.3
891.815	9496.04
892.131	9433.89
892.447	9438.18
892.763	9334.23
893.079	9364.97
893.395	9301.92
893.71	9213.78
894.026	9284.06
894.342	9254.91
894.657	9174.91
894.973	9181.02
895.289	9173.78
895.604	9180.11
895.92	9057.63
896.235	9077.29
896.55	9030.96
896.865	8995.94
897.181	8931.98
897.496	8943.28
897.811	8870.06
898.126	8897.63
898.441	8851.31
898.756	8804.98
899.071	8700.12
899.386	8702.16
899.7	8761.37
900.015	8709.62
900.33	8581.71
900.644	8602.05
900.959	8635.27
901.273	8591.43
901.588	8549.39
901.902	8470.3
902.216	8444.31
902.531	8444.76
902.845	8405.67
903.159	8362.05
903.473	8313.02
903.787	8281.15
904.101	8265.79
904.415	8260.14
904.729	8192.12
905.042	8185.56
905.356	8150.08
905.67	8170.65
905.984	8182.4
906.297	8127.71
906.611	8035.28
906.924	7983.08
907.237	7985.11
907.551	7954.83
907.864	7861.28
908.177	7920.03
908.491	7882.97
908.804	7806.36
909.117	7816.98
909.43	7722.97
909.743	7684.78
910.056	7667.16
910.368	7638.01
910.681	7567.95
910.994	7525.69
911.307	7590.32
911.619	7491.34
911.932	7511
912.244	7440.5
912.557	7445.02
912.869	7378.8
913.181	7375.41
913.494	7360.05
913.806	7326.83
914.118	7280.5
914.43	7246.83
914.742	7182.88
915.054	7159.6
915.366	7207.06
915.678	7115.53
915.99	7095.42
916.302	7112.6
916.613	6980.17
916.925	7053.16
917.236	7049.77
917.548	6901.75
917.859	6940.85
918.171	6899.49
918.482	6882.32
918.794	6843.45
919.105	6857.46
919.416	6808.2
919.727	6833.51
920.038	6758.25
920.349	6712.15
920.66	6690.91
920.971	6705.37
921.282	6631.48
921.593	6597.58
921.903	6571.82
922.214	6543.12
922.525	6482.56
922.835	6441.88
923.146	6430.13
923.456	6479.62
923.767	6387.87
924.077	6414.31
924.387	6393.74
924.697	6333.18
925.008	6283.92
925.318	6261.54
925.628	6264.93
925.938	6236.69
926.248	6173.41
926.558	6175.67
926.867	6123.47
927.177	6128.44
927.487	6116.24
927.796	6034.21
928.106	6055.22
928.416	6013.64
928.725	6049.35
929.034	5948.11
929.344	5953.53
929.653	5971.16
929.962	5869.69
930.271	5867.66
930.581	5834.66
930.89	5838.96
931.199	5749.47
931.508	5789.69
931.817	5764.16
932.125	5669.24
932.434	5724.61
932.743	5713.99
933.051	5613.43
933.36	5647.55
933.669	5594.22
933.977	5568.46
934.286	5559.42
934.594	5536.82
934.902	5500.89
935.21	5529.36
935.519	5473.09
935.827	5425.86
936.135	5437.16
936.443	5382.92
936.751	5415.24
937.059	5347.22
937.367	5357.61
937.674	5358.97
937.982	5289.14
938.29	5248.92
938.597	5303.15
938.905	5256.15
939.213	5218.41
939.52	5154.23
939.827	5194.23
940.135	5179.76
940.442	5118.07
940.749	5095.25
941.056	5123.95
941.363	5060.22
941.67	5007.11
941.977	5022.03
942.284	5004.18
942.591	4988.81
942.898	4911.07
943.205	4950.62
943.511	4928.02
943.818	4912.88
944.125	4859.1
944.431	4833.56
944.738	4841.69
945.044	4764.86
945.35	4754.92
945.657	4761.92
945.963	4764.41
946.269	4721.47
946.575	4699.55
946.881	4691.64
947.187	4634.02
947.493	4660.23
947.799	4679.44
948.105	4597.86
948.41	4574.81
948.716	4610.74
949.022	4554.02
949.327	4543.4
949.633	4490.52
949.938	4500.91
950.244	4490.07
950.549	4452.78
950.854	4443.06
951.16	4453.23
951.465	4433.12
951.77	4371.65
952.075	4356.51
952.38	4326.91
952.685	4338.43
952.99	4289.62
953.294	4280.58
953.599	4267.92
953.904	4215.72
954.209	4186.57
954.513	4202.39
954.818	4229.51
955.122	4153.58
955.426	4160.36
955.731	4132.79
956.035	4133.92
956.339	4089.85
956.643	4111.32
956.948	4072.22
957.252	4036.29
957.556	4026.57
957.86	4018.21
958.163	4016.41
958.467	3969.18
958.771	3968.72
959.075	3950.64
959.378	3896.63
959.682	3924.43
959.985	3906.13
960.289	3886.47
960.592	3843.3
960.896	3856.64
961.199	3825
961.502	3798.56
961.805	3795.17
962.108	3794.72
962.411	3787.03
962.714	3753.81
963.017	3708.39
963.32	3726.24
963.623	3685.11
963.926	3726.24
964.228	3688.73
964.531	3611.9
964.833	3662.74
965.136	3586.36
965.438	3571.22
965.741	3599.24
966.043	3576.64
966.345	3567.83
966.648	3538.68
966.95	3542.75
967.252	3466.82
967.554	3490.32
967.856	3518.57
968.158	3449.41
968.46	3475.63
968.761	3410.55
969.063	3424.33
969.365	3380.94
969.666	3352.69
969.968	3399.02
970.269	3373.03
970.571	3375.52
970.872	3348.63
971.174	3312.92
971.475	3308.63
971.776	3261.62
972.077	3278.12
972.378	3277.89
972.679	3251.23
972.98	3225.47
973.281	3228.86
973.582	3188.63
973.883	3224.11
974.183	3189.08
974.484	3152.25
974.785	3168.07
975.085	3141.85
975.386	3125.36
975.686	3100.27
975.986	3072.25
976.287	3074.28
976.587	3054.4
976.887	3046.04
977.187	3035.64
977.487	3019.82
977.787	3013.27
978.087	2975.76
978.387	2990.9
978.687	2996.09
978.987	2970.78
979.286	2924.68
979.586	2923.1
979.885	2914.06
980.185	2909.54
980.484	2871.8
980.784	2869.54
981.083	2860.28
981.382	2869.54
981.682	2859.37
981.981	2829.54
982.28	2827.96
982.579	2777.79
982.878	2803.56
983.177	2749.55
983.475	2818.92
983.774	2777.57
984.073	2745.03
984.372	2727.4
984.67	2704.8
984.969	2700.96
985.267	2721.75
985.566	2680.17
985.864	2669.1
986.162	2651.02
986.461	2663.67
986.759	2627.06
987.057	2622.09
987.355	2605.37
987.653	2606.5
987.951	2572.15
988.249	2543
988.547	2569.44
988.844	2554.98
989.142	2538.03
989.44	2522.21
989.737	2512.72
990.035	2499.84
990.332	2511.81
990.63	2464.58
990.927	2488.31
991.224	2486.28
991.521	2471.14
991.819	2451.7
992.116	2423.68
992.413	2416.9
992.71	2398.82
993.006	2393.85
993.303	2380.52
993.6	2338.03
993.897	2368.77
994.193	2313.4
994.49	2367.64
994.787	2334.87
995.083	2333.51
995.379	2314.08
995.676	2316.34
995.972	2244.25
996.268	2253.29
996.565	2236.11
996.861	2258.94
997.157	2238.37
997.453	2207.19
997.749	2214.87
998.044	2204.48
998.34	2197.02
998.636	2182.33
998.932	2187.08
999.227	2119.28
999.523	2174.42
999.818	2145.27
1000.114	2112.73
1000.409	2111.37
1000.704	2114.53
1001	2112.27
1001.295	2082.22
1001.59	2072.05
1001.885	2058.49
1002.18	2035.21
1002.475	2071.15
1002.77	2025.95
1003.065	2001.09
1003.359	1977.14
1003.654	2016.68
1003.949	1975.1
1004.243	1970.81
1004.538	1969.68
1004.832	1984.82
1005.127	1948.44
1005.421	1909.79
1005.715	1897.82
1006.009	1913.41
1006.304	1913.86
1006.598	1892.62
1006.892	1883.58
1007.186	1840.87
1007.48	1864.37
1007.773	1864.15
1008.067	1827.31
1008.361	1820.53
1008.655	1798.84
1008.948	1791.15
1009.242	1777.59
1009.535	1800.42
1009.829	1763.58
1010.122	1752.06
1010.415	1739.4
1010.708	1738.73
1011.001	1733.75
1011.295	1719.52
1011.588	1692.4
1011.881	1670.25
1012.173	1677.48
1012.466	1685.17
1012.759	1667.77
1013.052	1657.6
1013.344	1646.07
1013.637	1630.93
1013.93	1628.22
1014.222	1613.98
1014.514	1625.28
1014.807	1627.09
1015.099	1578.05
1015.391	1590.93
1015.683	1595.9
1015.976	1559.52
1016.268	1576.47
1016.56	1544.61
1016.851	1539.41
1017.143	1542.12
1017.435	1527.43
1017.727	1522.23
1018.018	1517.94
1018.31	1478.62
1018.602	1508.68
1018.893	1442.69
1019.185	1462.35
1019.476	1481.11
1019.767	1449.24
1020.058	1447.89
1020.35	1440.88
1020.641	1413.76
1020.932	1431.61
1021.223	1381.9
1021.514	1391.84
1021.804	1388.45
1022.095	1392.52
1022.386	1336.48
1022.677	1364.05
1022.967	1330.37
1023.258	1331.28
1023.548	1337.83
1023.839	1323.37
1024.129	1323.37
1024.419	1311.39
1024.709	1292.18
1025	1309.81
1025.29	1274.33
1025.58	1278.17
1025.87	1265.52
1026.16	1265.29
1026.449	1267.78
1026.739	1247.44
1027.029	1236.82
1027.319	1243.37
1027.608	1208.8
1027.898	1194.33
1028.187	1196.59
1028.477	1178.97
1028.766	1184.39
1029.055	1157.05
1029.344	1174.45
1029.634	1163.6
1029.923	1143.94
1030.212	1152.75
1030.501	1119.76
1030.79	1120.66
1031.078	1116.37
1031.367	1115.92
1031.656	1109.59
1031.945	1086.54
1032.233	1075.24
1032.522	1118.63
1032.81	1081.12
1033.099	1095.13
1033.387	1089.25
1033.675	1076.6
1033.963	1050.61
1034.251	1052.64
1034.54	1022.59
1034.828	1049.48
1035.116	1046.77
1035.403	1008.12
1035.691	1012.42
1035.979	995.24
1036.267	1012.87
1036.554	994.34
1036.842	992.53
1037.129	993.66
1037.417	980.55
1037.704	984.17
1037.992	987.78
1038.279	967.67
1038.566	940.55
1038.853	940.55
1039.14	940.55
