Data from hue_100_FLMS001491_00056.txt Node
Date: Tue Feb 07 17:03:22 GMT 2017
User: dcchb
Spectrometer: FLMS00149
Trigger mode: 0
Integration Time (sec): 2.000000E-2
Scans to average: 10
Electric dark correction enabled: true
Nonlinearity correction enabled: false
Boxcar width: 0
XAxis mode: Wavelengths
Number of Pixels in Spectrum: 2048
>>>>>Begin Spectral Data<<<<<
341.393	-29.05
341.776	-29.05
342.16	-29.05
342.543	-48.49
342.927	-78.54
343.31	-65.44
343.693	-60.24
344.077	-78.77
344.46	-72.44
344.843	-47.36
345.226	-51.2
345.61	-37.41
345.993	-13.91
346.376	24.73
346.759	7.78
347.142	17.73
347.525	37.39
347.908	61.11
348.291	78.51
348.674	99.08
349.057	100.44
349.44	116.71
349.823	150.38
350.206	173.88
350.588	205.52
350.971	200.77
351.354	213.43
351.737	210.26
352.119	250.04
352.502	252.97
352.884	271.5
353.267	294.55
353.65	293.42
354.032	294.55
354.414	292.52
354.797	306.08
355.179	329.58
355.562	321.9
355.944	337.72
356.326	340.88
356.709	345.17
357.091	341.11
357.473	359.86
357.855	322.58
358.238	340.2
358.62	330.26
359.002	332.52
359.384	340.65
359.766	343.82
360.148	333.42
360.53	353.54
360.912	325.74
361.294	337.94
361.676	333.88
362.057	332.97
362.439	335.91
362.821	312.18
363.203	325.97
363.584	330.71
363.966	321.45
364.348	319.64
364.729	327.77
365.111	318.96
365.493	330.26
365.874	328.68
366.256	299.75
366.637	340.43
367.019	309.92
367.4	318.28
367.781	314.21
368.163	334.1
368.544	294.78
368.925	323.48
369.306	311.96
369.688	311.5
370.069	314.89
370.45	314.67
370.831	317.15
371.212	292.52
371.593	326.19
371.974	310.83
372.355	304.05
372.736	331.84
373.117	322.12
373.498	301.79
373.879	303.14
374.26	318.28
374.641	322.58
375.021	319.41
375.402	301.33
375.783	311.96
376.163	315.12
376.544	321.67
376.925	319.64
377.305	323.93
377.686	333.65
378.066	337.27
378.447	340.88
378.827	329.58
379.208	336.59
379.588	333.88
379.968	343.37
380.349	330.49
380.729	323.93
381.109	328.45
381.489	359.41
381.87	333.2
382.25	342.01
382.63	334.78
383.01	335.91
383.39	355.34
383.77	336.59
384.15	351.5
384.53	356.47
384.91	359.86
385.29	349.47
385.67	354.67
386.049	356.02
386.429	364.84
386.809	357.38
387.189	369.81
387.568	368.22
387.948	364.61
388.328	361.9
388.707	356.93
389.087	353.54
389.466	359.86
389.846	368
390.225	366.87
390.605	357.6
390.984	372.74
391.363	378.39
391.743	359.19
392.122	350.37
392.501	379.07
392.881	389.92
393.26	394.89
393.639	376.81
394.018	367.55
394.397	389.02
394.776	391.5
395.155	392.86
395.534	398.05
395.913	389.47
396.292	394.21
396.671	392.63
397.05	393.76
397.429	401.22
397.808	387.21
398.186	392.63
398.565	419.3
398.944	380.2
399.323	389.47
399.701	381.33
400.08	398.51
400.458	394.44
400.837	416.13
401.215	419.07
401.594	419.3
401.972	431.73
402.351	424.27
402.729	409.58
403.107	434.21
403.486	455.23
403.864	429.47
404.242	447.77
404.62	424.49
404.999	427.21
405.377	422.46
405.755	424.72
406.133	443.48
406.511	432.86
406.889	429.47
407.267	449.13
407.645	455.23
408.023	440.31
408.401	447.32
408.779	438.51
409.156	462.91
409.534	458.62
409.912	472.85
410.29	460.88
410.667	454.1
411.045	469.47
411.422	475.34
411.8	484.38
412.178	509.01
412.555	477.83
412.933	481.89
413.31	492.74
413.687	485.51
414.065	506.53
414.442	494.1
414.819	479.18
415.197	525.06
415.574	535.9
415.951	508.33
416.328	512.18
416.705	500.42
417.082	520.31
417.46	513.08
417.837	517.15
418.214	527.54
418.591	553.08
418.967	537.03
419.344	552.17
419.721	538.39
420.098	557.82
420.475	562.57
420.852	562.57
421.228	551.72
421.605	568.22
421.982	575.9
422.358	589.24
422.735	570.03
423.111	590.37
423.488	580.87
423.864	581.1
424.241	563.47
424.617	592.4
424.994	597.37
425.37	598.73
425.746	592.17
426.123	601.66
426.499	609.35
426.875	619.52
427.251	632.85
427.627	635.34
428.003	641.21
428.379	645.05
428.756	642.79
429.132	635.34
429.507	655.67
429.883	643.92
430.259	653.87
430.635	656.35
431.011	656.35
431.387	660.42
431.763	672.4
432.138	684.15
432.514	690.93
432.89	718.95
433.265	710.14
433.641	720.98
434.016	706.29
434.392	740.19
434.767	753.75
435.143	748.33
435.518	761.66
435.894	767.76
436.269	753.98
436.644	757.59
437.02	770.93
437.395	742.23
437.77	767.31
438.145	798.5
438.52	780.19
438.895	799.85
439.271	820.64
439.646	801.21
440.021	827.42
440.395	822.9
440.77	810.7
441.145	837.14
441.52	831.49
441.895	831.49
442.27	855.22
442.645	843.24
443.019	884.37
443.394	858.38
443.769	860.87
444.143	878.72
444.518	899.74
444.892	871.94
445.267	885.05
445.641	892.73
446.016	901.54
446.39	896.35
446.764	909
447.139	899.51
447.513	916.68
447.887	925.05
448.262	935.67
448.636	923.46
449.01	965.05
449.384	939.51
449.758	932.05
450.132	965.5
450.506	963.24
450.88	958.72
451.254	955.1
451.628	993.52
452.002	981.32
452.376	998.26
452.75	1022.22
453.123	1033.52
453.497	1021.54
453.871	1028.55
454.244	1081.88
454.618	1042.33
454.992	1069.45
455.365	1091.82
455.739	1095.66
456.112	1127.98
456.486	1112.39
456.859	1132.72
457.232	1146.96
457.606	1157.81
457.979	1196
458.352	1196.45
458.725	1199.39
459.099	1210.46
459.472	1225.83
459.845	1268.77
460.218	1254.3
460.591	1269.44
460.964	1286.17
461.337	1303.79
461.71	1331.36
462.083	1313.96
462.456	1339.27
462.829	1382.21
463.201	1376.56
463.574	1388.99
463.947	1395.77
464.32	1419.5
464.692	1445.71
465.065	1447.74
465.438	1467.18
465.81	1500.4
466.183	1519.61
466.555	1541.53
466.928	1579.27
467.3	1601.41
467.672	1603.67
468.045	1640.96
468.417	1636.67
468.789	1684.8
469.161	1706.49
469.534	1750.34
469.906	1760.05
470.278	1790.11
470.65	1805.93
471.022	1857.45
471.394	1842.54
471.766	1927.28
472.138	1976.09
472.51	1995.07
472.882	2042.31
473.253	2123.43
473.625	2137.22
473.997	2182.19
474.369	2195.75
474.74	2216.76
475.112	2296.76
475.484	2370.66
475.855	2363.65
476.227	2402.52
476.598	2503.54
476.97	2539.47
477.341	2622.85
477.713	2708.5
478.084	2755.96
478.455	2825.79
478.827	2850.65
479.198	2968.83
479.569	3015.61
479.94	3124.31
480.311	3163.63
480.682	3271.65
481.053	3432.55
481.424	3529.5
481.795	3549.16
482.166	3654.92
482.537	3756.38
482.908	3841.81
483.279	3912.09
483.65	4048.81
484.021	4192.98
484.391	4272.98
484.762	4381.45
485.133	4463.71
485.503	4574.67
485.874	4703.93
486.244	4824.83
486.615	4946.41
486.985	5061.89
487.356	5208.55
487.726	5280.86
488.097	5482.21
488.467	5540.74
488.837	5738.93
489.207	5853.5
489.578	6027.74
489.948	6145.93
490.318	6257.11
490.688	6350.21
491.058	6515.86
491.428	6643.99
491.798	6821.16
492.168	6951.78
492.538	7125.11
492.908	7203.53
493.278	7444.87
493.648	7463.18
494.017	7657.52
494.387	7741.82
494.757	7941.36
495.126	8055.48
495.496	8102.48
495.866	8308.13
496.235	8391.29
496.605	8549.93
496.974	8711.51
497.344	8840.32
497.713	8954.21
498.082	9072.63
498.452	9211.16
498.821	9270.59
499.19	9323.02
499.559	9482.34
499.928	9646.4
500.298	9724.36
500.667	9866.28
501.036	9863.79
501.405	10035.54
501.774	10073.05
502.143	10182.66
502.512	10303.56
502.88	10416.1
503.249	10468.75
503.618	10554.85
503.987	10660.38
504.356	10755.97
504.724	10769.08
505.093	10953.71
505.462	11017.89
505.83	11129.52
506.199	11204.32
506.567	11313.93
506.936	11329.52
507.304	11514.37
507.672	11594.37
508.041	11576.52
508.409	11669.85
508.777	11867.58
509.145	11912.55
509.514	11877.53
509.882	12042.04
510.25	11972.89
510.618	12058.54
510.986	12177.86
511.354	12210.85
511.722	12281.81
512.09	12408.13
512.458	12391.41
512.826	12522.26
513.193	12567.45
513.561	12644.51
513.929	12688.35
514.297	12748.92
514.664	12861.68
515.032	12878.63
515.4	12965.63
515.767	12965.86
516.135	13035.01
516.502	12977.38
516.869	13147.55
517.237	13146.19
517.604	13131.28
517.972	13233.65
518.339	13257.83
518.706	13251.05
519.073	13363.14
519.44	13331.5
519.808	13490.37
520.175	13359.07
520.542	13541.66
520.909	13583.02
521.276	13620.76
521.643	13575.79
522.009	13733.75
522.376	13714.31
522.743	13831.37
523.11	13884.93
523.477	13916.8
523.843	13935.78
524.21	14101.87
524.577	14158.82
524.943	14092.84
525.31	14082.89
525.676	14275.66
526.043	14267.97
526.409	14243.79
526.776	14276.79
527.142	14322.66
527.508	14335.09
527.874	14319.95
528.241	14407.4
528.607	14410.57
528.973	14458.02
529.339	14440.4
529.705	14513.84
530.071	14648.98
530.437	14495.99
530.803	14620.05
531.169	14603.33
531.535	14494.63
531.901	14552.48
532.267	14463.9
532.632	14584.35
532.998	14554.97
533.364	14564.69
533.73	14573.5
534.095	14582.09
534.461	14554.74
534.826	14560.85
535.192	14530.79
535.557	14590.9
535.923	14541.86
536.288	14551.81
536.653	14491.02
537.019	14519.27
537.384	14538.02
537.749	14555.42
538.114	14480.4
538.479	14349.55
538.845	14423.22
539.21	14411.47
539.575	14325.6
539.94	14399.95
540.305	14339.38
540.67	14308.65
541.034	14198.82
541.399	14160.18
541.764	14216.22
542.129	14229.78
542.494	14127.19
542.858	14211.25
543.223	14093.06
543.587	14187.75
543.952	14039.5
544.316	14025.27
544.681	14056.68
545.045	14034.98
545.41	13969.68
545.774	13945.72
546.138	13933.74
546.503	13969.45
546.867	13853.07
547.231	13915.44
547.595	13867.76
547.959	13858.94
548.324	13797.48
548.688	13749.12
549.052	13752.05
549.416	13689.91
549.779	13694.43
550.143	13641.55
550.507	13722.68
550.871	13697.82
551.235	13598.16
551.599	13647.65
551.962	13569.01
552.326	13555.45
552.689	13644.03
553.053	13531.49
553.417	13493.53
553.78	13599.52
554.143	13460.99
554.507	13390.26
554.87	13478.16
555.234	13506.41
555.597	13386.41
555.96	13464.6
556.323	13486.3
556.686	13443.59
557.05	13477.94
557.413	13362.91
557.776	13410.37
558.139	13531.72
558.502	13467.99
558.865	13387.54
559.228	13426.64
559.59	13400.88
559.953	13447.88
560.316	13496.02
560.679	13460.54
561.041	13494.43
561.404	13536.47
561.767	13560.65
562.129	13503.92
562.492	13537.14
562.854	13487.88
563.217	13487.43
563.579	13416.02
563.941	13544.15
564.304	13539.4
564.666	13597.71
565.028	13611.72
565.39	13586.18
565.753	13662.79
566.115	13699.17
566.477	13658.27
566.839	13680.87
567.201	13711.6
567.563	13621.21
567.925	13660.08
568.287	13680.42
568.648	13700.98
569.01	13747.53
569.372	13839.96
569.734	13781.21
570.095	13804.03
570.457	13855.33
570.819	13877.25
571.18	13804.26
571.542	13923.8
571.903	13856.23
572.265	13967.19
572.626	13972.61
572.987	13970.58
573.349	13935.33
573.71	14023.68
574.071	14007.19
574.432	13999.05
574.794	14091.03
575.155	13960.64
575.516	13939.17
575.877	14001.54
576.238	14052.16
576.599	14061.42
576.96	14000.86
577.32	14001.09
577.681	14011.26
578.042	14057.13
578.403	14125.38
578.763	14098.03
579.124	14159.95
579.485	14187.52
579.845	14148.65
580.206	14142.78
580.566	14188.2
580.927	14072.95
581.287	14140.07
581.648	14049
582.008	14192.72
582.368	14158.37
582.728	14077.47
583.089	14097.36
583.449	14074.53
583.809	14087.86
584.169	14027.07
584.529	14123.34
584.889	14177.58
585.249	13969.45
585.609	14077.92
585.969	14108.43
586.329	14093.29
586.688	14110.91
587.048	13942.56
587.408	13995.89
587.768	13991.6
588.127	13976.68
588.487	13905.95
588.846	14081.31
589.206	13941.88
589.565	13914.31
589.925	13940.98
590.284	13920.86
590.643	13941.88
591.003	13961.31
591.362	13988.21
591.721	13910.24
592.08	13941.65
592.44	13954.08
592.799	13945.27
593.158	13849.9
593.517	13919.05
593.876	13882.22
594.235	13853.75
594.593	13906.63
594.952	13914.76
595.311	13880.19
595.67	13895.33
596.029	13957.92
596.387	13962.22
596.746	13922.22
597.104	13789.11
597.463	13752.73
597.822	13792.5
598.18	13811.04
598.538	13767.42
598.897	13912.05
599.255	13765.61
599.613	13979.84
599.972	13850.81
600.33	13916.8
600.688	13823.24
601.046	13860.07
601.404	13868.43
601.762	13929.45
602.12	13945.27
602.478	13864.82
602.836	13822.56
603.194	13821.43
603.552	13904.82
603.91	13779.4
604.268	13875.21
604.625	13754.99
604.983	13952.05
605.341	13758.61
605.698	13985.27
606.056	13885.16
606.413	13910.02
606.771	13908.66
607.128	13868.89
607.485	13860.53
607.843	13885.61
608.2	13913.63
608.557	14008.09
608.914	13869.34
609.272	13878.15
609.629	13981.65
609.986	14053.29
610.343	13950.47
610.7	14049.67
611.057	14031.37
611.414	14052.38
611.771	14063.23
612.127	14037.7
612.484	14084.47
612.841	14139.84
613.198	14060.75
613.554	14032.05
613.911	14171.93
614.267	14034.08
614.624	14132.38
614.98	14125.38
615.337	14112.5
615.693	14208.09
616.05	14171.93
616.406	14186.62
616.762	14140.29
617.118	14203.79
617.475	14114.76
617.831	14194.08
618.187	14314.75
618.543	14233.62
618.899	14326.73
619.255	14358.37
619.611	14245.15
619.967	14350.46
620.323	14364.92
620.678	14309.55
621.034	14185.49
621.39	14323.79
621.746	14199.05
622.101	14453.05
622.457	14269.55
622.812	14321.53
623.168	14326.28
623.523	14305.03
623.879	14348.65
624.234	14230.23
624.589	14303.45
624.945	14277.46
625.3	14361.3
625.655	14304.81
626.01	14296.9
626.365	14347.29
626.72	14237.69
627.075	14263.45
627.43	14263.45
627.785	14181.19
628.14	14333.51
628.495	14303.23
628.85	14161.08
629.205	14213.06
629.559	14260.29
629.914	14245.6
630.269	14241.98
630.623	14177.35
630.978	14166.73
631.332	14262.55
631.687	14198.6
632.041	14180.74
632.396	14187.07
632.75	14060.52
633.104	14175.09
633.459	14073.85
633.813	14053.97
634.167	14066.62
634.521	14104.81
634.875	14074.31
635.229	14071.37
635.583	13953.18
635.937	13963.12
636.291	13926.96
636.645	13991.82
636.999	13866.17
637.352	13965.83
637.706	13882.22
638.06	13895.33
638.413	13899.62
638.767	13875.21
639.121	13918.15
639.474	13796.35
639.828	13815.33
640.181	13789.57
640.534	13813.75
640.888	13777.59
641.241	13636.58
641.594	13713.86
641.947	13812.62
642.301	13718.83
642.654	13693.3
643.007	13749.12
643.36	13724.26
643.713	13695.56
644.066	13719.29
644.419	13567.88
644.771	13594.09
645.124	13478.16
645.477	13392.06
645.83	13296.7
646.182	13297.6
646.535	13200.43
646.888	13271.84
647.24	13192.75
647.593	13374.89
647.945	13311.16
648.298	13247.43
648.65	13218.96
649.002	13138.51
649.355	13214.21
649.707	13225.74
650.059	13330.37
650.411	13406.53
650.763	13441.33
651.115	13539.63
651.467	13556.8
651.819	13555.45
652.171	13452.85
652.523	13510.03
652.875	13443.14
653.227	13360.2
653.578	13536.01
653.93	13523.13
654.282	13465.96
654.633	13452.85
654.985	13590.25
655.337	13472.74
655.688	13581.66
656.039	13526.97
656.391	13378.73
656.742	13456.92
657.094	13469.35
657.445	13505.28
657.796	13474.77
658.147	13422.34
658.498	13445.17
658.849	13439.29
659.2	13430.93
659.551	13448.11
659.902	13421.67
660.253	13458.5
660.604	13483.81
660.955	13446.07
661.306	13457.6
661.656	13483.59
662.007	13446.98
662.358	13466.86
662.708	13439.07
663.059	13525.17
663.409	13423.93
663.76	13490.37
664.11	13498.5
664.461	13573.53
664.811	13592.74
665.161	13484.04
665.511	13574.21
665.862	13559.06
666.212	13518.84
666.562	13560.65
666.912	13447.88
667.262	13469.8
667.612	13530.59
667.962	13550.93
668.312	13507.54
668.662	13650.81
669.011	13451.95
669.361	13477.48
669.711	13453.3
670.06	13462.12
670.41	13428.22
670.76	13435.68
671.109	13483.59
671.459	13490.14
671.808	13412.63
672.157	13469.12
672.507	13378.5
672.856	13386.87
673.205	13451.72
673.554	13444.04
673.904	13431.61
674.253	13415.79
674.602	13418.05
674.951	13241.56
675.3	13136.7
675.649	13312.74
675.998	13360.88
676.346	13345.74
676.695	13406.75
677.044	13202.24
677.393	13322.23
677.741	13312.07
678.09	13271.61
678.438	13257.6
678.787	13225.74
679.135	13221.45
679.484	13161.79
679.832	13220.09
680.181	13096.25
680.529	13159.07
680.877	13074.78
681.225	13044.28
681.573	13090.38
681.922	13005.18
682.27	12988.46
682.618	13033.2
682.966	12930.61
683.314	13016.25
683.661	12907.78
684.009	12844.73
684.357	12832.76
684.705	12844.51
685.053	12712.98
685.4	12818.97
685.748	12739.88
686.095	12691.74
686.443	12670.05
686.79	12623.5
687.138	12731.06
687.485	12719.99
687.832	12624.4
688.18	12705.75
688.527	12486.32
688.874	12527.68
689.221	12500.11
689.568	12515.02
689.915	12391.41
690.262	12434.8
690.609	12400.22
690.956	12307.35
691.303	12228.25
691.65	12211.76
691.997	12279.55
692.344	12134.47
692.69	12125.66
693.037	12105.32
693.383	12009.5
693.73	12051.76
694.077	12016.28
694.423	12001.37
694.769	11811.77
695.116	11876.17
695.462	11848.37
695.808	11787.81
696.155	11702.39
696.501	11718.66
696.847	11713.24
697.193	11617.65
697.539	11604.99
697.885	11539.46
698.231	11553.69
698.577	11496.29
698.923	11395.96
699.269	11399.12
699.614	11399.8
699.96	11242.97
700.306	11288.16
700.651	11247.94
700.997	11174.72
701.342	11149.86
701.688	11127.04
702.033	11054.72
702.379	11050.2
702.724	11016.31
703.069	11031
703.415	10879.36
703.76	10885.01
704.105	10887.95
704.45	10885.24
704.795	10850.66
705.14	10771.57
705.485	10762.98
705.83	10706.94
706.175	10686.15
706.52	10698.8
706.865	10591.46
707.209	10571.35
707.554	10494.51
707.899	10580.84
708.243	10489.31
708.588	10510.11
708.932	10406.15
709.277	10378.81
709.621	10411.35
709.966	10379.71
710.31	10417.9
710.654	10261.3
710.998	10301.75
711.342	10307.85
711.687	10238.25
712.031	10221.75
712.375	10146.72
712.719	10227.4
713.063	10139.27
713.407	10141.3
713.75	10177.01
714.094	10121.87
714.438	10032.15
714.782	10060.4
715.125	9952.38
715.469	9968.88
715.812	9970.68
716.156	9940.85
716.499	9917.35
716.843	9911.48
717.186	9863.57
717.53	9876.68
717.873	9882.1
718.216	9893.17
718.559	9845.94
718.902	9751.03
719.246	9806.85
719.589	9806.85
719.932	9775.44
720.275	9784.25
720.617	9774.53
720.96	9694.76
721.303	9722.1
721.646	9718.04
721.989	9670.58
722.331	9706.51
722.674	9695.21
723.016	9639.17
723.359	9714.42
723.701	9636.68
724.044	9569.56
724.386	9617.02
724.729	9585.38
725.071	9633.29
725.413	9573.63
725.755	9586.51
726.097	9542.9
726.439	9556.01
726.782	9528.89
727.124	9571.15
727.465	9509.45
727.807	9492.73
728.149	9449.12
728.491	9464.93
728.833	9522.79
729.175	9404.6
729.516	9413.41
729.858	9522.33
730.199	9491.6
730.541	9443.24
730.882	9475.78
731.224	9506.97
731.565	9394.2
731.906	9385.39
732.248	9415.67
732.589	9397.82
732.93	9334.09
733.271	9393.98
733.612	9406.41
733.953	9419.96
734.294	9395.78
734.635	9389
734.976	9451.6
735.317	9395.11
735.658	9329.57
735.999	9392.62
736.339	9425.16
736.68	9463.58
737.021	9383.81
737.361	9415.44
737.702	9407.99
738.042	9455.67
738.383	9438.95
738.723	9418.16
739.063	9396.24
739.404	9473.3
739.744	9459.29
740.084	9425.84
740.424	9440.53
740.764	9465.61
741.104	9490.02
741.444	9455.22
741.784	9489.11
742.124	9478.04
742.464	9512.17
742.804	9515.1
743.143	9571.6
743.483	9615.44
743.823	9581.09
744.162	9588.32
744.502	9651.14
744.841	9618.6
745.181	9745.38
745.52	9689.79
745.86	9790.58
746.199	9881.19
746.538	9826.51
746.877	9927.97
747.216	9974.98
747.556	9972.04
747.895	10038.03
748.234	10035.99
748.573	10117.8
748.911	10165.48
749.25	10283.22
749.589	10300.62
749.928	10353.27
750.267	10409.99
750.605	10456.77
750.944	10520.27
751.283	10570.22
751.621	10689.99
751.96	10774.96
752.298	10962.97
752.636	10970.43
752.975	11038.68
753.313	11077.1
753.651	11213.59
753.989	11265.57
754.327	11457.42
754.666	11463.98
755.004	11622.84
755.342	11788.04
755.679	11882.72
756.017	11936.28
756.355	12064.87
756.693	12284.52
757.031	12476.38
757.368	12492.65
757.706	12710.05
758.044	12780.55
758.381	12953.66
758.719	13069.36
759.056	13292.4
759.394	13416.47
759.731	13555.45
760.068	13677.71
760.405	13839.96
760.743	13968.32
761.08	14228.88
761.417	14212.15
761.754	14463.22
762.091	14665.93
762.428	14704.12
762.765	14754.29
763.102	15013.72
763.438	15182.3
763.775	15256.87
764.112	15563.08
764.449	15677.88
764.785	15856.63
765.122	15845.78
765.458	16006.01
765.795	16160.58
766.131	16308.82
766.467	16431.98
766.804	16565.99
767.14	16618.64
767.476	16691.86
767.812	16924.85
768.148	17094.56
768.485	17146.99
768.821	17263.6
769.157	17276.93
769.492	17390.83
769.828	17583.14
770.164	17573.87
770.5	17664.49
770.836	17858.61
771.171	17938.61
771.507	17998.95
771.842	18012.96
772.178	18099.96
772.513	18241.65
772.849	18300.63
773.184	18341.09
773.519	18442.33
773.855	18347.41
774.19	18519.39
774.525	18462.21
774.86	18621.08
775.195	18687.07
775.53	18703.34
775.865	18624.24
776.2	18636.67
776.535	18581.98
776.87	18785.37
777.205	18810.45
777.539	18778.81
777.874	18898.81
778.209	18855.87
778.543	18914.86
778.878	18800.96
779.212	18931.35
779.547	18881.41
779.881	19003.89
780.215	18911.47
780.55	18966.61
780.884	18850.22
781.218	18974.74
781.552	19050.22
781.886	18882.77
782.22	18925.93
782.554	18847.51
782.888	18819.72
783.222	18822.65
783.556	18803.9
783.889	18723.45
784.223	18724.35
784.557	18776.33
784.89	18780.85
785.224	18758.02
785.557	18684.58
785.891	18569.55
786.224	18605.49
786.558	18686.61
786.891	18514.41
787.224	18517.58
787.557	18466.51
787.891	18484.36
788.224	18442.55
788.557	18554.64
788.89	18535.66
789.223	18433.06
789.556	18353.06
789.888	18397.13
790.221	18400.74
790.554	18158.49
790.887	18185.16
791.219	18175.89
791.552	18125.95
791.884	18130.7
792.217	18143.8
792.549	18059.96
792.882	18001.43
793.214	17939.29
793.546	18011.6
793.879	17884.15
794.211	17749.24
794.543	17833.08
794.875	17824.26
795.207	17863.81
795.539	17727.54
795.871	17773.64
796.203	17588.11
796.535	17508.34
796.867	17539.07
797.198	17474.67
797.53	17550.6
797.862	17363.48
798.193	17473.99
798.525	17264.05
798.856	17377.72
799.188	17188.57
799.519	17144.96
799.85	17040.55
800.182	17141.8
800.513	17106.32
800.844	16982.25
801.175	17017.73
801.506	17010.95
801.837	16905.87
802.168	16880.33
802.499	16867.23
802.83	16743.84
803.161	16675.37
803.491	16812.76
803.822	16746.33
804.153	16653.22
804.483	16556.95
804.814	16484.41
805.145	16518.76
805.475	16530.51
805.805	16431.31
806.136	16419.33
806.466	16333.45
806.796	16333.45
807.126	16264.53
807.457	16255.72
807.787	16288.26
808.117	16169.62
808.447	16113.8
808.777	16172.78
809.107	16097.75
809.436	15887.14
809.766	15984.31
810.096	15952
810.426	15841.26
810.755	15983.18
811.085	15847.14
811.414	15880.81
811.744	15833.81
812.073	15766.24
812.403	15766.24
812.732	15683.98
813.061	15686.69
813.39	15633.13
813.719	15489.86
814.049	15551.55
814.378	15505.45
814.707	15447.83
815.036	15431.11
815.365	15351.56
815.693	15267.04
816.022	15374.84
816.351	15357.44
816.68	15236.08
817.008	15237.21
817.337	15136.65
817.665	15085.58
817.994	15178.23
818.322	15037.9
818.651	14978.01
818.979	15008.29
819.307	14988.63
819.636	15042.64
819.964	14928.75
820.292	14991.8
820.62	14962.64
820.948	14851.01
821.276	14873.83
821.604	14935.98
821.932	14896.43
822.259	15022.75
822.587	14930.55
822.915	14917.22
823.243	14874.51
823.57	14901.85
823.898	14859.6
824.225	14846.94
824.553	14829.31
824.88	14838.13
825.207	14880.39
825.535	14972.13
825.862	14925.81
826.189	14833.16
826.516	14907.73
826.843	14995.86
827.17	14923.1
827.497	14923.55
827.824	14966.03
828.151	14931.23
828.478	14917.22
828.805	14903.21
829.131	14883.1
829.458	14844.23
829.785	14827.28
830.111	14849.43
830.438	14922.64
830.764	14906.6
831.09	14903.44
831.417	14892.81
831.743	14852.36
832.069	14895.75
832.395	14784.34
832.722	14834.06
833.048	14790.22
833.374	14876.32
833.7	14770.56
834.026	14798.81
834.351	14783.89
834.677	14693.95
835.003	14817.79
835.329	14798.35
835.654	14773.04
835.98	14659.6
836.306	14608.3
836.631	14625.93
836.956	14662.31
837.282	14692.37
837.607	14585.7
837.932	14540.96
838.258	14526.04
838.583	14465.71
838.908	14474.75
839.233	14467.06
839.558	14523.11
839.883	14355.65
840.208	14354.75
840.533	14407.18
840.858	14420.74
841.182	14336.45
841.507	14371.92
841.832	14279.27
842.156	14283.11
842.481	14275.88
842.805	14206.28
843.13	14225.26
843.454	14183.91
843.778	14034.76
844.103	14138.48
844.427	14115.43
844.751	14041.31
845.075	13992.27
845.399	13993.4
845.723	13883.35
846.047	13889.23
846.371	13759.96
846.695	13771.49
847.019	13696.24
847.343	13590.48
847.666	13573.75
847.99	13533.3
848.313	13488.33
848.637	13407.2
848.96	13413.53
849.284	13276.13
849.607	13215.34
849.931	13148.91
850.254	13158.17
850.577	12997.95
850.9	12941.45
851.223	12970.15
851.546	12935.13
851.869	12883.6
852.192	12935.58
852.515	12746.43
852.838	12677.51
853.161	12733.78
853.483	12646.32
853.806	12614.68
854.129	12547.11
854.451	12569.26
854.774	12475.93
855.096	12437.51
855.419	12406.55
855.741	12387.8
856.063	12307.57
856.385	12259.44
856.708	12297.85
857.03	12202.49
857.352	12158.42
857.674	12127.24
857.996	12104.64
858.318	12034.13
858.64	12141.25
858.961	11997.52
859.283	11918.66
859.605	11958.88
859.926	11916.62
860.248	11934.02
860.57	11822.39
860.891	11875.49
861.212	11798.66
861.534	11703.07
861.855	11694.25
862.176	11671.88
862.498	11768.38
862.819	11706.46
863.14	11626.23
863.461	11674.59
863.782	11562.28
864.103	11625.78
864.424	11606.8
864.745	11538.1
865.065	11499.23
865.386	11375.62
865.707	11489.97
866.027	11422.17
866.348	11435.05
866.668	11396.64
866.989	11422.62
867.309	11310.54
867.63	11380.14
867.95	11302.4
868.27	11244.77
868.59	11280.25
868.91	11215.62
869.23	11250.2
869.55	11116.87
869.87	11232.35
870.19	11204.32
870.51	11133.59
870.83	11188.51
871.15	11088.62
871.469	11115.29
871.789	11113.7
872.109	11092.69
872.428	11024.67
872.748	11043.2
873.067	10986.25
873.386	11042.75
873.706	11026.93
874.025	10953.48
874.344	10925.69
874.663	10932.01
874.982	10902.86
875.301	10902.64
875.62	10833.71
875.939	10875.29
876.258	10900.6
876.577	10845.69
876.896	10849.98
877.214	10744.9
877.533	10781.74
877.852	10797.1
878.17	10777.67
878.489	10813.15
878.807	10780.15
879.125	10697.67
879.444	10707.84
879.762	10632.14
880.08	10656.77
880.398	10636.66
880.716	10613.15
881.034	10573.15
881.352	10569.76
881.67	10454.97
881.988	10476.66
882.306	10465.36
882.624	10388.75
882.941	10447.73
883.259	10338.13
883.577	10343.1
883.894	10392.14
884.212	10370.67
884.529	10364.8
884.846	10253.84
885.164	10296.1
885.481	10163.67
885.798	10244.12
886.115	10223.56
886.432	10235.31
886.75	10211.13
887.067	10087.29
887.383	10122.54
887.7	10111.02
888.017	10073.51
888.334	10012.49
888.651	10109.66
888.967	9944.47
889.284	9905.83
889.6	9885.26
889.917	9870.57
890.233	9897.47
890.55	9862.44
890.866	9878.26
891.182	9711.03
891.498	9760.75
891.815	9727.3
892.131	9695.66
892.447	9659.51
892.763	9637.13
893.079	9588.77
893.395	9558.94
893.71	9516.23
894.026	9549
894.342	9524.14
894.657	9422.45
894.973	9421.55
895.289	9396.69
895.604	9338.16
895.92	9299.06
896.235	9273.08
896.55	9292.28
896.865	9238.05
897.181	9241.21
897.496	9206.41
897.811	9142.46
898.126	9158.95
898.441	9112.63
898.756	9103.14
899.071	8999.64
899.386	9028.11
899.7	8878.74
900.015	8930.26
900.33	8851.62
900.644	8772.98
900.959	8833.76
901.273	8844.16
901.588	8740.89
901.902	8764.16
902.216	8739.3
902.531	8666.76
902.845	8643.04
903.159	8596.71
903.473	8565.98
903.787	8531.85
904.101	8454.79
904.415	8457.73
904.729	8416.83
905.042	8340.67
905.356	8436.26
905.67	8338.41
905.984	8349.94
906.297	8325.3
906.611	8292.08
906.924	8204.85
907.237	8189.94
907.551	8193.78
907.864	8067.01
908.177	8101.81
908.491	8079.89
908.804	8042.83
909.117	7937.07
909.43	7962.83
909.743	7937.07
910.056	7909.27
910.368	7829.05
910.681	7813.68
910.994	7815.94
911.307	7798.54
911.619	7687.81
911.932	7685.09
912.244	7665.21
912.557	7617.3
912.869	7599.22
913.181	7521.48
913.494	7532.78
913.806	7489.62
914.118	7475.38
914.43	7394.48
914.742	7418.21
915.054	7364.88
915.366	7367.14
915.678	7340.7
915.99	7283.3
916.302	7293.01
916.613	7253.24
916.925	7167.14
917.236	7158.33
917.548	7144.32
917.859	7143.19
918.171	7048.73
918.482	7015.73
918.794	7007.6
919.105	7032.68
919.416	6952.23
919.727	6926.47
920.038	6848.28
920.349	6824.33
920.66	6850.31
920.971	6850.99
921.282	6855.06
921.593	6824.33
921.903	6713.82
922.214	6715.63
922.525	6679.92
922.835	6620.72
923.146	6646.25
923.456	6556.08
923.767	6560.38
924.077	6538.68
924.387	6494.84
924.697	6454.62
925.008	6422.75
925.318	6454.39
925.628	6390.89
925.938	6377.56
926.248	6363.55
926.558	6394.73
926.867	6260.73
927.177	6273.83
927.487	6271.35
927.796	6201.52
928.106	6203.78
928.416	6159.71
928.725	6132.59
929.034	6169.2
929.344	6115.87
929.653	6102.09
929.962	6045.82
930.271	6013.05
930.581	5992.03
930.89	6003.56
931.199	6011.92
931.508	5891.47
931.817	5972.6
932.125	5902.09
932.434	5896.44
932.743	5849.44
933.051	5763.56
933.36	5769.21
933.669	5775.99
933.977	5731.25
934.286	5718.82
934.594	5664.58
934.902	5668.65
935.21	5620.74
935.519	5625.04
935.827	5589.78
936.135	5552.5
936.443	5507.98
936.751	5519.5
937.059	5513.85
937.367	5468.2
937.674	5483.57
937.982	5503.01
938.29	5413.52
938.597	5351.14
938.905	5372.16
939.213	5313.41
939.52	5338.94
939.827	5298.72
940.135	5267.53
940.442	5254.88
940.749	5234.09
941.056	5244.48
941.363	5189.79
941.67	5147.76
941.977	5139.4
942.284	5115.22
942.591	5103.47
942.898	5029.57
943.205	5083.81
943.511	4996.35
943.818	5012.17
944.125	5002
944.431	4969.69
944.738	4987.54
945.044	4912.96
945.35	4910.7
945.657	4875.22
945.963	4822.8
946.269	4823.93
946.575	4836.36
946.881	4764.95
947.187	4834.32
947.493	4712.29
947.799	4746.64
948.105	4677.49
948.41	4683.37
948.716	4684.95
949.022	4664.38
949.327	4682.91
949.633	4586.64
949.938	4601.33
950.244	4572.63
950.549	4531.73
950.854	4536.02
951.16	4485.86
951.465	4496.03
951.77	4452.41
952.075	4470.26
952.38	4425.52
952.685	4463.03
952.99	4388.68
953.294	4387.33
953.599	4398.63
953.904	4343.94
954.209	4361.34
954.513	4340.1
954.818	4347.56
955.122	4252.19
955.426	4237.05
955.731	4271.17
956.035	4230.04
956.339	4204.96
956.643	4181.91
956.948	4153.21
957.252	4114.11
957.556	4153.44
957.86	4141.46
958.163	4107.11
958.467	4069.14
958.771	4056.26
959.075	4036.15
959.378	4000.67
959.682	4000.67
959.985	4009.71
960.289	3940.11
960.592	3969.71
960.896	3902.14
961.199	3929.71
961.502	3889.26
961.805	3868.7
962.108	3851.75
962.411	3859.43
962.714	3828.7
963.017	3829.6
963.32	3813.56
963.623	3807
963.926	3795.25
964.228	3731.98
964.531	3778.98
964.833	3746.22
965.136	3685.2
965.438	3705.99
965.741	3643.84
966.043	3657.63
966.345	3643.39
966.648	3630.06
966.95	3606.78
967.252	3620.57
967.554	3541.7
967.856	3573.34
968.158	3528.59
968.46	3496.96
968.761	3539.21
969.063	3478.88
969.365	3463.28
969.666	3447.69
969.968	3464.19
970.269	3406.11
970.571	3450.86
970.872	3389.16
971.174	3423.29
971.475	3399.11
971.776	3379.22
972.077	3361.59
972.378	3342.16
972.679	3309.39
972.98	3292.89
973.281	3309.16
973.582	3322.27
973.883	3300.13
974.183	3208.38
974.484	3236.62
974.785	3216.51
975.085	3192.33
975.386	3205.66
975.686	3179.22
975.986	3183.97
976.287	3172.22
976.587	3141.49
976.887	3125.67
977.187	3145.78
977.487	3101.49
977.787	3072.11
978.087	3034.37
978.387	3037.76
978.687	3064.65
978.987	3038.66
979.286	3031.21
979.586	2990.3
979.885	2942.39
980.185	3004.09
980.484	2950.53
980.784	2942.85
981.083	2894.71
981.382	2880.93
981.682	2910.98
981.981	2871.21
982.28	2902.85
982.579	2841.83
982.878	2854.26
983.177	2841.83
983.475	2858.78
983.774	2836.86
984.073	2840.02
984.372	2792.12
984.67	2785.34
984.969	2743.08
985.267	2746.92
985.566	2754.6
985.864	2734.72
986.162	2692.68
986.461	2696.98
986.759	2675.73
987.057	2695.17
987.355	2672.12
987.653	2636.87
987.951	2665.34
988.249	2642.52
988.547	2630.99
988.844	2642.97
989.142	2602.97
989.44	2553.93
989.737	2564.55
990.035	2590.54
990.332	2533.59
990.63	2546.02
990.927	2535.85
991.224	2481.84
991.521	2504.67
991.819	2482.75
992.116	2452.01
992.413	2459.92
992.71	2483.65
993.006	2450.43
993.303	2438.68
993.6	2427.83
993.897	2433.03
994.193	2415.4
994.49	2415.85
994.787	2384.89
995.083	2357.55
995.379	2332.47
995.676	2322.98
995.972	2294.05
996.268	2306.7
996.565	2321.17
996.861	2271.68
997.157	2302.41
997.453	2284.33
997.749	2261.06
998.044	2252.47
998.34	2242.53
998.636	2220.61
998.932	2226.03
999.227	2181.74
999.523	2214.96
999.818	2170.44
1000.114	2211.34
1000.409	2168.86
1000.704	2138.57
1001	2169.31
1001.295	2148.52
1001.59	2096.77
1001.885	2120.04
1002.18	2130.21
1002.475	2101.96
1002.77	2096.31
1003.065	2075.98
1003.359	2065.81
1003.654	2064.45
1003.949	2045.02
1004.243	2014.28
1004.538	2022.42
1004.832	1961.4
1005.127	2016.99
1005.421	1976.32
1005.715	1938.35
1006.009	1924.79
1006.304	1927.73
1006.598	1922.53
1006.892	1924.57
1007.186	1887.73
1007.48	1917.34
1007.773	1857.68
1008.067	1886.38
1008.361	1871.24
1008.655	1875.53
1008.948	1856.1
1009.242	1821.29
1009.535	1817
1009.829	1774.52
1010.122	1766.15
1010.415	1800.05
1010.708	1780.84
1011.001	1767.28
1011.295	1779.49
1011.588	1718.47
1011.881	1718.92
1012.173	1726.16
1012.466	1741.07
1012.759	1696.55
1013.052	1712.14
1013.344	1706.04
1013.637	1659.04
1013.93	1668.53
1014.222	1648.87
1014.514	1620.4
1014.807	1647.97
1015.099	1664.01
1015.391	1637.12
1015.683	1593.5
1015.976	1584.01
1016.268	1599.38
1016.56	1578.36
1016.851	1584.01
1017.143	1594.18
1017.435	1523
1017.727	1547.85
1018.018	1537.69
1018.31	1548.08
1018.602	1502.43
1018.893	1479.83
1019.185	1504.01
1019.476	1485.26
1019.767	1469.66
1020.058	1461.76
1020.35	1443
1020.641	1444.81
1020.932	1423.56
1021.223	1438.93
1021.514	1420.85
1021.804	1383.57
1022.095	1399.16
1022.386	1389.89
1022.677	1382.89
1022.967	1358.48
1023.258	1349.22
1023.548	1346.73
1023.839	1324.58
1024.129	1340.18
1024.419	1301.76
1024.709	1319.16
1025	1320.97
1025.29	1287.3
1025.58	1301.99
1025.87	1273.74
1026.16	1283.45
1026.449	1293.85
1026.739	1261.76
1027.029	1237.13
1027.319	1236
1027.608	1232.61
1027.898	1221.76
1028.187	1213.4
1028.477	1205.49
1028.766	1203.91
1029.055	1199.84
1029.344	1199.62
1029.634	1187.86
1029.923	1224.02
1030.212	1162.55
1030.501	1159.84
1030.79	1137.02
1031.078	1123.69
1031.367	1137.47
1031.656	1122.33
1031.945	1135.89
1032.233	1100.41
1032.522	1122.1
1032.81	1090.24
1033.099	1111.71
1033.387	1085.95
1033.675	1085.72
1033.963	1079.62
1034.251	1044.14
1034.54	1054.08
1034.828	1032.84
1035.116	1048.88
1035.403	1031.48
1035.691	1023.8
1035.979	1033.97
1036.267	1003.24
1036.554	999.85
1036.842	976.34
1037.129	1021.77
1037.417	967.76
1037.704	1006.4
1037.992	971.6
1038.279	960.98
1038.566	977.25
1038.853	977.25
1039.14	977.25
