Data from hue_22_FLMS001491_00010.txt Node
Date: Tue Feb 07 17:09:25 GMT 2017
User: dcchb
Spectrometer: FLMS00149
Trigger mode: 0
Integration Time (sec): 2.000000E-2
Scans to average: 10
Electric dark correction enabled: true
Nonlinearity correction enabled: false
Boxcar width: 0
XAxis mode: Wavelengths
Number of Pixels in Spectrum: 2048
>>>>>Begin Spectral Data<<<<<
341.393	-8.15
341.776	-8.15
342.16	-8.15
342.543	-51.54
342.927	-66.45
343.31	-70.75
343.693	-75.04
344.077	-73.01
344.46	-54.7
344.843	-45.89
345.226	-39.79
345.61	-18.09
345.993	-38.21
346.376	15.35
346.759	-6.57
347.142	32.08
347.525	46.99
347.908	51.96
348.291	62.13
348.674	95.8
349.057	117.72
349.44	109.59
349.823	153.88
350.206	170.38
350.588	190.04
350.971	203.14
351.354	221.22
351.737	253.54
352.119	257.38
352.502	252.18
352.884	267.55
353.267	279.3
353.65	290.15
354.032	303.93
354.414	320.66
354.797	312.97
355.179	324.05
355.562	327.21
355.944	320.66
356.326	306.42
356.709	334.89
357.091	316.14
357.473	346.19
357.855	328.79
358.238	315.91
358.62	383.25
359.002	330.6
359.384	327.89
359.766	334.44
360.148	355.68
360.53	332.41
360.912	338.06
361.294	336.93
361.676	330.82
362.057	310.71
362.439	325.85
362.821	343.03
363.203	329.47
363.584	331.73
363.966	338.06
364.348	308.9
364.729	348.68
365.111	332.86
365.493	337.83
365.874	315.68
366.256	313.2
366.637	318.17
367.019	321.11
367.4	317.04
367.781	304.61
368.163	322.92
368.544	328.11
368.925	301.67
369.306	288.57
369.688	319.53
370.069	305.06
370.45	309.13
370.831	315.91
371.212	317.04
371.593	312.75
371.974	319.3
372.355	290.83
372.736	337.6
373.117	337.6
373.498	321.33
373.879	313.42
374.26	322.46
374.641	294.67
375.021	309.58
375.402	317.49
375.783	317.72
376.163	323.37
376.544	314.33
376.925	316.36
377.305	305.51
377.686	335.12
378.066	309.81
378.447	319.98
378.827	312.29
379.208	327.89
379.588	339.41
379.968	331.95
380.349	350.26
380.729	347.32
381.109	344.61
381.489	339.86
381.87	333.54
382.25	315.01
382.63	349.81
383.01	339.19
383.39	342.58
383.77	346.42
384.15	348.23
384.53	341.67
384.91	344.16
385.29	354.55
385.67	346.64
386.049	336.93
386.429	349.81
386.809	366.3
387.189	362.01
387.568	355
387.948	344.61
388.328	357.49
388.707	345.74
389.087	348.45
389.466	357.72
389.846	344.61
390.225	375.12
390.605	381.9
390.984	355.91
391.363	351.62
391.743	333.31
392.122	371.05
392.501	364.5
392.881	366.76
393.26	359.52
393.639	381.67
394.018	373.54
394.397	350.94
394.776	359.3
395.155	370.6
395.534	373.31
395.913	362.46
396.292	381.22
396.671	380.77
397.05	380.99
397.429	390.03
397.808	389.13
398.186	396.36
398.565	385.74
398.944	382.8
399.323	377.6
399.701	389.35
400.08	397.26
400.458	401.78
400.837	386.87
401.215	412.86
401.594	395.91
401.972	397.94
402.351	413.31
402.729	409.24
403.107	383.25
403.486	416.25
403.864	423.03
404.242	391.16
404.62	395.46
404.999	415.79
405.377	423.25
405.755	410.37
406.133	420.77
406.511	430.93
406.889	434.32
407.267	432.74
407.645	422.12
408.023	411.5
408.401	434.1
408.779	418.51
409.156	423.48
409.534	439.3
409.912	426.42
410.29	446.98
410.667	448.11
411.045	449.69
411.422	459.63
411.8	446.98
412.178	456.92
412.555	454.21
412.933	448.11
413.31	467.09
413.687	474.78
414.065	453.08
414.442	476.13
414.819	493.76
415.197	498.73
415.574	465.51
415.951	478.62
416.328	474.55
416.705	492.85
417.082	484.27
417.46	480.43
417.837	493.98
418.214	495.79
418.591	506.41
418.967	493.53
419.344	509.35
419.721	485.62
420.098	506.19
420.475	500.09
420.852	493.76
421.228	519.75
421.605	516.58
421.982	508
422.358	529.46
422.735	531.27
423.111	510.03
423.488	531.27
423.864	526.53
424.241	527.43
424.617	540.99
424.994	537.37
425.37	541.44
425.746	533.08
426.123	549.58
426.499	529.24
426.875	542.8
427.251	566.52
427.627	561.1
428.003	575.11
428.379	587.77
428.756	597.03
429.132	596.35
429.507	581.89
429.883	571.27
430.259	586.64
430.635	599.74
431.011	602.46
431.387	599.74
431.763	599.07
432.138	599.29
432.514	620.99
432.89	631.38
433.265	609.01
433.641	637.48
434.016	645.39
434.392	641.55
434.767	659.18
435.143	641.32
435.518	641.78
435.894	665.28
436.269	646.75
436.644	672.28
437.02	666.64
437.395	678.61
437.77	675.45
438.145	682.68
438.52	681.1
438.895	703.24
439.271	677.26
439.646	713.87
440.021	746.63
440.395	735.11
440.77	694.88
441.145	727.65
441.52	720.42
441.895	730.36
442.27	730.14
442.645	719.74
443.019	714.77
443.394	750.93
443.769	741.66
444.143	744.37
444.518	763.13
444.892	753.41
445.267	748.21
445.641	740.76
446.016	765.39
446.39	777.82
446.764	790.93
447.139	786.86
447.513	770.36
447.887	780.53
448.262	774.88
448.636	804.26
449.01	793.86
449.384	807.42
449.758	813.52
450.132	807.2
450.506	818.5
450.88	807.65
451.254	830.7
451.628	830.47
452.002	854.2
452.376	848.33
452.75	842.68
453.123	836.35
453.497	862.79
453.871	864.6
454.244	870.47
454.618	891.26
454.992	874.77
455.365	906.63
455.739	916.57
456.112	918.61
456.486	900.75
456.859	916.8
457.232	925.16
457.606	930.36
457.979	985.72
458.352	966.29
458.725	986.17
459.099	987.3
459.472	975.1
459.845	991.15
460.218	1021.65
460.591	1021.2
460.964	1013.07
461.337	1045.83
461.71	1036.57
462.083	1093.74
462.456	1079.73
462.829	1078.15
463.201	1088.32
463.574	1106.62
463.947	1093.52
464.32	1156.34
464.692	1120.18
465.065	1144.36
465.438	1137.58
465.81	1173.74
466.183	1193.17
466.555	1211.03
466.928	1187.3
467.3	1204.93
467.672	1237.02
468.045	1250.35
468.417	1236.79
468.789	1267.07
469.161	1279.5
469.534	1278.6
469.906	1318.6
470.278	1337.35
470.65	1357.92
471.022	1352.94
471.394	1409.44
471.766	1389.33
472.138	1391.36
472.51	1416.45
472.882	1473.62
473.253	1484.69
473.625	1494.64
473.997	1535.31
474.369	1531.47
474.74	1561.98
475.112	1549.55
475.484	1622.32
475.855	1644.24
476.227	1660.96
476.598	1693.5
476.97	1692.6
477.341	1729.66
477.713	1773.05
478.084	1770.56
478.455	1832.93
478.827	1873.83
479.198	1884.91
479.569	1894.63
479.94	1958.8
480.311	1996.09
480.682	2038.35
481.053	2083.55
481.424	2117.9
481.795	2136.2
482.166	2149.08
482.537	2175.3
482.908	2261.4
483.279	2282.41
483.65	2315.18
484.021	2357.21
484.391	2400.83
484.762	2447.83
485.133	2478.34
485.503	2502.74
485.874	2529.86
486.244	2588.84
486.615	2641.72
486.985	2683.08
487.356	2717.88
487.726	2746.13
488.097	2813.25
488.467	2795.17
488.837	2864.32
489.207	2899.12
489.578	2986.57
489.948	3010.08
490.318	3087.14
490.688	3063.18
491.058	3130.07
491.428	3182.05
491.798	3189.05
492.168	3272.44
492.538	3284.19
492.908	3308.37
493.278	3376.39
493.648	3362.61
494.017	3476.96
494.387	3442.61
494.757	3497.75
495.126	3573.45
495.496	3534.36
495.866	3638.99
496.235	3622.72
496.605	3701.36
496.974	3729.61
497.344	3778.19
497.713	3812.32
498.082	3825.42
498.452	3855.03
498.821	3859.77
499.19	3910.39
499.559	3935.48
499.928	3941.13
500.298	3995.14
500.667	4027.22
501.036	4066.55
501.405	4083.27
501.774	4103.38
502.143	4110.84
502.512	4098.41
502.88	4189.03
503.249	4154
503.618	4202.14
503.987	4226.32
504.356	4256.37
504.724	4297.73
505.093	4294.56
505.462	4364.84
505.83	4368.68
506.199	4408.68
506.567	4436.71
506.936	4457.04
507.304	4486.87
507.672	4499.08
508.041	4487.33
508.409	4560.77
508.777	4571.39
509.145	4578.85
509.514	4612.07
509.882	4647.55
510.25	4601.67
510.618	4704.95
510.986	4699.98
511.354	4724.83
511.722	4732.97
512.09	4772.29
512.458	4817.49
512.826	4804.38
513.193	4793.76
513.561	4890.93
513.929	4927.99
514.297	4902
514.664	4911.72
515.032	4994.66
515.4	4998.05
515.767	5026.97
516.135	5013.41
516.502	5002.34
516.869	5056.8
517.237	5088.67
517.604	5094.99
517.972	5116.24
518.339	5124.37
518.706	5167.31
519.073	5216.8
519.44	5235.55
519.808	5239.4
520.175	5209.11
520.542	5310.81
520.909	5368.66
521.276	5341.77
521.643	5434.87
522.009	5357.59
522.376	5396.91
522.743	5445.94
523.11	5537.02
523.477	5538.82
523.843	5557.58
524.21	5566.85
524.577	5650.91
524.943	5649.33
525.31	5671.7
525.676	5691.36
526.043	5758.93
526.409	5776.78
526.776	5772.72
527.142	5832.15
527.508	5915.99
527.874	5877.8
528.241	5899.27
528.607	5943.33
528.973	6007.74
529.339	5997.12
529.705	6063.56
530.071	6076.66
530.437	6133.84
530.803	6130.45
531.169	6172.25
531.535	6131.58
531.901	6249.09
532.267	6237.79
532.632	6256.77
532.998	6239.14
533.364	6370.67
533.73	6376.77
534.095	6379.03
534.461	6405.69
534.826	6480.49
535.192	6475.52
535.557	6495.41
535.923	6526.82
536.288	6489.76
536.653	6623.99
537.019	6550.32
537.384	6582.86
537.749	6600.26
538.114	6671.45
538.479	6685.01
538.845	6675.74
539.21	6690.88
539.575	6753.93
539.94	6775.85
540.305	6799.58
540.67	6832.57
541.034	6864.21
541.399	6892.23
541.764	6896.53
542.129	6929.52
542.494	6927.26
542.858	6993.25
543.223	6956.64
543.587	7069.63
543.952	7036.64
544.316	7034.83
544.681	7117.99
545.045	7103.3
545.41	7169.74
545.774	7167.71
546.138	7198.21
546.503	7289.06
546.867	7256.97
547.231	7346.01
547.595	7324.09
547.959	7386.91
548.324	7353.92
548.688	7414.71
549.052	7453.35
549.416	7431.88
549.779	7451.54
550.143	7490.41
550.507	7549.17
550.871	7531.31
551.235	7572.89
551.599	7614.47
551.962	7611.31
552.326	7690.86
552.689	7721.14
553.053	7674.36
553.417	7680.69
553.78	7777.18
554.143	7788.03
554.507	7863.51
554.87	7795.04
555.234	7902.83
555.597	7826.67
555.96	7887.69
556.323	7939.21
556.686	7977.63
557.05	8024.41
557.413	8035.93
557.776	7974.92
558.139	8058.76
558.502	8058.53
558.865	8062.15
559.228	8199.54
559.59	8151.18
559.953	8212.43
560.316	8330.39
560.679	8246.32
561.041	8349.14
561.404	8372.65
561.767	8412.19
562.129	8390.73
562.492	8478.86
562.854	8458.97
563.217	8522.47
563.579	8512.76
563.941	8484.96
564.304	8557.05
564.666	8570.38
565.028	8709.36
565.39	8653.54
565.753	8732.19
566.115	8759.3
566.477	8800.43
566.839	8815.8
567.201	8852.18
567.563	8858.74
567.925	8918.17
568.287	8930.82
568.648	8977.83
569.01	9047.88
569.372	9111.16
569.734	9083.81
570.095	9146.19
570.457	9168.78
570.819	9249.91
571.18	9202.91
571.542	9266.86
571.903	9348.89
572.265	9401.77
572.626	9453.75
572.987	9470.92
573.349	9468.66
573.71	9538.94
574.071	9547.76
574.432	9653.29
574.794	9770.35
575.155	9763.34
575.516	9712.95
575.877	9911.14
576.238	9927.63
576.599	10010.57
576.96	10041.08
577.32	10112.49
577.681	10201.75
578.042	10279.94
578.403	10388.41
578.763	10401.52
579.124	10497.79
579.485	10598.35
579.845	10680.61
580.206	10789.08
580.566	10939.81
580.927	11057.55
581.287	11124.89
581.648	11201.95
582.008	11359.01
582.368	11468.16
582.728	11575.5
583.089	11727.81
583.449	11834.48
583.809	12022.72
584.169	12214.35
584.529	12345.88
584.889	12555.14
585.249	12673.78
585.609	12819.76
585.969	13115.12
586.329	13221.79
586.688	13518.95
587.048	13670.36
587.408	13814.76
587.768	14128.43
588.127	14356.22
588.487	14538.81
588.846	14847.28
589.206	14992.81
589.565	15245.46
589.925	15549.63
590.284	15841.38
590.643	16078.21
591.003	16305.77
591.362	16595.26
591.721	16955.02
592.08	17221.23
592.44	17502.8
592.799	17790.93
593.158	18005.39
593.517	18270.24
593.876	18589.55
594.235	18909.77
594.593	19178.92
594.952	19545.69
595.311	19786.81
595.67	20138.67
596.029	20519.67
596.387	20833.11
596.746	21216.15
597.104	21362.14
597.463	21686.65
597.822	22121.66
598.18	22337.03
598.538	22646.62
598.897	23139.49
599.255	23350.56
599.613	23979.24
599.972	23994.38
600.33	24394.6
600.688	24589.17
601.046	25039.1
601.404	25316.16
601.762	25637.5
602.12	26013.54
602.478	26300.76
602.836	26644.26
603.194	26829.56
603.552	27089.44
603.91	27238.37
604.268	27712.03
604.625	28082.19
604.983	28347.49
605.341	28582.74
605.698	29041.93
606.056	29326.45
606.413	29477.4
606.771	29841.24
607.128	30087.78
607.485	30193.09
607.843	30504.49
608.2	30841.89
608.557	31215.44
608.914	31176.57
609.272	31729.1
609.629	31882.99
609.986	32343.32
610.343	32213.38
610.7	32849.74
611.057	32988.95
611.414	33175.84
611.771	33311.65
612.127	33633.9
612.484	33945.31
612.841	34136.72
613.198	34243.61
613.554	34445.18
613.911	34859.41
614.267	34983.92
614.624	35111.38
614.98	35359.51
615.337	35698.03
615.693	35729.67
616.05	35801.53
616.406	36335.98
616.762	36217.11
617.118	36368.52
617.475	36550.21
617.831	36841.96
618.187	37080.59
618.543	37173.92
618.899	37466.12
619.255	37447.59
619.611	37698.2
619.967	37947.24
620.323	38050.51
620.678	38119.66
621.034	38046.22
621.39	38185.42
621.746	38269.04
622.101	38843.94
622.457	38661.79
622.812	38874.44
623.168	39065.85
623.523	39073.53
623.879	39339.29
624.234	39183.14
624.589	39485.5
624.945	39530.25
625.3	39618.15
625.655	39671.26
626.01	39745.83
626.365	39823.35
626.72	39924.13
627.075	39965.71
627.43	39934.53
627.785	39933.85
628.14	40097.69
628.495	40190.12
628.85	40240.51
629.205	40199.15
629.559	40481.63
629.914	40359.83
630.269	40468.3
630.623	40582.42
630.978	40500.84
631.332	40728.63
631.687	40779.93
632.041	40627.17
632.396	40741.97
632.75	40725.69
633.104	40777.22
633.459	40605.25
633.813	40626.94
634.167	40680.72
634.521	40769.54
634.875	40873.94
635.229	40799.59
635.583	40657.9
635.937	40771.12
636.291	40776.31
636.645	40787.61
636.999	40789.42
637.352	40959.59
637.706	40640.5
638.06	40788.97
638.413	40789.65
638.767	40773.83
639.121	40773.38
639.474	40642.76
639.828	40659.71
640.181	40699.03
640.534	40721.85
640.888	40687.5
641.241	40678.24
641.594	40626.26
641.947	40856.76
642.301	40689.99
642.654	40835.97
643.007	40717.33
643.36	40729.08
643.713	40652.48
644.066	40758.24
644.419	40475.98
644.771	40289.1
645.124	40036.9
645.477	39905.83
645.83	39695.44
646.182	39567.99
646.535	39596.01
646.888	39624.71
647.24	39332.51
647.593	39666.29
647.945	39570.47
648.298	39445.05
648.65	39262.68
649.002	39270.14
649.355	39441.21
649.707	39299.29
650.059	39695.89
650.411	40057.01
650.763	39971.36
651.115	40442.31
651.467	40210.23
651.819	40343.33
652.171	40237.8
652.523	40236.44
652.875	40342.2
653.227	40085.26
653.578	40458.13
653.93	40263.79
654.282	40117.8
654.633	40021.98
654.985	40120.74
655.337	39989.44
655.688	40090.46
656.039	40267.18
656.391	39798.94
656.742	40000.74
657.094	40096.11
657.445	40186.73
657.796	40122.55
658.147	40113.73
658.498	40021.76
658.849	40130.46
659.2	40106.73
659.551	39968.43
659.902	40081.64
660.253	39900.63
660.604	40060.85
660.955	39975.43
661.306	40124.13
661.656	39969.56
662.007	40011.36
662.358	39853.63
662.708	39962.32
663.059	39935.88
663.409	39683.91
663.76	39918.26
664.11	39923.91
664.461	39985.83
664.811	39852.95
665.161	39980.18
665.511	39900.41
665.862	39890.24
666.212	39948.54
666.562	40018.82
666.912	39848.43
667.262	39924.59
667.612	39828.32
667.962	39877.58
668.312	39734.53
668.662	39942.21
669.011	39895.43
669.361	39772.27
669.711	39718.26
670.06	39647.3
670.41	39611.37
670.76	39679.62
671.109	39798.26
671.459	39710.58
671.808	39717.36
672.157	39791.26
672.507	39531.6
672.856	39507.2
673.205	39693.18
673.554	39691.6
673.904	39450.93
674.253	39731.6
674.602	39631.49
674.951	39139.07
675.3	38990.15
675.649	39549.23
675.998	39424.49
676.346	39413.86
676.695	39566.86
677.044	39286.64
677.393	39500.42
677.741	39506.07
678.09	39277.37
678.438	39170.93
678.787	39275.56
679.135	39291.16
679.484	39094.55
679.832	39294.32
680.181	38951.5
680.529	39137.71
680.877	39030.15
681.225	38938.4
681.573	39170.48
681.922	38863.37
682.27	38943.37
682.618	38881.9
682.966	38834.67
683.314	38966.42
683.661	38784.95
684.009	38600.55
684.357	38528.01
684.705	38341.35
685.053	38397.17
685.4	38335.25
685.748	38237.17
686.095	38266.78
686.443	38167.8
686.79	38009.38
687.138	38158.3
687.485	38022.94
687.832	37947.91
688.18	37901.36
688.527	37710.18
688.874	37842.38
689.221	37718.32
689.568	37648.49
689.915	37383.64
690.262	37434.48
690.609	37517.19
690.956	37250.76
691.303	37205.34
691.65	37003.98
691.997	37212.34
692.344	36850.99
692.69	36921.27
693.037	36847.38
693.383	36544.56
693.73	36795.4
694.077	36474.06
694.423	36500.04
694.769	36406.03
695.116	36382.76
695.462	36227.96
695.808	36057.34
696.155	36117.23
696.501	35993.16
696.847	35961.3
697.193	35708.43
697.539	35865.94
697.885	35683.79
698.231	35606.73
698.577	35495.32
698.923	35490.35
699.269	35213.52
699.614	34992.29
699.96	35052.85
700.306	35145.95
700.651	34852.85
700.997	34811.05
701.342	34791.39
701.688	34642.46
702.033	34589.81
702.379	34482.7
702.724	34391.62
703.069	34461.23
703.415	34053.33
703.76	34165.42
704.105	34127
704.45	34125.64
704.795	33900.56
705.14	33815.14
705.485	33821.24
705.83	33573.57
706.175	33625.09
706.52	33725.43
706.865	33576.73
707.209	33563.62
707.554	33493.57
707.899	33402.05
708.243	33219
708.588	33151.43
708.932	32976.29
709.277	33044.99
709.621	33167.02
709.966	32883.87
710.31	32809.74
710.654	32562.75
710.998	32694.04
711.342	32637.32
711.687	32641.84
712.031	32467.15
712.375	32269.65
712.719	32381.73
713.063	32311.45
713.407	32305.13
713.75	32071.91
714.094	32176.99
714.438	32032.82
714.782	32143.1
715.125	32034.62
715.469	31933.61
715.812	31780.39
716.156	31693.39
716.499	31607.97
716.843	31649.1
717.186	31368.65
717.53	31561.64
717.873	31551.25
718.216	31508.54
718.559	31364.36
718.902	31132.27
719.246	31260.41
719.589	31141.99
719.932	30885.95
720.275	30974.09
720.617	30993.07
720.96	30870.59
721.303	30895.44
721.646	30966.86
721.989	30744.04
722.331	30868.33
722.674	30605.96
723.016	30730.48
723.359	30560.99
723.701	30646.64
724.044	30408.23
724.386	30396.02
724.729	30444.38
725.071	30382.01
725.413	30460.2
725.755	30416.81
726.097	30175.92
726.439	30055.92
726.782	30041.46
727.124	30174.79
727.465	30022.02
727.807	29957.62
728.149	29912.42
728.491	29795.13
728.833	29964.62
729.175	29896.83
729.516	29786.55
729.858	29707.45
730.199	29803.5
730.541	29617.06
730.882	29522.6
731.224	29697.51
731.565	29450.28
731.906	29382.49
732.248	29409.83
732.589	29264.53
732.93	29230.63
733.271	29268.14
733.612	29359.44
733.953	29350.63
734.294	29131.88
734.635	29117.41
734.976	29212.55
735.317	28937.08
735.658	29037.87
735.999	29089.16
736.339	28875.16
736.68	29126.45
737.021	28818.44
737.361	28720.81
737.702	28955.16
738.042	28758.78
738.383	28693.24
738.723	28707.48
739.063	28594.71
739.404	28710.87
739.744	28643.75
740.084	28556.75
740.424	28478.11
740.764	28524.89
741.104	28495.73
741.444	28391.56
741.784	28270.43
742.124	28401.95
742.464	28337.77
742.804	28248.96
743.143	28215.06
743.483	28326.7
743.823	28097.55
744.162	28057.33
744.502	27954.28
744.841	27932.36
745.181	28069.98
745.52	27878.35
745.86	27879.25
746.199	27805.13
746.538	27829.08
746.877	27973.71
747.216	27859.37
747.556	27801.51
747.895	27756.32
748.234	27693.04
748.573	27695.75
748.911	27603.33
749.25	27492.82
749.589	27537.79
749.928	27445.37
750.267	27477.68
750.605	27380.96
750.944	27340.74
751.283	27258.25
751.621	27329.66
751.96	27169.21
752.298	27173.51
752.636	27080.63
752.975	27034.08
753.313	27000.86
753.651	27057.58
753.989	26954.53
754.327	26864.59
754.666	26724.93
755.004	26729.45
755.342	26782.33
755.679	26666.63
756.017	26590.7
756.355	26555.22
756.693	26539.63
757.031	26523.13
757.368	26447.2
757.706	26363.59
758.044	26274.78
758.381	26242.91
758.719	26149.35
759.056	26149.81
759.394	26100.54
759.731	25944.16
760.068	25975.12
760.405	25882.92
760.743	25849.48
761.08	25786.65
761.417	25652.87
761.754	25637.73
762.091	25631.63
762.428	25454.91
762.765	25322.94
763.102	25307.57
763.438	25317.51
763.775	25177.63
764.112	25195.03
764.449	25189.83
764.785	25064.41
765.122	24924.08
765.458	24807.92
765.795	24804.08
766.131	24671.65
766.467	24708.49
766.804	24533.8
767.14	24462.85
767.476	24374.94
767.812	24170.65
768.148	24411.55
768.485	24165.45
768.821	24038
769.157	23979.02
769.492	23905.57
769.828	23897.44
770.164	23790.09
770.5	23633.49
770.836	23708.97
771.171	23510.78
771.507	23480.72
771.842	23232.37
772.178	23263.55
772.513	23158.7
772.849	23216.78
773.184	23039.15
773.519	23018.59
773.855	22968.2
774.19	22772.04
774.525	22743.57
774.86	22700.63
775.195	22616.79
775.53	22658.83
775.865	22392.62
776.2	22387.19
776.535	22153.3
776.87	22238.72
777.205	22090.93
777.539	22004.15
777.874	22021.33
778.209	21783.59
778.543	21822.46
778.878	21714.9
779.212	21697.49
779.547	21624.05
779.881	21603.49
780.215	21404.62
780.55	21495.01
780.884	21220.9
781.218	21178.41
781.552	21189.26
781.886	21083.27
782.22	20952.43
782.554	20870.4
782.888	20764.64
783.222	20779.55
783.556	20576.39
783.889	20569.84
784.223	20366
784.557	20403.97
784.89	20480.13
785.224	20229.28
785.557	20096.41
785.891	20202.17
786.224	20065.22
786.558	20037.43
786.891	19876.3
787.224	19800.14
787.557	19811.67
787.891	19660.49
788.224	19721.95
788.557	19623.42
788.89	19542.97
789.223	19547.95
789.556	19467.72
789.888	19424.56
790.221	19254.39
790.554	19133.04
790.887	19202.19
791.219	19035.19
791.552	19033.38
791.884	18917.45
792.217	18919.26
792.549	18898.02
792.882	18709.1
793.214	18660.51
793.546	18664.58
793.879	18612.83
794.211	18451.7
794.543	18452.83
794.875	18373.74
795.207	18479.5
795.539	18339.62
795.871	18220.98
796.203	18104.59
796.535	18036.35
796.867	18013.07
797.198	17900.31
797.53	17939.4
797.862	17759.52
798.193	17844.71
798.525	17616.47
798.856	17746.41
799.188	17462.8
799.519	17498.73
799.85	17389.36
800.182	17414.44
800.513	17378.51
800.844	17359.53
801.175	17300.55
801.506	17263.03
801.837	17188.23
802.168	17111.63
802.499	16981.23
802.83	17020.1
803.161	16961.57
803.491	16941.91
803.822	16866.66
804.153	16791.18
804.483	16601.81
804.814	16680.68
805.145	16619.89
805.475	16543.05
805.805	16563.17
806.136	16597.74
806.466	16645.65
806.796	16526.56
807.126	16342.38
807.457	16307.13
807.787	16305.77
808.117	16195.94
808.447	16167.02
808.777	16200.24
809.107	16119.11
809.436	16054.93
809.766	16079.56
810.096	16031.43
810.426	15878.66
810.755	15954.59
811.085	15902.84
811.414	15841.15
811.744	15669.63
812.073	15742.4
812.403	15694.71
812.732	15622.85
813.061	15590.31
813.39	15536.98
813.719	15494.49
814.049	15574.49
814.378	15470.09
814.707	15359.36
815.036	15376.76
815.365	15282.07
815.693	15296.98
816.022	15182.86
816.351	15144.22
816.68	15093.15
817.008	15117.55
817.337	14937.67
817.665	14939.48
817.994	14993.94
818.322	14953.72
818.651	14876.2
818.979	14787.85
819.307	14935.41
819.636	14763.21
819.964	14741.75
820.292	14865.58
820.62	14800.27
820.948	14664.23
821.276	14699.03
821.604	14654.29
821.932	14749.65
822.259	14701.97
822.587	14703.55
822.915	14626.27
823.243	14664.69
823.57	14582.43
823.898	14688.19
824.225	14615.65
824.553	14596.89
824.88	14649.32
825.207	14761.63
825.535	14586.72
825.862	14686.83
826.189	14617.23
826.516	14687.96
826.843	14675.53
827.17	14730.22
827.497	14680.28
827.824	14606.38
828.151	14640.96
828.478	14668.98
828.805	14756.43
829.131	14628.98
829.458	14551.92
829.785	14494.75
830.111	14579.72
830.438	14610.68
830.764	14652.93
831.09	14585.14
831.417	14488.19
831.743	14595.53
832.069	14537.23
832.395	14492.49
832.722	14545.14
833.048	14520.51
833.374	14447.52
833.7	14431.47
834.026	14329.33
834.351	14377.69
834.677	14478.93
835.003	14462.66
835.329	14429.44
835.654	14379.49
835.98	14335.2
836.306	14266.28
836.631	14319.38
836.956	14365.48
837.282	14330.23
837.607	14187.41
837.932	14261.53
838.258	14168.43
838.583	14173.4
838.908	14195.54
839.233	14111.03
839.558	14045.27
839.883	14023.12
840.208	13996.23
840.533	14011.37
840.858	14021.76
841.182	14012.05
841.507	13994.19
841.832	13926.17
842.156	13908.55
842.481	13849.11
842.805	13784.71
843.13	13835.78
843.454	13777.02
843.778	13726.4
844.103	13685.73
844.427	13735.22
844.751	13676.69
845.075	13659.97
845.399	13582.23
845.723	13429.01
846.047	13445.28
846.371	13385.62
846.695	13442.8
847.019	13281.44
847.343	13236.02
847.666	13150.15
847.99	13060.21
848.313	13137.04
848.637	13083.71
848.96	13054.11
849.284	13010.04
849.607	12852.3
849.931	12828.35
850.254	12779.08
850.577	12777.5
850.9	12626.32
851.223	12613.67
851.546	12590.39
851.869	12458.64
852.192	12471.3
852.515	12334.12
852.838	12341.58
853.161	12345.2
853.483	12256.61
853.806	12271.3
854.129	12186.78
854.451	12149.95
854.774	12154.24
855.096	12055.71
855.419	12050.97
855.741	11994.47
856.063	11977.52
856.385	11895.49
856.708	11874.25
857.03	11820.69
857.352	11817.75
857.674	11797.19
857.996	11710.19
858.318	11613.01
858.64	11615.73
858.961	11664.09
859.283	11589.06
859.605	11502.28
859.926	11685.78
860.248	11544.77
860.57	11462.74
860.891	11467.71
861.212	11454.15
861.534	11370.31
861.855	11340.03
862.176	11347.71
862.498	11374.83
862.819	11338.44
863.14	11298.45
863.461	11296.64
863.782	11309.29
864.103	11284.89
864.424	11268.62
864.745	11197.88
865.065	11128.28
865.386	11104.1
865.707	11121.95
866.027	11124.44
866.348	11086.93
866.668	11045.8
866.989	11077.89
867.309	11028.17
867.63	10963.31
867.95	11010.77
868.27	10919.02
868.59	10967.38
868.91	10926.25
869.23	10909.08
869.55	10836.09
869.87	10881.51
870.19	10887.61
870.51	10848.74
870.83	10889.64
871.15	10762.87
871.469	10800.38
871.789	10867.95
872.109	10788.85
872.428	10667.95
872.748	10734.84
873.067	10691.23
873.386	10699.14
873.706	10717.44
874.025	10596.09
874.344	10564.45
874.663	10637.9
874.982	10606.71
875.301	10564.23
875.62	10579.37
875.939	10568.07
876.258	10549.99
876.577	10448.07
876.896	10440.16
877.214	10424.12
877.533	10476.77
877.852	10374.18
878.17	10441.07
878.489	10408.98
878.807	10399.49
879.125	10331.92
879.444	10370.56
879.762	10312.48
880.08	10284.69
880.398	10336.66
880.716	10277.68
881.034	10195.42
881.352	10280.62
881.67	10159.94
881.988	10241.98
882.306	10197.68
882.624	10072.94
882.941	10125.37
883.259	10063.9
883.577	10075.65
883.894	10040.17
884.212	10095.09
884.529	10022.77
884.846	10033.39
885.164	9929.67
885.481	9911.36
885.798	9910.46
886.115	9860.07
886.432	9863.91
886.75	9787.75
887.067	9801.31
887.383	9779.39
887.7	9809.22
888.017	9743.46
888.334	9717.02
888.651	9687.41
888.967	9678.6
889.284	9648.09
889.6	9679.28
889.917	9604.48
890.233	9636.12
890.55	9578.72
890.866	9535.1
891.182	9492.84
891.498	9461.21
891.815	9425.5
892.131	9386.63
892.447	9425.73
892.763	9362.68
893.079	9303.92
893.395	9248.33
893.71	9280.19
894.026	9246.97
894.342	9221.66
894.657	9191.61
894.973	9230.7
895.289	9126.3
895.604	9150.03
895.92	9046.98
896.235	8982.8
896.55	9010.14
896.865	9002.01
897.181	8950.71
897.496	8951.16
897.811	8870.71
898.126	8865.06
898.441	8855.12
898.756	8770.83
899.071	8785.97
899.386	8762.69
899.7	8716.37
900.015	8651.74
900.33	8577.84
900.644	8599.08
900.959	8512.08
901.273	8497.62
901.588	8493.55
901.902	8466.43
902.216	8498.07
902.531	8404.06
902.845	8386.66
903.159	8345.98
903.473	8335.13
903.787	8275.93
904.101	8296.49
904.415	8262.82
904.729	8214.91
905.042	8172.43
905.356	8192.76
905.67	8066.44
905.984	8139.66
906.297	8142.14
906.611	8076.61
906.924	7989.61
907.237	7918.2
907.551	7961.36
907.864	7923.62
908.177	7915.71
908.491	7848.82
908.804	7848.14
909.117	7755.04
909.43	7711.2
909.743	7673.91
910.056	7667.13
910.368	7649.05
910.681	7607.24
910.994	7585.78
911.307	7521.82
911.619	7476.17
911.932	7521.14
912.244	7415.16
912.557	7413.12
912.869	7369.28
913.181	7338.78
913.494	7387.81
913.806	7237.99
914.118	7273.92
914.43	7235.73
914.742	7210.42
915.054	7240.93
915.366	7168.38
915.678	7085.22
915.99	7112.12
916.302	7067.82
916.613	7019.01
916.925	6961.61
917.236	7015.85
917.548	6986.02
917.859	6926.13
918.171	6967.03
918.482	6875.51
918.794	6836.64
919.105	6825.34
919.416	6769.53
919.727	6767.94
920.038	6696.98
920.349	6689.3
920.66	6643.43
920.971	6653.82
921.282	6694.05
921.593	6559.59
921.903	6548.29
922.214	6574.5
922.525	6489.98
922.835	6517.1
923.146	6409.76
923.456	6471.23
923.767	6375.64
924.077	6402.3
924.387	6392.36
924.697	6287.28
925.008	6310.55
925.318	6218.58
925.628	6234.17
925.938	6181.52
926.248	6203.66
926.558	6143.78
926.867	6190.78
927.177	6120.05
927.487	6076.66
927.796	5994.4
928.106	6030.11
928.416	6002.09
928.725	6025.14
929.034	5946.95
929.344	5954.41
929.653	5943.56
929.962	5867.4
930.271	5840.28
930.581	5793.05
930.89	5797.8
931.199	5758.03
931.508	5755.77
931.817	5804.8
932.125	5699.27
932.434	5714.19
932.743	5637.8
933.051	5658.37
933.36	5600.06
933.669	5544.7
933.977	5559.39
934.286	5527.52
934.594	5532.04
934.902	5468.99
935.21	5441.88
935.519	5472.61
935.827	5425.61
936.135	5400.97
936.443	5426.74
936.751	5350.13
937.059	5341.77
937.367	5270.58
937.674	5278.72
937.982	5290.92
938.29	5262.22
938.597	5246.4
938.905	5125.95
939.213	5172.96
939.52	5143.81
939.827	5142.9
940.135	5115.78
940.442	5069.01
940.749	5050.02
941.056	5083.24
941.363	5040.53
941.67	4970.02
941.977	4974.77
942.284	4922.79
942.591	4915.79
942.898	4923.25
943.205	4911.04
943.511	4876.47
943.818	4865.17
944.125	4823.81
944.431	4819.52
944.738	4816.13
945.044	4748.34
945.35	4723.93
945.657	4700.2
945.963	4682.8
946.269	4629.24
946.575	4656.59
946.881	4615.91
947.187	4597.83
947.493	4614.55
947.799	4618.85
948.105	4553.31
948.41	4574.55
948.716	4566.42
949.022	4536.82
949.327	4531.62
949.633	4426.31
949.938	4465.63
950.244	4438.06
950.549	4383.15
950.854	4374.79
951.16	4361.23
951.465	4361.45
951.77	4311.51
952.075	4316.26
952.38	4276.03
952.685	4298.4
952.99	4230.38
953.294	4226.77
953.599	4211.17
953.904	4185.19
954.209	4165.98
954.513	4149.03
954.818	4163.94
955.122	4103.38
955.426	4100.44
955.731	4079.88
956.035	4070.16
956.339	4090.5
956.643	4078.52
956.948	4014.57
957.252	4050.5
957.556	4014.12
957.86	3998.75
958.163	3960.33
958.467	3935.93
958.771	3930.73
959.075	3902.93
959.378	3883.5
959.682	3866.78
959.985	3837.4
960.289	3876.27
960.592	3823.84
960.896	3818.19
961.199	3737.29
961.502	3813.44
961.805	3750.85
962.108	3709.27
962.411	3720.34
962.714	3718.76
963.017	3718.53
963.32	3638.99
963.623	3686.44
963.926	3655.93
964.228	3618.87
964.531	3635.82
964.833	3617.52
965.136	3596.95
965.438	3593.56
965.741	3500.68
966.043	3545.88
966.345	3567.8
966.648	3512.89
966.95	3456.84
967.252	3471.31
967.554	3470.63
967.856	3434.92
968.158	3396.28
968.46	3418.43
968.761	3435.6
969.063	3352.89
969.365	3359.22
969.666	3325.1
969.968	3314.47
970.269	3277.19
970.571	3337.3
970.872	3295.72
971.174	3289.62
971.475	3270.63
971.776	3229.28
972.077	3259.56
972.378	3186.79
972.679	3193.8
972.98	3223.63
973.281	3195.61
973.582	3187.02
973.883	3151.99
974.183	3123.52
974.484	3103.18
974.785	3087.59
975.085	3130.3
975.386	3091.88
975.686	3058.21
975.986	3034.71
976.287	3078.77
976.587	2980.02
976.887	3020.47
977.187	3017.99
977.487	3004.2
977.787	2975.73
978.087	2974.82
978.387	2965.11
978.687	2964.88
978.987	2942.73
979.286	2888.5
979.586	2953.58
979.885	2874.49
980.185	2872.45
980.484	2906.12
980.784	2861.83
981.083	2826.13
981.382	2814.38
981.682	2817.31
981.981	2797.43
982.28	2792
982.579	2782.74
982.878	2772.57
983.177	2766.24
983.475	2719.46
983.774	2721.72
984.073	2747.48
984.372	2711.1
984.67	2659.8
984.969	2683.76
985.267	2665.9
985.566	2651.89
985.864	2617.32
986.162	2651.44
986.461	2605.79
986.759	2578.9
987.057	2590.88
987.355	2561.05
987.653	2586.13
987.951	2545.68
988.249	2502.52
988.547	2555.85
988.844	2559.47
989.142	2528.73
989.44	2463.88
989.737	2480.15
990.035	2471.11
990.332	2460.94
990.63	2442.86
990.927	2432.92
991.224	2431.33
991.521	2419.13
991.819	2404.22
992.116	2388.62
992.413	2382.97
992.71	2365.8
993.006	2379.36
993.303	2339.59
993.6	2349.08
993.897	2337.33
994.193	2341.85
994.49	2313.82
994.787	2287.38
995.083	2292.13
995.379	2277.44
995.676	2281.28
995.972	2256.65
996.268	2254.84
996.565	2243.09
996.861	2228.18
997.157	2213.71
997.453	2185.24
997.749	2158.57
998.044	2185.69
998.34	2188.85
998.636	2166.26
998.932	2156.99
999.227	2156.09
999.523	2126.94
999.818	2137.1
1000.114	2110.89
1000.409	2075.64
1000.704	2086.48
1001	2103.66
1001.295	2058.69
1001.59	2044.45
1001.885	2041.97
1002.18	2019.37
1002.475	2026.15
1002.77	1992.02
1003.065	1985.47
1003.359	1982.08
1003.654	1979.37
1003.949	1964.45
1004.243	1964.45
1004.538	1922.87
1004.832	1932.82
1005.127	1953.61
1005.421	1937.11
1005.715	1907.73
1006.009	1874.51
1006.304	1907.51
1006.598	1851.01
1006.892	1869.32
1007.186	1851.91
1007.48	1846.49
1007.773	1833.16
1008.067	1813.5
1008.361	1836.32
1008.655	1808.98
1008.948	1807.4
1009.242	1813.72
1009.535	1787.74
1009.829	1765.36
1010.122	1749.32
1010.415	1735.53
1010.708	1728.98
1011.001	1695.99
1011.295	1699.6
1011.588	1705.48
1011.881	1711.13
1012.173	1700.73
1012.466	1695.99
1012.759	1683.56
1013.052	1660.96
1013.344	1643.33
1013.637	1607.4
1013.93	1631.81
1014.222	1634.52
1014.514	1600.62
1014.807	1615.31
1015.099	1588.19
1015.391	1566.5
1015.683	1587.51
1015.976	1554.07
1016.268	1567.18
1016.56	1539.38
1016.851	1501.42
1017.143	1525.82
1017.435	1518.82
1017.727	1504.13
1018.018	1498.93
1018.31	1477.01
1018.602	1481.53
1018.893	1467.29
1019.185	1451.93
1019.476	1427.52
1019.767	1453.51
1020.058	1431.36
1020.35	1422.77
1020.641	1406.5
1020.932	1391.36
1021.223	1396.11
1021.514	1370.8
1021.804	1359.5
1022.095	1383
1022.386	1352.72
1022.677	1354.53
1022.967	1342.32
1023.258	1338.71
1023.548	1345.49
1023.839	1317.92
1024.129	1337.58
1024.419	1298.03
1024.709	1294.42
1025	1309.1
1025.29	1260.74
1025.58	1259.61
1025.87	1244.7
1026.16	1242.44
1026.449	1239.28
1026.739	1208.09
1027.029	1220.97
1027.319	1217.58
1027.608	1214.64
1027.898	1199.28
1028.187	1204.47
1028.477	1192.95
1028.766	1184.36
1029.055	1180.75
1029.344	1188.88
1029.634	1145.49
1029.923	1113.85
1030.212	1147.75
1030.501	1147.98
1030.79	1124.25
1031.078	1131.48
1031.367	1117.02
1031.656	1104.59
1031.945	1090.8
1032.233	1090.58
1032.522	1092.39
1032.81	1070.01
1033.099	1065.95
1033.387	1065.27
1033.675	1086.74
1033.963	1054.42
1034.251	1059.17
1034.54	1018.04
1034.828	1028.89
1035.116	1020.75
1035.403	1002.45
1035.691	1003.12
1035.979	1010.35
1036.267	973.75
1036.554	978.72
1036.842	995.21
1037.129	948.44
1037.417	985.5
1037.704	994.31
1037.992	983.01
1038.279	966.06
1038.566	955.44
1038.853	955.44
1039.14	955.44
