Data from hue_32_FLMS001491_00056.txt Node
Date: Tue Feb 07 17:23:36 GMT 2017
User: dcchb
Spectrometer: FLMS00149
Trigger mode: 0
Integration Time (sec): 2.000000E-2
Scans to average: 10
Electric dark correction enabled: true
Nonlinearity correction enabled: false
Boxcar width: 0
XAxis mode: Wavelengths
Number of Pixels in Spectrum: 2048
>>>>>Begin Spectral Data<<<<<
341.393	9.19
341.776	9.19
342.16	9.19
342.543	-73.29
342.927	-61.54
343.31	-67.87
343.693	-94.53
344.077	-69
344.46	-63.35
344.843	-66.74
345.226	-31.93
345.61	-8.88
345.993	-3.91
346.376	-6.62
346.759	26.37
347.142	42.64
347.525	28.63
347.908	65.69
348.291	66.14
348.674	95.52
349.057	87.84
349.44	131.9
349.823	143.88
350.206	153.6
350.588	196.08
350.971	214.61
351.354	220.49
351.737	224.33
352.119	244.22
352.502	286.93
352.884	279.02
353.267	293.26
353.65	294.84
354.032	314.5
354.414	292.58
354.797	316.08
355.179	342.29
355.562	330.09
355.944	333.71
356.326	316.98
356.709	349.52
357.091	341.39
357.473	338.68
357.855	355.63
358.238	361.73
358.62	335.74
359.002	352.69
359.384	354.72
359.766	323.31
360.148	363.31
360.53	331.22
360.912	333.71
361.294	345.01
361.676	334.84
362.057	329.86
362.439	333.03
362.821	345.23
363.203	338.68
363.584	332.12
363.966	327.38
364.348	324.21
364.729	312.46
365.111	338.68
365.493	332.35
365.874	330.09
366.256	314.5
366.637	313.82
367.019	317.21
367.4	322.63
367.781	298.23
368.163	311.33
368.544	314.5
368.925	314.27
369.306	339.58
369.688	317.66
370.069	324.21
370.45	291.9
370.831	335.74
371.212	306.59
371.593	322.18
371.974	315.18
372.355	305.91
372.736	329.64
373.117	323.54
373.498	316.53
373.879	325.12
374.26	335.51
374.641	321.28
375.021	315.63
375.402	321.28
375.783	333.71
376.163	332.58
376.544	335.51
376.925	310.66
377.305	320.37
377.686	332.58
378.066	321.5
378.447	345.91
378.827	338.45
379.208	346.81
379.588	326.47
379.968	337.77
380.349	322.63
380.729	346.59
381.109	347.04
381.489	335.74
381.87	342.52
382.25	340.49
382.63	360.15
383.01	347.94
383.39	340.49
383.77	352.01
384.15	360.6
384.53	347.94
384.91	366.47
385.29	348.62
385.67	341.39
386.049	361.95
386.429	338.68
386.809	341.16
387.189	359.92
387.568	366.7
387.948	328.28
388.328	363.76
388.707	346.13
389.087	346.13
389.466	353.37
389.846	388.39
390.225	369.86
390.605	376.42
390.984	349.07
391.363	369.86
391.743	382.07
392.122	374.83
392.501	383.42
392.881	355.63
393.26	351.78
393.639	369.19
394.018	366.02
394.397	376.19
394.776	405.12
395.155	383.2
395.534	377.77
395.913	385.23
396.292	365.12
396.671	394.04
397.05	389.98
397.429	392.69
397.808	416.42
398.186	371.9
398.565	410.31
398.944	409.18
399.323	403.31
399.701	387.04
400.08	400.82
400.458	400.6
400.837	426.36
401.215	381.39
401.594	433.14
401.972	407.6
402.351	435.85
402.729	418.68
403.107	418.45
403.486	407.83
403.864	422.97
404.242	419.58
404.62	425
404.999	424.55
405.377	441.05
405.755	435.85
406.133	431.1
406.511	440.37
406.889	439.01
407.267	434.04
407.645	434.27
408.023	465
408.401	453.25
408.779	426.81
409.156	461.16
409.534	465.68
409.912	453.48
410.29	469.52
410.667	474.95
411.045	476.08
411.422	456.19
411.8	463.42
412.178	480.37
412.555	458.22
412.933	473.82
413.31	475.85
413.687	494.83
414.065	482.4
414.442	506.13
414.819	489.86
415.197	481.05
415.574	488.5
415.951	502.52
416.328	493.48
416.705	503.42
417.082	522.4
417.46	505.68
417.837	516.98
418.214	531.21
418.591	520.14
418.967	532.34
419.344	527.6
419.721	525.57
420.098	529.18
420.475	535.06
420.852	550.42
421.228	542.51
421.605	537.54
421.982	555.17
422.358	566.02
422.735	542.97
423.111	538.9
423.488	542.06
423.864	553.81
424.241	577.77
424.617	572.57
424.994	580.03
425.37	564.66
425.746	576.86
426.123	552.91
426.499	593.81
426.875	599.91
427.251	592.23
427.627	592.68
428.003	609.86
428.379	602.63
428.756	615.96
429.132	599.91
429.507	613.25
429.883	631.78
430.259	631.33
430.635	612.12
431.011	664.09
431.387	659.12
431.763	647.82
432.138	657.77
432.514	659.57
432.89	674.26
433.265	687.59
433.641	690.76
434.016	662.51
434.392	700.25
434.767	674.71
435.143	680.82
435.518	706.58
435.894	723.98
436.269	710.65
436.644	729.18
437.02	705.45
437.395	714.26
437.77	733.92
438.145	737.31
438.52	746.58
438.895	728.5
439.271	760.59
439.646	761.49
440.021	762.17
440.395	758.55
440.77	779.34
441.145	758.33
441.52	775.73
441.895	777.08
442.27	786.58
442.645	781.6
443.019	795.84
443.394	809.85
443.769	795.61
444.143	792.45
444.518	821.38
444.892	788.84
445.267	815.5
445.641	812.34
446.016	815.28
446.39	844.2
446.764	827.48
447.139	846.23
447.513	857.76
447.887	865.67
448.262	846.01
448.636	865.9
449.01	869.96
449.384	864.09
449.758	880.13
450.132	912.67
450.506	892.56
450.88	894.6
451.254	906.57
451.628	930.07
452.002	916.74
452.376	886.23
452.75	916.06
453.123	934.82
453.497	917.19
453.871	949.73
454.244	930.07
454.618	965.33
454.992	970.3
455.365	996.06
455.739	993.12
456.112	986.12
456.486	988.83
456.859	1036.06
457.232	1034.93
457.606	1035.61
457.979	1034.03
458.352	1049.39
458.725	1072.22
459.099	1065.44
459.472	1101.37
459.845	1097.53
460.218	1130.07
460.591	1135.04
460.964	1116.96
461.337	1154.48
461.71	1165.55
462.083	1177.75
462.456	1180.46
462.829	1158.32
463.201	1214.81
463.574	1224.98
463.947	1232.44
464.32	1219.11
464.692	1247.13
465.065	1238.99
465.438	1284.64
465.81	1299.78
466.183	1313.79
466.555	1359.22
466.928	1343.85
467.3	1380.68
467.672	1367.35
468.045	1390.85
468.417	1414.81
468.789	1423.62
469.161	1423.85
469.534	1483.05
469.906	1487.35
470.278	1514.47
470.65	1572.77
471.022	1555.37
471.394	1598.76
471.766	1603.96
472.138	1624.52
472.51	1669.49
472.882	1698.19
473.253	1727.79
473.625	1747
473.997	1760.34
474.369	1810.05
474.74	1807.57
475.112	1864.29
475.484	1899.31
475.855	1957.62
476.227	1937.73
476.598	2019.76
476.97	2078.07
477.341	2126.65
477.713	2159.19
478.084	2168.23
478.455	2251.17
478.827	2284.16
479.198	2342.01
479.569	2370.49
479.94	2472.86
480.311	2473.31
480.682	2550.37
481.053	2633.98
481.424	2663.36
481.795	2726.64
482.166	2799.86
482.537	2867.42
482.908	2923.92
483.279	2954.65
483.65	3000.98
484.021	3101.99
484.391	3167.3
484.762	3232.84
485.133	3296.11
485.503	3374.53
485.874	3440.74
486.244	3552.83
486.615	3612.04
486.985	3691.13
487.356	3790.11
487.726	3799.38
488.097	3934.29
488.467	3973.61
488.837	4072.36
489.207	4169.31
489.578	4220.84
489.948	4335.86
490.318	4422.64
490.688	4402.98
491.058	4564.78
491.428	4637.1
491.798	4711.22
492.168	4831.67
492.538	4893.81
492.908	4988.05
493.278	5065.11
493.648	5132
494.017	5186.91
494.387	5235.27
494.757	5349.39
495.126	5468.49
495.496	5472.55
495.866	5570.4
496.235	5680.46
496.605	5751.87
496.974	5839.55
497.344	5850.4
497.713	5898.31
498.082	5971.98
498.452	6043.16
498.821	6128.36
499.19	6162.93
499.559	6275.92
499.928	6346.2
500.298	6390.72
500.667	6455.58
501.036	6463.94
501.405	6522.24
501.774	6635.46
502.143	6696.48
502.512	6714.33
502.88	6758.4
503.249	6840.2
503.618	6923.82
503.987	6908
504.356	6968.56
504.724	7069.8
505.093	7119.74
505.462	7135.79
505.83	7226.63
506.199	7276.35
506.567	7414.88
506.936	7365.39
507.304	7443.8
507.672	7513.63
508.041	7484.7
508.409	7604.93
508.777	7662.1
509.145	7716.79
509.514	7772.61
509.882	7903.68
510.25	7866.84
510.618	7957.46
510.986	7966.5
511.354	8056.89
511.722	8154.74
512.09	8202.43
512.458	8181.64
512.826	8238.13
513.193	8312.93
513.561	8381.86
513.929	8403.55
514.297	8510.89
514.664	8505.47
515.032	8590.66
515.4	8602.19
515.767	8607.61
516.135	8707.72
516.502	8636.09
516.869	8774.84
517.237	8759.47
517.604	8781.39
517.972	8926.7
518.339	8907.94
518.706	8966.7
519.073	9051.22
519.44	9044.21
519.808	9189.74
520.175	9149.29
520.542	9282.17
520.909	9308.61
521.276	9295.05
521.643	9449.4
522.009	9470.64
522.376	9474.71
522.743	9571.2
523.11	9592.67
523.477	9700.69
523.843	9759.9
524.21	9796.06
524.577	9912.21
524.943	9912.66
525.31	9959.89
525.676	10078.76
526.043	10147.23
526.409	10133.9
526.776	10283.73
527.142	10316.95
527.508	10303.84
527.874	10390.16
528.241	10467.22
528.607	10549.71
528.973	10568.92
529.339	10607.11
529.705	10672.42
530.071	10686.2
530.437	10856.59
530.803	10879.19
531.169	10964.84
531.535	10951.28
531.901	10950.6
532.267	11120.31
532.632	11073.31
532.998	11109.47
533.364	11212.74
533.73	11269.24
534.095	11321.44
534.461	11366.64
534.826	11429.69
535.192	11473.53
535.557	11529.34
535.923	11545.39
536.288	11579.29
536.653	11725.5
537.019	11619.96
537.384	11670.58
537.749	11730.24
538.114	11832.39
538.479	11860.18
538.845	11939.5
539.21	11881.65
539.575	11934.08
539.94	12015.21
540.305	12055.88
540.67	12175.2
541.034	12195.77
541.399	12224.69
541.764	12261.3
542.129	12265.14
542.494	12339.04
542.858	12324.35
543.223	12419.49
543.587	12493.39
543.952	12490.22
544.316	12626.26
544.681	12496.1
545.045	12633.04
545.41	12721.63
545.774	12744.91
546.138	12782.64
546.503	12935.63
546.867	12864.45
547.231	12970.66
547.595	12986.71
547.959	13099.7
548.324	13086.59
548.688	13139.92
549.052	13220.37
549.416	13239.36
549.779	13234.38
550.143	13213.59
550.507	13388.73
550.871	13407.94
551.235	13435.06
551.599	13482.51
551.962	13489.07
552.326	13581.49
552.689	13635.96
553.053	13631.44
553.417	13656.29
553.78	13808.38
554.143	13780.13
554.507	13881.15
554.87	13824.65
555.234	14069.39
555.597	13960.47
555.96	14015.38
556.323	14077.3
556.686	14198.65
557.05	14281.36
557.413	14169.27
557.776	14275.49
558.139	14381.7
558.502	14426.22
558.865	14461.24
559.228	14450.4
559.59	14510.28
559.953	14529.72
560.316	14726.1
560.679	14658.08
561.041	14712.99
561.404	14873.66
561.767	14983.94
562.129	14925.86
562.492	14974
562.854	15076.82
563.217	14965.19
563.579	15032.75
563.941	15205.18
564.304	15220.32
564.666	15331.28
565.028	15328.79
565.39	15407.43
565.753	15542.35
566.115	15535.11
566.477	15512.74
566.839	15561.78
567.201	15777.37
567.563	15732.17
567.925	15870.25
568.287	15845.16
568.648	15929.23
569.01	16107.98
569.372	16134.65
569.734	16057.59
570.095	16166.06
570.457	16191.82
570.819	16310.91
571.18	16312.04
571.542	16487.41
571.903	16510
572.265	16610.57
572.626	16608.31
572.987	16729.43
573.349	16860.73
573.71	16830
574.071	16855.98
574.432	17037
574.794	17126.48
575.155	17267.95
575.516	17179.14
575.877	17362.18
576.238	17516.98
576.599	17591.56
576.96	17686.92
577.32	17759.91
577.681	17879.91
578.042	18019.34
578.403	18073.58
578.763	18128.27
579.124	18315.61
579.485	18532.55
579.845	18682.38
580.206	18817.51
580.566	18902.94
580.927	19028.58
581.287	19198.52
581.648	19398.74
582.008	19567.55
582.368	19755.12
582.728	19944.49
583.089	20084.37
583.449	20160.3
583.809	20406.62
584.169	20670.35
584.529	20709.89
584.889	21046.16
585.249	21187.62
585.609	21294.96
585.969	21604.33
586.329	21876.19
586.688	22064.43
587.048	22358.21
587.408	22458.1
587.768	22805.43
588.127	22987.35
588.487	23110.28
588.846	23544.4
589.206	23538.97
589.565	23844.05
589.925	24129.46
590.284	24485.16
590.643	24688.09
591.003	25046.5
591.362	25228.19
591.721	25396.32
592.08	25682.42
592.44	26004.9
592.799	26251.22
593.158	26415.96
593.517	26797.87
593.876	27057.07
594.235	27184.3
594.593	27460.9
594.952	27772.53
595.311	28007.78
595.67	28320.54
596.029	28730.25
596.387	28935.89
596.746	29368.87
597.104	29405.71
597.463	29522.32
597.822	30085.92
598.18	30041.63
598.538	30452.01
598.897	30715.28
599.255	30664.21
599.613	31357.52
599.972	31192.1
600.33	31710.73
600.688	31749.15
601.046	32191.4
601.404	32524.72
601.762	32581.45
602.12	32947.09
602.478	33153.18
602.836	33300.07
603.194	33252.61
603.552	33631.36
603.91	33683.34
604.268	34019.83
604.625	34254.85
604.983	34369.2
605.341	34558.57
605.698	34916.53
606.056	35212.79
606.413	35088.95
606.771	35559.22
607.128	35805.09
607.485	35868.36
607.843	36056.61
608.2	36375.02
608.557	36572.53
608.914	36599.87
609.272	36832.18
609.629	37004.61
609.986	37350.59
610.343	37274.88
610.7	37732.04
611.057	37790.35
611.414	37934.07
611.771	37995.09
612.127	38195.99
612.484	38385.81
612.841	38577.45
613.198	38579.93
613.554	38730.44
613.911	38954.84
614.267	39129.3
614.624	39167.04
614.98	39306.01
615.337	39605.22
615.693	39719.11
616.05	39731.54
616.406	40049.27
616.762	40102.15
617.118	40113.68
617.475	40164.07
617.831	40490.39
618.187	40448.58
618.543	40798.86
618.899	40908.91
619.255	40938.51
619.611	40975.35
619.967	41128.34
620.323	41405.85
620.678	41275.23
621.034	41164.5
621.39	41249.01
621.746	41317.94
622.101	42011.03
622.457	41624.82
622.812	41662.34
623.168	41951.59
623.523	41949.11
623.879	42073.4
624.234	41863.24
624.589	42117.69
624.945	42204.92
625.3	42326.73
625.655	42361.53
626.01	42423.9
626.365	42467.51
626.72	42440.62
627.075	42345.71
627.43	42554.74
627.785	42389.78
628.14	42644.01
628.495	42646.04
628.85	42637.23
629.205	42650.79
629.559	42829.54
629.914	42735.3
630.269	42839.03
630.623	42779.14
630.978	42646.49
631.332	42860.72
631.687	42975.52
632.041	42836.32
632.396	42964.9
632.75	42698.69
633.104	42843.1
633.459	42660.5
633.813	42864.79
634.167	42955.64
634.521	42860.95
634.875	42992.47
635.229	42882.19
635.583	42837.22
635.937	42866.82
636.291	42737.56
636.645	42859.82
636.999	42731.24
637.352	42909.31
637.706	42615.08
638.06	42796.54
638.413	42751.8
638.767	42619.83
639.121	42774.62
639.474	42518.13
639.828	42592.93
640.181	42704.34
640.534	42608.53
640.888	42483.11
641.241	42380.28
641.594	42558.81
641.947	42515.65
642.301	42444.46
642.654	42556.55
643.007	42674.97
643.36	42550.67
643.713	42480.39
644.066	42589.32
644.419	42333.05
644.771	42009.45
645.124	41849
645.477	41815.33
645.83	41543.24
646.182	41459.18
646.535	41269.35
646.888	41407.65
647.24	41103.26
647.593	41317.26
647.945	41404.49
648.298	41114.55
648.65	41129.47
649.002	40892.64
649.355	41158.4
649.707	41059.41
650.059	41388.45
650.411	41777.14
650.763	41832.95
651.115	42194.3
651.467	41979.39
651.819	42140.74
652.171	41999.28
652.523	41975.55
652.875	41890.58
653.227	41745.27
653.578	41847.42
653.93	41943.69
654.282	41797.93
654.633	41748.21
654.985	41747.08
655.337	41834.08
655.688	41792.95
656.039	41986.85
656.391	41726.29
656.742	41716.35
657.094	41787.08
657.445	42027.98
657.796	41757.7
658.147	41794.31
658.498	41694.2
658.849	41775.78
659.2	41682.45
659.551	41604.49
659.902	41736.23
660.253	41730.81
660.604	41771.94
660.955	41363.14
661.306	41824.82
661.656	41749.79
662.007	41584.37
662.358	41465.05
662.708	41653.75
663.059	41577.82
663.409	41398.39
663.76	41649.46
664.11	41588.44
664.461	41686.97
664.811	41638.38
665.161	41469.12
665.511	41397.26
665.862	41400.65
666.212	41533.75
666.562	41473.42
666.912	41469.57
667.262	41472.29
667.612	41365.62
667.962	41602.23
668.312	41389.12
668.662	41659.85
669.011	41402.46
669.361	41444.49
669.711	41457.82
670.06	41307.54
670.41	41282.91
670.76	41139.19
671.109	41432.51
671.459	41402.68
671.808	41225.96
672.157	41348.9
672.507	41183.03
672.856	41128.57
673.205	41241.1
673.554	41429.12
673.904	41122.24
674.253	41488.56
674.602	41198.85
674.951	40704.17
675.3	40510.05
675.649	41142.8
675.998	41210.82
676.346	41172.86
676.695	41355.9
677.044	40963.82
677.393	41137.15
677.741	41134.44
678.09	41010.38
678.438	40804.96
678.787	40994.11
679.135	41001.56
679.484	40696.03
679.832	40899.87
680.181	40640.89
680.529	40696.26
680.877	40651.06
681.225	40597.73
681.573	40798.63
681.922	40614
682.27	40416.95
682.618	40490.39
682.966	40385.99
683.314	40521.12
683.661	40310.96
684.009	40106.9
684.357	40220.34
684.705	40024.64
685.053	40202.04
685.4	40000.01
685.748	39927.24
686.095	39907.81
686.443	39661.71
686.79	39681.15
687.138	39752.78
687.485	39640.92
687.832	39433.24
688.18	39553.24
688.527	39427.59
688.874	39376.52
689.221	39102.63
689.568	39080.26
689.915	39042.74
690.262	39077.09
690.609	38963.88
690.956	38754.62
691.303	38712.81
691.65	38755.97
691.997	38660.16
692.344	38416.09
692.69	38434.17
693.037	38448.64
693.383	38066.73
693.73	38296.1
694.077	38074.86
694.423	38072.6
694.769	37934.53
695.116	37955.32
695.462	37812.27
695.808	37739.5
696.155	37771.82
696.501	37428.1
696.847	37478.49
697.193	37207.99
697.539	37348.55
697.885	37147.88
698.231	37021.33
698.577	37018.62
698.923	37042.35
699.269	36734.56
699.614	36656.82
699.96	36624.96
700.306	36678.06
700.651	36450.72
700.997	36315.13
701.342	36264.29
701.688	36219.32
702.033	36018.19
702.379	36034.91
702.724	35956.95
703.069	36024.07
703.415	35620.24
703.76	35684.19
704.105	35616.85
704.45	35460.69
704.795	35382.95
705.14	35313.58
705.485	35255.5
705.83	35110.64
706.175	35120.14
706.52	35055.28
706.865	34930.54
707.209	34896.64
707.554	34758.34
707.899	34911.78
708.243	34715.63
708.588	34559.02
708.932	34489.87
709.277	34288.97
709.621	34355.41
709.966	34310.89
710.31	34252.59
710.654	33982.99
710.998	34147.28
711.342	33981.86
711.687	33912.03
712.031	33692.83
712.375	33658.25
712.719	33672.04
713.063	33669.33
713.407	33719.27
713.75	33648.08
714.094	33550.91
714.438	33439.05
714.782	33406.51
715.125	33173.07
715.469	33352.27
715.812	33049.46
716.156	33013.98
716.499	33012.85
716.843	33024.37
717.186	32835.68
717.53	33072.28
717.873	33025.5
718.216	32862.57
718.559	32616.25
718.902	32461.22
719.246	32507.78
719.589	32401.79
719.932	32367.21
720.275	32430.49
720.617	32351.4
720.96	32332.86
721.303	32309.36
721.646	32254.67
721.989	31893.1
722.331	32088.13
722.674	31964.96
723.016	32011.97
723.359	32002.03
723.701	32060.78
724.044	31626.89
724.386	31561.59
724.729	31870.73
725.071	31559.33
725.413	31649.27
725.755	31569.27
726.097	31479.1
726.439	31334.7
726.782	31494.47
727.124	31572.43
727.465	31333.12
727.807	31271.65
728.149	31195.95
728.491	31226
728.833	31267.58
729.175	30995.95
729.516	30998.21
729.858	31000.7
730.199	31018.1
730.541	30904.2
730.882	30878.67
731.224	30981.94
731.565	30663.76
731.906	30917.53
732.248	30786.92
732.589	30565
732.93	30507.83
733.271	30573.81
733.612	30568.17
733.953	30620.37
734.294	30493.14
734.635	30422.18
734.976	30439.81
735.317	30253.82
735.658	30340.6
735.999	30218.12
736.339	30231.68
736.68	30370.66
737.021	30070.33
737.361	30021.29
737.702	30176.99
738.042	30033.72
738.383	29930.67
738.723	30137.22
739.063	29859.26
739.404	29974.06
739.744	29774.06
740.084	29732.93
740.424	29744.68
740.764	29695.42
741.104	29721.41
741.444	29639.6
741.784	29573.84
742.124	29528.42
742.464	29578.81
742.804	29488.42
743.143	29435.99
743.483	29473.05
743.823	29245.94
744.162	29279.61
744.502	29374.3
744.841	29180.18
745.181	29293.17
745.52	29091.82
745.86	29194.19
746.199	29038.94
746.538	29132.5
746.877	29127.53
747.216	29088.88
747.556	28931.15
747.895	28970.47
748.234	28844.14
748.573	28757.14
748.911	28680.76
749.25	28762.79
749.589	28616.8
749.928	28649.12
750.267	28626.75
750.605	28678.05
750.944	28520.08
751.283	28432.18
751.621	28468.56
751.96	28319.64
752.298	28395.11
752.636	28360.99
752.975	28270.15
753.313	27993.54
753.651	28248.68
753.989	27991.28
754.327	27991.06
754.666	27883.49
755.004	27887.11
755.342	27958.06
755.679	27865.41
756.017	27736.83
756.355	27824.06
756.693	27667.22
757.031	27660.22
757.368	27504.97
757.706	27637.85
758.044	27479.88
758.381	27538.64
758.719	27438.3
759.056	27304.52
759.394	27344.75
759.731	27117.18
760.068	27163.73
760.405	26887.36
760.743	26879.22
761.08	27027.02
761.417	26840.13
761.754	26726.46
762.091	26686.01
762.428	26484.2
762.765	26327.15
763.102	26565.78
763.438	26396.52
763.775	26102.75
764.112	26172.35
764.449	26331.44
764.785	25978.23
765.122	25829.53
765.458	25793.83
765.795	25709.54
766.131	25630.89
766.467	25608.52
766.804	25549.31
767.14	25434.29
767.476	25447.85
767.812	25211.7
768.148	25402.65
768.485	25180.28
768.821	25058.71
769.157	24987.97
769.492	24967.41
769.828	24900.07
770.164	24747.75
770.5	24735.78
770.836	24655.33
771.171	24487.42
771.507	24421.89
771.842	24245.39
772.178	24313.87
772.513	24265.05
772.849	24129.92
773.184	24080.65
773.519	23987.55
773.855	23961.11
774.19	23878.62
774.525	23781.22
774.86	23703.26
775.195	23667.78
775.53	23590.04
775.865	23403.38
776.2	23229.15
776.535	23225.53
776.87	23148.02
777.205	23016.05
777.539	22812.89
777.874	22945.31
778.209	22845.88
778.543	22811.31
778.878	22630.29
779.212	22612.89
779.547	22492.22
779.881	22506.68
780.215	22409.28
780.55	22445.67
780.884	22224.66
781.218	22191.89
781.552	22009.52
781.886	22168.84
782.22	21810.88
782.554	21753.48
782.888	21589.64
783.222	21616.54
783.556	21459.25
783.889	21454.73
784.223	21286.38
784.557	21182.65
784.89	21292.7
785.224	21068.3
785.557	21083.67
785.891	20897.46
786.224	20828.08
786.558	20940.4
786.891	20621.53
787.224	20619.05
787.557	20617.24
787.891	20487.3
788.224	20453.4
788.557	20485.49
788.89	20454.76
789.223	20322.11
789.556	20139.29
789.888	20250.7
790.221	20031.49
790.554	19935
790.887	19878.05
791.219	19798.28
791.552	19864.27
791.884	19695.91
792.217	19721.44
792.549	19453.43
792.882	19510.15
793.214	19364.84
793.546	19490.94
793.879	19186.09
794.211	19156.04
794.543	19241.01
794.875	19111.97
795.207	19098.86
795.539	19031.29
795.871	19037.17
796.203	18862.48
796.535	18694.58
796.867	18739.55
797.198	18732.09
797.53	18745.43
797.862	18564.19
798.193	18629.5
798.525	18551.98
798.856	18484.87
799.188	18269.96
799.519	18214.37
799.85	18250.97
800.182	18238.77
800.513	18254.14
800.844	18034.03
801.175	18064.31
801.506	18004.65
801.837	17907.03
802.168	17899.35
802.499	17796.07
802.83	17789.07
803.161	17669.52
803.491	17671.1
803.822	17651.67
804.153	17604.89
804.483	17364.44
804.814	17315.63
805.145	17409.42
805.475	17421.17
805.805	17291
806.136	17219.82
806.466	17214.84
806.796	17117.45
807.126	17043.1
807.457	16921.29
807.787	17025.24
808.117	16965.13
808.447	16917.68
808.777	16960.16
809.107	16782.09
809.436	16819.6
809.766	16711.35
810.096	16692.15
810.426	16600.17
810.755	16653.05
811.085	16567.86
811.414	16505.03
811.744	16382.78
812.073	16340.74
812.403	16371.93
812.732	16219.62
813.061	16233.63
813.39	16185.72
813.719	16192.95
814.049	16197.7
814.378	16152.95
814.707	16024.82
815.036	15968.55
815.365	16004.03
815.693	15828.89
816.022	15827.99
816.351	15807.65
816.68	15635.45
817.008	15767.65
817.337	15536.92
817.665	15513.19
817.994	15641.33
818.322	15643.59
818.651	15560.2
818.979	15432.52
819.307	15539.41
819.636	15382.12
819.964	15275.69
820.292	15419.41
820.62	15383.25
820.948	15306.42
821.276	15386.19
821.604	15288.11
821.932	15266.65
822.259	15313.65
822.587	15259.64
822.915	15187.33
823.243	15254.9
823.57	15288.11
823.898	15321.79
824.225	15273.2
824.553	15253.54
824.88	15149.81
825.207	15162.02
825.535	15189.81
825.862	15272.52
826.189	15157.27
826.516	15292.63
826.843	15238.17
827.17	15285.18
827.497	15265.06
827.824	15173.32
828.151	15256.25
828.478	15180.1
828.805	15237.04
829.131	15205.63
829.458	15159.3
829.785	15140.1
830.111	15185.52
830.438	15243.6
830.764	15212.41
831.09	15152.98
831.417	15152.53
831.743	15151.62
832.069	15106.88
832.395	15101.68
832.722	15107.55
833.048	15006.54
833.374	15183.26
833.7	15013.32
834.026	14991.4
834.351	14997.73
834.677	15069.14
835.003	15030.95
835.329	15023.94
835.654	14995.47
835.98	14976.48
836.306	14959.76
836.631	14869.82
836.956	14952.76
837.282	14958.18
837.607	14894.45
837.932	14838.64
838.258	14841.8
838.583	14777.85
838.908	14763.83
839.233	14796.6
839.558	14725.87
839.883	14641.8
840.208	14539.43
840.533	14672.09
840.858	14551.41
841.182	14631.41
841.507	14555.48
841.832	14465.54
842.156	14508.93
842.481	14442.26
842.805	14298.99
843.13	14344.41
843.454	14355.94
843.778	14343.73
844.103	14216.5
844.427	14201.14
844.751	14259.89
845.075	14127.92
845.399	14075.04
845.723	14035.94
846.047	14041.14
846.371	13962.73
846.695	13867.81
847.019	13821.26
847.343	13769.74
847.666	13717.31
847.99	13658.1
848.313	13679.57
848.637	13550.08
848.96	13628.72
849.284	13463.76
849.607	13432.34
849.931	13414.72
850.254	13259.47
850.577	13290.65
850.9	13134.73
851.223	13106.25
851.546	13084.33
851.869	12981.28
852.192	13073.71
852.515	13018.57
852.838	12897.22
853.161	12907.84
853.483	12816.32
853.806	12762.76
854.129	12776.09
854.451	12714.4
854.774	12624.91
855.096	12577
855.419	12591.24
855.741	12520.05
856.063	12383.56
856.385	12413.16
856.708	12449.77
857.03	12426.72
857.352	12349.66
857.674	12281.19
857.996	12282.54
858.318	12192.83
858.64	12163.23
858.961	12181.76
859.283	12048.65
859.605	12100.4
859.926	12084.36
860.248	12026.96
860.57	11953.51
860.891	11929.11
861.212	11856.34
861.534	11870.8
861.855	11799.17
862.176	11822.9
862.498	11822.44
862.819	11739.06
863.14	11741.77
863.461	11777.92
863.782	11801.2
864.103	11748.77
864.424	11659.28
864.745	11701.54
865.065	11625.61
865.386	11548.33
865.707	11532.96
866.027	11629.23
866.348	11551.49
866.668	11506.29
866.989	11446.86
867.309	11443.02
867.63	11477.37
867.95	11452.74
868.27	11346.07
868.59	11395.11
868.91	11413.41
869.23	11317.82
869.55	11313.3
869.87	11423.13
870.19	11312.63
870.51	11361.89
870.83	11321.21
871.15	11258.39
871.469	11229.46
871.789	11210.93
872.109	11183.82
872.428	11176.13
872.748	11287.99
873.067	11125.74
873.386	11151.95
873.706	11145.17
874.025	11001.22
874.344	11016.36
874.663	11050.71
874.982	10915.57
875.301	10975.01
875.62	10964.84
875.939	10951.28
876.258	10973.65
876.577	10876.25
876.896	10913.99
877.214	10885.52
877.533	10871.96
877.852	10909.02
878.17	10830.61
878.489	10862.24
878.807	10851.85
879.125	10817.95
879.444	10754.22
879.762	10668.12
880.08	10721
880.398	10733.21
880.716	10684.62
881.034	10619.31
881.352	10595.58
881.67	10628.58
881.988	10545.19
882.306	10511.74
882.624	10539.09
882.941	10462.25
883.259	10456.38
883.577	10383.61
883.894	10453.44
884.212	10378.64
884.529	10372.09
884.846	10361.46
885.164	10369.83
885.481	10308.36
885.798	10339.54
886.115	10211.41
886.432	10273.78
886.75	10236.95
887.067	10191.3
887.383	10157.4
887.7	10178.19
888.017	10126.89
888.334	10112.66
888.651	10097.97
888.967	10081.7
889.284	10025.43
889.6	10089.38
889.917	9949.95
890.233	9966.67
890.55	9925.32
890.866	9956.28
891.182	9904.53
891.498	9793.12
891.815	9792.67
892.131	9829.73
892.447	9730.52
892.763	9746.11
893.079	9701.37
893.395	9704.08
893.71	9675.38
894.026	9616.4
894.342	9612.33
894.657	9466.12
894.973	9544.09
895.289	9564.2
895.604	9535.5
895.92	9423.18
896.235	9422.28
896.55	9384.77
896.865	9336.63
897.181	9380.25
897.496	9310.19
897.811	9302.96
898.126	9273.36
898.441	9229.52
898.756	9173.25
899.071	9120.59
899.386	9158.56
899.7	9078.79
900.015	9022.29
900.33	8925.34
900.644	8900.49
900.959	8929.19
901.273	8950.43
901.588	8856.87
901.902	8780.94
902.216	8735.97
902.531	8751.79
902.845	8707.95
903.159	8701.85
903.473	8692.13
903.787	8580.04
904.101	8536.88
904.415	8596.09
904.729	8592.25
905.042	8436.77
905.356	8431.35
905.67	8505.69
905.984	8445.13
906.297	8359.71
906.611	8319.03
906.924	8335.08
907.237	8356.09
907.551	8242.42
907.864	8227.74
908.177	8251.01
908.491	8212.59
908.804	8151.35
909.117	8129.43
909.43	8097.34
909.743	8044.92
910.056	7967.63
910.368	7923.56
910.681	7978.7
910.994	7951.58
911.307	7851.02
911.619	7805.15
911.932	7855.54
912.244	7781.87
912.557	7794.98
912.869	7727.18
913.181	7660.29
913.494	7640.63
913.806	7574.42
914.118	7576.91
914.43	7602.89
914.742	7589.79
915.054	7519.28
915.366	7527.19
915.678	7458.49
915.99	7353.63
916.302	7367.19
916.613	7368.32
916.925	7269.57
917.236	7278.38
917.548	7216.91
917.859	7237.71
918.171	7147.76
918.482	7174.66
918.794	7098.05
919.105	7097.82
919.416	7035.22
919.727	7065.28
920.038	7029.58
920.349	6975.11
920.66	6952.74
920.971	6947.09
921.282	6950.26
921.593	6914.78
921.903	6820.09
922.214	6783.48
922.525	6761.33
922.835	6712.07
923.146	6663.93
923.456	6729.7
923.767	6656.25
924.077	6602.24
924.387	6580.77
924.697	6524.5
925.008	6486.31
925.318	6535.35
925.628	6485.86
925.938	6458.97
926.248	6413.77
926.558	6421.91
926.867	6394.56
927.177	6362.02
927.487	6338.97
927.796	6295.36
928.106	6238.18
928.416	6267.56
928.725	6250.39
929.034	6179.43
929.344	6192.76
929.653	6147.79
929.962	6114.57
930.271	6084.06
930.581	6049.94
930.89	6005.2
931.199	6005.2
931.508	5991.18
931.817	5963.16
932.125	5953.22
932.434	5919.32
932.743	5858.31
933.051	5856.72
933.36	5854.24
933.669	5751.19
933.977	5785.99
934.286	5753
934.594	5766.11
934.902	5683.17
935.21	5698.99
935.519	5607.01
935.827	5650.18
936.135	5574.02
936.443	5509.16
936.751	5513.46
937.059	5530.63
937.367	5491.31
937.674	5466.68
937.982	5512.1
938.29	5426.91
938.597	5488.82
938.905	5356.4
939.213	5300.35
939.52	5330.18
939.827	5362.5
940.135	5342.84
940.442	5260.58
940.749	5287.93
941.056	5266.46
941.363	5185.56
941.67	5163.64
941.977	5137.42
942.284	5150.3
942.591	5141.26
942.898	5099.91
943.205	5086.35
943.511	5041.6
943.818	5081.15
944.125	5015.84
944.431	5015.84
944.738	4943.3
945.044	4983.3
945.35	4922.06
945.657	4881.61
945.963	4887.71
946.269	4801.84
946.575	4826.92
946.881	4814.94
947.187	4799.13
947.493	4757.09
947.799	4755.74
948.105	4728.62
948.41	4724.55
948.716	4682.74
949.022	4682.07
949.327	4666.02
949.633	4597.55
949.938	4682.29
950.244	4653.37
950.549	4541.28
950.854	4565.91
951.16	4581.73
951.465	4503.54
951.77	4482.3
952.075	4470.32
952.38	4477.55
952.685	4495.63
952.99	4425.35
953.294	4370.66
953.599	4386.93
953.904	4363.88
954.209	4327.95
954.513	4338.12
954.818	4316.43
955.122	4329.99
955.426	4238.91
955.731	4238.69
956.035	4228.97
956.339	4197.33
956.643	4206.37
956.948	4201.17
957.252	4148.07
957.556	4151.23
957.86	4136.32
958.163	4120.05
958.467	4108.97
958.771	4118.69
959.075	4037.34
959.378	4039.6
959.682	4018.81
959.985	3993.95
960.289	3984.91
960.592	3953.5
960.896	3979.49
961.199	3934.06
961.502	3944.01
961.805	3915.31
962.108	3841.64
962.411	3863.56
962.714	3836.21
963.017	3801.19
963.32	3833.95
963.623	3777.91
963.926	3856.33
964.228	3760.96
964.531	3722.77
964.833	3721.64
965.136	3717.35
965.438	3691.81
965.741	3685.93
966.043	3650.91
966.345	3639.83
966.648	3657.01
966.95	3642.55
967.252	3555.09
967.554	3586.05
967.856	3599.38
968.158	3529.55
968.46	3546.73
968.761	3495.43
969.063	3521.42
969.365	3512.38
969.666	3481.87
969.968	3421.31
970.269	3398.48
970.571	3457.24
970.872	3429.9
971.174	3368.2
971.475	3365.49
971.776	3349.45
972.077	3410.01
972.378	3314.87
972.679	3307.19
972.98	3350.12
973.281	3297.24
973.582	3278.94
973.883	3265.83
974.183	3231.26
974.484	3258.6
974.785	3206.17
975.085	3183.35
975.386	3244.36
975.686	3192.39
975.986	3167.08
976.287	3167.98
976.587	3119.85
976.887	3122.79
977.187	3160.52
977.487	3107.42
977.787	3094.31
978.087	3064.48
978.387	3089.34
978.687	3043.47
978.987	3012.51
979.286	3013.64
979.586	3007.31
979.885	2996.69
980.185	3019.51
980.484	2954.88
980.784	2922.56
981.083	2930.7
981.382	2969.57
981.682	2918.5
981.981	2909.23
982.28	2913.75
982.579	2859.29
982.878	2885.5
983.177	2847.31
983.475	2882.34
983.774	2779.52
984.073	2800.76
984.372	2773.87
984.67	2777.26
984.969	2789.69
985.267	2771.38
985.566	2750.82
985.864	2746.98
986.162	2739.07
986.461	2703.36
986.759	2723.7
987.057	2701.1
987.355	2688.45
987.653	2665.62
987.951	2654.32
988.249	2665.85
988.547	2627.2
988.844	2634.89
989.142	2624.27
989.44	2608.22
989.737	2561.9
990.035	2559.18
990.332	2556.7
990.63	2547.88
990.927	2528
991.224	2528.45
991.521	2512.86
991.819	2527.32
992.116	2484.84
992.413	2471.73
992.71	2445.06
993.006	2431.73
993.303	2426.53
993.6	2443.93
993.897	2401.45
994.193	2426.98
994.49	2393.99
994.787	2406.87
995.083	2335.46
995.379	2357.16
995.676	2351.73
995.972	2348.12
996.268	2348.79
996.565	2322.35
996.861	2310.15
997.157	2289.36
997.453	2263.15
997.749	2297.72
998.044	2238.06
998.34	2255.24
998.636	2234.9
998.932	2197.61
999.227	2209.81
999.523	2222.7
999.818	2191.74
1000.114	2190.61
1000.409	2173.21
1000.704	2148.8
1001	2168.01
1001.295	2124.85
1001.59	2142.7
1001.885	2111.06
1002.18	2088.69
1002.475	2084.17
1002.77	2074
1003.065	2048.92
1003.359	2052.08
1003.654	2055.47
1003.949	2014.57
1004.243	2024.73
1004.538	1986.32
1004.832	2012.98
1005.127	1988.8
1005.421	1987.22
1005.715	1973.66
1006.009	2010.5
1006.304	1972.98
1006.598	1950.16
1006.892	1945.19
1007.186	1912.87
1007.48	1907.9
1007.773	1917.85
1008.067	1901.8
1008.361	1850.95
1008.655	1842.37
1008.948	1885.98
1009.242	1849.6
1009.535	1828.81
1009.829	1816.6
1010.122	1805.76
1010.415	1827.9
1010.708	1800.11
1011.001	1772.76
1011.295	1764.85
1011.588	1740.45
1011.881	1763.27
1012.173	1784.52
1012.466	1744.74
1012.759	1702.48
1013.052	1711.75
1013.344	1708.81
1013.637	1693.67
1013.93	1677.17
1014.222	1659.55
1014.514	1636.5
1014.807	1624.52
1015.099	1676.04
1015.391	1648.93
1015.683	1618.64
1015.976	1610.96
1016.268	1624.29
1016.56	1581.13
1016.851	1578.87
1017.143	1608.02
1017.435	1573.9
1017.727	1528.02
1018.018	1566.22
1018.31	1515.14
1018.602	1521.7
1018.893	1522.15
1019.185	1527.57
1019.476	1494.35
1019.767	1500.91
1020.058	1486.44
1020.35	1475.6
1020.641	1442.38
1020.932	1453
1021.223	1454.35
1021.514	1443.51
1021.804	1386.56
1022.095	1420.23
1022.386	1407.12
1022.677	1390.18
1022.967	1395.82
1023.258	1366
1023.548	1375.94
1023.839	1370.97
1024.129	1338.2
1024.419	1320.12
1024.709	1326.67
1025	1318.54
1025.29	1302.49
1025.58	1291.65
1025.87	1317.41
1026.16	1280.57
1026.449	1286.45
1026.739	1293.45
1027.029	1273.12
1027.319	1243.51
1027.608	1263.85
1027.898	1228.37
1028.187	1232.67
1028.477	1240.12
1028.766	1216.62
1029.055	1200.12
1029.344	1206.45
1029.634	1176.17
1029.923	1180.92
1030.212	1186.56
1030.501	1181.82
1030.79	1161.03
1031.078	1130.97
1031.367	1143.4
1031.656	1149.96
1031.945	1121.71
1032.233	1150.63
1032.522	1133.46
1032.81	1124.42
1033.099	1107.02
1033.387	1128.49
1033.675	1097.98
1033.963	1065.21
1034.251	1068.6
1034.54	1096.62
1034.828	1063.4
1035.116	1032.9
1035.403	1040.58
1035.691	1030.86
1035.979	1058.88
1036.267	1018.66
1036.554	1023.86
1036.842	1021.82
1037.129	1019.79
1037.417	1005.78
1037.704	1009.85
1037.992	981.15
1038.279	968.94
1038.566	957.42
1038.853	957.42
1039.14	957.42
