Data from hue_290_FLMS001491_00042.txt Node
Date: Tue Feb 07 15:52:47 GMT 2017
User: dcchb
Spectrometer: FLMS00149
Trigger mode: 0
Integration Time (sec): 2.000000E-2
Scans to average: 10
Electric dark correction enabled: true
Nonlinearity correction enabled: false
Boxcar width: 0
XAxis mode: Wavelengths
Number of Pixels in Spectrum: 2048
>>>>>Begin Spectral Data<<<<<
341.393	-30.45
341.776	-30.45
342.16	-30.45
342.543	-55.54
342.927	-75.65
343.31	-54.41
343.693	-65.25
344.077	-46.27
344.46	-78.13
344.843	-39.49
345.226	-48.53
345.61	-34.97
345.993	-27.51
346.376	2.77
346.759	10
347.142	36.67
347.525	40.73
347.908	56.55
348.291	41.19
348.674	92.03
349.057	114.63
349.44	108.08
349.823	141.07
350.206	159.15
350.588	207.28
350.971	199.83
351.354	206.38
351.737	204.8
352.119	233.72
352.502	248.86
352.884	264.91
353.267	260.16
353.65	280.05
354.032	283.44
354.414	306.94
354.797	303.33
355.179	298.81
355.562	297.22
355.944	293.61
356.326	310.78
356.709	318.47
357.091	314.17
357.473	326.38
357.855	322.99
358.238	334.06
358.62	328.18
359.002	330.9
359.384	334.28
359.766	331.35
360.148	335.41
360.53	312.14
360.912	327.05
361.294	322.08
361.676	334.06
362.057	313.04
362.439	315.75
362.821	300.16
363.203	308.3
363.584	312.14
363.966	314.62
364.348	319.14
364.729	328.64
365.111	322.08
365.493	305.59
365.874	314.17
366.256	292.25
366.637	306.26
367.019	307.17
367.4	307.39
367.781	299.71
368.163	309.43
368.544	292.25
368.925	305.36
369.306	325.47
369.688	281.63
370.069	306.49
370.45	283.66
370.831	288.18
371.212	293.61
371.593	300.16
371.974	320.73
372.355	308.07
372.736	314.85
373.117	313.27
373.498	314.17
373.879	310.33
374.26	310.78
374.641	298.13
375.021	328.64
375.402	334.51
375.783	297.45
376.163	316.88
376.544	322.08
376.925	295.64
377.305	309.2
377.686	316.88
378.066	330.44
378.447	321.86
378.827	323.21
379.208	319.6
379.588	313.72
379.968	331.8
380.349	299.94
380.729	329.77
381.109	323.21
381.489	349.43
381.87	320.5
382.25	340.61
382.63	325.02
383.01	325.47
383.39	339.48
383.77	330.9
384.15	343.1
384.53	341.97
384.91	343.1
385.29	348.3
385.67	326.6
386.049	348.07
386.429	348.3
386.809	333.38
387.189	331.57
387.568	360.05
387.948	351.46
388.328	348.3
388.707	347.17
389.087	362.98
389.466	359.14
389.846	363.89
390.225	354.85
390.605	355.3
390.984	353.72
391.363	350.1
391.743	388.29
392.122	380.84
392.501	362.31
392.881	391.91
393.26	363.21
393.639	382.87
394.018	378.13
394.397	382.65
394.776	381.29
395.155	366.37
395.534	389.2
395.913	392.14
396.292	398.46
396.671	396.66
397.05	396.88
397.429	403.66
397.808	395.3
398.186	405.24
398.565	400.72
398.944	398.24
399.323	402.31
399.701	401.85
400.08	414.73
400.458	420.16
400.837	425.58
401.215	420.16
401.594	418.35
401.972	407.73
402.351	415.86
402.729	411.57
403.107	418.12
403.486	437.79
403.864	449.31
404.242	457.22
404.62	410.67
404.999	442.98
405.377	430.33
405.755	450.21
406.133	479.37
406.511	452.02
406.889	473.72
407.267	498.57
407.645	481.4
408.023	468.74
408.401	497.22
408.779	498.57
409.156	510.78
409.534	517.78
409.912	523.21
410.29	530.66
410.667	518.91
411.045	532.7
411.422	542.64
411.8	559.14
412.178	560.04
412.555	557.33
412.933	580.61
413.31	584.67
413.687	596.2
414.065	593.94
414.442	585.8
414.819	574.28
415.197	607.27
415.574	614.28
415.951	628.51
416.328	644.33
416.705	628.51
417.082	663.77
417.46	655.63
417.837	654.95
418.214	668.97
418.591	676.42
418.967	714.61
419.344	683.2
419.721	721.39
420.098	715.29
420.475	729.08
420.852	729.08
421.228	730.43
421.605	753.93
421.982	766.82
422.358	745.35
422.735	755.29
423.111	769.3
423.488	785.12
423.864	814.27
424.241	798
424.617	819.24
424.994	828.51
425.37	831.9
425.746	852.24
426.123	872.35
426.499	888.17
426.875	880.26
427.251	896.53
427.627	921.16
428.003	916.19
428.379	922.52
428.756	947.83
429.132	951.22
429.507	957.77
429.883	948.05
430.259	992.57
430.635	985.57
431.011	994.61
431.387	1013.36
431.763	1027.15
432.138	1041.84
432.514	1040.93
432.89	1065.79
433.265	1078.9
433.641	1076.41
434.016	1088.62
434.392	1139.24
434.767	1156.18
435.143	1156.86
435.518	1161.16
435.894	1188.95
436.269	1225.79
436.644	1236.63
437.02	1218.33
437.395	1224.88
437.77	1271.21
438.145	1272.79
438.52	1283.64
438.895	1292.23
439.271	1278.44
439.646	1304.2
440.021	1345.33
440.395	1316.63
440.77	1316.41
441.145	1329.29
441.52	1384.2
441.895	1355.95
442.27	1366.8
442.645	1364.54
443.019	1388.95
443.394	1399.57
443.769	1377.65
444.143	1414.71
444.518	1412.9
444.892	1418.55
445.267	1433.92
445.641	1462.39
446.016	1450.87
446.39	1483.41
446.764	1477.76
447.139	1459.91
447.513	1504.2
447.887	1503.29
448.262	1490.64
448.636	1492.45
449.01	1520.24
449.384	1540.81
449.758	1518.21
450.132	1520.47
450.506	1569.05
450.88	1545.33
451.254	1577.64
451.628	1573.35
452.002	1564.08
452.376	1619.67
452.75	1599.56
453.123	1608.15
453.497	1631.65
453.871	1645.66
454.244	1676.85
454.618	1667.81
454.992	1711.42
455.365	1713.23
455.739	1743.06
456.112	1758.65
456.486	1720.46
456.859	1765.21
457.232	1768.6
457.606	1790.97
457.979	1809.5
458.352	1838.2
458.725	1848.14
459.099	1867.35
459.472	1891.08
459.845	1905.09
460.218	1927.69
460.591	1909.38
460.964	1927.46
461.337	1965.2
461.71	1982.38
462.083	2002.49
462.456	2040.91
462.829	1988.48
463.201	2046.1
463.574	2036.16
463.947	2074.13
464.32	2096.27
464.692	2104.18
465.065	2153.9
465.438	2173.78
465.81	2170.17
466.183	2176.95
466.555	2208.13
466.928	2243.16
467.3	2241.58
467.672	2228.47
468.045	2289.49
468.417	2302.82
468.789	2289.71
469.161	2334.46
469.534	2360.9
469.906	2388.69
470.278	2379.88
470.65	2433.44
471.022	2489.03
471.394	2496.26
471.766	2522.48
472.138	2508.47
472.51	2593.21
472.882	2616.03
473.253	2635.47
473.625	2654.45
473.997	2701.23
474.369	2718.4
474.74	2740.1
475.112	2757.05
475.484	2821.9
475.855	2822.36
476.227	2844.73
476.598	2903.48
476.97	2963.14
477.341	2974.44
477.713	3005.63
478.084	2964.72
478.455	3061.22
478.827	3094.21
479.198	3175.34
479.569	3190.48
479.94	3248.11
480.311	3268.9
480.682	3312.51
481.053	3385.05
481.424	3427.99
481.795	3413.3
482.166	3491.04
482.537	3500.98
482.908	3528.55
483.279	3553.41
483.65	3629.11
484.021	3693.74
484.391	3745.72
484.762	3721.54
485.133	3759.51
485.503	3797.24
485.874	3892.61
486.244	3888.77
486.615	3954.08
486.985	3965.83
487.356	4055.32
487.726	4063.9
488.097	4113.39
488.467	4112.26
488.837	4208.08
489.207	4252.37
489.578	4265.93
489.948	4337.8
490.318	4381.41
490.688	4350.68
491.058	4430
491.428	4481.52
491.798	4509.32
492.168	4552.25
492.538	4600.61
492.908	4621.4
493.278	4691.91
493.648	4637.45
494.017	4727.62
494.387	4712.47
494.757	4800.61
495.126	4770.78
495.496	4852.36
495.866	4789.76
496.235	4851.91
496.605	4952.92
496.974	4949.76
497.344	5008.74
497.713	4966.48
498.082	5062.75
498.452	5095.06
498.821	5042.18
499.19	5064.56
499.559	5157.44
499.928	5210.54
500.298	5186.81
500.667	5194.04
501.036	5196.98
501.405	5271.56
501.774	5218.45
502.143	5301.39
502.512	5279.01
502.88	5326.24
503.249	5368.05
503.618	5386.13
503.987	5386.36
504.356	5423.64
504.724	5423.64
505.093	5441.04
505.462	5415.28
505.83	5517.43
506.199	5494.38
506.567	5571.66
506.936	5580.93
507.304	5606.01
507.672	5631.77
508.041	5614.37
508.409	5652.34
508.777	5699.12
509.145	5709.96
509.514	5719.23
509.882	5772.79
510.25	5779.11
510.618	5795.61
510.986	5815.95
511.354	5848.49
511.722	5878.55
512.09	5869.96
512.458	5902.05
512.826	5953.12
513.193	5953.12
513.561	6017.53
513.929	6038.77
514.297	6043.06
514.664	6073.34
515.032	6076.73
515.4	6083.29
515.767	6163.74
516.135	6136.17
516.502	6161.7
516.869	6147.92
517.237	6212.77
517.604	6176.39
517.972	6200.35
518.339	6271.3
518.706	6262.72
519.073	6267.46
519.44	6272.43
519.808	6333.9
520.175	6351.98
520.542	6380.45
520.909	6441.24
521.276	6446.21
521.643	6467.68
522.009	6482.6
522.376	6452.99
522.743	6512.43
523.11	6583.61
523.477	6670.84
523.843	6646.89
524.21	6671.07
524.577	6685.53
524.943	6744.06
525.31	6766.43
525.676	6791.74
526.043	6814.11
526.409	6883.04
526.776	6918.52
527.142	6871.29
527.508	6930.5
527.874	6985.18
528.241	7017.95
528.607	7017.5
528.973	7042.13
529.339	7078.29
529.705	7146.31
530.071	7152.41
530.437	7203.71
530.803	7225.86
531.169	7258.62
531.535	7252.07
531.901	7302.01
532.267	7282.58
532.632	7339.98
532.998	7350.6
533.364	7413.87
533.73	7377.26
534.095	7472.18
534.461	7497.03
534.826	7542.46
535.192	7521.21
535.557	7644.83
535.923	7620.65
536.288	7629.23
536.653	7667.2
537.019	7555.79
537.384	7701.55
537.749	7690.93
538.114	7692.74
538.479	7735.9
538.845	7804.82
539.21	7713.53
539.575	7733.86
539.94	7843.01
540.305	7844.6
540.67	7879.62
541.034	7874.2
541.399	7940.64
541.764	7908.55
542.129	7972.95
542.494	7976.12
542.858	7999.85
543.223	8003.46
543.587	8019.96
543.952	7994.65
544.316	8134.76
544.681	8125.94
545.045	8207.3
545.41	8223.34
545.774	8195.1
546.138	8158.71
546.503	8185.38
546.867	8226.05
547.231	8269.9
547.595	8287.3
547.959	8298.6
548.324	8238.71
548.688	8287.3
549.052	8376.56
549.416	8358.71
549.779	8389.21
550.143	8378.14
550.507	8472.6
550.871	8475.09
551.235	8454.07
551.599	8541.53
551.962	8524.58
552.326	8573.84
552.689	8576.55
553.053	8567.97
553.417	8564.13
553.78	8687.06
554.143	8612.26
554.507	8592.6
554.87	8720.28
555.234	8793.27
555.597	8730.67
555.96	8729.77
556.323	8752.59
556.686	8738.58
557.05	8846.83
557.413	8751.01
557.776	8784.01
558.139	8854.96
558.502	8860.16
558.865	8877.79
559.228	8904.91
559.59	8871.24
559.953	8946.71
560.316	9038.24
560.679	9063.32
561.041	9067.61
561.404	9104.9
561.767	9194.39
562.129	9102.87
562.492	9220.83
562.854	9227.38
563.217	9215.63
563.579	9245.01
563.941	9285.46
564.304	9330.21
564.666	9437.1
565.028	9411.56
565.39	9480.03
565.753	9432.58
566.115	9441.39
566.477	9522.97
566.839	9546.47
567.201	9623.76
567.563	9594.38
567.925	9673.93
568.287	9648.84
568.648	9663.31
569.01	9669.86
569.372	9819.91
569.734	9796.64
570.095	9855.84
570.457	9919.8
570.819	9939.46
571.18	9858.78
571.542	9971.77
571.903	9950.98
572.265	10049.06
572.626	10040.7
572.987	10126.12
573.349	10171.09
573.71	10209.73
574.071	10235.95
574.432	10240.01
574.794	10359.33
575.155	10430.52
575.516	10359.78
575.877	10500.8
576.238	10516.39
576.599	10579.67
576.96	10660.79
577.32	10619.44
577.681	10734.92
578.042	10806.1
578.403	10836.61
578.763	10937.4
579.124	10882.48
579.485	10988.47
579.845	11202.47
580.206	11186.43
580.566	11195.24
580.927	11197.95
581.287	11367.22
581.648	11507.32
582.008	11527.21
582.368	11620.09
582.728	11675
583.089	11784.15
583.449	11887.88
583.809	11961.1
584.169	12045.62
584.529	12163.8
584.889	12309.56
585.249	12333.07
585.609	12436.79
585.969	12656.9
586.329	12695.77
586.688	12868.64
587.048	12879.49
587.408	13069.32
587.768	13229.99
588.127	13309.54
588.487	13399.93
588.846	13609.87
589.206	13629.75
589.565	13861.39
589.925	13977.54
590.284	14039.01
590.643	14215.5
591.003	14391.09
591.362	14494.59
591.721	14591.99
592.08	14666.79
592.44	14928.48
592.799	15095.93
593.158	15173.22
593.517	15288.92
593.876	15471.29
594.235	15442.36
594.593	15702.69
594.952	15891.16
595.311	15962.12
595.67	16125.73
596.029	16344.03
596.387	16462
596.746	16584.03
597.104	16744.47
597.463	16773.17
597.822	16998.93
598.18	17138.59
598.538	17110.57
598.897	17272.14
599.255	17289.77
599.613	17710.55
599.972	17689.76
600.33	17778.35
600.688	17837.1
601.046	18119.35
601.404	18271.67
601.762	18251.33
602.12	18462.4
602.478	18515.73
602.836	18591.88
603.194	18550.76
603.552	18820.58
603.91	18731.09
604.268	18914.59
604.625	19092.66
604.983	19175.37
605.341	19250.62
605.698	19303.28
606.056	19434.35
606.413	19538.98
606.771	19697.17
607.128	19751.85
607.485	19676.83
607.843	19726.32
608.2	20012.86
608.557	20072.07
608.914	20098.06
609.272	20222.8
609.629	20349.35
609.986	20490.59
610.343	20502.79
610.7	20663.92
611.057	20716.35
611.414	20632.28
611.771	20817.81
612.127	20959.73
612.484	20944.36
612.841	21041.09
613.198	20987.98
613.554	21070.46
613.911	21242.21
614.267	21368.31
614.624	21345.03
614.98	21456.22
615.337	21550.9
615.693	21611.24
616.05	21561.07
616.406	21842.19
616.762	21736.43
617.118	21737.79
617.475	21878.8
617.831	21924.9
618.187	22010.78
618.543	21996.99
618.899	22144.56
619.255	22143.66
619.611	22041.51
619.967	22334.84
620.323	22334.38
620.678	22251
621.034	22202.41
621.39	22251.45
621.746	22194.5
622.101	22497.54
622.457	22413.93
622.812	22422.52
623.168	22541.61
623.523	22525.34
623.879	22550.2
624.234	22561.72
624.589	22613.93
624.945	22620.7
625.3	22655.05
625.655	22693.47
626.01	22690.76
626.365	22741.15
626.72	22622.96
627.075	22796.07
627.43	22762.85
627.785	22751.32
628.14	22721.49
628.495	22732.57
628.85	22681.72
629.205	22732.57
629.559	22834.94
629.914	22773.02
630.269	22805.33
630.623	22755.16
630.978	22672
631.332	22781.83
631.687	22860.02
632.041	22784.54
632.396	22836.74
632.75	22684.88
633.104	22721.27
633.459	22661.83
633.813	22704.32
634.167	22676.52
634.521	22687.6
634.875	22765.33
635.229	22702.06
635.583	22612.57
635.937	22672.23
636.291	22633.81
636.645	22682.62
636.999	22521.5
637.352	22667.48
637.706	22595.85
638.06	22621.61
638.413	22488.5
638.767	22524.66
639.121	22551.55
639.474	22397.89
639.828	22406.47
640.181	22427.04
640.534	22560.82
640.888	22396.98
641.241	22376.19
641.594	22421.39
641.947	22492.8
642.301	22386.13
642.654	22440.82
643.007	22467.26
643.36	22414.61
643.713	22353.59
644.066	22536.19
644.419	22361.28
644.771	22228.62
645.124	21956.09
645.477	21991.12
645.83	21897.33
646.182	21681.52
646.535	21682.65
646.888	21714.06
647.24	21523.56
647.593	21794.29
647.945	21758.13
648.298	21625.25
648.65	21577.12
649.002	21588.19
649.355	21609.88
649.707	21598.81
650.059	21852.36
650.411	21938.24
650.763	21986.82
651.115	22280.83
651.467	22252.8
651.819	22161.28
652.171	22076.99
652.523	22119.7
652.875	22061.85
653.227	22075.18
653.578	22183.2
653.93	22200.15
654.282	22086.26
654.633	22028.4
654.985	22117.44
655.337	22076.09
655.688	22205.57
656.039	22319.24
656.391	22160.83
656.742	22034.51
657.094	22138.01
657.445	22204.44
657.796	22168.06
658.147	22236.31
658.498	22101.17
658.849	22182.75
659.2	22289.41
659.551	22108.18
659.902	22152.92
660.253	22134.62
660.604	22287.61
660.955	22064.79
661.306	22151.34
661.656	22197.21
662.007	22155.41
662.358	22194.28
662.708	22109.08
663.059	22105.69
663.409	22059.82
663.76	22315.4
664.11	22317.21
664.461	22192.47
664.811	22261.39
665.161	22230.88
665.511	22167.16
665.862	22177.55
666.212	22221.85
666.562	22220.94
666.912	22213.26
667.262	22238.12
667.612	22208.51
667.962	22120.15
668.312	22146.14
668.662	22305.23
669.011	22153.82
669.361	22222.07
669.711	22074.05
670.06	22144.33
670.41	22104.11
670.76	22034.05
671.109	22176.2
671.459	22154.05
671.808	22076.99
672.157	22194.28
672.507	21968.74
672.856	21953.15
673.205	22044.9
673.554	22088.52
673.904	22070.66
674.253	22174.16
674.602	22146.14
674.951	21684.68
675.3	21550.22
675.649	21993.38
675.998	22020.72
676.346	21915.19
676.695	21906.37
677.044	21777.34
677.393	21852.14
677.741	21849.65
678.09	21840.16
678.438	21715.19
678.787	21801.52
679.135	21805.58
679.484	21758.35
679.832	21700.5
680.181	21673.84
680.529	21597.91
680.877	21586.83
681.225	21578.47
681.573	21682.42
681.922	21511.58
682.27	21385.71
682.618	21506.61
682.966	21322.43
683.314	21497.12
683.661	21229.33
684.009	21325.15
684.357	21230.23
684.705	21247.86
685.053	21190.91
685.4	21298.48
685.748	21185.71
686.095	21053.29
686.443	21002.44
686.79	21033.18
687.138	20976.23
687.485	20873.63
687.832	20842.9
688.18	20896.46
688.527	20729.91
688.874	20699.4
689.221	20751.38
689.568	20595.67
689.915	20608.78
690.262	20518.16
690.609	20456.47
690.956	20282.46
691.303	20391.84
691.65	20298.96
691.997	20237.72
692.344	20067.1
692.69	20086.08
693.037	20075.69
693.383	19977.38
693.73	20045.63
694.077	19860.1
694.423	19802.93
694.769	19764.51
695.116	19733.1
695.462	19656.71
695.808	19640.22
696.155	19695.58
696.501	19394.35
696.847	19474.57
697.193	19342.15
697.539	19483.39
697.885	19293.33
698.231	19095.83
698.577	19221.47
698.923	19035.49
699.269	18915.72
699.614	18868.03
699.96	18801.82
700.306	18782.61
700.651	18756.17
700.997	18658.1
701.342	18686.12
701.688	18688.6
702.033	18494.26
702.379	18527.7
702.724	18396.18
703.069	18455.62
703.415	18291.78
703.76	18320.7
704.105	18280.71
704.45	18225.11
704.795	18009.3
705.14	18026.48
705.485	17937.89
705.83	17905.35
706.175	17913.71
706.52	17819.25
706.865	17718.91
707.209	17695.18
707.554	17690.21
707.899	17678.69
708.243	17575.64
708.588	17522.53
708.932	17461.74
709.277	17367.74
709.621	17465.36
709.966	17297.23
710.31	17373.84
710.654	17168.87
710.998	17105.37
711.342	17164.12
711.687	17174.97
712.031	17013.85
712.375	16963.45
712.719	16991.25
713.063	16945.6
713.407	17051.59
713.75	16870.57
714.094	16876
714.438	16786.96
714.782	16982.66
715.125	16731.37
715.469	16726.62
715.812	16786.96
716.156	16579.73
716.499	16611.37
716.843	16631.71
717.186	16546.06
717.53	16597.36
717.873	16602.56
718.216	16550.36
718.559	16470.13
718.902	16360.98
719.246	16426.74
719.589	16484.14
719.932	16361.89
720.275	16337.25
720.617	16305.39
720.96	16322.57
721.303	16274.66
721.646	16262.45
721.989	16108.11
722.331	16284.6
722.674	16189.69
723.016	16194.88
723.359	16068.56
723.701	16073.76
724.044	16036.47
724.386	15976.59
724.729	16109.46
725.071	16041.89
725.413	16010.93
725.755	16008.22
726.097	15957.6
726.439	15814.33
726.782	15912.41
727.124	15923.93
727.465	15834.44
727.807	15854.78
728.149	15784.5
728.491	15789.7
728.833	15894.33
729.175	15748.12
729.516	15820.21
729.858	15747.21
730.199	15745.86
730.541	15767.1
730.882	15776.14
731.224	15700.89
731.565	15731.62
731.906	15662.47
732.248	15744.95
732.589	15685.29
732.93	15658.18
733.271	15641
733.612	15668.35
733.953	15704.28
734.294	15565.07
734.635	15595.58
734.976	15611.85
735.317	15560.33
735.658	15604.62
735.999	15595.8
736.339	15669.25
736.68	15664.28
737.021	15610.95
737.361	15569.82
737.702	15668.57
738.042	15547.67
738.383	15584.51
738.723	15544.96
739.063	15637.16
739.404	15665.18
739.744	15679.19
740.084	15647.1
740.424	15656.59
740.764	15683.94
741.104	15583.83
741.444	15641.91
741.784	15685.29
742.124	15651.4
742.464	15699.98
742.804	15672.41
743.143	15689.36
743.483	15794.9
743.823	15706.54
744.162	15735.46
744.502	15784.95
744.841	15735.01
745.181	15870.83
745.52	15790.6
745.86	15893.42
746.199	15914.21
746.538	15923.48
746.877	16015
747.216	16057.71
747.556	16035.57
747.895	16066.75
748.234	16104.94
748.573	16233.98
748.911	16248.22
749.25	16312.17
749.589	16352.17
749.928	16383.81
750.267	16575.89
750.605	16545.84
750.944	16723.91
751.283	16615.21
751.621	16760.97
751.96	16836.9
752.298	16939.95
752.636	17054.98
752.975	17097.01
753.313	17091.13
753.651	17391.46
753.989	17249.09
754.327	17406.83
754.666	17367.74
755.004	17612.93
755.342	17778.12
755.679	17759.59
756.017	17907.16
756.355	17978.34
756.693	18124.78
757.031	18203.87
757.368	18191.89
757.706	18452.45
758.044	18437.09
758.381	18651.77
758.719	18586.46
759.056	18868.94
759.394	18757.76
759.731	18946.9
760.068	18981.7
760.405	19059.44
760.743	19106.9
761.08	19437.29
761.417	19472.09
761.754	19581.01
762.091	19651.52
762.428	19724.96
762.765	19751.85
763.102	19898.06
763.438	19881.79
763.775	20014.67
764.112	20151.62
764.449	20222.8
764.785	20203.82
765.122	20325.62
765.458	20396.13
765.795	20424.83
766.131	20506.18
766.467	20541.89
766.804	20482.68
767.14	20538.73
767.476	20658.95
767.812	20552.74
768.148	20854.88
768.485	20737.36
768.821	20703.47
769.157	20855.78
769.492	20828.21
769.828	20908.43
770.164	20837.25
770.5	20845.61
770.836	20900.07
771.171	20909.79
771.507	20908.21
771.842	20751.15
772.178	20938.71
772.513	20862.56
772.849	20911.6
773.184	20867.08
773.519	20962.67
773.855	20922.44
774.19	20831.37
774.525	20793.86
774.86	20938.94
775.195	20828.21
775.53	20943.23
775.865	20835.21
776.2	20719.06
776.535	20722
776.87	20693.07
777.205	20617.37
777.539	20585.05
777.874	20742.56
778.209	20523.36
778.543	20579.85
778.878	20387.32
779.212	20474.55
779.547	20361.78
779.881	20476.58
780.215	20395.68
780.55	20412.63
780.884	20385.96
781.218	20262.8
781.552	20304.38
781.886	20295.57
782.22	20146.87
782.554	20021.9
782.888	19918.18
783.222	19828.69
783.556	19811.96
783.889	19830.95
784.223	19679.54
784.557	19751.63
784.89	19759.31
785.224	19647.9
785.557	19503.5
785.891	19619.88
786.224	19515.7
786.558	19476.38
786.891	19294.46
787.224	19294.46
787.557	19241.58
787.891	19207.24
788.224	19202.72
788.557	19162.26
788.89	19168.37
789.223	19080.46
789.556	18902.16
789.888	18900.12
790.221	18908.71
790.554	18738.77
790.887	18757.98
791.219	18685.89
791.552	18688.6
791.884	18623.3
792.217	18556.4
792.549	18577.87
792.882	18379.46
793.214	18340.82
793.546	18350.31
793.879	18251.1
794.211	18161.16
794.543	18219.24
794.875	18155.96
795.207	18134.95
795.539	18104.21
795.871	18083.65
796.203	17969.08
796.535	17864.45
796.867	17755.97
797.198	17727.5
797.53	17776.09
797.862	17597.33
798.193	17619.93
798.525	17643.21
798.856	17547.39
799.188	17446.15
799.519	17437.79
799.85	17278.47
800.182	17396.66
800.513	17299.71
800.844	17154.41
801.175	17211.58
801.506	17246.61
801.837	17156.44
802.168	17085.26
802.499	17033.96
802.83	17059.95
803.161	16999.61
803.491	16955.77
803.822	16894.08
804.153	16706.28
804.483	16682.56
804.814	16676.68
805.145	16674.65
805.475	16582.9
805.805	16558.04
806.136	16586.74
806.466	16541.99
806.796	16439.85
807.126	16270.14
807.457	16302
807.787	16273.53
808.117	16169.12
808.447	16195.79
808.777	16156.47
809.107	16157.37
809.436	16075.11
809.766	16072.85
810.096	16005.51
810.426	15946.76
810.755	15999.41
811.085	15899.07
811.414	15890.94
811.744	15793.09
812.073	15827.21
812.403	15708.8
812.732	15718.06
813.061	15650.27
813.39	15629.02
813.719	15568.46
814.049	15552.64
814.378	15559.87
814.707	15400.56
815.036	15422.7
815.365	15374.57
815.693	15217.06
816.022	15264.06
816.351	15220.67
816.68	15080.11
817.008	15186.78
817.337	15073.78
817.665	15059.77
817.994	15086.21
818.322	15093.9
818.651	14997.63
818.979	14848.48
819.307	14911.08
819.636	14965.31
819.964	14854.13
820.292	14910.4
820.62	14842.6
820.948	14776.84
821.276	14830.18
821.604	14810.74
821.932	14880.12
822.259	14911.3
822.587	14828.82
822.915	14711.76
823.243	14779.55
823.57	14771.65
823.898	14825.66
824.225	14725.32
824.553	14738.43
824.88	14766
825.207	14823.17
825.535	14693.46
825.862	14769.84
826.189	14767.8
826.516	14811.87
826.843	14872.89
827.17	14835.37
827.497	14801.48
827.824	14820.01
828.151	14833.34
828.478	14730.06
828.805	14891.87
829.131	14777.07
829.458	14728.71
829.785	14642.16
830.111	14799.22
830.438	14739.56
830.764	14683.96
831.09	14812.1
831.417	14723.96
831.743	14834.92
832.069	14784.98
832.395	14588.15
832.722	14675.38
833.048	14561.48
833.374	14657.75
833.7	14554.93
834.026	14620.01
834.351	14493.69
834.677	14574.36
835.003	14631.31
835.329	14655.04
835.654	14538.66
835.98	14449.17
836.306	14505.44
836.631	14457.3
836.956	14483.29
837.282	14483.52
837.607	14380.92
837.932	14343.63
838.258	14381.15
838.583	14342.73
838.908	14294.14
839.233	14254.82
839.558	14235.61
839.883	14113.81
840.208	14186.8
840.533	14135.05
840.858	14148.39
841.182	14120.82
841.507	14213.24
841.832	14126.01
842.156	13948.39
842.481	14027.48
842.805	13952.46
843.13	13971.44
843.454	13967.37
843.778	13882.86
844.103	13873.59
844.427	13806.25
844.751	13815.51
845.075	13801.95
845.399	13764.67
845.723	13704.55
846.047	13728.51
846.371	13592.02
846.695	13603.09
847.019	13501.85
847.343	13339.82
847.666	13333.94
847.99	13199.71
848.313	13239.26
848.637	13218.47
848.96	13148.64
849.284	13131.46
849.607	13036.32
849.931	13014.63
850.254	12930.56
850.577	12874.97
850.9	12776.9
851.223	12791.13
851.546	12749.55
851.869	12606.05
852.192	12691.7
852.515	12547.75
852.838	12539.39
853.161	12531.7
853.483	12493.06
853.806	12427.3
854.129	12312.5
854.451	12285.61
854.774	12270.92
855.096	12293.52
855.419	12197.7
855.741	12277.25
856.063	12159.51
856.385	12072.51
856.708	12023.92
857.03	12016.46
857.352	12048.1
857.674	11888.33
857.996	11859.86
858.318	11874.09
858.64	11891.27
858.961	11822.8
859.283	11724.72
859.605	11658.06
859.926	11747.54
860.248	11767.2
860.57	11684.95
860.891	11646.53
861.212	11557.04
861.534	11517.27
861.855	11553.88
862.176	11515.46
862.498	11538.28
862.819	11515.91
863.14	11474.11
863.461	11502.35
863.782	11383.71
864.103	11376.93
864.424	11281.79
864.745	11315.24
865.065	11298.74
865.386	11265.52
865.707	11257.16
866.027	11217.16
866.348	11239.53
866.668	11175.13
866.989	11220.55
867.309	11135.36
867.63	11102.59
867.95	11143.72
868.27	11030.05
868.59	11039.99
868.91	11055.81
869.23	11071.18
869.55	10979.65
869.87	11030.05
870.19	10934.01
870.51	10977.85
870.83	10988.69
871.15	10891.75
871.469	10883.16
871.789	10943.05
872.109	10856.49
872.428	10838.42
872.748	10830.96
873.067	10792.09
873.386	10835.03
873.706	10800.68
874.025	10788.93
874.344	10778.53
874.663	10816.95
874.982	10693.79
875.301	10699.66
875.62	10675.93
875.939	10654.69
876.258	10617.86
876.577	10584.18
876.896	10526.56
877.214	10622.6
877.533	10618.31
877.852	10627.12
878.17	10607.24
878.489	10563.85
878.807	10571.3
879.125	10511.64
879.444	10414.47
879.762	10460.12
880.08	10412.89
880.398	10381.7
880.716	10408.6
881.034	10435.71
881.352	10396.39
881.67	10393.23
881.988	10305.32
882.306	10284.98
882.624	10261.26
882.941	10232.1
883.259	10205.21
883.577	10205.21
883.894	10143.52
884.212	10095.16
884.529	10102.84
884.846	10080.7
885.164	10104.42
885.481	10031.43
885.798	10068.49
886.115	10003.86
886.432	10008.83
886.75	9926.35
887.067	9939.23
887.383	9947.82
887.7	9927.25
888.017	9848.84
888.334	9910.3
888.651	9814.26
888.967	9750.31
889.284	9772.91
889.6	9713.47
889.917	9641.16
890.233	9665.79
890.55	9657.88
890.866	9732.91
891.182	9658.11
891.498	9540.6
891.815	9521.39
892.131	9433.93
892.447	9441.39
892.763	9399.36
893.079	9406.36
893.395	9378.57
893.71	9339.02
894.026	9336.99
894.342	9268.29
894.657	9265.12
894.973	9235.75
895.289	9237.1
895.604	9172.47
895.92	9057.67
896.235	9125.01
896.55	9073.04
896.865	9047.95
897.181	9006.6
897.496	9059.93
897.811	8937
898.126	8964.11
898.441	8915.08
898.756	8862.42
899.071	8848.86
899.386	8844.57
899.7	8775.64
900.015	8758.92
900.33	8659.49
900.644	8676.44
900.959	8638.02
901.273	8647.74
901.588	8518.25
901.902	8550.11
902.216	8438.48
902.531	8510.79
902.845	8447.97
903.159	8408.2
903.473	8370.68
903.787	8347.41
904.101	8308.31
904.415	8285.26
904.729	8293.62
905.042	8203
905.356	8206.39
905.67	8199.39
905.984	8190.35
906.297	8137.47
906.611	8155.1
906.924	8077.81
907.237	8064.48
907.551	8035.55
907.864	7960.07
908.177	7892.96
908.491	8010.02
908.804	7890.92
909.117	7830.59
909.43	7892.28
909.743	7764.6
910.056	7777.71
910.368	7692.74
910.681	7722.34
910.994	7668.78
911.307	7662.45
911.619	7554.43
911.932	7640.31
912.244	7518.5
912.557	7512.18
912.869	7470.82
913.181	7404.16
913.494	7404.83
913.806	7367.32
914.118	7370.26
914.43	7334.55
914.742	7331.84
915.054	7245.06
915.366	7259.07
915.678	7211.39
915.99	7198.29
916.302	7149.7
916.613	7116.25
916.925	7153.54
917.236	7001.91
917.548	6985.64
917.859	6983.6
918.171	6949.7
918.482	6912.42
918.794	6854.79
919.105	6886.2
919.416	6828.35
919.727	6813.66
920.038	6802.82
920.349	6784.96
920.66	6762.59
920.971	6712.42
921.282	6739.77
921.593	6637.62
921.903	6585.87
922.214	6561.92
922.525	6570.28
922.835	6491.64
923.146	6475.59
923.456	6475.37
923.767	6449.38
924.077	6455.25
924.387	6435.37
924.697	6366.22
925.008	6312.21
925.318	6328.7
925.628	6319.66
925.938	6286.44
926.248	6193.57
926.558	6175.04
926.867	6192.89
927.177	6180.91
927.487	6119.44
927.796	6105.43
928.106	6069.28
928.416	6036.06
928.725	6080.12
929.034	6008.03
929.344	6002.38
929.653	6008.03
929.962	5920.13
930.271	5914.7
930.581	5900.92
930.89	5849.62
931.199	5796.51
931.508	5810.3
931.817	5781.15
932.125	5764.2
932.434	5750.19
932.743	5671.09
933.051	5665.67
933.36	5672.9
933.669	5655.28
933.977	5599.23
934.286	5603.3
934.594	5586.35
934.902	5534.15
935.21	5489.18
935.519	5470.42
935.827	5482.85
936.135	5432.23
936.443	5440.37
936.751	5382.51
937.059	5365.11
937.367	5388.62
937.674	5340.26
937.982	5321.95
938.29	5246.02
938.597	5267.71
938.905	5233.37
939.213	5196.53
939.52	5181.39
939.827	5189.3
940.135	5186.59
940.442	5101.17
940.749	5071.34
941.056	5106.14
941.363	4998.34
941.67	5068.62
941.977	4975.29
942.284	4976.2
942.591	4963.54
942.898	4937.55
943.205	4907.95
943.511	4941.17
943.818	4905.69
944.125	4889.87
944.431	4869.53
944.738	4847.84
945.044	4829.31
945.35	4762.87
945.657	4732.36
945.963	4736.2
946.269	4721.06
946.575	4707.73
946.881	4630.22
947.187	4629.99
947.493	4662.31
947.799	4614.85
948.105	4560.39
948.41	4576.89
948.716	4561.29
949.022	4579.6
949.327	4521.07
949.633	4475.87
949.938	4517.68
950.244	4470.45
950.549	4429.77
950.854	4415.53
951.16	4417.12
951.465	4382.99
951.77	4365.82
952.075	4333.73
952.38	4336.21
952.685	4270
952.99	4303.67
953.294	4250.79
953.599	4230.45
953.904	4215.09
954.209	4206.95
954.513	4222.54
954.818	4184.58
955.122	4178.7
955.426	4148.65
955.731	4129.67
956.035	4100.29
956.339	4087.86
956.643	4076.11
956.948	4073.85
957.252	4028.65
957.556	4007.41
957.86	4009.67
958.163	3970.12
958.467	3986.62
958.771	3948.88
959.075	3910.91
959.378	3880.41
959.682	3910.46
959.985	3908.43
960.289	3869.79
960.592	3820.75
960.896	3829.79
961.199	3845.38
961.502	3806.96
961.805	3754.08
962.108	3743.23
962.411	3742.78
962.714	3779.84
963.017	3744.59
963.32	3726.51
963.623	3686.29
963.926	3684.71
964.228	3637.7
964.531	3625.95
964.833	3604.48
965.136	3616.91
965.438	3575.1
965.741	3550.92
966.043	3541.88
966.345	3555.9
966.648	3511.38
966.95	3542.11
967.252	3502.34
967.554	3489
967.856	3471.38
968.158	3445.84
968.46	3440.87
968.761	3428.89
969.063	3393.64
969.365	3389.12
969.666	3393.19
969.968	3351.15
970.269	3336.69
970.571	3346.41
970.872	3295.34
971.174	3287.2
971.475	3288.11
971.776	3277.03
972.077	3265.06
972.378	3251.95
972.679	3228.22
972.98	3222.57
973.281	3243.81
973.582	3154.32
973.883	3142.57
974.183	3189.13
974.484	3151.16
974.785	3142.35
975.085	3070.26
975.386	3110.71
975.686	3119.97
975.986	3102.35
976.287	3102.12
976.587	3042.46
976.887	3060.99
977.187	3068.45
977.487	3040.43
977.787	2993.88
978.087	2994.55
978.387	2988.9
978.687	2966.08
978.987	2905.52
979.286	2900.09
979.586	2926.31
979.885	2908.68
980.185	2900.32
980.484	2876.14
980.784	2820.1
981.083	2839.08
981.382	2811.73
981.682	2811.96
981.981	2808.12
982.28	2772.86
982.579	2778.06
982.878	2777.16
983.177	2791.4
983.475	2753.88
983.774	2743.04
984.073	2691.51
984.372	2689.25
984.67	2675.24
984.969	2668.23
985.267	2697.84
985.566	2664.17
985.864	2669.36
986.162	2663.72
986.461	2607.67
986.759	2630.5
987.057	2581.91
987.355	2602.7
987.653	2592.98
987.951	2576.26
988.249	2539.42
988.547	2565.86
988.844	2538.97
989.142	2534.91
989.44	2474.12
989.737	2505.08
990.035	2475.02
990.332	2475.92
990.63	2462.59
990.927	2477.96
991.224	2425.53
991.521	2434.79
991.819	2434.57
992.116	2406.32
992.413	2412.2
992.71	2392.31
993.006	2388.47
993.303	2367.68
993.6	2355.93
993.897	2331.52
994.193	2311.63
994.49	2302.37
994.787	2325.65
995.083	2300.79
995.379	2282.03
995.676	2270.05
995.972	2260.11
996.268	2266.44
996.565	2234.57
996.861	2221.24
997.157	2204.97
997.453	2207
997.749	2185.31
998.044	2179.43
998.34	2161.13
998.636	2169.49
998.932	2168.36
999.227	2136.95
999.523	2113.45
999.818	2108.48
1000.114	2113
1000.409	2084.3
1000.704	2078.42
1001	2065.99
1001.295	2067.12
1001.59	2078.42
1001.885	2044.97
1002.18	2068.93
1002.475	2001.59
1002.77	2016.27
1003.065	2002.72
1003.359	1989.83
1003.654	1958.65
1003.949	1972.21
1004.243	1947.12
1004.538	1944.41
1004.832	1916.84
1005.127	1942.38
1005.421	1905.54
1005.715	1908.71
1006.009	1883.17
1006.304	1890.18
1006.598	1852.44
1006.892	1863.51
1007.186	1851.76
1007.48	1846.11
1007.773	1839.78
1008.067	1816.73
1008.361	1787.13
1008.655	1784.64
1008.948	1762.04
1009.242	1767.69
1009.535	1750.97
1009.829	1723.63
1010.122	1728.37
1010.415	1754.13
1010.708	1756.85
1011.001	1730.18
1011.295	1694.48
1011.588	1679.56
1011.881	1687.02
1012.173	1677.98
1012.466	1667.58
1012.759	1636.85
1013.052	1622.61
1013.344	1630.75
1013.637	1660.35
1013.93	1629.17
1014.222	1625.32
1014.514	1601.37
1014.807	1590.07
1015.099	1564.99
1015.391	1550.07
1015.683	1541.48
1015.976	1552.56
1016.268	1534.25
1016.56	1543.29
1016.851	1509.4
1017.143	1514.14
1017.435	1527.47
1017.727	1482.28
1018.018	1487.25
1018.31	1457.19
1018.602	1455.84
1018.893	1485.67
1019.185	1427.59
1019.476	1422.84
1019.767	1423.3
1020.058	1442.96
1020.35	1429.62
1020.641	1408.61
1020.932	1390.75
1021.223	1374.03
1021.514	1362.28
1021.804	1371.32
1022.095	1364.99
1022.386	1361.83
1022.677	1357.08
1022.967	1345.33
1023.258	1348.72
1023.548	1322.96
1023.839	1316.41
1024.129	1315.05
1024.419	1254.71
1024.709	1294.03
1025	1246.13
1025.29	1289.51
1025.58	1263.75
1025.87	1232.34
1026.16	1222.4
1026.449	1227.37
1026.739	1252.23
1027.029	1214.49
1027.319	1225.79
1027.608	1189.4
1027.898	1199.57
1028.187	1200.25
1028.477	1193.47
1028.766	1143.3
1029.055	1159.35
1029.344	1157.54
1029.634	1139.69
1029.923	1130.87
1030.212	1132
1030.501	1125.9
1030.79	1104.43
1031.078	1073.93
1031.367	1093.36
1031.656	1087.71
1031.945	1102.63
1032.233	1076.64
1032.522	1067.15
1032.81	1089.29
1033.099	1040.71
1033.387	1064.89
1033.675	1052.23
1033.963	1035.74
1034.251	1033.48
1034.54	1023.31
1034.828	1016.75
1035.116	1021.05
1035.403	1005.23
1035.691	966.81
1035.979	1015.85
1036.267	990.09
1036.554	978.56
1036.842	985.79
1037.129	997.54
1037.417	949.18
1037.704	977.88
1037.992	958.45
1038.279	957.77
1038.566	936.3
1038.853	936.3
1039.14	936.3
