Data from hue_70_FLMS001491_56.txt Node
Date: Mon Feb 06 15:21:07 GMT 2017
User: dcchb
Spectrometer: FLMS00149
Trigger mode: 0
Integration Time (sec): 2.000000E-2
Scans to average: 10
Electric dark correction enabled: true
Nonlinearity correction enabled: false
Boxcar width: 0
XAxis mode: Wavelengths
Number of Pixels in Spectrum: 2048
>>>>>Begin Spectral Data<<<<<
341.393	-9.28
341.776	-9.28
342.16	-9.28
342.543	-58.77
342.927	-62.39
343.31	-56.96
343.693	-81.82
344.077	-61.48
344.46	-47.7
344.843	-47.7
345.226	-37.75
345.61	-27.36
345.993	-8.83
346.376	0.66
346.759	-1.6
347.142	-1.6
347.525	37.72
347.908	64.62
348.291	77.05
348.674	100.55
349.057	92.19
349.44	128.34
349.823	125.18
350.206	161.34
350.588	195.23
350.971	218.29
351.354	218.74
351.737	231.84
352.119	246.08
352.502	279.53
352.884	289.7
353.267	270.71
353.65	286.53
354.032	298.96
354.414	299.41
354.797	315.23
355.179	327.43
355.562	311.62
355.944	325.63
356.326	321.79
356.709	315.68
357.091	314.78
357.473	329.69
357.855	322.69
358.238	330.37
358.62	343.71
359.002	349.58
359.384	334.21
359.766	336.47
360.148	322.01
360.53	335.8
360.912	348.45
361.294	326.08
361.676	323.59
362.057	331.28
362.439	318.62
362.821	316.81
363.203	330.37
363.584	301.22
363.966	325.63
364.348	328.34
364.729	330.82
365.111	306.19
365.493	323.82
365.874	321.33
366.256	328.11
366.637	341.22
367.019	318.85
367.4	310.03
367.781	323.14
368.163	324.72
368.544	302.12
368.925	331.28
369.306	326.3
369.688	305.74
370.069	297.15
370.45	306.64
370.831	308.23
371.212	298.96
371.593	306.19
371.974	315.91
372.355	303.71
372.736	303.25
373.117	302.35
373.498	319.3
373.879	317.49
374.26	322.01
374.641	315.01
375.021	324.05
375.402	320.88
375.783	315.23
376.163	322.01
376.544	333.31
376.925	313.65
377.305	355.91
377.686	319.53
378.066	312.52
378.447	319.53
378.827	314.1
379.208	333.99
379.588	309.36
379.968	322.46
380.349	307.55
380.729	323.59
381.109	332.63
381.489	337.38
381.87	320.88
382.25	350.26
382.63	317.72
383.01	340.32
383.39	333.54
383.77	327.21
384.15	346.64
384.53	325.4
384.91	323.59
385.29	329.47
385.67	331.05
386.049	341.22
386.429	337.6
386.809	348
387.189	345.06
387.568	329.47
387.948	350.71
388.328	336.7
388.707	345.29
389.087	353.87
389.466	357.94
389.846	350.03
390.225	337.38
390.605	350.03
390.984	347.1
391.363	337.38
391.743	351.39
392.122	353.65
392.501	363.14
392.881	346.87
393.26	371.28
393.639	363.14
394.018	353.87
394.397	376.7
394.776	355.91
395.155	382.8
395.534	370.6
395.913	379.86
396.292	356.81
396.671	345.74
397.05	381.22
397.429	391.16
397.808	350.03
398.186	380.54
398.565	371.05
398.944	379.64
399.323	378.28
399.701	382.12
400.08	402.01
400.458	382.35
400.837	378.06
401.215	371.73
401.594	392.07
401.972	398.85
402.351	397.26
402.729	394.33
403.107	392.97
403.486	381.22
403.864	406.75
404.242	393.87
404.62	379.64
404.999	407.88
405.377	396.13
405.755	387.55
406.133	403.59
406.511	410.37
406.889	395
407.267	404.04
407.645	400.65
408.023	408.11
408.401	401.33
408.779	411.95
409.156	419.18
409.534	423.25
409.912	424.38
410.29	427.32
410.667	421.22
411.045	441.33
411.422	455.34
411.8	437.49
412.178	442.01
412.555	445.85
412.933	438.84
413.31	449.24
413.687	439.97
414.065	446.53
414.442	456.92
414.819	457.37
415.197	452.86
415.574	458.05
415.951	449.24
416.328	480.65
416.705	489.69
417.082	468.9
417.46	470.03
417.837	466.87
418.214	467.32
418.591	501.44
418.967	484.04
419.344	472.29
419.721	483.81
420.098	473.87
420.475	475.45
420.852	483.36
421.228	486.07
421.605	484.72
421.982	510.93
422.358	509.13
422.735	509.58
423.111	506.64
423.488	503.25
423.864	505.28
424.241	531.72
424.617	517.49
424.994	525.85
425.37	530.59
425.746	538.73
426.123	526.98
426.499	536.47
426.875	533.31
427.251	560.2
427.627	537.15
428.003	545.28
428.379	547.32
428.756	521.78
429.132	552.06
429.507	565.17
429.883	557.71
430.259	563.36
430.635	579.63
431.011	543.02
431.387	593.42
431.763	573.3
432.138	587.99
432.514	597.48
432.89	567.2
433.265	579.41
433.641	578.95
434.016	604.49
434.392	600.65
434.767	625.73
435.143	630.7
435.518	616.47
435.894	612.85
436.269	621.44
436.644	620.08
437.02	640.65
437.395	667.31
437.77	650.82
438.145	652.17
438.52	641.1
438.895	668.22
439.271	661.21
439.646	661.66
440.021	669.12
440.395	673.87
440.77	699.4
441.145	678.39
441.52	665.96
441.895	686.75
442.27	691.04
442.645	679.06
443.019	710.93
443.394	683.13
443.769	690.82
444.143	722.23
444.518	720.42
444.892	693.98
445.267	716.35
445.641	739.4
446.016	738.72
446.39	730.81
446.764	740.08
447.139	710.93
447.513	751.83
447.887	757.93
448.262	758.16
448.636	743.24
449.01	766.07
449.384	755.67
449.758	775.56
450.132	781.21
450.506	778.95
450.88	780.76
451.254	786.41
451.628	805.39
452.002	823.69
452.376	806.07
452.75	816.24
453.123	783.47
453.497	811.94
453.871	836.8
454.244	848.1
454.618	853.07
454.992	845.16
455.365	822.56
455.739	888.1
456.112	890.36
456.486	878.15
456.859	894.2
457.232	887.42
457.606	900.3
457.979	916.57
458.352	912.5
458.725	929.23
459.099	941.88
459.472	972.16
459.845	977.59
460.218	955.67
460.591	984.82
460.964	982.33
461.337	1015.33
461.71	1032.05
462.083	1049.9
462.456	1048.77
462.829	1040.18
463.201	1068.88
463.574	1078.83
463.947	1102.78
464.32	1111.14
464.692	1103.01
465.065	1111.82
465.438	1168.32
465.81	1197.02
466.183	1177.81
466.555	1199.5
466.928	1195.66
467.3	1216
467.672	1266.17
468.045	1293.29
468.417	1257.81
468.789	1287.41
469.161	1310.69
469.534	1333.96
469.906	1375.32
470.278	1388.42
470.65	1397.24
471.022	1392.27
471.394	1438.82
471.766	1466.16
472.138	1468.42
472.51	1526.73
472.882	1591.36
473.253	1586.61
473.625	1629.32
473.997	1647.17
474.369	1685.59
474.74	1742.99
475.112	1761.52
475.484	1789.32
475.855	1856.66
476.227	1886.26
476.598	1927.17
476.97	1971.69
477.341	2057.33
477.713	2098.01
478.084	2090.33
478.455	2201.74
478.827	2239.25
479.198	2355.18
479.569	2361.51
479.94	2469.53
480.311	2512.91
480.682	2588.39
481.053	2677.2
481.424	2754.72
481.795	2808.73
482.166	2859.12
482.537	2989.96
482.908	3085.55
483.279	3152.22
483.65	3215.27
484.021	3354.93
484.391	3408.48
484.762	3533.23
485.133	3587.24
485.503	3665.88
485.874	3806.21
486.244	3884.63
486.615	4022.03
486.985	4126.88
487.356	4257.73
487.726	4359.19
488.097	4497.04
488.467	4585.85
488.837	4712.86
489.207	4822.46
489.578	4970.93
489.948	5085.05
490.318	5241.88
490.688	5357.13
491.058	5483.23
491.428	5651.36
491.798	5730.46
492.168	5987.4
492.538	5992.82
492.908	6143.1
493.278	6325.02
493.648	6419.7
494.017	6614.73
494.387	6731.33
494.757	6842.97
495.126	7007.71
495.496	7038.44
495.866	7190.98
496.235	7347.82
496.605	7520.47
496.974	7693.79
497.344	7773.11
497.713	7943.51
498.082	8081.13
498.452	8128.36
498.821	8309.82
499.19	8466.43
499.559	8601.12
499.928	8695.12
500.298	8838.17
500.667	9000.88
501.036	9040.43
501.405	9241.55
501.774	9233.64
502.143	9337.14
502.512	9552.96
502.88	9664.36
503.249	9742.1
503.618	9885.38
503.987	10054.18
504.356	10092.83
504.724	10240.62
505.093	10291.69
505.462	10451.46
505.83	10574.4
506.199	10688.74
506.567	10848.29
506.936	10913.6
507.304	11036.08
507.672	11189.97
508.041	11301.38
508.409	11362.85
508.777	11403.53
509.145	11641.49
509.514	11684.65
509.882	11825.89
510.25	11883.52
510.618	12029.73
510.986	12083.96
511.354	12211.42
511.722	12295.71
512.09	12495.48
512.458	12480.34
512.826	12680.56
513.193	12719.2
513.561	12740.89
513.929	12908.57
514.297	13005.75
514.664	13068.79
515.032	13145.85
515.4	13304.04
515.767	13432.18
516.135	13452.97
516.502	13437.6
516.869	13735.67
517.237	13678.27
517.604	13689.8
517.972	13875.33
518.339	13972.05
518.706	14028.09
519.073	14082.1
519.44	14226.5
519.808	14368.87
520.175	14406.39
520.542	14563.44
520.909	14602.99
521.276	14641.18
521.643	14794.63
522.009	14836.21
522.376	14911.91
522.743	15023.77
523.11	15150.55
523.477	15301.96
523.843	15334.05
524.21	15555.74
524.577	15612.23
524.943	15595.96
525.31	15768.16
525.676	15928.83
526.043	15972.22
526.409	15988.94
526.776	16119.79
527.142	16186.68
527.508	16215.83
527.874	16343.28
528.241	16515.26
528.607	16492.21
528.973	16672.32
529.339	16563.17
529.705	16698.76
530.071	16842.25
530.437	16916.38
530.803	16976.49
531.169	17008.35
531.535	16953.44
531.901	17093.32
532.267	17124.51
532.632	17209.48
532.998	17181.91
533.364	17313.2
533.73	17270.94
534.095	17459.87
534.461	17514.55
534.826	17515.91
535.192	17522.69
535.557	17650.82
535.923	17545.29
536.288	17770.14
536.653	17777.6
537.019	17641.33
537.384	17789.12
537.749	17823.92
538.114	17816.69
538.479	17858.05
538.845	17902.34
539.21	17820.08
539.575	17897.59
539.94	17873.87
540.305	18023.69
540.67	17967.42
541.034	17985.73
541.399	18135.1
541.764	17976.69
542.129	18131.26
542.494	18088.55
542.858	18133.07
543.223	18177.81
543.587	18301.43
543.952	18205.38
544.316	18244.48
544.681	18222.78
545.045	18194.31
545.41	18274.53
545.774	18320.41
546.138	18361.31
546.503	18254.42
546.867	18282.89
547.231	18512.49
547.595	18417.58
547.959	18502.78
548.324	18452.83
548.688	18393.17
549.052	18461.42
549.416	18512.95
549.779	18454.19
550.143	18576.45
550.507	18662.77
550.871	18650.12
551.235	18588.2
551.599	18776.67
551.962	18707.52
552.326	18714.52
552.689	18701.19
553.053	18681.53
553.417	18747.06
553.78	18971.92
554.143	18872.26
554.507	18882.65
554.87	18947.96
555.234	18978.02
555.597	18895.53
555.96	18910.22
556.323	18994.06
556.686	19114.74
557.05	19201.74
557.413	19151.35
557.776	19218.24
558.139	19224.34
558.502	19304.34
558.865	19396.54
559.228	19411.68
559.59	19489.87
559.953	19458.68
560.316	19672.69
560.679	19563.54
561.041	19683.54
561.404	19764.21
561.767	19800.37
562.129	19697.77
562.492	19912.91
562.854	19940.93
563.217	19907.49
563.579	19919.01
563.941	20213.69
564.304	20263.41
564.666	20209.85
565.028	20230.19
565.39	20276.29
565.753	20316.97
566.115	20449.39
566.477	20413.46
566.839	20534.59
567.201	20596.05
567.563	20563.06
567.925	20747.46
568.287	20711.76
568.648	20792.89
569.01	20832.88
569.372	21010.51
569.734	20893.67
570.095	21023.16
570.457	21096.15
570.819	21068.13
571.18	21054.12
571.542	21179.54
571.903	21250.5
572.265	21321.01
572.626	21375.24
572.987	21315.13
573.349	21427.22
573.71	21374.57
574.071	21533.66
574.432	21592.64
574.794	21675.35
575.155	21588.12
575.516	21594.67
575.877	21709.47
576.238	21691.84
576.599	21880.54
576.96	21749.7
577.32	21785.4
577.681	21877.6
578.042	21815.68
578.403	21915.34
578.763	21968.45
579.124	21955.11
579.485	21957.37
579.845	22091.61
580.206	22059.97
580.566	21989.69
580.927	22071.95
581.287	22175.45
581.648	22080.31
582.008	22133.64
582.368	22100.42
582.728	22209.12
583.089	22061.78
583.449	22018.39
583.809	22183.81
584.169	22147.65
584.529	22168.44
584.889	22273.98
585.249	22146.97
585.609	22173.41
585.969	22193.98
586.329	22097.94
586.688	22266.29
587.048	22148.1
587.408	22091.38
587.768	22184.71
588.127	22206.63
588.487	22083.47
588.846	22152.62
589.206	22128.22
589.565	22085.28
589.925	22255.67
590.284	22169.12
590.643	22116.24
591.003	22219.74
591.362	22234.88
591.721	22180.42
592.08	22228.78
592.44	22283.47
592.799	22170.25
593.158	22242.56
593.517	22250.93
593.876	22209.35
594.235	22117.82
594.593	22154.88
594.952	22331.6
595.311	22209.12
595.67	22294.09
596.029	22293.64
596.387	22310.81
596.746	22324.14
597.104	22268.78
597.463	22260.87
597.822	22324.14
598.18	22221.32
598.538	22252.51
598.897	22370.92
599.255	22196.46
599.613	22446.63
599.972	22282.11
600.33	22356.46
600.688	22279.17
601.046	22405.27
601.404	22433.07
601.762	22402.11
602.12	22454.76
602.478	22452.73
602.836	22589.22
603.194	22566.85
603.552	22590.35
603.91	22368.89
604.268	22640.52
604.625	22536.34
604.983	22491.37
605.341	22452.73
605.698	22568.21
606.056	22561.88
606.413	22556.68
606.771	22715.77
607.128	22686.62
607.485	22685.94
607.843	22562.56
608.2	22696.11
608.557	22887.07
608.914	22727.98
609.272	22842.78
609.629	22927.97
609.986	22971.59
610.343	22839.61
610.7	22992.15
611.057	22829.89
611.414	22944.02
611.771	23032.6
612.127	23119.15
612.484	23110.79
612.841	23169.32
613.198	22956.67
613.554	23109.43
613.911	23180.62
614.267	23186.95
614.624	23120.73
614.98	23321.18
615.337	23462.65
615.693	23375.42
616.05	23344.23
616.406	23491.12
616.762	23347.39
617.118	23373.83
617.475	23411.8
617.831	23490.67
618.187	23483.89
618.543	23485.24
618.899	23664
619.255	23565.24
619.611	23574.96
619.967	23543.55
620.323	23703.09
620.678	23652.25
621.034	23508.07
621.39	23617.67
621.746	23569.31
622.101	23841.17
622.457	23673.26
622.812	23721.17
623.168	23718.01
623.523	23824.44
623.879	23864.44
624.234	23736.99
624.589	23826.93
624.945	23843.88
625.3	23869.19
625.655	23818.79
626.01	23843.88
626.365	23860.15
626.72	23786.03
627.075	23718.46
627.43	23736.76
627.785	23757.55
628.14	23764.56
628.495	23810.66
628.85	23698.8
629.205	23670.55
629.559	23853.82
629.914	23682.75
630.269	23918.68
630.623	23615.41
630.978	23672.13
631.332	23796.87
631.687	23820.15
632.041	23738.8
632.396	23785.12
632.75	23684.79
633.104	23693.83
633.459	23589.2
633.813	23597.78
634.167	23649.76
634.521	23515.75
634.875	23606.14
635.229	23598.24
635.583	23414.74
635.937	23522.31
636.291	23517.56
636.645	23489.31
636.999	23388.98
637.352	23504.9
637.706	23338.58
638.06	23352.82
638.413	23413.16
638.767	23336.77
639.121	23306.04
639.474	23288.19
639.828	23260.84
640.181	23238.02
640.534	23297.45
640.888	23049.78
641.241	23155.54
641.594	23128.42
641.947	23217.45
642.301	23154.63
642.654	23173.16
643.007	23266.94
643.36	23124.35
643.713	23120.28
644.066	23193.5
644.419	23041.41
644.771	22907.63
645.124	22741.31
645.477	22599.62
645.83	22548.32
646.182	22453.41
646.535	22346.74
646.888	22344.26
647.24	22309
647.593	22382.9
647.945	22329.79
648.298	22282.79
648.65	22236.46
649.002	22148.56
649.355	22279.85
649.707	22250.02
650.059	22314.65
650.411	22567.75
650.763	22545.83
651.115	22894.07
651.467	22772.04
651.819	22828.31
652.171	22807.52
652.523	22807.97
652.875	22726.17
653.227	22527.76
653.578	22830.8
653.93	22764.81
654.282	22614.98
654.633	22542.67
654.985	22588.32
655.337	22615.66
655.688	22697.02
656.039	22729.11
656.391	22527.08
656.742	22561.43
657.094	22612.72
657.445	22732.27
657.796	22666.51
658.147	22527.98
658.498	22511.48
658.849	22669.9
659.2	22576.34
659.551	22548.32
659.902	22727.98
660.253	22624.93
660.604	22610.69
660.955	22621.09
661.306	22562.1
661.656	22585.61
662.007	22594.42
662.358	22683.23
662.708	22741.99
663.059	22671.48
663.409	22433.75
663.76	22625.38
664.11	22626.51
664.461	22696.11
664.811	22661.08
665.161	22578.6
665.511	22538.6
665.862	22567.98
666.212	22717.13
666.562	22645.72
666.912	22612.95
667.262	22506.06
667.612	22611.37
667.962	22684.14
668.312	22649.11
668.662	22657.47
669.011	22621.54
669.361	22651.59
669.711	22509.45
670.06	22555.55
670.41	22437.14
670.76	22485.27
671.109	22539.73
671.459	22422.22
671.808	22492.05
672.157	22532.73
672.507	22343.13
672.856	22418.15
673.205	22289.12
673.554	22426.74
673.904	22385.39
674.253	22508.55
674.602	22404.82
674.951	22123.92
675.3	21965.28
675.649	22299.06
675.998	22314.43
676.346	22269.91
676.695	22372.28
677.044	22114.21
677.393	22218.16
677.741	22304.71
678.09	22195.11
678.438	22115.11
678.787	22226.97
679.135	22260.87
679.484	21967.09
679.832	22069.01
680.181	21998.28
680.529	22098.84
680.877	21960.76
681.225	22070.14
681.573	22094.77
681.922	21935.68
682.27	21860.65
682.618	21876.02
682.966	21840.09
683.314	21805.74
683.661	21813.2
684.009	21694.56
684.357	21580.66
684.705	21474.9
685.053	21702.92
685.4	21685.74
685.748	21495.24
686.095	21397.62
686.443	21309.03
686.79	21329.59
687.138	21280.78
687.485	21343.61
687.832	21308.58
688.18	21274.45
688.527	21204.4
688.874	21213.21
689.221	21097.96
689.568	21028.13
689.915	21000.56
690.262	20900.45
690.609	20904.29
690.956	20803.96
691.303	20801.92
691.65	20747.24
691.997	20799.21
692.344	20601.03
692.69	20648.93
693.037	20644.87
693.383	20443.06
693.73	20519.22
694.077	20308.6
694.423	20288.27
694.769	20180.25
695.116	20200.13
695.462	20075.84
695.808	20039.91
696.155	20133.02
696.501	19822.06
696.847	19905.45
697.193	19738.45
697.539	19857.99
697.885	19650.77
698.231	19604.22
698.577	19633.14
698.923	19532.81
699.269	19448.97
699.614	19370.78
699.96	19318.8
700.306	19353.15
700.651	19119.94
700.997	19127.17
701.342	19074.51
701.688	19064.57
702.033	19006.49
702.379	18999.49
702.724	18944.8
703.069	18912.26
703.415	18734.86
703.76	18743.45
704.105	18721.75
704.45	18673.39
704.795	18560.18
705.14	18562.66
705.485	18557.24
705.83	18491.03
706.175	18390.01
706.52	18349.11
706.865	18322.67
707.209	18267.08
707.554	18228.66
707.899	18191.37
708.243	18085.61
708.588	18117.25
708.932	17973.75
709.277	17900.98
709.621	17970.36
709.966	17800.87
710.31	17844.71
710.654	17669.13
710.998	17714.32
711.342	17761.33
711.687	17709.35
712.031	17603.82
712.375	17534.44
712.719	17540.99
713.063	17410.38
713.407	17521.56
713.75	17398.17
714.094	17467.1
714.438	17302.58
714.782	17391.84
715.125	17226.65
715.469	17357.72
715.812	17150.72
716.156	17142.59
716.499	17168.8
716.843	17176.94
717.186	17036.15
717.53	17207.67
717.873	17154.79
718.216	17104.17
718.559	16940.56
718.902	16915.25
719.246	16937.17
719.589	16861.01
719.932	16796.15
720.275	16818.98
720.617	16826.44
720.96	16762.03
721.303	16843.16
721.646	16756.16
721.989	16701.47
722.331	16686.78
722.674	16661.92
723.016	16701.24
723.359	16634.12
723.701	16559.78
724.044	16529.49
724.386	16369.95
724.729	16510.29
725.071	16430.51
725.413	16409.72
725.755	16431.19
726.097	16374.47
726.439	16282.27
726.782	16369.72
727.124	16455.82
727.465	16278.88
727.807	16289.28
728.149	16319.56
728.491	16231.88
728.833	16335.38
729.175	16324.53
729.516	16161.14
729.858	16213.12
730.199	16265.32
730.541	16142.39
730.882	16216.51
731.224	16218.54
731.565	16106.46
731.906	16148.26
732.248	16106.23
732.589	16021.94
732.93	16011.09
733.271	16026.46
733.612	16091.09
733.953	16131.77
734.294	15936.06
734.635	15998.89
734.976	16059.68
735.317	15915.73
735.658	15962.05
735.999	15924.76
736.339	15967.25
736.68	15995.27
737.021	15964.31
737.361	15940.36
737.702	15962.28
738.042	15921.83
738.383	15927.25
738.723	15896.07
739.063	15963.86
739.404	15930.19
739.744	15887.93
740.084	15849.74
740.424	15855.39
740.764	15846.35
741.104	15939.23
741.444	15763.41
741.784	15811.32
742.124	15863.75
742.464	15884.31
742.804	15859.68
743.143	15848.61
743.483	15887.48
743.823	15876.86
744.162	15831.89
744.502	15949.85
744.841	15796.63
745.181	15921.6
745.52	15876.4
745.86	15987.14
746.199	16004.54
746.538	15930.19
746.877	16060.13
747.216	16095.16
747.556	16021.71
747.895	16142.39
748.234	16105.55
748.573	16113.69
748.911	16021.71
749.25	16171.31
749.589	16153.46
749.928	16250.86
750.267	16300.8
750.605	16208.83
750.944	16360.91
751.283	16338.31
751.621	16504.18
751.96	16377.18
752.298	16489.04
752.636	16564.97
752.975	16539.21
753.313	16548.7
753.651	16690.62
753.989	16738.3
754.327	16795.93
754.666	16798.64
755.004	16945.98
755.342	17035.24
755.679	17043.38
756.017	16999.76
756.355	17299.64
756.693	17202.7
757.031	17356.14
757.368	17279.31
757.706	17369.92
758.044	17371.73
758.381	17529.47
758.719	17605.17
759.056	17658.28
759.394	17681.1
759.731	17652.4
760.068	17798.39
760.405	17792.06
760.743	17830.25
761.08	17894.43
761.417	17958.38
761.754	18042.68
762.091	18040.42
762.428	18123.8
762.765	18069.12
763.102	18291.93
763.438	18229.79
763.775	18259.17
764.112	18272.95
764.449	18343.46
764.785	18437.24
765.122	18380.29
765.458	18423.46
765.795	18423.46
766.131	18488.54
766.467	18456.68
766.804	18427.98
767.14	18497.58
767.476	18545.26
767.812	18502.1
768.148	18680.62
768.485	18508.88
768.821	18496.9
769.157	18500.97
769.492	18545.26
769.828	18481.08
770.164	18427.98
770.5	18493.51
770.836	18532.83
771.171	18371.93
771.507	18480.18
771.842	18326.74
772.178	18378.03
772.513	18339.39
772.849	18350.01
773.184	18316.79
773.519	18311.82
773.855	18314.08
774.19	18185.5
774.525	18209.9
774.86	18270.92
775.195	18276.79
775.53	18204.03
775.865	18195.21
776.2	18034.31
776.535	17938.95
776.87	17977.37
777.205	17965.84
777.539	17943.92
777.874	17875.67
778.209	17769.01
778.543	17761.1
778.878	17624.83
779.212	17813.98
779.547	17620.77
779.881	17687.66
780.215	17581.9
780.55	17596.81
780.884	17432.07
781.218	17463.93
781.552	17481.11
781.886	17466.19
782.22	17349.59
782.554	17239.98
782.888	17129.25
783.222	17094.68
783.556	17084.73
783.889	17020.1
784.223	16878.41
784.557	16968.58
784.89	16975.13
785.224	16861.69
785.557	16872.76
785.891	16803.16
786.224	16771.75
786.558	16648.14
786.891	16560
787.224	16576.5
787.557	16500.34
787.891	16545.31
788.224	16480
788.557	16430.06
788.89	16367.69
789.223	16313.23
789.556	16197.3
789.888	16267.58
790.221	16159.56
790.554	16129.51
790.887	16074.59
791.219	15957.53
791.552	15987.81
791.884	15979
792.217	15831.43
792.549	15792.34
792.882	15763.87
793.214	15582.85
793.546	15707.82
793.879	15554.61
794.211	15456.08
794.543	15521.16
794.875	15473.7
795.207	15587.82
795.539	15343.76
795.871	15373.14
796.203	15254.95
796.535	15230.55
796.867	15129.76
797.198	15091.11
797.53	15132.02
797.862	15039.82
798.193	15116.2
798.525	14909.65
798.856	14949.65
799.188	14772.03
799.519	14713.95
799.85	14677.57
800.182	14795.76
800.513	14727.51
800.844	14676.44
801.175	14680.5
801.506	14649.54
801.837	14461.3
802.168	14441.41
802.499	14466.5
802.83	14378.82
803.161	14328.65
803.491	14273.06
803.822	14275.32
804.153	14267.63
804.483	14207.52
804.814	14096.56
805.145	14101.54
805.475	14070.58
805.805	14055.89
806.136	14073.74
806.466	13978.83
806.796	13950.58
807.126	13862.9
807.457	13805.27
807.787	13832.16
808.117	13710.81
808.447	13655.45
808.777	13774.54
809.107	13620.64
809.436	13636.92
809.766	13617.48
810.096	13611.38
810.426	13521.44
810.755	13557.82
811.085	13495
811.414	13437.6
811.744	13339.97
812.073	13382.23
812.403	13303.59
812.732	13333.65
813.061	13303.82
813.39	13171.62
813.719	13212.97
814.049	13209.81
814.378	13151.73
814.707	13147.89
815.036	13120.77
815.365	13002.58
815.693	12918.97
816.022	12980.89
816.351	12913.54
816.68	12890.72
817.008	12910.38
817.337	12822.25
817.665	12816.37
817.994	12776.83
818.322	12822.25
818.651	12694.79
818.979	12634.46
819.307	12672.2
819.636	12699.31
819.964	12587.45
820.292	12565.08
820.62	12646.66
820.948	12551.29
821.276	12565.76
821.604	12470.84
821.932	12543.61
822.259	12489.37
822.587	12457.74
822.915	12429.04
823.243	12577.28
823.57	12507.45
823.898	12481.92
824.225	12429.26
824.553	12452.31
824.88	12555.59
825.207	12573.21
825.535	12468.58
825.862	12430.62
826.189	12525.08
826.516	12441.47
826.843	12587.9
827.17	12532.76
827.497	12510.62
827.824	12496.83
828.151	12600.56
828.478	12478.3
828.805	12532.31
829.131	12531.41
829.458	12415.25
829.785	12391.75
830.111	12451.64
830.438	12427.68
830.764	12437.4
831.09	12411.64
831.417	12296.61
831.743	12472.65
832.069	12430.62
832.395	12377.97
832.722	12391.3
833.048	12364.86
833.374	12295.71
833.7	12315.37
834.026	12351.53
834.351	12341.13
834.677	12249.38
835.003	12341.81
835.329	12325.76
835.654	12222.94
835.98	12265.43
836.306	12283.28
836.631	12168.25
836.956	12229.04
837.282	12198.99
837.607	12134.36
837.932	12101.59
838.258	12112.66
838.583	12114.7
838.908	12089.84
839.233	12107.92
839.558	12065.43
839.883	11963.74
840.208	12024.98
840.533	12023.85
840.858	11947.47
841.182	12019.56
841.507	11928.26
841.832	11868.83
842.156	11784.99
842.481	11783.4
842.805	11836.51
843.13	11817.3
843.454	11785.66
843.778	11727.36
844.103	11700.92
844.427	11652.11
844.751	11725.1
845.075	11662.28
845.399	11642.39
845.723	11562.62
846.047	11523.98
846.371	11429.74
846.695	11457.09
847.019	11380.25
847.343	11363.3
847.666	11257.77
847.99	11252.35
848.313	11257.32
848.637	11187.49
848.96	11154.72
849.284	11076.08
849.607	11029.75
849.931	10950.21
850.254	10895.52
850.577	10869.08
850.9	10812.81
851.223	10811.45
851.546	10754.05
851.869	10642.19
852.192	10717.44
852.515	10573.72
852.838	10535.75
853.161	10582.98
853.483	10468.41
853.806	10454.4
854.129	10444.23
854.451	10434.74
854.774	10401.75
855.096	10329.88
855.419	10325.14
855.741	10292.6
856.063	10241.75
856.385	10189.77
856.708	10128.76
857.03	10123.11
857.352	10173.73
857.674	10095.99
857.996	10081.75
858.318	9988.65
858.64	9992.04
858.961	9889.9
859.283	9910.91
859.605	9846.28
859.926	9913.85
860.248	9845.6
860.57	9836.79
860.891	9861.2
861.212	9816.45
861.534	9727.19
861.855	9744.81
862.176	9719.73
862.498	9705.04
862.819	9766.96
863.14	9626.17
863.461	9681.99
863.782	9677.92
864.103	9638.6
864.424	9592.95
864.745	9604.71
865.065	9541.88
865.386	9501.2
865.707	9551.6
866.027	9543.69
866.348	9443.13
866.668	9519.28
866.989	9420.53
867.309	9353.41
867.63	9407.42
867.95	9413.98
868.27	9306.86
868.59	9357.48
868.91	9419.85
869.23	9382.11
869.55	9293.98
869.87	9298.95
870.19	9282.68
870.51	9290.36
870.83	9275.9
871.15	9266.63
871.469	9311.15
871.789	9203.59
872.109	9182.34
872.428	9157.94
872.748	9237.71
873.067	9182.8
873.386	9219.63
873.706	9123.81
874.025	9121.55
874.344	9034.32
874.663	9088.11
874.982	9123.36
875.301	9064.83
875.62	9049.24
875.939	8992.52
876.258	9060.09
876.577	8990.94
876.896	8953.42
877.214	8947.32
877.533	8942.35
877.852	8959.07
878.17	8921.33
878.489	8922.46
878.807	8892.18
879.125	8888.34
879.444	8839.75
879.762	8833.2
880.08	8879.53
880.398	8743.26
880.716	8784.16
881.034	8762.24
881.352	8745.29
881.67	8756.59
881.988	8707.78
882.306	8745.52
882.624	8749.36
882.941	8728.34
883.259	8620.32
883.577	8557.73
883.894	8607.67
884.212	8530.84
884.529	8556.15
884.846	8529.48
885.164	8555.24
885.481	8528.35
885.798	8491.29
886.115	8522.47
886.432	8474.11
886.75	8388.47
887.067	8459.88
887.383	8350.95
887.7	8406.09
888.017	8388.01
888.334	8341.01
888.651	8272.54
888.967	8334.68
889.284	8291.75
889.6	8281.58
889.917	8180.11
890.233	8202.48
890.55	8116.61
890.866	8188.02
891.182	8174.91
891.498	8111.41
891.815	8140.11
892.131	8023.5
892.447	8035.93
892.763	8016.5
893.079	7990.74
893.395	7956.61
893.71	7939.21
894.026	7896.73
894.342	7883.62
894.657	7852.66
894.973	7857.18
895.289	7831.42
895.604	7867.8
895.92	7763.62
896.235	7698.54
896.55	7782.61
896.865	7724.3
897.181	7737.64
897.496	7675.94
897.811	7611.99
898.126	7591.88
898.441	7506.23
898.756	7521.37
899.071	7504.65
899.386	7506
899.7	7451.54
900.015	7406.34
900.33	7395.95
900.644	7371.32
900.959	7342.39
901.273	7261.72
901.588	7297.42
901.902	7243.64
902.216	7208.38
902.531	7211.55
902.845	7170.64
903.159	7144.88
903.473	7138.78
903.787	7099.23
904.101	7038.9
904.415	7091.55
904.729	7013.59
905.042	6959.35
905.356	6933.59
905.67	6905.57
905.984	6911.22
906.297	6937.66
906.611	6896.98
906.924	6846.36
907.237	6803.87
907.551	6758.68
907.864	6793.48
908.177	6707.83
908.491	6749.19
908.804	6712.58
909.117	6635.07
909.43	6618.34
909.743	6630.32
910.056	6571.56
910.368	6569.53
910.681	6565.91
910.994	6522.3
911.307	6523.66
911.619	6453.15
911.932	6446.6
912.244	6375.41
912.557	6366.6
912.869	6335.64
913.181	6306.03
913.494	6297.45
913.806	6299.93
914.118	6216.55
914.43	6208.41
914.742	6182.65
915.054	6133.61
915.366	6130.22
915.678	6112.59
915.99	6140.62
916.302	6020.17
916.613	6062.88
916.925	6038.7
917.236	5977
917.548	5972.71
917.859	5964.35
918.171	5932.94
918.482	5900.4
918.794	5868.31
919.105	5840.51
919.416	5827.63
919.727	5800.51
920.038	5781.98
920.349	5748.31
920.66	5749.67
920.971	5697.24
921.282	5684.13
921.593	5647.3
921.903	5630.57
922.214	5619.05
922.525	5634.41
922.835	5559.16
923.146	5527.98
923.456	5534.08
923.767	5510.35
924.077	5503.57
924.387	5469.22
924.697	5410.01
925.008	5416.79
925.318	5368.66
925.628	5397.81
925.938	5376.57
926.248	5300.86
926.558	5346.51
926.867	5284.37
927.177	5226.06
927.487	5207.53
927.796	5207.53
928.106	5222.67
928.416	5159.17
928.725	5134.77
929.034	5169.34
929.344	5143.81
929.653	5081.66
929.962	5074.2
930.271	5027.88
930.581	5017.48
930.89	5011.15
931.199	4975.22
931.508	4940.19
931.817	4984.94
932.125	4916.92
932.434	4908.11
932.743	4871.95
933.051	4818.62
933.36	4837.37
933.669	4816.81
933.977	4816.13
934.286	4788.56
934.594	4770.26
934.902	4715.79
935.21	4737.26
935.519	4659.07
935.827	4717.83
936.135	4691.61
936.443	4648.45
936.751	4596.02
937.059	4596.02
937.367	4548.79
937.674	4576.59
937.982	4553.09
938.29	4532.52
938.597	4544.27
938.905	4475.57
939.213	4436.25
939.52	4439.42
939.827	4441
940.135	4378.18
940.442	4357.61
940.749	4375.01
941.056	4349.02
941.363	4319.19
941.67	4317.39
941.977	4252.53
942.284	4265.41
942.591	4291.85
942.898	4240.55
943.205	4259.31
943.511	4203.27
943.818	4184.73
944.125	4145.41
944.431	4168.24
944.738	4095.47
945.044	4113.1
945.35	4077.17
945.657	4111.52
945.963	4031.74
946.269	4046.66
946.575	4045.53
946.881	3981.8
947.187	4012.76
947.493	3948.58
947.799	3967.79
948.105	3971.63
948.41	3920.79
948.716	3915.36
949.022	3864.07
949.327	3894.12
949.633	3793.33
949.938	3825.87
950.244	3832.43
950.549	3823.16
950.854	3783.62
951.16	3787.46
951.465	3769.38
951.77	3694.8
952.075	3716.5
952.38	3691.19
952.685	3712.2
952.99	3655.48
953.294	3659.32
953.599	3652.77
953.904	3612.77
954.209	3602.6
954.513	3616.39
954.818	3579.78
955.122	3564.64
955.426	3562.15
955.731	3519.67
956.035	3532.77
956.339	3484.41
956.643	3486.45
956.948	3446.22
957.252	3469.05
957.556	3490.52
957.86	3442.16
958.163	3436.05
958.467	3451.65
958.771	3414.81
959.075	3366
959.378	3375.72
959.682	3354.7
959.985	3373.46
960.289	3324.19
960.592	3328.71
960.896	3326.45
961.199	3269.96
961.502	3315.38
961.805	3252.56
962.108	3244.42
962.411	3261.6
962.714	3216.17
963.017	3186.57
963.32	3206.23
963.623	3191.31
963.926	3198.32
964.228	3118.32
964.531	3118.32
964.833	3157.64
965.136	3092.56
965.438	3120.81
965.741	3105.67
966.043	3088.94
966.345	3097.98
966.648	3051.21
966.95	3048.27
967.252	3004.65
967.554	2980.92
967.856	2987.7
968.158	2942.73
968.46	2992.45
968.761	2960.81
969.063	2944.77
969.365	2903.41
969.666	2936.18
969.968	2884.43
970.269	2868.39
970.571	2860.25
970.872	2897.08
971.174	2857.31
971.475	2850.31
971.776	2814.6
972.077	2796.75
972.378	2798.78
972.679	2799.69
972.98	2797.65
973.281	2760.59
973.582	2769.4
973.883	2720.82
974.183	2747.03
974.484	2719.24
974.785	2700.71
975.085	2703.19
975.386	2699.58
975.686	2718.11
975.986	2672.23
976.287	2665.23
976.587	2618.67
976.887	2611.44
977.187	2642.4
977.487	2590.43
977.787	2592.01
978.087	2576.87
978.387	2556.3
978.687	2586.36
978.987	2532.57
979.286	2540.71
979.586	2490.09
979.885	2491.22
980.185	2495.51
980.484	2482.41
980.784	2466.14
981.083	2466.59
981.382	2495.74
981.682	2444.89
981.981	2430.2
982.28	2421.17
982.579	2432.46
982.878	2421.84
983.177	2433.14
983.475	2400.37
983.774	2378.23
984.073	2407.15
984.372	2330.55
984.67	2319.7
984.969	2357.44
985.267	2345.23
985.566	2331.9
985.864	2314.5
986.162	2298.91
986.461	2259.36
986.759	2305.69
987.057	2281.73
987.355	2260.72
987.653	2252.36
987.951	2218.23
988.249	2246.03
988.547	2216.88
988.844	2201.74
989.142	2173.04
989.44	2189.31
989.737	2182.08
990.035	2186.82
990.332	2136.88
990.63	2161.28
990.927	2153.6
991.224	2126.48
991.521	2119.03
991.819	2102.98
992.116	2074.28
992.413	2084.68
992.71	2077.67
993.006	2070.89
993.303	2067.73
993.6	2069.31
993.897	2103.21
994.193	2055.75
994.49	2068.18
994.787	2002.19
995.083	2015.75
995.379	2002.19
995.676	2020.27
995.972	2003.77
996.268	1947.51
996.565	1972.82
996.861	1932.36
997.157	1943.66
997.453	1934.85
997.749	1910.22
998.044	1937.11
998.34	1894.4
998.636	1897.34
998.932	1909.77
999.227	1875.42
999.523	1847.62
999.818	1876.09
1000.114	1844.91
1000.409	1827.73
1000.704	1810.56
1001	1833.61
1001.295	1809.2
1001.59	1814.18
1001.885	1802.65
1002.18	1783.67
1002.475	1777.11
1002.77	1754.29
1003.065	1761.97
1003.359	1734.86
1003.654	1745.93
1003.949	1715.87
1004.243	1733.5
1004.538	1708.42
1004.832	1698.47
1005.127	1702.99
1005.421	1692.14
1005.715	1696.89
1006.009	1677.91
1006.304	1655.99
1006.598	1655.08
1006.892	1668.42
1007.186	1624.58
1007.48	1611.47
1007.773	1612.82
1008.067	1596.55
1008.361	1585.03
1008.655	1590
1008.948	1565.37
1009.242	1574.86
1009.535	1590.23
1009.829	1578.7
1010.122	1537.12
1010.415	1537.35
1010.708	1502.55
1011.001	1529.66
1011.295	1512.26
1011.588	1510.91
1011.881	1499.83
1012.173	1495.09
1012.466	1479.27
1012.759	1499.38
1013.052	1466.16
1013.344	1440.17
1013.637	1452.15
1013.93	1432.72
1014.222	1438.37
1014.514	1418.93
1014.807	1436.78
1015.099	1414.19
1015.391	1396.79
1015.683	1368.54
1015.976	1378.03
1016.268	1372.15
1016.56	1352.27
1016.851	1346.17
1017.143	1373.06
1017.435	1346.39
1017.727	1320.18
1018.018	1336.9
1018.31	1333.51
1018.602	1341.65
1018.893	1319.5
1019.185	1276.11
1019.476	1288.77
1019.767	1288.99
1020.058	1285.83
1020.35	1278.37
1020.641	1248.99
1020.932	1253.29
1021.223	1222.33
1021.514	1227.98
1021.804	1217.35
1022.095	1220.97
1022.386	1225.49
1022.677	1220.29
1022.967	1168.54
1023.258	1189.56
1023.548	1179.39
1023.839	1162.22
1024.129	1167.41
1024.419	1152.72
1024.709	1139.84
1025	1133.97
1025.29	1134.87
1025.58	1137.36
1025.87	1122.44
1026.16	1093.29
1026.449	1105.49
1026.739	1109.79
1027.029	1083.8
1027.319	1096.68
1027.608	1079.96
1027.898	1071.14
1028.187	1077.02
1028.477	1080.86
1028.766	1076.12
1029.055	1060.3
1029.344	1030.24
1029.634	1022.78
1029.923	1034.99
1030.212	1018.94
1030.501	1040.18
1030.79	1033.41
1031.078	1024.14
1031.367	998.15
1031.656	1044.48
1031.945	987.53
1032.233	983.46
1032.522	990.47
1032.81	962.67
1033.099	954.76
1033.387	949.34
1033.675	958.15
1033.963	939.4
1034.251	963.35
1034.54	926.06
1034.828	922.22
1035.116	927.65
1035.403	932.62
1035.691	897.82
1035.979	909.11
1036.267	906.4
1036.554	909.11
1036.842	895.78
1037.129	879.06
1037.417	875.9
1037.704	883.8
1037.992	879.96
1038.279	891.04
1038.566	873.18
1038.853	873.18
1039.14	873.18
