Data from hue_230_FLMS001491_00041.txt Node
Date: Tue Feb 07 16:37:16 GMT 2017
User: dcchb
Spectrometer: FLMS00149
Trigger mode: 0
Integration Time (sec): 2.000000E-2
Scans to average: 10
Electric dark correction enabled: true
Nonlinearity correction enabled: false
Boxcar width: 0
XAxis mode: Wavelengths
Number of Pixels in Spectrum: 2048
>>>>>Begin Spectral Data<<<<<
341.393	-15.37
341.776	-15.37
342.16	-15.37
342.543	-54.46
342.927	-59.43
343.31	-70.51
343.693	-88.36
344.077	-61.02
344.46	-54.46
344.843	-35.93
345.226	-56.27
345.61	-21.92
345.993	-19.66
346.376	-7.46
346.759	4.07
347.142	42.48
347.525	37.29
347.908	36.16
348.291	82.03
348.674	103.5
349.057	110.05
349.44	135.82
349.823	145.08
350.206	168.58
350.588	175.81
350.971	192.76
351.354	209.03
351.737	233.89
352.119	244.06
352.502	249.26
352.884	268.69
353.267	270.28
353.65	273.67
354.032	297.85
354.414	314.57
354.797	301.46
355.179	320.22
355.562	305.75
355.944	326.77
356.326	343.49
356.709	314.34
357.091	312.53
357.473	334.23
357.855	332.19
358.238	339.88
358.62	339.65
359.002	333.32
359.384	340.1
359.766	312.53
360.148	326.55
360.53	335.13
360.912	341.23
361.294	316.38
361.676	332.65
362.057	332.19
362.439	312.99
362.821	334.91
363.203	335.13
363.584	298.98
363.966	293.55
364.348	328.58
364.729	300.78
365.111	303.72
365.493	310.73
365.874	291.74
366.256	300.78
366.637	312.53
367.019	301.91
367.4	298.07
367.781	289.94
368.163	319.09
368.544	319.09
368.925	303.72
369.306	312.99
369.688	300.78
370.069	300.33
370.45	305.53
370.831	284.51
371.212	275.7
371.593	291.74
371.974	301.01
372.355	289.03
372.736	280.44
373.117	313.66
373.498	319.77
373.879	307.11
374.26	284.29
374.641	309.37
375.021	294.23
375.402	312.99
375.783	315.47
376.163	292.42
376.544	313.21
376.925	324.74
377.305	319.31
377.686	328.35
378.066	305.75
378.447	316.6
378.827	312.08
379.208	316.38
379.588	313.89
379.968	298.52
380.349	309.82
380.729	321.12
381.109	338.97
381.489	330.84
381.87	321.8
382.25	318.64
382.63	333.1
383.01	340.33
383.39	325.64
383.77	339.65
384.15	311.63
384.53	343.95
384.91	329.26
385.29	345.08
385.67	326.55
386.049	338.75
386.429	330.39
386.809	317.73
387.189	327.68
387.568	319.31
387.948	327.68
388.328	344.85
388.707	350.5
389.087	357.5
389.466	355.02
389.846	337.84
390.225	364.51
390.605	339.88
390.984	357.5
391.363	349.37
391.743	373.55
392.122	352.31
392.501	365.87
392.881	365.41
393.26	358.41
393.639	372.87
394.018	374.91
394.397	366.09
394.776	389.37
395.155	351.4
395.534	364.06
395.913	370.39
396.292	378.75
396.671	376.94
397.05	374.23
397.429	376.04
397.808	375.81
398.186	392.31
398.565	353.21
398.944	369.48
399.323	379.43
399.701	392.08
400.08	385.3
400.458	398.41
400.837	370.84
401.215	392.31
401.594	397.96
401.972	402.48
402.351	398.18
402.729	390.95
403.107	382.59
403.486	389.14
403.864	434.56
404.242	396.37
404.62	438.18
404.999	394.79
405.377	396.6
405.755	438.41
406.133	423.72
406.511	420.78
406.889	429.14
407.267	449.25
407.645	442.7
408.023	452.87
408.401	446.54
408.779	453.32
409.156	455.13
409.534	468.46
409.912	475.02
410.29	494
410.667	470.5
411.045	496.94
411.422	484.51
411.8	499.42
412.178	506.88
412.555	512.3
412.933	526.31
413.31	515.69
413.687	528.12
414.065	530.83
414.442	558.18
414.819	541.23
415.197	549.36
415.574	582.36
415.951	577.39
416.328	588.23
416.705	554.56
417.082	608.57
417.46	600.21
417.837	600.44
418.214	619.64
418.591	610.15
418.967	612.64
419.344	640.21
419.721	609.25
420.098	647.67
420.475	635.46
420.852	647.89
421.228	651.96
421.605	651.96
421.982	699.64
422.358	680.66
422.735	704.16
423.111	690.6
423.488	723.14
423.864	722.01
424.241	742.13
424.617	744.39
424.994	763.6
425.37	747.55
425.746	780.32
426.123	765.86
426.499	790.71
426.875	776.48
427.251	807.21
427.627	823.71
428.003	832.97
428.379	835.91
428.756	860.77
429.132	839.53
429.507	864.84
429.883	876.14
430.259	897.83
430.635	887.43
431.011	911.39
431.387	922.46
431.763	946.87
432.138	933.53
432.514	944.61
432.89	962.23
433.265	982.57
433.641	990.26
434.016	1006.3
434.392	1017.37
434.767	1008.11
435.143	1077.26
435.518	1069.12
435.894	1089.69
436.269	1089.24
436.644	1099.86
437.02	1156.58
437.395	1149.12
437.77	1152.06
438.145	1156.13
438.52	1195.9
438.895	1196.8
439.271	1204.94
439.646	1228.22
440.021	1267.09
440.395	1260.08
440.77	1240.65
441.145	1289.01
441.52	1310.47
441.895	1318.38
442.27	1349.8
442.645	1329.68
443.019	1325.39
443.394	1367.65
443.769	1397.7
444.143	1409.45
444.518	1382.34
444.892	1419.17
445.267	1411.94
445.641	1433.41
446.016	1442.9
446.39	1478.83
446.764	1460.07
447.139	1476.57
447.513	1495.55
447.887	1491.71
448.262	1490.36
448.636	1517.25
449.01	1519.28
449.384	1541.43
449.758	1536.46
450.132	1552.5
450.506	1575.33
450.88	1603.8
451.254	1572.61
451.628	1597.47
452.002	1639.5
452.376	1600.41
452.75	1645.83
453.123	1656.68
453.497	1687.87
453.871	1682.22
454.244	1715.89
454.618	1740.97
454.992	1736.45
455.365	1733.51
455.739	1782.55
456.112	1810.57
456.486	1811.25
456.859	1811.93
457.232	1862.1
457.606	1857.58
457.979	1869.56
458.352	1895.32
458.725	1924.47
459.099	1945.71
459.472	1969.89
459.845	2001.76
460.218	1993.17
460.591	2025.48
460.964	2033.84
461.337	2085.82
461.71	2117.23
462.083	2133.96
462.456	2151.81
462.829	2150.23
463.201	2172.15
463.574	2197.46
463.947	2199.72
464.32	2231.81
464.692	2256.21
465.065	2272.48
465.438	2305.48
465.81	2339.15
466.183	2342.31
466.555	2416.43
466.928	2420.28
467.3	2399.26
467.672	2441.07
468.045	2475.42
468.417	2497.11
468.789	2519.71
469.161	2550.44
469.534	2578.92
469.906	2650.33
470.278	2659.59
470.65	2665.24
471.022	2702.75
471.394	2736.88
471.766	2791.79
472.138	2810.55
472.51	2866.37
472.882	2905.69
473.253	2964.44
473.625	2974.84
473.997	2998.57
474.369	3035.63
474.74	3070.43
475.112	3107.49
475.484	3190.88
475.855	3192.91
476.227	3225.68
476.598	3256.19
476.97	3327.82
477.341	3392.91
477.713	3387.03
478.084	3396.97
478.455	3500.7
478.827	3530.3
479.198	3599
479.569	3611.2
479.94	3719.22
480.311	3741.14
480.682	3807.58
481.053	3906.34
481.424	3881.71
481.795	3923.96
482.166	3975.26
482.537	4044.87
482.908	4110.85
483.279	4176.16
483.65	4222.94
484.021	4228.59
484.391	4287.57
484.762	4320.56
485.133	4354.46
485.503	4403.05
485.874	4507.23
486.244	4539.09
486.615	4623.38
486.985	4667.45
487.356	4733.43
487.726	4721.46
488.097	4815.69
488.467	4865.63
488.837	4903.6
489.207	4974.78
489.578	5032.18
489.948	5096.59
490.318	5144.95
490.688	5146.08
491.058	5188.79
491.428	5265.62
491.798	5322.8
492.168	5384.04
492.538	5409.8
492.908	5445.73
493.278	5509.69
493.648	5506.52
494.017	5612.06
494.387	5636.24
494.757	5662
495.126	5755.55
495.496	5691.15
495.866	5720.08
496.235	5792.84
496.605	5847.76
496.974	5842.56
497.344	5876.46
497.713	5909.68
498.082	5964.59
498.452	5983.8
498.821	6017.47
499.19	5978.6
499.559	6095.66
499.928	6053.63
500.298	6172.49
500.667	6160.29
501.036	6184.7
501.405	6231.7
501.774	6182.44
502.143	6208.2
502.512	6229.44
502.88	6280.51
503.249	6274.41
503.618	6334.97
503.987	6351.7
504.356	6343.56
504.724	6405.03
505.093	6394.86
505.462	6353.73
505.83	6438.7
506.199	6448.19
506.567	6553.73
506.936	6543.78
507.304	6542.2
507.672	6543.78
508.041	6562.99
508.409	6619.04
508.777	6673.72
509.145	6689.09
509.514	6720.28
509.882	6689.09
510.25	6696.32
510.618	6733.83
510.986	6784.91
511.354	6739.48
511.722	6775.19
512.09	6838.01
512.458	6799.82
512.826	6863.55
513.193	6819.03
513.561	6866.49
513.929	6878.24
514.297	6872.59
514.664	6898.12
515.032	6953.72
515.4	6915.98
515.767	6958.91
516.135	7026.93
516.502	6922.3
516.869	7006.6
517.237	6988.29
517.604	6938.12
517.972	7064.67
518.339	7108.97
518.706	7035.3
519.073	7018.57
519.44	7087.05
519.808	7078.91
520.175	7068.97
520.542	7115.52
520.909	7130.43
521.276	7090.89
521.643	7143.99
522.009	7182.41
522.376	7157.1
522.743	7155.07
523.11	7168.63
523.477	7238.68
523.843	7240.26
524.21	7310.54
524.577	7281.62
524.943	7264.22
525.31	7328.85
525.676	7373.37
526.043	7322.97
526.409	7290.66
526.776	7395.96
527.142	7358.45
527.508	7397.09
527.874	7407.49
528.241	7418.79
528.607	7406.36
528.973	7411.78
529.339	7409.3
529.705	7427.15
530.071	7499.46
530.437	7444.55
530.803	7461.72
531.169	7441.39
531.535	7437.32
531.901	7398.45
532.267	7507.6
532.632	7426.7
532.998	7401.84
533.364	7471.22
533.73	7451.56
534.095	7469.63
534.461	7430.09
534.826	7474.15
535.192	7392.57
535.557	7487.03
535.923	7409.75
536.288	7377.21
536.653	7477.09
537.019	7416.98
537.384	7370.2
537.749	7339.92
538.114	7346.7
538.479	7302.86
538.845	7335.17
539.21	7259.24
539.575	7268.51
539.94	7320.49
540.305	7306.7
540.67	7273.71
541.034	7261.05
541.399	7270.09
541.764	7238.23
542.129	7236.87
542.494	7197.1
542.858	7277.1
543.223	7206.36
543.587	7208.85
543.952	7219.92
544.316	7203.88
544.681	7113.03
545.045	7200.26
545.41	7155.29
545.774	7164.33
546.138	7065.35
546.503	7165.91
546.867	7122.3
547.231	7119.59
547.595	7115.75
547.959	7101.51
548.324	7052.47
548.688	7023.32
549.052	7004.79
549.416	7030.32
549.779	7010.21
550.143	6945.13
550.507	6984.45
550.871	7005.01
551.235	6960.49
551.599	6907.39
551.962	6916.65
552.326	6925.24
552.689	6954.39
553.053	6890.89
553.417	6889.54
553.78	6927.5
554.143	6886.82
554.507	6902.64
554.87	6873.49
555.234	6946.26
555.597	6897.45
555.96	6856.77
556.323	6871.46
556.686	6922.53
557.05	6915.52
557.413	6849.54
557.776	6873.04
558.139	6898.8
558.502	6842.53
558.865	6827.62
559.228	6880.72
559.59	6924.79
559.953	6871.46
560.316	6909.65
560.679	6907.84
561.041	6920.95
561.404	6948.97
561.767	6940.16
562.129	6897.45
562.492	6928.18
562.854	6953.26
563.217	6915.75
563.579	6937.9
563.941	6897.9
564.304	6997.1
564.666	6994.39
565.028	7019.02
565.39	7009.76
565.753	7079.36
566.115	7095.41
566.477	7071.68
566.839	7082.53
567.201	7052.92
567.563	7051.57
567.925	7105.8
568.287	7130.66
568.648	7117.33
569.01	7101.96
569.372	7158.68
569.734	7123.2
570.095	7239.13
570.457	7248.62
570.819	7160.04
571.18	7148.51
571.542	7226.25
571.903	7251.11
572.265	7254.95
572.626	7273.03
572.987	7224.67
573.349	7284.33
573.71	7302.41
574.071	7306.47
574.432	7349.86
574.794	7395.96
575.155	7345.34
575.516	7370.88
575.877	7439.13
576.238	7442.97
576.599	7455.85
576.96	7442.74
577.32	7469.18
577.681	7447.04
578.042	7501.05
578.403	7546.47
578.763	7499.24
579.124	7515.06
579.485	7567.94
579.845	7584.21
580.206	7567.03
580.566	7589.63
580.927	7647.48
581.287	7627.82
581.648	7634.6
582.008	7671.66
582.368	7642.74
582.728	7680.7
583.089	7626.92
583.449	7701.72
583.809	7659.69
584.169	7740.36
584.529	7686.58
584.889	7811.77
585.249	7685.22
585.609	7707.59
585.969	7808.61
586.329	7782.39
586.688	7786.69
587.048	7824.43
587.408	7796.18
587.768	7813.13
588.127	7836.18
588.487	7812.68
588.846	7965.89
589.206	7806.57
589.565	7900.13
589.925	7855.39
590.284	7874.6
590.643	7905.78
591.003	7913.46
591.362	7943.97
591.721	7889.74
592.08	7916.18
592.44	7898.32
592.799	8011.77
593.158	7917.98
593.517	7939
593.876	7996.17
594.235	7984.42
594.593	7941.94
594.952	8038.21
595.311	7967.47
595.67	8056.96
596.029	8014.25
596.387	8047.92
596.746	8083.86
597.104	8021.26
597.463	8005.44
597.822	8049.73
598.18	8058.32
598.538	8019.9
598.897	8108.49
599.255	7988.72
599.613	8114.81
599.972	8028.72
600.33	8145.77
600.688	8042.73
601.046	8129.96
601.404	8212.21
601.762	8203.85
602.12	8127.7
602.478	8178.99
602.836	8140.35
603.194	8084.99
603.552	8171.31
603.91	8126.79
604.268	8132.67
604.625	8175.38
604.983	8180.35
605.341	8107.36
605.698	8140.12
606.056	8216.73
606.413	8175.15
606.771	8210.41
607.128	8260.57
607.485	8165.21
607.843	8206.56
608.2	8263.06
608.557	8227.35
608.914	8154.81
609.272	8302.15
609.629	8257.18
609.986	8342.38
610.343	8260.35
610.7	8375.15
611.057	8342.61
611.414	8290.4
611.771	8289.95
612.127	8312.32
612.484	8365.43
612.841	8378.76
613.198	8324.75
613.554	8375.82
613.911	8370.63
614.267	8416.05
614.624	8370.63
614.98	8374.02
615.337	8435.03
615.693	8422.6
616.05	8335.83
616.406	8442.94
616.762	8402.26
617.118	8425.77
617.475	8411.98
617.831	8484.3
618.187	8480.45
618.543	8515.03
618.899	8552.32
619.255	8478.65
619.611	8430.74
619.967	8594.58
620.323	8555.26
620.678	8479.1
621.034	8487.23
621.39	8477.97
621.746	8481.13
622.101	8559.32
622.457	8493.56
622.812	8555.03
623.168	8522.71
623.523	8452.66
623.879	8545.54
624.234	8470.96
624.589	8487.01
624.945	8507.8
625.3	8482.71
625.655	8537.85
626.01	8562.03
626.365	8504.18
626.72	8524.3
627.075	8545.76
627.43	8523.84
627.785	8524.3
628.14	8541.92
628.495	8489.27
628.85	8495.37
629.205	8419.67
629.559	8512.09
629.914	8415.37
630.269	8455.14
630.623	8402.26
630.978	8444.07
631.332	8421.25
631.687	8417.41
632.041	8413.56
632.396	8425.99
632.75	8407.69
633.104	8454.47
633.459	8404.07
633.813	8391.64
634.167	8419.44
634.521	8361.36
634.875	8371.76
635.229	8334.47
635.583	8330.18
635.937	8322.72
636.291	8311.42
636.645	8325.2
636.999	8288.82
637.352	8336.73
637.706	8265.09
638.06	8252.21
638.413	8209.05
638.767	8236.39
639.121	8277.75
639.474	8183.97
639.828	8202.04
640.181	8223.29
640.534	8157.75
640.888	8178.09
641.241	8188.03
641.594	8115.72
641.947	8221.03
642.301	8143.29
642.654	8149.39
643.007	8115.49
643.36	8107.81
643.713	8097.19
644.066	8161.14
644.419	8130.86
644.771	8084.76
645.124	7950.53
645.477	7953.69
645.83	7942.39
646.182	7880.24
646.535	7910.98
646.888	7853.58
647.24	7898.78
647.593	7851.54
647.945	7835.05
648.298	7745.79
648.65	7909.4
649.002	7827.59
649.355	7839.34
649.707	7853.8
650.059	7880.92
650.411	7988.26
650.763	7983.29
651.115	8064.19
651.467	8028.49
651.819	8048.15
652.171	8046.34
652.523	8008.15
652.875	8037.75
653.227	7936.97
653.578	8065.78
653.93	8031.2
654.282	7977.42
654.633	7970.64
654.985	7955.05
655.337	7980.58
655.688	7974.93
656.039	8000.92
656.391	7974.03
656.742	8033.46
657.094	7971.77
657.445	7983.97
657.796	7970.41
658.147	7970.64
658.498	8032.11
658.849	8017.64
659.2	8018.32
659.551	7934.93
659.902	8023.07
660.253	7993.01
660.604	7980.36
660.955	8022.84
661.306	8056.51
661.656	8018.09
662.007	8009.05
662.358	8012.67
662.708	8040.69
663.059	7981.26
663.409	7995.5
663.76	7976.51
664.11	7946.23
664.461	8020.35
664.811	8014.48
665.161	7978.55
665.511	7978.32
665.862	8035.27
666.212	8009.51
666.562	8028.94
666.912	8042.95
667.262	8017.87
667.612	7994.37
667.962	7977.64
668.312	7986.46
668.662	8043.86
669.011	8028.49
669.361	7995.95
669.711	7980.58
670.06	7961.37
670.41	7889.51
670.76	8008.15
671.109	7961.82
671.459	7933.8
671.808	7943.97
672.157	7997.53
672.507	7926.57
672.856	7953.01
673.205	7949.62
673.554	7901.26
673.904	7892.45
674.253	7933.35
674.602	7966.8
674.951	7854.03
675.3	7776.29
675.649	7918.21
675.998	7871.66
676.346	7891.54
676.695	7941.71
677.044	7857.87
677.393	7817.2
677.741	7806.12
678.09	7844.09
678.438	7855.61
678.787	7824.43
679.135	7867.36
679.484	7762.96
679.832	7847.03
680.181	7800.02
680.529	7766.58
680.877	7700.14
681.225	7804.54
681.573	7798.21
681.922	7709.18
682.27	7682.06
682.618	7668.05
682.966	7623.53
683.314	7682.28
683.661	7691.1
684.009	7615.17
684.357	7579.01
684.705	7546.24
685.053	7529.07
685.4	7556.41
685.748	7529.97
686.095	7521.61
686.443	7515.96
686.79	7505.57
687.138	7519.35
687.485	7486.81
687.832	7423.53
688.18	7464.21
688.527	7440.26
688.874	7463.76
689.221	7373.37
689.568	7374.72
689.915	7367.49
690.262	7333.14
690.609	7310.32
690.956	7259.24
691.303	7210.66
691.65	7265.12
691.997	7258.34
692.344	7176.08
692.69	7185.12
693.037	7153.71
693.383	7069.19
693.73	7084.33
694.077	7082.98
694.423	7076.88
694.769	7027.16
695.116	7020.15
695.462	6999.36
695.808	7001.85
696.155	7042.98
696.501	6896.54
696.847	6933.6
697.193	6843.66
697.539	6867.62
697.885	6826.49
698.231	6836.2
698.577	6847.05
698.923	6792.14
699.269	6715.76
699.614	6742.42
699.96	6671.24
700.306	6678.24
700.651	6687.96
700.997	6646.38
701.342	6607.74
701.688	6635.53
702.033	6591.47
702.379	6530.68
702.724	6559.38
703.069	6527.96
703.415	6503.33
703.76	6478.25
704.105	6424.92
704.45	6501.98
704.795	6432.37
705.14	6366.39
705.485	6375.43
705.83	6375.65
706.175	6330.91
706.52	6342.88
706.865	6317.35
707.209	6231.47
707.554	6312.83
707.899	6269.67
708.243	6239.16
708.588	6199.61
708.932	6247.52
709.277	6200.06
709.621	6184.92
709.966	6147.86
710.31	6190.35
710.654	6084.59
710.998	6093.17
711.342	6072.38
711.687	6081.2
712.031	6095.66
712.375	6045.26
712.719	6116.22
713.063	6047.75
713.407	6067.86
713.75	5996.9
714.094	5992.16
714.438	5993.97
714.782	5980.41
715.125	5968.88
715.469	5956.23
715.812	5962.78
716.156	5871.71
716.499	5895.89
716.843	5899.73
717.186	5918.26
717.53	5953.06
717.873	5888.88
718.216	5870.58
718.559	5853.41
718.902	5836.68
719.246	5835.55
719.589	5795.78
719.932	5733.63
720.275	5837.36
720.617	5822.22
720.96	5834.87
721.303	5856.12
721.646	5804.14
721.989	5762.79
722.331	5712.62
722.674	5757.81
723.016	5760.98
723.359	5674.43
723.701	5796.01
724.044	5727.08
724.386	5715.33
724.729	5729.57
725.071	5696.35
725.413	5716.01
725.755	5680.53
726.097	5744.26
726.439	5719.4
726.782	5688.66
727.124	5735.22
727.465	5659.96
727.807	5692.51
728.149	5638.04
728.491	5646.86
728.833	5661.55
729.175	5714.65
729.516	5662
729.858	5677.82
730.199	5671.94
730.541	5683.01
730.882	5624.03
731.224	5635.78
731.565	5664.48
731.906	5683.24
732.248	5619.29
732.589	5637.37
732.93	5642.11
733.271	5653.41
733.612	5639.17
733.953	5695.44
734.294	5606.18
734.635	5631.49
734.976	5631.26
735.317	5665.61
735.658	5670.36
735.999	5598.95
736.339	5615.45
736.68	5663.35
737.021	5642.11
737.361	5652.28
737.702	5673.3
738.042	5697.25
738.383	5639.63
738.723	5663.58
739.063	5692.51
739.404	5680.3
739.744	5708.55
740.084	5680.3
740.424	5675.78
740.764	5730.24
741.104	5699.29
741.444	5725.95
741.784	5706.74
742.124	5756.23
742.464	5774.76
742.804	5753.3
743.143	5778.38
743.483	5795.78
743.823	5810.47
744.162	5799.4
744.502	5839.62
744.841	5893.4
745.181	5926.17
745.52	5921.65
745.86	5947.41
746.199	5918.26
746.538	5937.7
746.877	5996.23
747.216	5990.12
747.556	6020.63
747.895	6123.23
748.234	6120.52
748.573	6201.87
748.911	6155.77
749.25	6239.84
749.589	6308.53
749.928	6317.12
750.267	6397.57
750.605	6450
750.944	6468.76
751.283	6480.06
751.621	6606.15
751.96	6595.08
752.298	6689.32
752.636	6729.09
752.975	6811.35
753.313	6881.4
753.651	6914.85
753.989	6993.49
754.327	7136.08
754.666	7154.61
755.004	7266.93
755.342	7330.43
755.679	7399.81
756.017	7564.09
756.355	7643.64
756.693	7728.61
757.031	7827.59
757.368	7836.18
757.706	7996.17
758.044	8043.63
758.381	8291.99
758.719	8335.37
759.056	8505.77
759.394	8586.21
759.731	8672.31
760.068	8802.03
760.405	8835.25
760.743	8990.05
761.08	9141
761.417	9204.73
761.754	9412.86
762.091	9477.94
762.428	9586.19
762.765	9658.96
763.102	9891.49
763.438	9950.25
763.775	10008.78
764.112	10174.42
764.449	10284.93
764.785	10358.6
765.122	10486.05
765.458	10623
765.795	10652.15
766.131	10818.47
766.467	10907.51
766.804	10977.79
767.14	11013.27
767.476	11145.7
767.812	11226.37
768.148	11249.42
768.485	11373.71
768.821	11483.77
769.157	11603.08
769.492	11640.6
769.828	11727.6
770.164	11734.15
770.5	11790.42
770.836	11874.26
771.171	12001.04
771.507	12061.6
771.842	12164.43
772.178	12205.78
772.513	12245.33
772.849	12272.22
773.184	12398.54
773.519	12440.12
773.855	12460.46
774.19	12516.96
774.525	12544.3
774.86	12551.99
775.195	12647.35
775.53	12697.29
775.865	12590.18
776.2	12637.63
776.535	12666.56
776.87	12742.04
777.205	12719.44
777.539	12754.47
777.874	12847.35
778.209	12805.31
778.543	12854.13
778.878	12815.48
779.212	12867.91
779.547	12829.49
779.881	12889.83
780.215	12870.85
780.55	12974.8
780.884	12852.54
781.218	12899.77
781.552	12917.17
781.886	12886.21
782.22	12848.25
782.554	12839.21
782.888	12847.8
783.222	12799.44
783.556	12742.49
783.889	12743.17
784.223	12749.5
784.557	12753.56
784.89	12833.79
785.224	12748.59
785.557	12720.57
785.891	12734.81
786.224	12632.66
786.558	12700.01
786.891	12625.88
787.224	12568.48
787.557	12575.26
787.891	12649.84
788.224	12573.91
788.557	12590.86
788.89	12612.32
789.223	12586.56
789.556	12544.3
789.888	12546.79
790.221	12499.56
790.554	12405.55
790.887	12382.5
791.219	12415.72
791.552	12399
791.884	12315.83
792.217	12294.59
792.549	12292.11
792.882	12206.23
793.214	12167.36
793.546	12205.1
793.879	12247.14
794.211	12119
794.543	12223.86
794.875	12180.02
795.207	12163.3
795.539	12130.75
795.871	12137.31
796.203	12078.33
796.535	11952.23
796.867	12029.51
797.198	11921.49
797.53	11949.29
797.862	11852.8
798.193	11953.36
798.525	11853.93
798.856	11811.44
799.188	11760.82
799.519	11661.16
799.85	11720.14
800.182	11673.59
800.513	11716.08
800.844	11573.26
801.175	11622.52
801.506	11651.22
801.837	11600.82
802.168	11514.05
802.499	11533.71
802.83	11451
803.161	11439.93
803.491	11475.4
803.822	11453.26
804.153	11370.77
804.483	11310.89
804.814	11292.58
805.145	11236.31
805.475	11249.2
805.805	11239.03
806.136	11249.65
806.466	11148.18
806.796	11174.62
807.126	11127.84
807.457	11109.31
807.787	11078.35
808.117	10971.91
808.447	11018.47
808.777	11062.08
809.107	10984.57
809.436	10997.68
809.766	10839.49
810.096	10919.71
810.426	10952.03
810.755	10890.56
811.085	10852.6
811.414	10917.68
811.744	10796.55
812.073	10762.88
812.403	10739.38
812.732	10697.35
813.061	10724.01
813.39	10731.24
813.719	10671.58
814.049	10706.39
814.378	10677.01
814.707	10654.64
815.036	10617.57
815.365	10546.16
815.693	10446.28
816.022	10499.16
816.351	10448.09
816.68	10414.19
817.008	10439.73
817.337	10414.42
817.665	10374.42
817.994	10408.31
818.322	10428.43
818.651	10320.63
818.979	10296.68
819.307	10350.24
819.636	10327.64
819.964	10213.29
820.292	10338.26
820.62	10235.21
820.948	10261.43
821.276	10265.49
821.604	10219.39
821.932	10250.8
822.259	10308.66
822.587	10245.83
822.915	10190.01
823.243	10220.75
823.57	10259.17
823.898	10166.96
824.225	10187.53
824.553	10156.8
824.88	10246.51
825.207	10248.09
825.535	10267.75
825.862	10218.49
826.189	10203.57
826.516	10244.25
826.843	10279.28
827.17	10288.32
827.497	10245.38
827.824	10217.81
828.151	10285.61
828.478	10222.1
828.805	10331.48
829.131	10239.05
829.458	10262.56
829.785	10190.24
830.111	10191.14
830.438	10297.36
830.764	10190.24
831.09	10202.22
831.417	10164.03
831.743	10190.24
832.069	10241.99
832.395	10159.73
832.722	10220.97
833.048	10227.98
833.374	10183.01
833.7	10164.25
834.026	10215.1
834.351	10162.22
834.677	10146.85
835.003	10209
835.329	10118.6
835.654	10167.19
835.98	10057.36
836.306	10171.03
836.631	10110.24
836.956	10154.54
837.282	10138.49
837.607	10056.23
837.932	10075.67
838.258	10026.18
838.583	10054.42
838.908	9960.42
839.233	10022.34
839.558	9994.54
839.883	9935.11
840.208	9853.3
840.533	9826.86
840.858	9919.06
841.182	9935.33
841.507	9854.2
841.832	9850.36
842.156	9844.49
842.481	9806.97
842.805	9869.12
843.13	9824.6
843.454	9758.84
843.778	9682.01
844.103	9693.76
844.427	9679.29
844.751	9705.28
845.075	9693.53
845.399	9675
845.723	9529.69
846.047	9605.62
846.371	9528.56
846.695	9489.69
847.019	9439.75
847.343	9411.28
847.666	9339.42
847.99	9337.38
848.313	9304.39
848.637	9315.69
848.96	9251.73
849.284	9249.47
849.607	9119.99
849.931	9168.8
850.254	9100.33
850.577	9029.59
850.9	9012.64
851.223	8944.17
851.546	8905.53
851.869	8865.53
852.192	8918.41
852.515	8834.34
852.838	8837.96
853.161	8838.86
853.483	8740.56
853.806	8695.14
854.129	8739.21
854.451	8657.17
854.774	8616.95
855.096	8586.21
855.419	8559.1
855.741	8540.11
856.063	8531.53
856.385	8494.01
856.708	8516.84
857.03	8509.38
857.352	8447.24
857.674	8422.38
857.996	8401.81
858.318	8342.61
858.64	8379.21
858.961	8332.66
859.283	8353.23
859.605	8256.28
859.926	8304.87
860.248	8257.41
860.57	8254.92
860.891	8190.07
861.212	8197.98
861.534	8142.84
861.855	8147.58
862.176	8178.09
862.498	8074.82
862.819	8142.16
863.14	8109.62
863.461	8108.26
863.782	8056.51
864.103	8074.36
864.424	8048.83
864.745	8064.87
865.065	8040.92
865.386	7947.59
865.707	8027.13
866.027	7980.81
866.348	7877.53
866.668	7916.63
866.989	7914.14
867.309	7896.74
867.63	7936.06
867.95	7924.31
868.27	7849.51
868.59	7895.39
868.91	7820.36
869.23	7819.91
869.55	7760.93
869.87	7816.74
870.19	7828.72
870.51	7790.53
870.83	7805.67
871.15	7735.84
871.469	7709.4
871.789	7802.05
872.109	7726.8
872.428	7675.73
872.748	7714.83
873.067	7669.4
873.386	7663.08
873.706	7609.52
874.025	7607.71
874.344	7594.6
874.663	7559.12
874.982	7575.17
875.301	7642.96
875.62	7562.74
875.939	7506.24
876.258	7533.59
876.577	7562.51
876.896	7529.29
877.214	7453.59
877.533	7502.4
877.852	7429.18
878.17	7471.67
878.489	7502.4
878.807	7461.05
879.125	7418.56
879.444	7457.21
879.762	7427.15
880.08	7424.44
880.398	7338.56
880.716	7449.75
881.034	7348.28
881.352	7369.07
881.67	7359.13
881.988	7331.33
882.306	7282.07
882.624	7256.76
882.941	7276.42
883.259	7253.59
883.577	7237.1
883.894	7210.66
884.212	7213.82
884.529	7155.52
884.846	7168.85
885.164	7132.02
885.481	7100.83
885.798	7165.24
886.115	7093.82
886.432	7105.35
886.75	7107.61
887.067	7048.85
887.383	7037.33
887.7	7083.2
888.017	7022.87
888.334	7026.48
888.651	7005.69
888.967	6931.12
889.284	6933.83
889.6	6872.81
889.917	6888.18
890.233	6855.86
890.55	6824
890.866	6864.23
891.182	6795.75
891.498	6788.3
891.815	6747.62
892.131	6748.3
892.447	6744.23
892.763	6729.77
893.079	6716.43
893.395	6715.76
893.71	6659.94
894.026	6654.97
894.342	6621.07
894.657	6669.2
894.973	6594.4
895.289	6565.7
895.604	6578.13
895.92	6555.76
896.235	6526.38
896.55	6517.34
896.865	6499.26
897.181	6446.16
897.496	6459.04
897.811	6411.13
898.126	6392.6
898.441	6359.15
898.756	6365.48
899.071	6320.29
899.386	6344.92
899.7	6278.48
900.015	6198.03
900.33	6196
900.644	6160.52
900.959	6260.17
901.273	6171.36
901.588	6109.9
901.902	6120.97
902.216	6057.47
902.531	6053.85
902.845	6044.36
903.159	6000.75
903.473	6028.54
903.787	5982.67
904.101	5935.89
904.415	5892.73
904.729	5934.31
905.042	5856.8
905.356	5856.57
905.67	5853.86
905.984	5828.1
906.297	5822.45
906.611	5789
906.924	5799.4
907.237	5742.9
907.551	5726.86
907.864	5640.3
908.177	5668.33
908.491	5706.97
908.804	5636.46
909.117	5614.32
909.43	5517.14
909.743	5575.22
910.056	5558.5
910.368	5544.26
910.681	5491.61
910.994	5457.26
911.307	5482.12
911.619	5388.78
911.932	5431.27
912.244	5430.82
912.557	5403.25
912.869	5395.34
913.181	5299.97
913.494	5312.63
913.806	5281.9
914.118	5248.68
914.43	5219.07
914.742	5237.38
915.054	5195.34
915.366	5191.73
915.678	5195.57
915.99	5175.68
916.302	5100.43
916.613	5103.37
916.925	5064.05
917.236	5066.08
917.548	5072.41
917.859	5080.54
918.171	4980.43
918.482	4972.3
918.794	4982.69
919.105	5023.82
919.416	4918.74
919.727	4891.85
920.038	4904.5
920.349	4902.24
920.66	4870.83
920.971	4870.15
921.282	4849.14
921.593	4799.65
921.903	4747.9
922.214	4777.5
922.525	4704.74
922.835	4720.55
923.146	4750.16
923.456	4680.1
923.767	4698.18
924.077	4619.54
924.387	4635.58
924.697	4600.33
925.008	4585.87
925.318	4534.34
925.628	4562.37
925.938	4530.05
926.248	4504.97
926.558	4489.83
926.867	4485.31
927.177	4481.92
927.487	4481.01
927.796	4392.2
928.106	4426.32
928.416	4402.37
928.725	4382.03
929.034	4354.01
929.344	4364.63
929.653	4331.41
929.962	4321.47
930.271	4273.11
930.581	4316.95
930.89	4260.68
931.199	4224.75
931.508	4219.78
931.817	4203.05
932.125	4185.65
932.434	4187.46
932.743	4136.16
933.051	4112.89
933.36	4117.63
933.669	4131.42
933.977	4105.2
934.286	4102.27
934.594	4061.36
934.902	4039.67
935.21	3982.72
935.519	4019.1
935.827	4017.07
936.135	3963.51
936.443	3997.18
936.751	3946.11
937.059	3931.87
937.367	3905.43
937.674	3904.3
937.982	3933.46
938.29	3862.95
938.597	3838.77
938.905	3855.49
939.213	3845.1
939.52	3791.54
939.827	3791.99
940.135	3747.92
940.442	3763.74
940.749	3712.44
941.056	3773.91
941.363	3726.91
941.67	3715.61
941.977	3662.05
942.284	3651.2
942.591	3667.7
942.898	3638.1
943.205	3615.5
943.511	3647.36
943.818	3590.41
944.125	3599.45
944.431	3535.5
944.738	3590.19
945.044	3554.26
945.35	3477.87
945.657	3530.53
945.963	3453.69
946.269	3459.12
946.575	3486.69
946.881	3452.11
947.187	3465.9
947.493	3377.09
947.799	3380.02
948.105	3414.83
948.41	3400.59
948.716	3392.23
949.022	3342.51
949.327	3371.21
949.633	3287.15
949.938	3283.98
950.244	3290.76
950.549	3260.71
950.854	3246.69
951.16	3226.81
951.465	3272
951.77	3220.71
952.075	3242.17
952.38	3188.16
952.685	3158.56
952.99	3164.44
953.294	3127.6
953.599	3142.74
953.904	3086.47
954.209	3123.76
954.513	3111.56
954.818	3062.97
955.122	3068.85
955.426	3053.93
955.731	3041.73
956.035	3028.62
956.339	3018
956.643	2983.65
956.948	3010.54
957.252	2990.88
957.556	2980.03
957.86	2914.95
958.163	3010.54
958.467	2980.49
958.771	2925.12
959.075	2887.38
959.378	2917.66
959.682	2888.96
959.985	2892.58
960.289	2880.38
960.592	2881.05
960.896	2841.73
961.199	2851.45
961.502	2794.95
961.805	2780.27
962.108	2828.63
962.411	2797.67
962.714	2767.38
963.017	2753.15
963.32	2771.23
963.623	2716.31
963.926	2761.06
964.228	2707.27
964.531	2701.62
964.833	2684.45
965.136	2688.74
965.438	2686.71
965.741	2621.17
966.043	2660.27
966.345	2626.82
966.648	2671.79
966.95	2628.41
967.252	2615.3
967.554	2624.79
967.856	2635.41
968.158	2588.18
968.46	2576.66
968.761	2536.2
969.063	2561.29
969.365	2562.42
969.666	2514.28
969.968	2523.55
970.269	2547.73
970.571	2519.03
970.872	2460.27
971.174	2471.57
971.475	2444.46
971.776	2438.81
972.077	2458.24
972.378	2454.62
972.679	2439.71
972.98	2400.16
973.281	2391.35
973.582	2411.46
973.883	2381.63
974.183	2380.05
974.484	2351.8
974.785	2335.31
975.085	2340.05
975.386	2348.64
975.686	2320.16
975.986	2325.14
976.287	2335.98
976.587	2274.06
976.887	2296.66
977.187	2274.06
977.487	2267.51
977.787	2270.9
978.087	2261.18
978.387	2222.54
978.687	2250.11
978.987	2212.15
979.286	2212.37
979.586	2155.65
979.885	2181.19
980.185	2194.97
980.484	2172.6
980.784	2173.95
981.083	2148.64
981.382	2148.87
981.682	2133.05
981.981	2110.23
982.28	2100.96
982.579	2090.79
982.878	2084.92
983.177	2070.45
983.475	2088.98
983.774	2057.35
984.073	2074.3
984.372	2044.24
984.67	2057.57
984.969	2053.51
985.267	2044.24
985.566	2018.7
985.864	2001.08
986.162	2012.15
986.461	1983.9
986.759	1988.42
987.057	1981.64
987.355	1962.89
987.653	1963.11
987.951	1937.8
988.249	1952.27
988.547	1971.47
988.844	1913.62
989.142	1921.08
989.44	1941.19
989.737	1900.29
990.035	1943
990.332	1885.15
990.63	1877.69
990.927	1876.56
991.224	1870.01
991.521	1851.7
991.819	1826.39
992.116	1837.69
992.413	1839.5
992.71	1817.81
993.006	1820.97
993.303	1816
993.6	1814.42
993.897	1797.69
994.193	1783.91
994.49	1747.3
994.787	1754.76
995.083	1764.7
995.379	1727.64
995.676	1725.15
995.972	1765.38
996.268	1726.73
996.565	1696.45
996.861	1709.79
997.157	1698.49
997.453	1690.35
997.749	1711.37
998.044	1658.49
998.34	1668.2
998.636	1680.18
998.932	1632.5
999.227	1631.14
999.523	1626.62
999.818	1641.09
1000.114	1630.92
1000.409	1601.09
1000.704	1606.74
1001	1586.17
1001.295	1580.52
1001.59	1603.8
1001.885	1573.52
1002.18	1573.52
1002.475	1559.06
1002.77	1592.73
1003.065	1521.99
1003.359	1511.82
1003.654	1527.87
1003.949	1533.29
1004.243	1503.46
1004.538	1503.92
1004.832	1476.12
1005.127	1458.49
1005.421	1475.89
1005.715	1482.45
1006.009	1450.58
1006.304	1463.01
1006.598	1448.78
1006.892	1434.76
1007.186	1431.83
1007.48	1439.96
1007.773	1413.97
1008.067	1413.07
1008.361	1399.29
1008.655	1398.61
1008.948	1390.25
1009.242	1408.55
1009.535	1356.35
1009.829	1379.62
1010.122	1360.19
1010.415	1353.64
1010.708	1361.09
1011.001	1338.72
1011.295	1305.95
1011.588	1333.98
1011.881	1348.21
1012.173	1290.36
1012.466	1310.47
1012.759	1292.4
1013.052	1289.68
1013.344	1281.32
1013.637	1307.08
1013.93	1269.8
1014.222	1284.03
1014.514	1254.43
1014.807	1275.9
1015.099	1231.15
1015.391	1217.82
1015.683	1229.12
1015.976	1220.98
1016.268	1196.58
1016.56	1199.06
1016.851	1215.79
1017.143	1190.48
1017.435	1182.12
1017.727	1189.35
1018.018	1152.96
1018.31	1190.03
1018.602	1141.89
1018.893	1141.21
1019.185	1157.26
1019.476	1142.34
1019.767	1128.33
1020.058	1117.94
1020.35	1124.49
1020.641	1103.7
1020.932	1083.59
1021.223	1096.24
1021.514	1107.77
1021.804	1109.58
1022.095	1101.21
1022.386	1096.69
1022.677	1080.65
1022.967	1037.49
1023.258	1048.79
1023.548	1053.31
1023.839	1029.8
1024.129	1027.54
1024.419	1056.24
1024.709	1047.43
1025	1029.13
1025.29	988
1025.58	997.26
1025.87	988.45
1026.16	978.73
1026.449	1001.1
1026.739	1006.3
1027.029	979.18
1027.319	958.62
1027.608	947.09
1027.898	992.97
1028.187	942.12
1028.477	938.73
1028.766	943.03
1029.055	940.99
1029.344	914.78
1029.634	942.35
1029.923	919.07
1030.212	927.43
1030.501	912.52
1030.79	901.45
1031.078	889.92
1031.367	894.21
1031.656	872.75
1031.945	885.4
1032.233	898.06
1032.522	869.81
1032.81	859.86
1033.099	870.71
1033.387	867.77
1033.675	860.09
1033.963	884.95
1034.251	858.96
1034.54	857.15
1034.828	825.97
1035.116	843.14
1035.403	818.28
1035.691	823.93
1035.979	830.94
1036.267	822.8
1036.554	840.2
1036.842	805.4
1037.129	800.88
1037.417	822.13
1037.704	782.13
1037.992	810.15
1038.279	753.88
1038.566	770.38
1038.853	770.38
1039.14	770.38
