Data from hue_170_FLMS001491_00067.txt Node
Date: Tue Feb 07 16:49:02 GMT 2017
User: dcchb
Spectrometer: FLMS00149
Trigger mode: 0
Integration Time (sec): 2.000000E-2
Scans to average: 10
Electric dark correction enabled: true
Nonlinearity correction enabled: false
Boxcar width: 0
XAxis mode: Wavelengths
Number of Pixels in Spectrum: 2048
>>>>>Begin Spectral Data<<<<<
341.393	-15.14
341.776	-15.14
342.16	-15.14
342.543	-63.05
342.927	-69.15
343.31	-64.86
343.693	-75.25
344.077	-78.42
344.46	-57.4
344.843	-56.72
345.226	-34.58
345.61	-23.28
345.993	-7.46
346.376	-10.85
346.759	11.98
347.142	18.98
347.525	46.55
347.908	51.3
348.291	73.22
348.674	102.14
349.057	104.63
349.44	121.13
349.823	142.14
350.206	145.53
350.588	196.38
350.971	200.45
351.354	214.91
351.737	233.89
352.119	253.33
352.502	252.2
352.884	272.99
353.267	284.51
353.65	297.62
354.032	296.49
354.414	310.73
354.797	327.68
355.179	320.22
355.562	330.39
355.944	321.57
356.326	346.88
356.709	339.65
357.091	341.91
357.473	326.09
357.855	345.98
358.238	344.4
358.62	341.69
359.002	343.49
359.384	346.43
359.766	336.71
360.148	335.13
360.53	346.43
360.912	321.35
361.294	317.28
361.676	336.49
362.057	334.91
362.439	339.2
362.821	336.94
363.203	312.76
363.584	306.88
363.966	324.51
364.348	319.09
364.729	311.18
365.111	320.44
365.493	317.51
365.874	317.96
366.256	317.05
366.637	315.92
367.019	316.83
367.4	314.57
367.781	313.66
368.163	298.07
368.544	315.02
368.925	324.74
369.306	319.77
369.688	329.93
370.069	319.31
370.45	318.86
370.831	295.59
371.212	326.09
371.593	315.25
371.974	322.7
372.355	316.83
372.736	315.25
373.117	329.48
373.498	318.41
373.879	317.73
374.26	309.37
374.641	317.73
375.021	326.32
375.402	329.48
375.783	343.49
376.163	315.25
376.544	332.65
376.925	342.82
377.305	326.77
377.686	315.25
378.066	328.8
378.447	336.94
378.827	342.82
379.208	348.24
379.588	313.44
379.968	354.11
380.349	328.35
380.729	351.18
381.109	354.57
381.489	345.98
381.87	355.24
382.25	342.14
382.63	363.83
383.01	342.59
383.39	341.01
383.77	329.03
384.15	341.01
384.53	347.56
384.91	350.05
385.29	359.76
385.67	367
386.049	373.78
386.429	356.83
386.809	370.16
387.189	386.66
387.568	369.93
387.948	353.21
388.328	364.96
388.707	376.26
389.087	371.52
389.466	370.39
389.846	372.65
390.225	347.79
390.605	362.48
390.984	388.69
391.363	382.14
391.743	388.24
392.122	384.4
392.501	394.11
392.881	377.39
393.26	381.91
393.639	376.94
394.018	395.24
394.397	404.51
394.776	382.36
395.155	391.63
395.534	404.96
395.913	388.92
396.292	390.95
396.671	418.29
397.05	401.12
397.429	412.64
397.808	419.65
398.186	408.8
398.565	397.28
398.944	395.92
399.323	389.59
399.701	392.98
400.08	426.43
400.458	412.19
400.837	436.15
401.215	412.42
401.594	424.85
401.972	420.1
402.351	409.03
402.729	414.68
403.107	425.07
403.486	423.27
403.864	429.59
404.242	432.53
404.62	438.86
404.999	456.03
405.377	457.16
405.755	453.1
406.133	440.44
406.511	462.13
406.889	477.05
407.267	458.29
407.645	459.2
408.023	477.28
408.401	462.81
408.779	490.16
409.156	495.35
409.534	478.41
409.912	466.65
410.29	494.9
410.667	473.66
411.045	494.9
411.422	507.33
411.8	515.24
412.178	517.27
412.555	517.05
412.933	550.49
413.31	573.54
413.687	550.04
414.065	573.09
414.442	539.65
414.819	574.22
415.197	573.32
415.574	578.06
415.951	590.27
416.328	585.3
416.705	581.91
417.082	579.42
417.46	611.74
417.837	586.2
418.214	599.08
418.591	634.33
418.967	619.64
419.344	621.9
419.721	621.9
420.098	624.84
420.475	635.46
420.852	638.63
421.228	638.85
421.605	660.77
421.982	657.38
422.358	685.86
422.735	651.96
423.111	681.11
423.488	688.8
423.864	717.04
424.241	725.86
424.617	702.35
424.994	716.82
425.37	743.26
425.746	735.35
426.123	722.24
426.499	763.37
426.875	780.77
427.251	760.88
427.627	763.82
428.003	777.83
428.379	776.02
428.756	783.48
429.132	791.17
429.507	828.68
429.883	834.1
430.259	836.59
430.635	850.37
431.011	847.44
431.387	840.2
431.763	861.9
432.138	874.78
432.514	879.3
432.89	867.55
433.265	904.83
433.641	919.75
434.016	928.56
434.392	978.73
434.767	962.23
435.143	958.17
435.518	991.61
435.894	985.96
436.269	993.87
436.644	1006.08
437.02	1048.11
437.395	1026.87
437.77	1048.56
438.145	1061.89
438.52	1063.02
438.895	1126.98
439.271	1083.81
439.646	1109.35
440.021	1128.11
440.395	1129.46
440.77	1128.11
441.145	1160.65
441.52	1154.32
441.895	1190.03
442.27	1171.72
442.645	1176.01
443.019	1165.39
443.394	1208.1
443.769	1206.75
444.143	1226.63
444.518	1232.28
444.892	1253.07
445.267	1259.18
445.641	1304.6
446.016	1277.48
446.39	1269.12
446.764	1294.2
447.139	1294.88
447.513	1299.4
447.887	1308.44
448.262	1313.41
448.636	1328.55
449.01	1347.76
449.384	1374.65
449.758	1394.54
450.132	1382.79
450.506	1399.29
450.88	1410.36
451.254	1430.47
451.628	1444.93
452.002	1467.31
452.376	1444.48
452.75	1440.87
453.123	1464.82
453.497	1530.13
453.871	1511.6
454.244	1564.48
454.618	1581.2
454.992	1566.74
455.365	1564.7
455.739	1594.76
456.112	1620.75
456.486	1672.05
456.859	1673.63
457.232	1686.06
457.606	1713.85
457.979	1713.63
458.352	1725.15
458.725	1765.38
459.099	1765.6
459.472	1839.5
459.845	1856.45
460.218	1869.1
460.591	1878.59
460.964	1859.61
461.337	1959.72
461.71	1987.74
462.083	2004.47
462.456	2014.41
462.829	2046.27
463.201	2081.08
463.574	2067.74
463.947	2124.46
464.32	2150.9
464.692	2158.14
465.065	2233.16
465.438	2235.87
465.81	2262.09
466.183	2328.53
466.555	2339.83
466.928	2374.4
467.3	2419.6
467.672	2423.21
468.045	2487.17
468.417	2540.72
468.789	2525.13
469.161	2600.84
469.534	2662.98
469.906	2728.52
470.278	2717.67
470.65	2752.7
471.022	2838.34
471.394	2877.21
471.766	2912.24
472.138	2951.56
472.51	3021.39
472.882	3069.52
473.253	3180.03
473.625	3200.14
473.997	3286.47
474.369	3354.26
474.74	3388.16
475.112	3451.66
475.484	3530.75
475.855	3602.62
476.227	3688.04
476.598	3797.64
476.97	3818.2
477.341	3907.69
477.713	3997.18
478.084	4113.56
478.455	4158.53
478.827	4252.54
479.198	4371.64
479.569	4434.46
479.94	4582.7
480.311	4619.54
480.682	4765.3
481.053	4903.6
481.424	5045.29
481.795	5070.15
482.166	5175.23
482.537	5344.49
482.908	5481.21
483.279	5554.66
483.65	5637.37
484.021	5846.17
484.391	5953.97
484.762	6007.07
485.133	6171.82
485.503	6207.52
485.874	6438.25
486.244	6502.43
486.615	6685.25
486.985	6735.87
487.356	6932.02
487.726	7032.58
488.097	7169.98
488.467	7273.03
488.837	7463.53
489.207	7611.33
489.578	7750.98
489.948	7882.73
490.318	8019
490.688	8114.36
491.058	8296.73
491.428	8400.68
491.798	8580.34
492.168	8731.97
492.538	8825.53
492.908	8982.59
493.278	9102.59
493.648	9112.75
494.017	9329.25
494.387	9393.65
494.757	9492.86
495.126	9594.78
495.496	9671.16
495.866	9765.17
496.235	9893.98
496.605	10104.14
496.974	10136.68
497.344	10270.92
497.713	10345.04
498.082	10414.64
498.452	10553.62
498.821	10615.09
499.19	10696.44
499.559	10813.27
499.928	10934.63
500.298	10924.68
500.667	11061.63
501.036	11108.63
501.405	11256.43
501.774	11206.94
502.143	11376.2
502.512	11367.61
502.88	11551.11
503.249	11526.48
503.618	11600.37
503.987	11672.01
504.356	11762.18
504.724	11765.34
505.093	11855.28
505.462	11886.47
505.83	11896.86
506.199	12045.11
506.567	12214.82
506.936	12184.09
507.304	12325.1
507.672	12345.44
508.041	12422.05
508.409	12524.64
508.777	12589.95
509.145	12640.35
509.514	12593.79
509.882	12668.14
510.25	12661.59
510.618	12707.24
510.986	12747.69
511.354	12849.38
511.722	13009.6
512.09	13056.38
512.458	12998.53
512.826	13048.47
513.193	13172.08
513.561	13187.68
513.929	13219.31
514.297	13318.75
514.664	13379.99
515.032	13355.13
515.4	13434.22
515.767	13476.48
516.135	13489.36
516.502	13403.04
516.869	13615.69
517.237	13541.11
517.604	13466.54
517.972	13697.94
518.339	13700.66
518.706	13643.26
519.073	13711.5
519.44	13739.75
519.808	13871.95
520.175	13656.36
520.542	13857.49
520.909	13903.59
521.276	13946.07
521.643	13995.11
522.009	13989.01
522.376	13986.07
522.743	14076.47
523.11	14205.28
523.477	14172.73
523.843	14226.97
524.21	14418.38
524.577	14385.38
524.943	14379.51
525.31	14365.27
525.676	14479.17
526.043	14463.57
526.409	14549
526.776	14551.26
527.142	14514.65
527.508	14565.04
527.874	14603.23
528.241	14588.77
528.607	14543.35
528.973	14706.28
529.339	14573.4
529.705	14680.74
530.071	14642.55
530.437	14676.22
530.803	14659.73
531.169	14736.34
531.535	14595.55
531.901	14662.89
532.267	14592.16
532.632	14733.17
532.998	14658.15
533.364	14652.72
533.73	14583.12
534.095	14655.21
534.461	14626.96
534.826	14605.72
535.192	14590.58
535.557	14613.4
535.923	14590.58
536.288	14524.59
536.653	14605.94
537.019	14414.31
537.384	14487.08
537.749	14432.84
538.114	14439.17
538.479	14492.27
538.845	14383.35
539.21	14312.39
539.575	14320.53
539.94	14316.23
540.305	14300.41
540.67	14234.65
541.034	14287.53
541.399	14239.4
541.764	14195.56
542.129	14118.5
542.494	14148.1
542.858	14091.61
543.223	14035.11
543.587	14024.72
543.952	13913.31
544.316	13859.75
544.681	13911.95
545.045	13865.17
545.41	13829.01
545.774	13760.32
546.138	13753.54
546.503	13772.29
546.867	13716.7
547.231	13758.73
547.595	13702.01
547.959	13667.89
548.324	13585.18
548.688	13516.71
549.052	13644.39
549.416	13517.16
549.779	13455.47
550.143	13454.79
550.507	13400.1
550.871	13328.24
551.235	13307.67
551.599	13326.88
551.962	13328.46
552.326	13217.51
552.689	13293.21
553.053	13176.6
553.417	13141.58
553.78	13168.47
554.143	13069.26
554.507	13121.46
554.87	13100.22
555.234	13154.91
555.597	13067.68
555.96	13013.22
556.323	13098.19
556.686	13032.65
557.05	13032.65
557.413	13050.05
557.776	13018.41
558.139	13029.71
558.502	13008.25
558.865	13017.96
559.228	12984.52
559.59	13023.61
559.953	12960.56
560.316	13060.45
560.679	12948.81
561.041	12945.87
561.404	13043.05
561.767	13028.58
562.129	12976.83
562.492	13036.49
562.854	13045.76
563.217	12982.26
563.579	12948.59
563.941	12907.23
564.304	13016.15
564.666	13064.06
565.028	13018.19
565.39	13060.45
565.753	13064.06
566.115	12997.62
566.477	13096.15
566.839	13087.79
567.201	13061.58
567.563	13098.64
567.925	13127.11
568.287	13112.2
568.648	13053.22
569.01	13100.22
569.372	13238.07
569.734	13098.86
570.095	13195.13
570.457	13213.21
570.819	13252.31
571.18	13144.74
571.542	13248.92
571.903	13203.72
572.265	13179.09
572.626	13249.37
572.987	13302.7
573.349	13286.66
573.71	13263.61
574.071	13248.92
574.432	13271.74
574.794	13285.53
575.155	13346.09
575.516	13218.64
575.877	13264.96
576.238	13326.43
576.599	13409.82
576.96	13313.1
577.32	13263.38
577.681	13399.65
578.042	13323.27
578.403	13273.1
578.763	13339.76
579.124	13319.88
579.485	13391.96
579.845	13441.91
580.206	13407.78
580.566	13449.82
580.927	13365.3
581.287	13380.21
581.648	13258.41
582.008	13406.88
582.368	13331.85
582.728	13364.62
583.089	13354.9
583.449	13261.12
583.809	13321.23
584.169	13306.32
584.529	13186.77
584.889	13356.48
585.249	13224.96
585.609	13172.99
585.969	13274.68
586.329	13230.39
586.688	13281.46
587.048	13274.23
587.408	13221.12
587.768	13202.59
588.127	13227.67
588.487	13146.1
588.846	13283.72
589.206	13145.64
589.565	13117.4
589.925	13179.09
590.284	13144.74
590.643	13034.01
591.003	13219.77
591.362	13198.3
591.721	13119.43
592.08	13098.41
592.44	13109.26
592.799	13107.68
593.158	13065.19
593.517	13021.13
593.876	13137.96
594.235	13057.96
594.593	13029.04
594.952	13098.19
595.311	13002.14
595.67	12975.03
596.029	13060.22
596.387	13002.82
596.746	13009.83
597.104	13029.71
597.463	12989.94
597.822	13050.96
598.18	12959.89
598.538	12890.96
598.897	13057.96
599.255	12910.39
599.613	13077.4
599.972	12972.31
600.33	13015.48
600.688	12880.34
601.046	12983.16
601.404	13019.54
601.762	12955.37
602.12	13028.13
602.478	13001.69
602.836	12972.09
603.194	12874.69
603.552	12903.62
603.91	12963.05
604.268	13023.84
604.625	12938.19
604.983	12916.27
605.341	12838.08
605.698	13008.25
606.056	12998.53
606.413	12946.33
606.771	12902.71
607.128	13023.39
607.485	12932.09
607.843	12894.58
608.2	12956.04
608.557	12998.75
608.914	13011.86
609.272	13006.89
609.629	13038.08
609.986	13098.86
610.343	12989.49
610.7	13153.78
611.057	13050.05
611.414	13034.46
611.771	13150.16
612.127	13118.98
612.484	13168.92
612.841	13121.01
613.198	13059.77
613.554	13168.24
613.911	13236.04
614.267	13153.1
614.624	13154.91
614.98	13184.51
615.337	13228.13
615.693	13184.96
616.05	13212.08
616.406	13303.15
616.762	13185.64
617.118	13307.67
617.475	13160.11
617.831	13301.8
618.187	13279.2
618.543	13259.09
618.899	13341.8
619.255	13316.26
619.611	13291.18
619.967	13292.31
620.323	13406.65
620.678	13332.08
621.034	13280.78
621.39	13260.22
621.746	13290.5
622.101	13420.66
622.457	13321.23
622.812	13366.65
623.168	13334.56
623.523	13337.5
623.879	13357.61
624.234	13283.94
624.589	13308.12
624.945	13337.95
625.3	13244.4
625.655	13372.98
626.01	13354
626.365	13377.95
626.72	13363.72
627.075	13319.2
627.43	13222.03
627.785	13344.28
628.14	13276.26
628.495	13279.65
628.85	13309.03
629.205	13236.04
629.559	13200.78
629.914	13268.35
630.269	13336.37
630.623	13177.51
630.978	13142.71
631.332	13236.49
631.687	13212.99
632.041	13190.39
632.396	13137.96
632.75	13107
633.104	13145.42
633.459	13089.37
633.813	13117.4
634.167	13084.4
634.521	13041.92
634.875	13048.02
635.229	13038.53
635.583	12961.24
635.937	12990.17
636.291	13005.31
636.645	13051.63
636.999	12910.17
637.352	13019.77
637.706	12903.39
638.06	12922.37
638.413	12887.34
638.767	12826.1
639.121	12900.23
639.474	12786.56
639.828	12738.65
640.181	12822.94
640.534	12860.68
640.888	12711.08
641.241	12657.29
641.594	12818.42
641.947	12762.83
642.301	12789.49
642.654	12799.21
643.007	12748.59
643.36	12667.69
643.713	12701.81
644.066	12735.48
644.419	12724.86
644.771	12655.26
645.124	12446.9
645.477	12494.36
645.83	12431.09
646.182	12298.66
646.535	12354.25
646.888	12250.75
647.24	12211.88
647.593	12292.56
647.945	12177.08
648.298	12245.78
648.65	12182.05
649.002	12172.79
649.355	12292.11
649.707	12206.68
650.059	12270.41
650.411	12455.27
650.763	12472.44
651.115	12576.39
651.467	12520.8
651.819	12569.84
652.171	12560.12
652.523	12504.76
652.875	12466.56
653.227	12529.16
653.578	12607.8
653.93	12554.47
654.282	12548.14
654.633	12474.47
654.985	12462.27
655.337	12541.14
655.688	12657.52
656.039	12569.84
656.391	12403.74
656.742	12444.42
657.094	12505.43
657.445	12561.48
657.796	12558.99
658.147	12463.63
658.498	12482.61
658.849	12550.86
659.2	12528.71
659.551	12480.12
659.902	12501.14
660.253	12562.83
660.604	12524.87
660.955	12475.15
661.306	12497.52
661.656	12528.94
662.007	12494.81
662.358	12493
662.708	12523.74
663.059	12574.58
663.409	12503.85
663.76	12527.81
664.11	12641.7
664.461	12577.75
664.811	12594.92
665.161	12614.13
665.511	12622.49
665.862	12572.32
666.212	12619.33
666.562	12610.06
666.912	12632.21
667.262	12561.03
667.612	12643.96
667.962	12620.69
668.312	12591.53
668.662	12677.63
669.011	12613.45
669.361	12619.56
669.711	12539.78
670.06	12605.54
670.41	12521.25
670.76	12586.34
671.109	12597.86
671.459	12546.79
671.808	12480.12
672.157	12565.09
672.507	12432.67
672.856	12509.28
673.205	12468.6
673.554	12570.29
673.904	12553.34
674.253	12487.81
674.602	12392.89
674.951	12261.15
675.3	12244.88
675.649	12403.29
675.998	12379.34
676.346	12411.88
676.695	12377.75
677.044	12329.39
677.393	12346.57
677.741	12370.3
678.09	12373.01
678.438	12303.63
678.787	12387.7
679.135	12251.88
679.484	12186.57
679.832	12250.98
680.181	12158.78
680.529	12228.38
680.877	12120.81
681.225	12154.26
681.573	12260.47
681.922	12139.34
682.27	12158.78
682.618	12090.53
682.966	12013.24
683.314	12083.52
683.661	12024.54
684.009	11938.22
684.357	11908.84
684.705	11894.83
685.053	11921.49
685.4	11833.36
685.748	11808.05
686.095	11809.63
686.443	11770.99
686.79	11769.41
687.138	11848.95
687.485	11764.66
687.832	11772.57
688.18	11728.51
688.527	11577.77
688.874	11576.87
689.221	11640.6
689.568	11574.16
689.915	11532.58
690.262	11538
690.609	11415.52
690.956	11405.8
691.303	11404.67
691.65	11369.87
691.997	11309.99
692.344	11263.66
692.69	11160.61
693.037	11264.11
693.383	11082.42
693.73	11127.84
694.077	11078.8
694.423	11019.82
694.769	11060.27
695.116	10982.08
695.462	10928.3
695.808	10936.21
696.155	10866.61
696.501	10902.54
696.847	10824.57
697.193	10797.23
697.539	10789.55
697.885	10733.5
698.231	10659.83
698.577	10624.35
698.923	10636.78
699.269	10536.9
699.614	10493.96
699.96	10460.52
700.306	10419.84
700.651	10382.55
700.997	10368.31
701.342	10338.71
701.688	10312.72
702.033	10227.53
702.379	10171.48
702.724	10233.18
703.069	10204.48
703.415	10077.48
703.76	10052.17
704.105	10117.02
704.45	10020.75
704.795	9993.41
705.14	9931.26
705.485	10007.42
705.83	9878.38
706.175	9885.84
706.52	9852.62
706.865	9844.94
707.209	9769.23
707.554	9751.38
707.899	9764.94
708.243	9729.46
708.588	9709.8
708.932	9533.76
709.277	9527.89
709.621	9634.1
709.966	9524.04
710.31	9561.1
710.654	9458.96
710.998	9407.44
711.342	9482.24
711.687	9398.17
712.031	9376.48
712.375	9291.73
712.719	9400.2
713.063	9329.92
713.407	9364.73
713.75	9310.94
714.094	9314.56
714.438	9253.77
714.782	9225.29
715.125	9178.29
715.469	9181.45
715.812	9184.17
716.156	9086.99
716.499	9117.95
716.843	9135.8
717.186	9088.57
717.53	9117.95
717.873	9118.86
718.216	9075.92
718.559	9038.63
718.902	9003.61
719.246	9003.61
719.589	9004.06
719.932	8941.69
720.275	9007.22
720.617	8966.32
720.96	8915.47
721.303	8978.75
721.646	8924.29
721.989	8981.91
722.331	8924.06
722.674	8888.81
723.016	8918.41
723.359	8863.27
723.701	8884.51
724.044	8797.51
724.386	8831.63
724.729	8852.2
725.071	8875.92
725.413	8828.24
725.755	8875.02
726.097	8793.44
726.439	8778.75
726.782	8779.2
727.124	8821.46
727.465	8710.51
727.807	8727.23
728.149	8760
728.491	8738.98
728.833	8686.1
729.175	8650.85
729.516	8721.8
729.858	8721.35
730.199	8765.42
730.541	8738.3
730.882	8723.84
731.224	8703.05
731.565	8670.96
731.906	8712.31
732.248	8655.14
732.589	8679.09
732.93	8647
733.271	8724.29
733.612	8759.09
733.953	8731.52
734.294	8684.74
734.635	8718.19
734.976	8770.16
735.317	8726.78
735.658	8672.09
735.999	8747.57
736.339	8688.81
736.68	8845.87
737.021	8688.36
737.361	8811.75
737.702	8756.83
738.042	8738.75
738.383	8760
738.723	8797.73
739.063	8797.73
739.404	8773.1
739.744	8791.41
740.084	8720.45
740.424	8864.4
740.764	8805.42
741.104	8857.39
741.444	8841.58
741.784	8810.62
742.124	8772.65
742.464	8838.64
742.804	8874.57
743.143	8876.38
743.483	8924.74
743.823	8935.13
744.162	8909.6
744.502	8995.7
744.841	9016.03
745.181	9110.49
745.52	9085.86
745.86	9148.23
746.199	9174
746.538	9200.66
746.877	9245.18
747.216	9335.57
747.556	9358.17
747.895	9448.57
748.234	9418.28
748.573	9502.35
748.911	9561.78
749.25	9630.03
749.589	9611.05
749.928	9743.02
750.267	9825.28
750.605	9876.35
750.944	9887.2
751.283	9971.49
751.621	10120.86
751.96	10112.95
752.298	10193.86
752.636	10373.06
752.975	10421.42
753.313	10517.24
753.651	10641.98
753.989	10624.58
754.327	10826.83
754.666	10941.18
755.004	11105.7
755.342	11255.98
755.679	11301.17
756.017	11377.55
756.355	11549.53
756.693	11700.48
757.031	11863.64
757.368	11962.85
757.706	12152.67
758.044	12253.46
758.381	12394.93
758.719	12567.35
759.056	12782.71
759.394	12943.84
759.731	12902.94
760.068	13208.47
760.405	13279.2
760.743	13446.43
761.08	13631.51
761.417	13791.28
761.754	13954.66
762.091	14055.45
762.428	14218.38
762.765	14447.08
763.102	14622.89
763.438	14787.86
763.775	14789.22
764.112	15057.23
764.449	15320.73
764.785	15384
765.122	15501.51
765.458	15560.27
765.795	15819.02
766.131	16006.36
766.467	16082.51
766.804	16271.21
767.14	16287.93
767.476	16425.1
767.812	16590.52
768.148	16668.49
768.485	16791.65
768.821	16854.47
769.157	17038.65
769.492	17178.98
769.828	17381.01
770.164	17318.41
770.5	17526.32
770.836	17588.01
771.171	17686.09
771.507	17772.41
771.842	17736.26
772.178	17978.96
772.513	18039.98
772.849	17989.36
773.184	18111.16
773.519	18336.47
773.855	18263.47
774.19	18357.94
774.525	18463.47
774.86	18577.36
775.195	18558.61
775.53	18643.8
775.865	18573.3
776.2	18559.74
776.535	18594.09
776.87	18691.26
777.205	18685.38
777.539	18727.42
777.874	18890.8
778.209	18742.33
778.543	18857.36
778.878	18806.29
779.212	18882.44
779.547	18845.83
779.881	19001.76
780.215	18862.55
780.55	19016
780.884	18920.41
781.218	18985.72
781.552	18978.26
781.886	18992.72
782.22	18998.82
782.554	18975.55
782.888	18881.99
783.222	18753.18
783.556	18927.86
783.889	18812.39
784.223	18764.03
784.557	18829.56
784.89	18853.97
785.224	18726.29
785.557	18733.29
785.891	18780.52
786.224	18787.53
786.558	18904.59
786.891	18580.3
787.224	18637.7
787.557	18555.67
787.891	18620.08
788.224	18643.8
788.557	18597.48
788.89	18585.27
789.223	18589.12
789.556	18537.59
789.888	18486.07
790.221	18384.38
790.554	18331.72
790.887	18426.63
791.219	18341.44
791.552	18302.12
791.884	18256.24
792.217	18206.75
792.549	18256.7
792.882	18086.53
793.214	18073.2
793.546	18178.05
793.879	18089.69
794.211	17973.54
794.543	18012.18
794.875	18007.44
795.207	18041.79
795.539	17930.38
795.871	17938.96
796.203	17766.99
796.535	17676.15
796.867	17708.46
797.198	17666.43
797.53	17703.72
797.862	17580.1
798.193	17557.96
798.525	17459.65
798.856	17550.72
799.188	17328.13
799.519	17301.47
799.85	17212.2
800.182	17234.8
800.513	17281.35
800.844	17045.65
801.175	17300.11
801.506	17255.59
801.837	17087.23
802.168	17007.69
802.499	17058.31
802.83	16988.71
803.161	16921.14
803.491	16904.19
803.822	16828.94
804.153	16849.95
804.483	16667.13
804.814	16745.1
805.145	16698.09
805.475	16704.42
805.805	16654.7
806.136	16653.35
806.466	16601.15
806.796	16588.72
807.126	16459.45
807.457	16443.86
807.787	16386.91
808.117	16409.96
808.447	16334.94
808.777	16305.33
809.107	16218.56
809.436	16208.16
809.766	16187.14
810.096	16063.53
810.426	16029.86
810.755	16080.71
811.085	16103.08
811.414	15978.34
811.744	15990.09
812.073	15994.61
812.403	15905.8
812.732	15869.41
813.061	15913.03
813.39	15859.24
813.719	15761.39
814.049	15829.87
814.378	15746.25
814.707	15666.71
815.036	15659.25
815.365	15659.25
815.693	15537.44
816.022	15449.99
816.351	15459.93
816.68	15405.7
817.008	15491.57
817.337	15293.84
817.665	15286.38
817.994	15248.86
818.322	15271.46
818.651	15257.68
818.979	15209.54
819.307	15267.62
819.636	15216.78
819.964	15137.91
820.292	15176.1
820.62	15252.25
820.948	15012.71
821.276	15185.36
821.604	15109.89
821.932	15150.34
822.259	15145.82
822.587	15133.16
822.915	15075.54
823.243	15094.07
823.57	15143.78
823.898	15090.22
824.225	15082.77
824.553	15068.53
824.88	15140.17
825.207	15117.12
825.535	15042.77
825.862	15189.66
826.189	15012.26
826.516	15159.83
826.843	15164.35
827.17	15157.57
827.497	15197.79
827.824	15127.74
828.151	15130.22
828.478	15193.27
828.805	15241.41
829.131	15131.81
829.458	15152.6
829.785	15096.55
830.111	15126.83
830.438	15230.79
830.764	15125.03
831.09	15135.42
831.417	15112.6
831.743	15155.76
832.069	15096.55
832.395	15113.95
832.722	15045.71
833.048	15054.07
833.374	15096.78
833.7	15033.05
834.026	15051.13
834.351	15016.55
834.677	15030.79
835.003	14967.06
835.329	14921.64
835.654	15000.96
835.98	14968.65
836.306	14933.84
836.631	14924.58
836.956	14973.17
837.282	14932.26
837.607	14845.03
837.932	14821.98
838.258	14927.29
838.583	14774.3
838.908	14765.04
839.233	14815.66
839.558	14732.49
839.883	14719.16
840.208	14612.72
840.533	14639.39
840.858	14600.97
841.182	14652.27
841.507	14614.76
841.832	14603.23
842.156	14471.26
842.481	14520.07
842.805	14487.53
843.13	14436.68
843.454	14405.72
843.778	14341.54
844.103	14383.58
844.427	14216.12
844.751	14256.57
845.075	14299.29
845.399	14157.14
845.723	14110.82
846.047	14088.9
846.371	14025.62
846.695	13965.28
847.019	13911.5
847.343	13837.15
847.666	13756.7
847.99	13718.51
848.313	13693.2
848.637	13591.51
848.96	13602.13
849.284	13525.97
849.607	13480.32
849.931	13446.2
850.254	13269.26
850.577	13299.76
850.9	13182.25
851.223	13195.13
851.546	13119.66
851.869	13086.44
852.192	13118.3
852.515	12930.73
852.838	12982.71
853.161	12956.95
853.483	12847.8
853.806	12864.07
854.129	12732.77
854.451	12761.02
854.774	12709.72
855.096	12618.2
855.419	12620.23
855.741	12592.21
856.063	12492.78
856.385	12467.24
856.708	12439.22
857.03	12422.95
857.352	12339.79
857.674	12319.22
857.996	12341.6
858.318	12218.66
858.64	12200.81
858.961	12221.37
859.283	12156.74
859.605	12063.64
859.926	12062.06
860.248	12095.73
860.57	12003.3
860.891	12009.63
861.212	11939.8
861.534	11974.15
861.855	11971.21
862.176	11950.87
862.498	11888.5
862.819	11891.89
863.14	11838.33
863.461	11807.6
863.782	11756.53
864.103	11752.46
864.424	11744.1
864.745	11732.12
865.065	11745.91
865.386	11665.91
865.707	11645.12
866.027	11608.51
866.348	11581.39
866.668	11627.26
866.989	11644.44
867.309	11541.62
867.63	11581.16
867.95	11563.31
868.27	11476.08
868.59	11526.48
868.91	11459.36
869.23	11389.98
869.55	11388.18
869.87	11443.77
870.19	11323.32
870.51	11379.81
870.83	11384.11
871.15	11281.74
871.469	11301.85
871.789	11407.38
872.109	11318.12
872.428	11209.87
872.748	11248.52
873.067	11199.03
873.386	11236.99
873.706	11259.36
874.025	11157.22
874.344	11152.02
874.663	11104.57
874.982	11042.42
875.301	11071.57
875.62	11042.2
875.939	11022.76
876.258	11043.78
876.577	10975.76
876.896	10965.59
877.214	10924.01
877.533	10925.81
877.852	10894.4
878.17	10876.78
878.489	10923.1
878.807	10858.47
879.125	10871.58
879.444	10853.95
879.762	10766.27
880.08	10835.87
880.398	10703.22
880.716	10794.97
881.034	10731.02
881.352	10714.07
881.67	10685.82
881.988	10664.35
882.306	10668.87
882.624	10643.11
882.941	10534.86
883.259	10561.53
883.577	10557.24
883.894	10541.19
884.212	10516.11
884.529	10549.33
884.846	10481.98
885.164	10433.17
885.481	10399.95
885.798	10408.77
886.115	10353.63
886.432	10364.25
886.75	10296.9
887.067	10347.52
887.383	10279.96
887.7	10237.92
888.017	10220.97
888.334	10259.39
888.651	10168.32
888.967	10195.44
889.284	10105.72
889.6	10156.12
889.917	10012.84
890.233	10027.31
890.55	9972.85
890.866	9995.9
891.182	9964.03
891.498	9890.81
891.815	9888.33
892.131	9857.82
892.447	9851.94
892.763	9812.4
893.079	9732.85
893.395	9749.12
893.71	9721.78
894.026	9690.14
894.342	9639.97
894.657	9688.78
894.973	9645.62
895.289	9591.16
895.604	9587.77
895.92	9512.52
896.235	9432.75
896.55	9454.44
896.865	9457.15
897.181	9318.17
897.496	9396.36
897.811	9290.6
898.126	9299.42
898.441	9301.45
898.756	9198.63
899.071	9214.9
899.386	9163.83
899.7	9072.08
900.015	9049.25
900.33	9010.38
900.644	8927.67
900.959	8993.21
901.273	8951.18
901.588	8881.8
901.902	8854.46
902.216	8827.56
902.531	8847.68
902.845	8762.71
903.159	8726.1
903.473	8707.34
903.787	8686.33
904.101	8703.05
904.415	8679.55
904.729	8626.67
905.042	8548.48
905.356	8499.44
905.67	8458.08
905.984	8503.51
906.297	8441.36
906.611	8414.47
906.924	8373.11
907.237	8323.4
907.551	8291.31
907.864	8291.99
908.177	8294.7
908.491	8222.16
908.804	8218.31
909.117	8179.22
909.43	8124.08
909.743	8056.51
910.056	8029.17
910.368	8010.64
910.681	7963.86
910.994	7912.79
911.307	7896.29
911.619	7849.96
911.932	7885.67
912.244	7779.23
912.557	7764.09
912.869	7732.23
913.181	7641.38
913.494	7723.19
913.806	7625.56
914.118	7608.16
914.43	7548.28
914.742	7558.22
915.054	7503.98
915.366	7486.13
915.678	7465.34
915.99	7384.66
916.302	7391.67
916.613	7387.15
916.925	7356.87
917.236	7264.67
917.548	7245.69
917.859	7264.44
918.171	7211.34
918.482	7159.36
918.794	7117.78
919.105	7176.08
919.416	7101.96
919.727	7036.65
920.038	7018.8
920.349	7042.98
920.66	6998.46
920.971	7003.66
921.282	6926.6
921.593	6900.38
921.903	6845.47
922.214	6854.96
922.525	6850.89
922.835	6762.08
923.146	6769.31
923.456	6675.3
923.767	6691.8
924.077	6670.79
924.387	6675.76
924.697	6629.88
925.008	6573.61
925.318	6586.72
925.628	6607.28
925.938	6508.08
926.248	6486.38
926.558	6436.44
926.867	6430.79
927.177	6415.2
927.487	6341.53
927.796	6304.47
928.106	6316.22
928.416	6282.55
928.725	6227.41
929.034	6248.88
929.344	6217.24
929.653	6253.85
929.962	6149.44
930.271	6169.78
930.581	6091.59
930.89	6082.78
931.199	6039.39
931.508	6010.01
931.817	6005.04
932.125	6038.49
932.434	5993.74
932.743	5946.74
933.051	5919.17
933.36	5904.25
933.669	5826.51
933.977	5824.03
934.286	5836.46
934.594	5800.07
934.902	5760.53
935.21	5748.1
935.519	5700.64
935.827	5689.57
936.135	5621.1
936.443	5664.48
936.751	5626.74
937.059	5545.84
937.367	5561.66
937.674	5582.23
937.982	5504.94
938.29	5541.1
938.597	5481.66
938.905	5424.26
939.213	5487.99
939.52	5408.9
939.827	5386.75
940.135	5351.95
940.442	5350.14
940.749	5279.41
941.056	5301.33
941.363	5254.55
941.67	5273.99
941.977	5182.24
942.284	5226.3
942.591	5185.63
942.898	5225.85
943.205	5194.67
943.511	5129.13
943.818	5116.25
944.125	5046.65
944.431	5058.4
944.738	5082.35
945.044	5037.61
945.35	5036.25
945.657	4943.6
945.963	4955.35
946.269	4857.5
946.575	4876.93
946.881	4863.83
947.187	4868.8
947.493	4849.14
947.799	4813.66
948.105	4776.37
948.41	4770.72
948.716	4781.8
949.022	4779.54
949.327	4742.93
949.633	4704.06
949.938	4710.16
950.244	4675.81
950.549	4635.81
950.854	4593.33
951.16	4596.04
951.465	4559.65
951.77	4556.94
952.075	4515.36
952.38	4487.34
952.685	4475.59
952.99	4521.46
953.294	4499.77
953.599	4383.16
953.904	4424.06
954.209	4380.45
954.513	4363.5
954.818	4375.48
955.122	4327.57
955.426	4271.98
955.731	4337.29
956.035	4288.25
956.339	4285.76
956.643	4262.03
956.948	4248.93
957.252	4232.43
957.556	4149.5
957.86	4122.38
958.163	4167.57
958.467	4135.94
958.771	4112.89
959.075	4106.33
959.378	4096.84
959.682	4051.87
959.985	4030.18
960.289	4070.85
960.592	4028.37
960.896	3974.36
961.199	4016.17
961.502	3951.53
961.805	3933.23
962.108	3900.91
962.411	3952.89
962.714	3903.4
963.017	3915.38
963.32	3851.2
963.623	3825.66
963.926	3852.33
964.228	3828.37
964.531	3820.69
964.833	3799.67
965.136	3788.15
965.438	3751.09
965.741	3737.75
966.043	3659.11
966.345	3701.37
966.648	3731.43
966.95	3728.72
967.252	3683.74
967.554	3658.21
967.856	3617.31
968.158	3604.65
968.46	3590.19
968.761	3558.1
969.063	3577.08
969.365	3536.4
969.666	3577.08
969.968	3504.31
970.269	3498.44
970.571	3519.46
970.872	3480.13
971.174	3452.34
971.475	3425.45
971.776	3475.84
972.077	3433.36
972.378	3405.33
972.679	3381.15
972.98	3363.3
973.281	3333.02
973.582	3350.65
973.883	3293.25
974.183	3377.76
974.484	3270.42
974.785	3244.43
975.085	3287.15
975.386	3272
975.686	3231.78
975.986	3227.71
976.287	3234.49
976.587	3190.2
976.887	3169.86
977.187	3171.89
977.487	3157.88
977.787	3155.85
978.087	3113.82
978.387	3133.02
978.687	3138.22
978.987	3058.45
979.286	3045.34
979.586	3058.22
979.885	3022.97
980.185	3004.67
980.484	3033.37
980.784	3001.28
981.083	2994.72
981.382	2958.34
981.682	2934.16
981.981	2960.83
982.28	2943.88
982.579	2932.35
982.878	2965.12
983.177	2879.7
983.475	2897.78
983.774	2849.64
984.073	2864.11
984.372	2850.77
984.67	2818.01
984.969	2818.23
985.267	2802.41
985.566	2783.66
985.864	2799.7
986.162	2787.05
986.461	2720.38
986.759	2760.83
987.057	2724.22
987.355	2683.55
987.653	2690.32
987.951	2712.02
988.249	2671.12
988.547	2653.26
988.844	2647.39
989.142	2696.2
989.44	2642.64
989.737	2634.28
990.035	2627.73
990.332	2610.1
990.63	2564.45
990.927	2563.77
991.224	2580.05
991.521	2549.99
991.819	2531.23
992.116	2549.31
992.413	2504.11
992.71	2523.1
993.006	2449.43
993.303	2490.1
993.6	2445.81
993.897	2466.38
994.193	2475.64
994.49	2443.1
994.787	2410.33
995.083	2402.87
995.379	2409.2
995.676	2340.73
995.972	2396.32
996.268	2354.51
996.565	2354.29
996.861	2344.57
997.157	2325.81
997.453	2318.13
997.749	2309.09
998.044	2318.81
998.34	2285.82
998.636	2269.54
998.932	2291.47
999.227	2258.7
999.523	2232.03
999.818	2227.51
1000.114	2180.96
1000.409	2234.97
1000.704	2187.29
1001	2212.6
1001.295	2171.92
1001.59	2121.3
1001.885	2151.13
1002.18	2139.83
1002.475	2119.72
1002.77	2113.62
1003.065	2094.63
1003.359	2065.48
1003.654	2097.57
1003.949	2050.79
1004.243	2070
1004.538	2035.65
1004.832	2019.83
1005.127	2037.91
1005.421	2013.96
1005.715	1994.3
1006.009	1982.55
1006.304	1968.76
1006.598	1981.64
1006.892	1928.54
1007.186	1920.18
1007.48	1926.05
1007.773	1892.83
1008.067	1882.21
1008.361	1886.73
1008.655	1907.97
1008.948	1854.87
1009.242	1859.16
1009.535	1858.71
1009.829	1814.87
1010.122	1826.84
1010.415	1794.98
1010.708	1785.49
1011.001	1817.13
1011.295	1778.94
1011.588	1783.68
1011.881	1747.52
1012.173	1731.03
1012.466	1740.52
1012.759	1763.8
1013.052	1724.47
1013.344	1714.31
1013.637	1729.67
1013.93	1696
1014.222	1681.09
1014.514	1684.25
1014.807	1666.17
1015.099	1677.24
1015.391	1627.98
1015.683	1653.06
1015.976	1653.97
1016.268	1619.39
1016.56	1599.05
1016.851	1609.22
1017.143	1585.27
1017.435	1570.58
1017.727	1565.16
1018.018	1549.11
1018.31	1561.31
1018.602	1532.39
1018.893	1536.23
1019.185	1534.65
1019.476	1533.07
1019.767	1511.6
1020.058	1486.97
1020.35	1474.99
1020.641	1481.09
1020.932	1473.41
1021.223	1456.01
1021.514	1425.95
1021.804	1423.69
1022.095	1397.7
1022.386	1431.83
1022.677	1408.1
1022.967	1383.47
1023.258	1410.36
1023.548	1398.83
1023.839	1373.75
1024.129	1374.43
1024.419	1333.98
1024.709	1337.37
1025	1343.69
1025.29	1313.41
1025.58	1329.46
1025.87	1302.11
1026.16	1276.35
1026.449	1326.52
1026.739	1305.73
1027.029	1288.1
1027.319	1267.54
1027.608	1243.13
1027.898	1254.88
1028.187	1238.16
1028.477	1238.16
1028.766	1233.19
1029.055	1220.31
1029.344	1232.06
1029.634	1174.66
1029.923	1165.62
1030.212	1168.78
1030.501	1180.08
1030.79	1174.21
1031.078	1168.33
1031.367	1146.86
1031.656	1149.35
1031.945	1133.53
1032.233	1148.22
1032.522	1111.16
1032.81	1098.73
1033.099	1102.57
1033.387	1127.88
1033.675	1123.13
1033.963	1081.55
1034.251	1089.24
1034.54	1073.64
1034.828	1053.76
1035.116	1065.06
1035.403	1050.37
1035.691	1035.9
1035.979	1040.88
1036.267	1031.61
1036.554	1018.05
1036.842	1009.92
1037.129	1032.52
1037.417	1020.31
1037.704	1003.82
1037.992	985.96
1038.279	990.48
1038.566	966.08
1038.853	966.08
1039.14	966.08
