Data from hue_22_FLMS001491_00061.txt Node
Date: Tue Feb 07 17:10:28 GMT 2017
User: dcchb
Spectrometer: FLMS00149
Trigger mode: 0
Integration Time (sec): 2.000000E-2
Scans to average: 10
Electric dark correction enabled: true
Nonlinearity correction enabled: false
Boxcar width: 0
XAxis mode: Wavelengths
Number of Pixels in Spectrum: 2048
>>>>>Begin Spectral Data<<<<<
341.393	-3.84
341.776	-3.84
342.16	-3.84
342.543	-46.1
342.927	-75.03
343.31	-80.68
343.693	-66.66
344.077	-68.7
344.46	-70.96
344.843	-67.12
345.226	-44.97
345.61	-12.66
345.993	-23.05
346.376	-5.88
346.759	9.49
347.142	45.65
347.525	38.87
347.908	58.98
348.291	76.61
348.674	98.53
349.057	112.54
349.44	125.42
349.823	129.49
350.206	167.23
350.588	191.63
350.971	214.23
351.354	217.62
351.737	241.35
352.119	261.24
352.502	257.39
352.884	289.71
353.267	271.41
353.65	274.34
354.032	305.75
354.414	317.73
354.797	323.16
355.179	319.31
355.562	318.86
355.944	324.29
356.326	327.68
356.709	329.03
357.091	323.38
357.473	339.88
357.855	338.75
358.238	342.14
358.62	324.29
359.002	346.66
359.384	350.73
359.766	326.77
360.148	345.53
360.53	354.57
360.912	344.17
361.294	355.92
361.676	328.58
362.057	339.43
362.439	336.26
362.821	341.23
363.203	323.83
363.584	330.61
363.966	343.49
364.348	329.03
364.729	334.91
365.111	321.8
365.493	326.09
365.874	318.41
366.256	311.86
366.637	332.65
367.019	351.18
367.4	302.36
367.781	313.44
368.163	340.78
368.544	314.57
368.925	327.22
369.306	342.14
369.688	306.66
370.069	342.14
370.45	330.84
370.831	310.95
371.212	299.88
371.593	326.77
371.974	304.17
372.355	330.16
372.736	308.24
373.117	314.57
373.498	337.39
373.879	324.96
374.26	320.9
374.641	314.79
375.021	329.93
375.402	320.44
375.783	308.01
376.163	337.17
376.544	345.98
376.925	332.87
377.305	335.36
377.686	329.71
378.066	345.3
378.447	326.09
378.827	334.68
379.208	344.4
379.588	335.81
379.968	333.32
380.349	352.76
380.729	362.25
381.109	339.2
381.489	342.36
381.87	335.13
382.25	328.35
382.63	349.6
383.01	361.35
383.39	329.71
383.77	340.56
384.15	354.11
384.53	345.53
384.91	357.5
385.29	382.59
385.67	346.88
386.049	373.1
386.429	362.02
386.809	359.76
387.189	376.26
387.568	346.43
387.948	360.22
388.328	359.09
388.707	366.09
389.087	371.06
389.466	377.17
389.846	374
390.225	384.4
390.605	383.49
390.984	369.03
391.363	362.25
391.743	376.26
392.122	360.89
392.501	396.15
392.881	392.08
393.26	379.65
393.639	383.94
394.018	395.7
394.397	396.37
394.776	399.99
395.155	397.28
395.534	375.36
395.913	413.1
396.292	384.85
396.671	399.31
397.05	403.61
397.429	392.53
397.808	400.67
398.186	389.14
398.565	403.61
398.944	403.38
399.323	436.37
399.701	423.72
400.08	412.42
400.458	406.54
400.837	425.53
401.215	413.77
401.594	413.55
401.972	420.55
402.351	416.94
402.729	416.03
403.107	422.59
403.486	432.53
403.864	414.45
404.242	449.48
404.62	438.41
404.999	420.1
405.377	430.05
405.755	437.73
406.133	444.06
406.511	440.89
406.889	456.94
407.267	428.69
407.645	453.32
408.023	466.88
408.401	458.97
408.779	476.15
409.156	454.45
409.534	459.42
409.912	467.33
410.29	462.13
410.667	477.5
411.045	461.91
411.422	488.12
411.8	489.48
412.178	478.63
412.555	477.73
412.933	496.03
413.31	490.38
413.687	499.65
414.065	517.95
414.442	523.15
414.819	495.13
415.197	507.11
415.574	518.18
415.951	514.34
416.328	523.15
416.705	540.32
417.082	535.58
417.46	549.59
417.837	558.86
418.214	541.91
418.591	533.55
418.967	532.64
419.344	524.05
419.721	560.89
420.098	539.65
420.475	549.36
420.852	584.62
421.228	570.83
421.605	555.24
421.982	555.47
422.358	571.74
422.735	574
423.111	566.99
423.488	585.07
423.864	610.38
424.241	596.59
424.617	598.85
424.994	606.31
425.37	600.89
425.746	609.7
426.123	637.5
426.499	626.65
426.875	620.1
427.251	609.02
427.627	619.64
428.003	633.2
428.379	642.69
428.756	648.8
429.132	612.41
429.507	653.77
429.883	660.1
430.259	667.55
430.635	671.39
431.011	670.72
431.387	698.74
431.763	697.38
432.138	672.98
432.514	691.96
432.89	713.2
433.265	689.02
433.641	748
434.016	741.9
434.392	738.74
434.767	755.91
435.143	732.86
435.518	756.36
435.894	733.54
436.269	788.91
436.644	773.76
437.02	789.58
437.395	802.01
437.77	786.87
438.145	801.11
438.52	785.74
438.895	804.27
439.271	801.79
439.646	855.8
440.021	833.42
440.395	849.02
440.77	840.88
441.145	845.85
441.52	859.64
441.895	862.58
442.27	852.41
442.645	858.51
443.019	870.03
443.394	876.59
443.769	896.93
444.143	886.3
444.518	893.76
444.892	896.25
445.267	885.17
445.641	909.13
446.016	883.37
446.39	896.7
446.764	917.72
447.139	913.87
447.513	929.24
447.887	935.79
448.262	932.86
448.636	914.33
449.01	948.9
449.384	956.36
449.758	955.46
450.132	951.61
450.506	974.89
450.88	971.27
451.254	964.04
451.628	992.52
452.002	1012.63
452.376	996.36
452.75	1000.43
453.123	1019.63
453.497	1061.67
453.871	1018.05
454.244	1062.12
454.618	1056.24
454.992	1059.63
455.365	1072.97
455.739	1113.42
456.112	1139.63
456.486	1092.63
456.859	1105.28
457.232	1142.79
457.606	1158.61
457.979	1144.6
458.352	1172.62
458.725	1175.79
459.099	1191.16
459.472	1236.58
459.845	1225.96
460.218	1241.55
460.591	1241.1
460.964	1256.46
461.337	1250.59
461.71	1293.53
462.083	1308.67
462.456	1286.52
462.829	1327.2
463.201	1352.51
463.574	1353.86
463.947	1378.49
464.32	1413.52
464.692	1416.01
465.065	1392.28
465.438	1417.14
465.81	1453.75
466.183	1488.55
466.555	1469.57
466.928	1524.71
467.3	1520.64
467.672	1526.74
468.045	1580.3
468.417	1582.33
468.789	1600.18
469.161	1627.53
469.534	1646.74
469.906	1679.73
470.278	1711.59
470.65	1671.82
471.022	1730.58
471.394	1723.12
471.766	1804.47
472.138	1797.47
472.51	1846.05
472.882	1858.03
473.253	1874.3
473.625	1902.1
473.997	1933.06
474.369	1959.95
474.74	1965.37
475.112	2015.99
475.484	2069.78
475.855	2065.03
476.227	2082.43
476.598	2201.52
476.97	2211.47
477.341	2266.61
477.713	2287.85
478.084	2340.96
478.455	2387.51
478.827	2422.99
479.198	2493.04
479.569	2467.28
479.94	2554.06
480.311	2571.46
480.682	2668.18
481.053	2720.38
481.424	2748.63
481.795	2792.92
482.166	2804.22
482.537	2885.8
482.908	2932.58
483.279	2934.16
483.65	3046.47
484.021	3096.87
484.391	3187.94
484.762	3189.52
485.133	3196.07
485.503	3299.8
485.874	3316.3
486.244	3377.99
486.615	3454.82
486.985	3509.74
487.356	3555.61
487.726	3625.67
488.097	3702.73
488.467	3725.55
488.837	3802.84
489.207	3845.55
489.578	3902.5
489.948	3952.21
490.318	3997.64
490.688	4071.31
491.058	4088.25
491.428	4174.81
491.798	4236.27
492.168	4257.52
492.538	4306.33
492.908	4342.94
493.278	4410.73
493.648	4457.28
494.017	4526.89
494.387	4549.94
494.757	4594.46
495.126	4641.91
495.496	4678.07
495.866	4706.09
496.235	4809.59
496.605	4839.42
496.974	4859.31
497.344	4936.14
497.713	4932.75
498.082	4972.98
498.452	5051.17
498.821	5061.56
499.19	5120.54
499.559	5168.45
499.928	5161.22
500.298	5221.11
500.667	5265.17
501.036	5214.1
501.405	5296.36
501.774	5322.12
502.143	5356.92
502.512	5388.56
502.88	5449.35
503.249	5443.92
503.618	5541.1
503.987	5530.02
504.356	5582.45
504.724	5598.27
505.093	5622.68
505.462	5648.44
505.83	5690.25
506.199	5683.01
506.567	5799.17
506.936	5784.03
507.304	5867.87
507.672	5814.54
508.041	5895.89
508.409	5914.42
508.777	5981.54
509.145	6001.88
509.514	5993.51
509.882	6101.76
510.25	6046.62
510.618	6088.65
510.986	6083.91
511.354	6196.45
511.722	6208.65
512.09	6217.69
512.458	6263.34
512.826	6296.33
513.193	6370.23
513.561	6351.25
513.929	6341.53
514.297	6425.14
514.664	6446.38
515.032	6490.68
515.4	6537.91
515.767	6544.23
516.135	6556.21
516.502	6506.72
516.869	6622.2
517.237	6645.7
517.604	6636.89
517.972	6694.74
518.339	6740.84
518.706	6726.6
519.073	6819.26
519.44	6823.78
519.808	6886.6
520.175	6825.81
520.542	6904.45
520.909	6991.23
521.276	6945.81
521.643	7009.08
522.009	7064.45
522.376	7106.25
522.743	7141.96
523.11	7158
523.477	7265.8
523.843	7257.21
524.21	7323.42
524.577	7383.99
524.943	7364.33
525.31	7487.03
525.676	7478
526.043	7522.06
526.409	7582.17
526.776	7649.52
527.142	7615.17
527.508	7645.9
527.874	7737.88
528.241	7777.42
528.607	7844.31
528.973	7845.22
529.339	7810.42
529.705	7924.76
530.071	8007.7
530.437	8004.54
530.803	8085.89
531.169	8150.97
531.535	8139.22
531.901	8117.07
532.267	8207.92
532.632	8307.13
532.998	8288.82
533.364	8360.23
533.73	8365.2
534.095	8457.4
534.461	8384.41
534.826	8520.91
535.192	8449.27
535.557	8560
535.923	8564.75
536.288	8606.1
536.653	8680.22
537.019	8588.25
537.384	8701.47
537.749	8749.37
538.114	8764.97
538.479	8805.64
538.845	8854.46
539.21	8888.13
539.575	8799.99
539.94	8951.4
540.305	9016.94
540.67	8951.63
541.034	9076.15
541.399	9049.93
541.764	9057.84
542.129	9073.89
542.494	9129.25
542.858	9176.71
543.223	9222.58
543.587	9306.42
543.952	9316.59
544.316	9376.7
544.681	9333.31
545.045	9423.71
545.41	9462.58
545.774	9493.76
546.138	9519.98
546.503	9560.43
546.867	9603.36
547.231	9672.06
547.595	9663.93
547.959	9666.19
548.324	9668.67
548.688	9724.94
549.052	9766.75
549.416	9813.75
549.779	9781.66
550.143	9800.65
550.507	9919.74
550.871	9889.23
551.235	9889.68
551.599	10028.44
551.962	9973.98
552.326	10025.27
552.689	10091.03
553.053	10069.11
553.417	10096.68
553.78	10296.45
554.143	10172.16
554.507	10308.88
554.87	10259.17
555.234	10385.72
555.597	10353.4
555.96	10279.28
556.323	10416
556.686	10448.31
557.05	10537.12
557.413	10583
557.776	10591.81
558.139	10677.91
558.502	10620.74
558.865	10651.25
559.228	10796.78
559.59	10712.49
559.953	10730.57
560.316	10847.85
560.679	10918.58
561.041	10928.98
561.404	11001.52
561.767	11098.92
562.129	10965.36
562.492	11141.4
562.854	11060.05
563.217	11153.15
563.579	11164
563.941	11254.39
564.304	11269.08
564.666	11348.18
565.028	11313.15
565.39	11433.37
565.753	11446.03
566.115	11421.17
566.477	11493.94
566.839	11495.29
567.201	11554.27
567.563	11640.15
567.925	11603.31
568.287	11692.57
568.648	11779.8
569.01	11781.16
569.372	11860.25
569.734	11881.04
570.095	11978.44
570.457	12018.22
570.819	12001.72
571.18	12062.51
571.542	12159.45
571.903	12192.45
572.265	12205.33
572.626	12294.37
572.987	12378.21
573.349	12492.33
573.71	12463.4
574.071	12477.19
574.432	12615.04
574.794	12696.39
575.155	12697.52
575.516	12751.3
575.877	12911.98
576.238	12878.08
576.599	12963.95
576.96	12993.56
577.32	13067.9
577.681	13288.46
578.042	13338.86
578.403	13420.21
578.763	13456.6
579.124	13634.22
579.485	13736.14
579.845	13796.02
580.206	13982.23
580.566	13978.84
580.927	14199.17
581.287	14406.17
581.648	14416.57
582.008	14613.63
582.368	14747.63
582.728	14908.08
583.089	15077.12
583.449	15230.33
583.809	15410.89
584.169	15591.45
584.529	15721.62
584.889	16103.53
585.249	16118.22
585.609	16320.7
585.969	16666
586.329	16750.29
586.688	16997.75
587.048	17247
587.408	17350.73
587.768	17634.11
588.127	17968.12
588.487	18075.23
588.846	18562.9
589.206	18607.65
589.565	18897.58
589.925	19329.89
590.284	19398.81
590.643	19768.52
591.003	20121.05
591.362	20418.67
591.721	20733.92
592.08	20970.07
592.44	21215.04
592.799	21777.51
593.158	21879.65
593.517	22248.91
593.876	22558.95
594.235	22743.36
594.593	23219.95
594.952	23592.15
595.311	23812.71
595.67	24075.98
596.029	24528.17
596.387	24840.25
596.746	25313.46
597.104	25516.39
597.463	25749.83
597.822	26244.96
598.18	26468.91
598.538	26705.06
598.897	27163.58
599.255	27291.94
599.613	28010.79
599.972	28013.27
600.33	28548.63
600.688	28710.88
601.046	29239.46
601.404	29518.32
601.762	29757.18
602.12	30216.38
602.478	30583.15
602.836	30844.61
603.194	31053.42
603.552	31431.26
603.91	31587.19
604.268	32002.77
604.625	32053.62
604.983	32634.62
605.341	32726.82
605.698	33166.36
606.056	33484.32
606.413	33730.64
606.771	33938.54
607.128	34355.93
607.485	34405.65
607.843	34685.42
608.2	35151.62
608.557	35459.63
608.914	35710.02
609.272	35938.04
609.629	36147.98
609.986	36499.83
610.343	36586.38
610.7	37012.59
611.057	37203.77
611.414	37508.17
611.771	37506.13
612.127	37922.62
612.484	38016.85
612.841	38322.16
613.198	38453.45
613.554	38765.76
613.911	39034.68
614.267	39158.07
614.624	39240.1
614.98	39612.97
615.337	40045.5
615.693	40051.83
616.05	40202.33
616.406	40610.68
616.762	40601.64
617.118	40709.21
617.475	40885.48
617.831	41311
618.187	41397.78
618.543	41571.11
618.899	41902.18
619.255	41880.48
619.611	42000.93
619.967	42202.28
620.323	42499.67
620.678	42392.11
621.034	42442.73
621.39	42557.3
621.746	42554.81
622.101	43292.2
622.457	42916.84
622.812	43195.25
623.168	43416.71
623.523	43421.46
623.879	43599.08
624.234	43432.98
624.589	43813.09
624.945	43699.19
625.3	43870.71
625.655	44091.95
626.01	44083.81
626.365	44223.7
626.72	44136.47
627.075	44154.55
627.43	44318.61
627.785	44230.93
628.14	44513.41
628.495	44590.92
628.85	44489.45
629.205	44528.09
629.559	44815.77
629.914	44705.27
630.269	44815.09
630.623	44636.79
630.978	44629.79
631.332	44943.9
631.687	45150
632.041	44900.29
632.396	44976.44
632.75	44904.13
633.104	45061.41
633.459	44964.92
633.813	44920.63
634.167	44943.23
634.521	44934.86
634.875	45084.01
635.229	44964.47
635.583	44975.31
635.937	44945.03
636.291	45018.93
636.645	45042.21
636.999	44988.2
637.352	45200.17
637.706	44807.86
638.06	45187.74
638.413	45005.6
638.767	44935.09
639.121	45037.23
639.474	44735.09
639.828	44891.93
640.181	44864.58
640.534	44949.1
640.888	44797.47
641.241	44861.19
641.594	44825.94
641.947	45029.32
642.301	44860.74
642.654	45017.57
643.007	45042.66
643.36	44877.92
643.713	44833.62
644.066	45054.18
644.419	44798.6
644.771	44599.51
645.124	44159.52
645.477	44129.01
645.83	44020.99
646.182	43848.34
646.535	43684.28
646.888	43725.18
647.24	43670.26
647.593	43886.3
647.945	43668.68
648.298	43541
648.65	43554.79
649.002	43533.32
649.355	43857.83
649.707	43666.87
650.059	43863.03
650.411	44249.46
650.763	44253.3
651.115	44697.81
651.467	44565.38
651.819	44536.68
652.171	44622.56
652.523	44369.68
652.875	44473.41
653.227	44205.39
653.578	44512.95
653.93	44566.96
654.282	44272.06
654.633	44289.91
654.985	44328.1
655.337	44276.58
655.688	44329.46
656.039	44406.74
656.391	44201.78
656.742	44237.03
657.094	44356.57
657.445	44358.83
657.796	44293.07
658.147	44226.63
658.498	44226.63
658.849	44423.46
659.2	44306.41
659.551	44187.99
659.902	44433.18
660.253	44134.21
660.604	44341.21
660.955	44119.74
661.306	44258.5
661.656	44043.36
662.007	44265.05
662.358	44035.45
662.708	44190.93
663.059	44182.57
663.409	43898.96
663.76	44138.73
664.11	44122.68
664.461	44101.89
664.811	44130.59
665.161	44062.12
665.511	43948.9
665.862	44115
666.212	44166.52
666.562	44225.28
666.912	44094.66
667.262	44161.55
667.612	44094.66
667.962	44174.88
668.312	44100.31
668.662	44311.6
669.011	44103.93
669.361	44121.55
669.711	43955
670.06	43973.08
670.41	43903.93
670.76	43884.95
671.109	44023.93
671.459	44013.76
671.808	43860.54
672.157	43994.55
672.507	43757.72
672.856	43765.85
673.205	43832.07
673.554	43948.22
673.904	43744.16
674.253	43994.32
674.602	43755.46
674.951	43231.18
675.3	43199.54
675.649	43744.39
675.998	43680.21
676.346	43572.41
676.695	43789.81
677.044	43467.56
677.393	43679.08
677.741	43499.42
678.09	43564.05
678.438	43444.51
678.787	43622.36
679.135	43577.39
679.484	43292.2
679.832	43562.92
680.181	43282.03
680.529	43316.83
680.877	43193.44
681.225	43209.26
681.573	43476.14
681.922	43152.99
682.27	43112.09
682.618	43080.22
682.966	42898.76
683.314	42922.26
683.661	42869.83
684.009	42665.32
684.357	42664.64
684.705	42609.5
685.053	42694.7
685.4	42633
685.748	42388.04
686.095	42468.71
686.443	42222.84
686.79	42196.86
687.138	42252.22
687.485	42244.31
687.832	42106.46
688.18	42167.03
688.527	41899.46
688.874	41923.64
689.221	41927.49
689.568	41883.64
689.915	41667.83
690.262	41746.47
690.609	41393.26
690.956	41355.97
691.303	41355.75
691.65	41146.94
691.997	41102.87
692.344	41005.7
692.69	40900.85
693.037	40840.73
693.383	40545.6
693.73	40900.39
694.077	40561.19
694.423	40533.4
694.769	40465.15
695.116	40379.5
695.462	40355.78
695.808	40237.59
696.155	40189.9
696.501	40016.57
696.847	39978.38
697.193	39760.99
697.539	39994.2
697.885	39639.18
698.231	39370.94
698.577	39448.68
698.923	39424.5
699.269	39336.14
699.614	39089.37
699.96	38971.63
700.306	38997.84
700.651	38877.4
700.997	38777.51
701.342	38692.09
701.688	38578.42
702.033	38449.84
702.379	38451.64
702.724	38319.67
703.069	38380.69
703.415	37983.18
703.76	38143.63
704.105	38043.29
704.45	37877.87
704.795	37759.23
705.14	37810.53
705.485	37625.23
705.83	37500.26
706.175	37416.19
706.52	37361.05
706.865	37239.92
707.209	37286.48
707.554	37077.67
707.899	37308.85
708.243	36957.45
708.588	36981.17
708.932	36884.45
709.277	36695.98
709.621	36687.62
709.966	36453.96
710.31	36639.94
710.654	36269.55
710.998	36358.37
711.342	36423.9
711.687	36249.44
712.031	36110.91
712.375	35926.74
712.719	36036.34
713.063	36015.1
713.407	36014.65
713.75	35795.67
714.094	35730.59
714.438	35546.86
714.782	35637.71
715.125	35570.82
715.469	35503.7
715.812	35493.98
716.156	35174.22
716.499	35224.16
716.843	35364.04
717.186	34962.24
717.53	35281.33
717.873	35227.32
718.216	35043.82
718.559	34846.54
718.902	34701.23
719.246	34755.24
719.589	34630.05
719.932	34458.53
720.275	34534.23
720.617	34449.94
720.96	34400.9
721.303	34483.16
721.646	34444.74
721.989	34262.38
722.331	34217.86
722.674	34145.09
723.016	34219.21
723.359	34156.62
723.701	34110.29
724.044	33958.43
724.386	33729.28
724.729	33922.95
725.071	33722.05
725.413	33746.91
725.755	33669.17
726.097	33584.88
726.439	33377.88
726.782	33398.9
727.124	33629.62
727.465	33470.53
727.807	33385.11
728.149	33357.32
728.491	33254.27
728.833	33401.38
729.175	33091.56
729.516	33135.4
729.858	33133.82
730.199	33190.77
730.541	33065.35
730.882	32976.31
731.224	33152.35
731.565	32767.73
731.906	32750.33
732.248	32780.16
732.589	32779.93
732.93	32506.94
733.271	32679.82
733.612	32629.65
733.953	32581.29
734.294	32498.81
734.635	32456.32
734.976	32496.55
735.317	32188.98
735.658	32323.67
735.999	32276.67
736.339	32197.35
736.68	32311.69
737.021	32202.32
737.361	32030.12
737.702	32141.53
738.042	32040.51
738.383	32040.74
738.723	32039.16
739.063	32025.37
739.404	32021.53
739.744	31889.78
740.084	31800.07
740.424	31884.36
740.764	31744.48
741.104	31873.51
741.444	31758.71
741.784	31584.25
742.124	31618.6
742.464	31588.77
742.804	31447.76
743.143	31434.65
743.483	31372.73
743.823	31227.2
744.162	31233.98
744.502	31374.54
744.841	31151.05
745.181	31180.2
745.52	31162.8
745.86	31124.61
746.199	31172.97
746.538	31034.21
746.877	31175.68
747.216	31079.41
747.556	30989.02
747.895	30953.31
748.234	30744.5
748.573	30782.92
748.911	30837.38
749.25	30695.69
749.589	30676.93
749.928	30702.24
750.267	30832.41
750.605	30605.97
750.944	30539.99
751.283	30315.81
751.621	30503.83
751.96	30393.1
752.298	30381.57
752.636	30392.2
752.975	30120.79
753.313	30089.6
753.651	30072.66
753.989	29960.79
754.327	30009.83
754.666	29775.71
755.004	29842.15
755.342	29824.07
755.679	29748.6
756.017	29595.38
756.355	29701.82
756.693	29508.15
757.031	29665.21
757.368	29371.21
757.706	29375.5
758.044	29281.26
758.381	29303.41
758.719	29189.51
759.056	29258.21
759.394	29062.06
759.731	28966.02
760.068	28967.15
760.405	28812.35
760.743	28719.47
761.08	28696.87
761.417	28581.17
761.754	28602.19
762.091	28436.54
762.428	28269.99
762.765	28367.84
763.102	28289.2
763.438	28252.14
763.775	28045.82
764.112	27978.7
764.449	28160.16
764.785	27987.96
765.122	27672.49
765.458	27712.72
765.795	27520.86
766.131	27535.55
766.467	27529.9
766.804	27304.37
767.14	27249
767.476	27245.61
767.812	27069.12
768.148	27084.03
768.485	26972.17
768.821	26799.3
769.157	26852.18
769.492	26749.35
769.828	26762.23
770.164	26399.31
770.5	26341.68
770.836	26331.06
771.171	26227.56
771.507	26224.62
771.842	25975.36
772.178	25943.95
772.513	25897.17
772.849	25890.17
773.184	25754.8
773.519	25666.44
773.855	25671.19
774.19	25430.52
774.525	25371.76
774.86	25403.4
775.195	25338.09
775.53	25106.46
775.865	24997.53
776.2	24941.49
776.535	24692.01
776.87	24692.01
777.205	24600.26
777.539	24525.68
777.874	24698.33
778.209	24383.31
778.543	24407.72
778.878	24150.1
779.212	24240.49
779.547	24021.97
779.881	24029.2
780.215	23812.71
780.55	23815.42
780.884	23693.39
781.218	23622.88
781.552	23687.96
781.886	23439.16
782.22	23444.81
782.554	23394.19
782.888	23158.94
783.222	23102.9
783.556	23005.04
783.889	22959.62
784.223	22735.45
784.557	22660.87
784.89	22846.18
785.224	22549.24
785.557	22462.01
785.891	22432.63
786.224	22313.31
786.558	22392.86
786.891	22145.41
787.224	22106.99
787.557	22040.55
787.891	22036.71
788.224	21965.3
788.557	21941.8
788.89	21935.47
789.223	21824.51
789.556	21574.35
789.888	21533.22
790.221	21553.56
790.554	21281.7
790.887	21296.84
791.219	21252.55
791.552	21086.23
791.884	21001.48
792.217	21055.04
792.549	20968.71
792.882	20807.81
793.214	20721.49
793.546	20758.1
793.879	20590.42
794.211	20512.91
794.543	20632.23
794.875	20470.42
795.207	20557.2
795.539	20386.36
795.871	20387.71
796.203	20195.85
796.535	20075.4
796.867	20057.55
797.198	20070.66
797.53	19985.92
797.862	19852.59
798.193	19912.02
798.525	19753.38
798.856	19703.89
799.188	19671.8
799.519	19465.93
799.85	19328.98
800.182	19444.46
800.513	19484.01
800.844	19188.87
801.175	19383.22
801.506	19366.72
801.837	19171.02
802.168	19040.86
802.499	19051.02
802.83	18900.97
803.161	18913.63
803.491	18954.53
803.822	18907.3
804.153	18791.82
804.483	18685.38
804.814	18622.11
805.145	18575.33
805.475	18430.48
805.805	18507.54
806.136	18447.65
806.466	18467.76
806.796	18406.07
807.126	18279.29
807.457	18211.72
807.787	18190.48
808.117	18071.62
808.447	18066.87
808.777	18163.59
809.107	17918.62
809.436	17920.43
809.766	17882.92
810.096	17806.99
810.426	17838.18
810.755	17796.14
811.085	17754.79
811.414	17662.36
811.744	17536.26
812.073	17475.47
812.403	17462.37
812.732	17470.5
813.061	17416.04
813.39	17246.55
813.719	17312.99
814.049	17294.46
814.378	17174.24
814.707	17177.4
815.036	17155.03
815.365	17096.5
815.693	16878.65
816.022	16996.62
816.351	16878.65
816.68	16810.18
817.008	16878.43
817.337	16706.23
817.665	16734.7
817.994	16683.18
818.322	16648.6
818.651	16595.04
818.979	16581.94
819.307	16619
819.636	16602.05
819.964	16435.73
820.292	16527.93
820.62	16391.43
820.948	16425.78
821.276	16471.21
821.604	16481.6
821.932	16534.48
822.259	16472.79
822.587	16369.06
822.915	16322.51
823.243	16354.82
823.57	16309.85
823.898	16310.53
824.225	16257.65
824.553	16261.72
824.88	16312.57
825.207	16326.58
825.535	16299.23
825.862	16354.15
826.189	16282.28
826.516	16273.92
826.843	16354.37
827.17	16279.8
827.497	16455.16
827.824	16311.21
828.151	16331.55
828.478	16348.04
828.805	16301.04
829.131	16243.19
829.458	16312.34
829.785	16163.42
830.111	16266.01
830.438	16260.59
830.764	16276.41
831.09	16236.41
831.417	16205
831.743	16297.88
832.069	16190.76
832.395	16165
832.722	16271.89
833.048	16192.34
833.374	16112.8
833.7	16062.63
834.026	16146.47
834.351	16110.31
834.677	16062.63
835.003	16128.39
835.329	16068.28
835.654	16110.54
835.98	16016.75
836.306	16066.47
836.631	15956.42
836.956	16030.76
837.282	16019.92
837.607	15922.29
837.932	15859.7
838.258	15949.86
838.583	15872.35
838.908	15796.65
839.233	15732.24
839.558	15675.97
839.883	15737.89
840.208	15619.93
840.533	15591
840.858	15644.56
841.182	15653.37
841.507	15648.85
841.832	15538.35
842.156	15561.85
842.481	15463.77
842.805	15486.37
843.13	15444.34
843.454	15335.42
843.778	15312.37
844.103	15289.77
844.427	15207.06
844.751	15281.86
845.075	15212.71
845.399	15138.36
845.723	15080.73
846.047	15037.8
846.371	14937.46
846.695	14887.29
847.019	14765.04
847.343	14748.99
847.666	14664.7
847.99	14600.29
848.313	14570.24
848.637	14490.69
848.96	14483.46
849.284	14391.49
849.607	14388.32
849.931	14304.03
850.254	14197.82
850.577	14203.69
850.9	14087.54
851.223	14078.5
851.546	13923.02
851.869	13957.6
852.192	13955.34
852.515	13806.42
852.838	13765.29
853.161	13771.62
853.483	13751.5
853.806	13685.29
854.129	13599.64
854.451	13572.3
854.774	13510.15
855.096	13531.4
855.419	13394.9
855.741	13428.12
856.063	13296.37
856.385	13290.95
856.708	13326.2
857.03	13163.72
857.352	13192.42
857.674	13084.85
857.996	13061.13
858.318	13052.54
858.64	12965.31
858.961	12975.03
859.283	12919.43
859.605	12890.28
859.926	12942.94
860.248	12837.18
860.57	12839.44
860.891	12788.59
861.212	12734.13
861.534	12702.49
861.855	12735.48
862.176	12723.96
862.498	12563.74
862.819	12693
863.14	12574.36
863.461	12571.19
863.782	12528.03
864.103	12525.32
864.424	12486.68
864.745	12524.19
865.065	12378.66
865.386	12415.94
865.707	12362.61
866.027	12356.74
866.348	12364.42
866.668	12295.95
866.989	12287.36
867.309	12206.91
867.63	12262.73
867.95	12234.71
868.27	12173.92
868.59	12226.35
868.91	12119
869.23	12148.38
869.55	12045.11
869.87	12100.25
870.19	12081.26
870.51	12056.18
870.83	12106.57
871.15	12001.94
871.469	12063.19
871.789	11973.02
872.109	11980.7
872.428	11899.8
872.748	11930.08
873.067	11935.51
873.386	11993.13
873.706	11848.28
874.025	11876.75
874.344	11754.27
874.663	11816.64
874.982	11783.64
875.301	11902.29
875.62	11781.84
875.939	11662.74
876.258	11695.96
876.577	11672.24
876.896	11705.91
877.214	11635.4
877.533	11637.21
877.852	11595.4
878.17	11679.69
878.489	11631.33
878.807	11591.11
879.125	11579.58
879.444	11579.36
879.762	11546.14
880.08	11536.65
880.398	11437.44
880.716	11443.99
881.034	11428.63
881.352	11412.58
881.67	11311.12
881.988	11366.71
882.306	11372.36
882.624	11303.43
882.941	11293.26
883.259	11173.94
883.577	11213.72
883.894	11192.02
884.212	11137.56
884.529	11128.75
884.846	11107.96
885.164	11066.15
885.481	11043.55
885.798	11021.18
886.115	10999.48
886.432	10894.4
886.75	10934.4
887.067	10968.98
887.383	10874.52
887.7	10935.08
888.017	10834.29
888.334	10933.27
888.651	10832.03
888.967	10818.47
889.284	10756.1
889.6	10672.04
889.917	10582.77
890.233	10602.89
890.55	10621.19
890.866	10491.7
891.182	10514.98
891.498	10539.16
891.815	10483.57
892.131	10441.08
892.447	10396.56
892.763	10367.86
893.079	10338.71
893.395	10350.24
893.71	10323.12
894.026	10303.46
894.342	10268.88
894.657	10229.79
894.973	10174.42
895.289	10169.45
895.604	10146.85
895.92	10120.64
896.235	10062.33
896.55	10005.39
896.865	9976.69
897.181	9992.73
897.496	9950.47
897.811	9845.16
898.126	9917.03
898.441	9894.43
898.756	9727.88
899.071	9722.68
899.386	9749.35
899.7	9658.73
900.015	9606.53
900.33	9541.44
900.644	9560.65
900.959	9541.22
901.273	9553.42
901.588	9462.8
901.902	9419.41
902.216	9402.46
902.531	9344.39
902.845	9383.93
903.159	9259.64
903.473	9244.73
903.787	9197.95
904.101	9214.45
904.415	9175.35
904.729	9091.96
905.042	9087.67
905.356	9054
905.67	9034.34
905.984	9029.14
906.297	9046.32
906.611	8923.83
906.924	8992.08
907.237	8892.65
907.551	8787.34
907.864	8838.19
908.177	8774.91
908.491	8798.41
908.804	8671.41
909.117	8652.65
909.43	8573.56
909.743	8557.06
910.056	8483.62
910.368	8533.11
910.681	8502.83
910.994	8478.65
911.307	8383.06
911.619	8343.28
911.932	8409.27
912.244	8298.54
912.557	8331.08
912.869	8272.78
913.181	8191.65
913.494	8159.79
913.806	8083.18
914.118	8131.54
914.43	8134.25
914.742	8088.83
915.054	8065.32
915.366	7997.08
915.678	8012.22
915.99	7911.2
916.302	7887.7
916.613	7812
916.925	7827.82
917.236	7804.09
917.548	7784.43
917.859	7805.22
918.171	7656.07
918.482	7619.01
918.794	7629.18
919.105	7580.14
919.416	7493.36
919.727	7551.21
920.038	7507.15
920.349	7473.48
920.66	7414.04
920.971	7412.91
921.282	7419.01
921.593	7339.02
921.903	7270.77
922.214	7275.74
922.525	7234.61
922.835	7201.84
923.146	7159.36
923.456	7155.29
923.767	7108.06
924.077	7131.79
924.387	7070.77
924.697	6955.07
925.008	7007.27
925.318	6986.71
925.628	6931.8
925.938	6887.73
926.248	6824.91
926.558	6781.29
926.867	6839.59
927.177	6758.47
927.487	6745.59
927.796	6675.53
928.106	6629.43
928.416	6663.55
928.725	6640.73
929.034	6564.57
929.344	6591.24
929.653	6567.96
929.962	6444.58
930.271	6490.68
930.581	6421.98
930.89	6475.08
931.199	6434.86
931.508	6407.97
931.817	6369.1
932.125	6306.5
932.434	6352.38
932.743	6242.55
933.051	6263.56
933.36	6187.63
933.669	6164.81
933.977	6181.31
934.286	6136.11
934.594	6124.36
934.902	6044.13
935.21	6069.9
935.519	6042.55
935.827	6012.05
936.135	5999.16
936.443	5977.47
936.751	5901.77
937.059	5904.93
937.367	5869.9
937.674	5840.75
937.982	5900.86
938.29	5858.15
938.597	5800.53
938.905	5717.14
939.213	5775.44
939.52	5732.5
939.827	5714.43
940.135	5633.3
940.442	5646.63
940.749	5638.5
941.056	5613.19
941.363	5529.35
941.67	5563.24
941.977	5517.6
942.284	5466.3
942.591	5482.12
942.898	5434.89
943.205	5438.73
943.511	5395.34
943.818	5433.08
944.125	5338.39
944.431	5297.26
944.738	5341.1
945.044	5330.71
945.35	5279.64
945.657	5249.13
945.963	5206.42
946.269	5154.67
946.575	5196.93
946.881	5205.29
947.187	5123.71
947.493	5091.17
947.799	5100.43
948.105	5064.73
948.41	5058.85
948.716	5040.32
949.022	4978.4
949.327	4991.51
949.633	4936.59
949.938	4934.79
950.244	4939.31
950.549	4893.66
950.854	4870.61
951.16	4840.78
951.465	4831.51
951.77	4777.95
952.075	4760.33
952.38	4757.84
952.685	4748.58
952.99	4695.02
953.294	4713.1
953.599	4659.31
953.904	4613.21
954.209	4593.1
954.513	4591.74
954.818	4544.51
955.122	4617.28
955.426	4526.66
955.731	4529.82
956.035	4514.01
956.339	4512.88
956.643	4473.1
956.948	4414.8
957.252	4422.71
957.556	4380.22
957.86	4371.64
958.163	4364.18
958.467	4337.74
958.771	4287.57
959.075	4298.87
959.378	4297.51
959.682	4285.54
959.985	4274.01
960.289	4252.09
960.592	4227.91
960.896	4234.46
961.199	4194.24
961.502	4124.41
961.805	4168.03
962.108	4127.12
962.411	4146.33
962.714	4091.19
963.017	4092.1
963.32	4055.03
963.623	4031.08
963.926	4012.55
964.228	4001.7
964.531	3956.96
964.833	3960.57
965.136	3950.86
965.438	3923.74
965.741	3908.6
966.043	3870.86
966.345	3904.08
966.648	3850.52
966.95	3854.81
967.252	3849.84
967.554	3826.34
967.856	3774.14
968.158	3764.19
968.46	3751.54
968.761	3714.25
969.063	3742.73
969.365	3735.27
969.666	3717.87
969.968	3662.05
970.269	3689.17
970.571	3624.99
970.872	3661.15
971.174	3640.81
971.475	3614.59
971.776	3581.83
972.077	3541.6
972.378	3551.32
972.679	3584.76
972.98	3522.17
973.281	3492.34
973.582	3479.23
973.883	3450.08
974.183	3432.68
974.484	3442.62
974.785	3452.11
975.085	3409.63
975.386	3406.46
975.686	3402.85
975.986	3385
976.287	3356.07
976.587	3354.49
976.887	3330.76
977.187	3270.42
977.487	3289.18
977.787	3290.53
978.087	3255.73
978.387	3272.68
978.687	3255.51
978.987	3252.57
979.286	3193.14
979.586	3217.77
979.885	3167.83
980.185	3149.3
980.484	3167.83
980.784	3148.17
981.083	3127.38
981.382	3131.22
981.682	3102.97
981.981	3115.17
982.28	3100.71
982.579	3041.73
982.878	3069.3
983.177	3062.74
983.475	3047.83
983.774	3021.39
984.073	3015.51
984.372	2936.65
984.67	3004.67
984.969	2935.52
985.267	2966.7
985.566	2903.65
985.864	2905.01
986.162	2851
986.461	2884.9
986.759	2867.5
987.057	2813.49
987.355	2845.57
987.653	2836.08
987.951	2848.06
988.249	2807.84
988.547	2782.53
988.844	2758.8
989.142	2776.88
989.44	2733.94
989.737	2765.8
990.035	2733.94
990.332	2700.72
990.63	2735.3
990.927	2651.46
991.224	2708.4
991.521	2658.69
991.819	2667.95
992.116	2641.74
992.413	2636.31
992.71	2625.24
993.006	2622.3
993.303	2607.16
993.6	2580.5
993.897	2577.79
994.193	2534.17
994.49	2597.9
994.787	2522.87
995.083	2535.98
995.379	2514.74
995.676	2516.54
995.972	2479.48
996.268	2452.82
996.565	2476.55
996.861	2436.55
997.157	2473.61
997.453	2439.71
997.749	2423.21
998.044	2411.24
998.34	2410.33
998.636	2406.26
998.932	2369.66
999.227	2368.75
999.523	2360.84
999.818	2305.02
1000.114	2273.61
1000.409	2303.67
1000.704	2289.21
1001	2272.93
1001.295	2261.64
1001.59	2238.36
1001.885	2273.61
1002.18	2217.12
1002.475	2212.15
1002.77	2191.35
1003.065	2203.33
1003.359	2207.63
1003.654	2161.53
1003.949	2178.47
1004.243	2135.99
1004.538	2130.34
1004.832	2133.05
1005.127	2125.59
1005.421	2108.65
1005.715	2074.75
1006.009	2073.62
1006.304	2074.75
1006.598	2065.03
1006.892	2037.46
1007.186	2022.77
1007.48	2020.29
1007.773	2020.51
1008.067	1984.58
1008.361	1998.59
1008.655	1971.02
1008.948	1955.88
1009.242	1964.92
1009.535	1928.54
1009.829	1919.72
1010.122	1930.57
1010.415	1917.46
1010.708	1915.88
1011.001	1908.42
1011.295	1890.57
1011.588	1848.31
1011.881	1847.41
1012.173	1841.53
1012.466	1842.89
1012.759	1800.4
1013.052	1835.88
1013.344	1809.9
1013.637	1791.37
1013.93	1765.15
1014.222	1777.58
1014.514	1774.42
1014.807	1752.04
1015.099	1720.18
1015.391	1723.8
1015.683	1721.99
1015.976	1697.81
1016.268	1681.99
1016.56	1677.02
1016.851	1680.86
1017.143	1653.29
1017.435	1610.58
1017.727	1613.97
1018.018	1613.52
1018.31	1622.33
1018.602	1637.92
1018.893	1618.71
1019.185	1566.29
1019.476	1559.28
1019.767	1540.98
1020.058	1560.86
1020.35	1540.75
1020.641	1506.4
1020.932	1521.77
1021.223	1514.31
1021.514	1488.1
1021.804	1493.52
1022.095	1472.5
1022.386	1492.39
1022.677	1460.3
1022.967	1467.98
1023.258	1439.96
1023.548	1432.28
1023.839	1430.24
1024.129	1423.47
1024.419	1397.7
1024.709	1405.84
1025	1377.82
1025.29	1360.87
1025.58	1385.95
1025.87	1371.49
1026.16	1377.36
1026.449	1321.32
1026.739	1334.43
1027.029	1322
1027.319	1308.89
1027.608	1275.45
1027.898	1318.84
1028.187	1307.08
1028.477	1274.99
1028.766	1298.95
1029.055	1253.3
1029.344	1259.85
1029.634	1246.75
1029.923	1243.13
1030.212	1242.45
1030.501	1227.99
1030.79	1228.44
1031.078	1213.3
1031.367	1192.51
1031.656	1195.45
1031.945	1189.8
1032.233	1197.93
1032.522	1166.97
1032.81	1163.59
1033.099	1146.41
1033.387	1132.63
1033.675	1159.74
1033.963	1125.85
1034.251	1135.11
1034.54	1120.2
1034.828	1101.21
1035.116	1111.16
1035.403	1103.02
1035.691	1084.72
1035.979	1081.1
1036.267	1080.65
1036.554	1061.22
1036.842	1063.02
1037.129	1055.34
1037.417	1060.31
1037.704	1051.27
1037.992	1016.24
1038.279	1040.65
1038.566	1028.45
1038.853	1028.45
1039.14	1028.45
