Data from hue_70_FLMS001491_5.txt Node
Date: Mon Feb 06 15:19:59 GMT 2017
User: dcchb
Spectrometer: FLMS00149
Trigger mode: 0
Integration Time (sec): 2.000000E-2
Scans to average: 10
Electric dark correction enabled: true
Nonlinearity correction enabled: false
Boxcar width: 0
XAxis mode: Wavelengths
Number of Pixels in Spectrum: 2048
>>>>>Begin Spectral Data<<<<<
341.393	-10.96
341.776	-10.96
342.16	-10.96
342.543	-62.26
342.927	-68.36
343.31	-64.29
343.693	-77.63
344.077	-56.38
344.46	-70.85
344.843	-47.12
345.226	-47.12
345.61	-40.56
345.993	-3.73
346.376	-10.06
346.759	1.69
347.142	27
347.525	33.33
347.908	57.74
348.291	72.65
348.674	97.29
349.057	128.02
349.44	133.22
349.823	151.75
350.206	149.04
350.588	215.02
350.971	202.37
351.354	229.26
351.737	222.71
352.119	247.34
352.502	272.87
352.884	275.13
353.267	270.16
353.65	327.56
354.032	312.42
354.414	310.16
354.797	310.16
355.179	323.04
355.562	315.58
355.944	323.72
356.326	339.09
356.709	342.25
357.091	314.46
357.473	347
357.855	347.67
358.238	319.88
358.62	326.66
359.002	329.14
359.384	342.25
359.766	336.15
360.148	361.23
360.53	333.89
360.912	327.11
361.294	331.4
361.676	336.6
362.057	310.16
362.439	314.91
362.821	338.86
363.203	324.4
363.584	324.85
363.966	328.24
364.348	321.01
364.729	316.71
365.111	309.26
365.493	318.52
365.874	324.85
366.256	308.81
366.637	328.69
367.019	296.6
367.4	316.04
367.781	335.7
368.163	300.22
368.544	295.25
368.925	302.25
369.306	337.28
369.688	325.53
370.069	296.6
370.45	338.41
370.831	299.99
371.212	312.42
371.593	311.74
371.974	316.04
372.355	310.84
372.736	316.71
373.117	332.76
373.498	316.04
373.879	310.39
374.26	313.78
374.641	311.97
375.021	321.69
375.402	311.74
375.783	333.21
376.163	321.69
376.544	316.94
376.925	327.79
377.305	346.77
377.686	336.83
378.066	337.73
378.447	325.3
378.827	347.9
379.208	321.69
379.588	333.66
379.968	329.6
380.349	335.25
380.729	328.01
381.109	322.82
381.489	340.89
381.87	352.87
382.25	342.25
382.63	352.19
383.01	350.84
383.39	330.5
383.77	338.41
384.15	341.35
384.53	352.19
384.91	350.61
385.29	349.48
385.67	346.09
386.049	350.39
386.429	348.13
386.809	350.61
387.189	349.71
387.568	341.12
387.948	339.31
388.328	359.2
388.707	351.74
389.087	343.38
389.466	344.51
389.846	352.42
390.225	348.13
390.605	342.7
390.984	348.13
391.363	364.17
391.743	358.07
392.122	357.84
392.501	377.5
392.881	373.89
393.26	350.39
393.639	340.89
394.018	369.59
394.397	361.91
394.776	372.53
395.155	382.93
395.534	377.28
395.913	353.78
396.292	357.62
396.671	382.93
397.05	373.21
397.429	363.49
397.808	361.46
398.186	357.84
398.565	351.52
398.944	378.41
399.323	366.88
399.701	391.74
400.08	375.24
400.458	412.98
400.837	398.52
401.215	392.87
401.594	397.16
401.972	379.76
402.351	407.11
402.729	393.1
403.107	409.14
403.486	382.25
403.864	419.54
404.242	419.31
404.62	395.58
404.999	408.01
405.377	398.75
405.755	406.88
406.133	405.75
406.511	403.72
406.889	413.89
407.267	412.98
407.645	429.03
408.023	429.93
408.401	415.02
408.779	419.54
409.156	449.82
409.534	418.63
409.912	442.59
410.29	454.56
410.667	451.85
411.045	445.75
411.422	446.2
411.8	442.14
412.178	467.67
412.555	465.86
412.933	463.15
413.31	450.04
413.687	458.63
414.065	449.37
414.442	460.67
414.819	460.67
415.197	488.01
415.574	467.9
415.951	487.78
416.328	474
416.705	488.46
417.082	465.19
417.46	498.63
417.837	479.65
418.214	477.84
418.591	491.63
418.967	515.58
419.344	505.86
419.721	485.75
420.098	506.99
420.475	511.51
420.852	519.2
421.228	486.65
421.605	505.41
421.982	510.83
422.358	509.25
422.735	537.27
423.111	513.77
423.488	521
423.864	532.53
424.241	564.62
424.617	542.02
424.994	547.22
425.37	534.34
425.746	531.85
426.123	547.67
426.499	543.38
426.875	551.28
427.251	559.42
427.627	556.48
428.003	559.65
428.379	550.61
428.756	583.37
429.132	574.11
429.507	580.89
429.883	587.44
430.259	584.73
430.635	593.54
431.011	589.7
431.387	616.82
431.763	619.31
432.138	622.24
432.514	629.02
432.89	610.94
433.265	625.41
433.641	626.09
434.016	650.27
434.392	642.81
434.767	668.57
435.143	644.16
435.518	651.4
435.894	652.3
436.269	660.66
436.644	692.75
437.02	689.13
437.395	676.25
437.77	663.15
438.145	683.48
438.52	690.94
438.895	694.78
439.271	686.65
439.646	705.63
440.021	737.27
440.395	711.51
440.77	723.26
441.145	711.73
441.52	739.98
441.895	732.98
442.27	749.47
442.645	737.95
443.019	761.22
443.394	757.83
443.769	777.49
444.143	753.54
444.518	762.8
444.892	770.49
445.267	788.57
445.641	765.97
446.016	774.1
446.39	772.75
446.764	804.84
447.139	778.85
447.513	766.65
447.887	813.42
448.262	816.81
448.636	801
449.01	829.02
449.384	810.71
449.758	840.77
450.132	844.61
450.506	848.68
450.88	856.36
451.254	841.9
451.628	878.51
452.002	856.81
452.376	882.35
452.75	867.43
453.123	893.42
453.497	887.55
453.871	907.21
454.244	923.48
454.618	934.33
454.992	928.9
455.365	933.2
455.739	928.68
456.112	954.66
456.486	941.11
456.859	970.03
457.232	975.23
457.606	992.86
457.979	978.17
458.352	1002.8
458.725	1002.57
459.099	1028.56
459.472	1020.2
459.845	1069.92
460.218	1072.18
460.591	1078.73
460.964	1085.06
461.337	1131.38
461.71	1135.68
462.083	1144.49
462.456	1158.73
462.829	1146.52
463.201	1167.09
463.574	1200.31
463.947	1200.76
464.32	1219.06
464.692	1222.45
465.065	1215.67
465.438	1233.3
465.81	1276.24
466.183	1281.89
466.555	1299.06
466.928	1331.38
467.3	1333.19
467.672	1358.04
468.045	1394.88
468.417	1396.46
468.789	1418.61
469.161	1444.82
469.534	1465.84
469.906	1501.99
470.278	1490.02
470.65	1518.04
471.022	1584.7
471.394	1595.1
471.766	1628.09
472.138	1653.85
472.51	1699.05
472.882	1712.16
473.253	1738.82
473.625	1775.21
473.997	1824.7
474.369	1869.22
474.74	1911.7
475.112	1923.68
475.484	1989.89
475.855	2015.2
476.227	2080.74
476.598	2108.53
476.97	2189.89
477.341	2239.38
477.713	2271.92
478.084	2294.06
478.455	2415.87
478.827	2480.73
479.198	2527.5
479.569	2578.35
479.94	2666.48
480.311	2782.41
480.682	2818.57
481.053	2899.92
481.424	2985.35
481.795	3049.3
482.166	3136.75
482.537	3210.65
482.908	3350.53
483.279	3395.73
483.65	3484.32
484.021	3643.86
484.391	3679.79
484.762	3792.33
485.133	3864.19
485.503	3953.91
485.874	4101.02
486.244	4189.61
486.615	4275.93
486.985	4428.02
487.356	4561.57
487.726	4648.8
488.097	4826.2
488.467	4827.56
488.837	5065.06
489.207	5136.48
489.578	5317.94
489.948	5417.15
490.318	5515.9
490.688	5681.55
491.058	5790.92
491.428	5999.05
491.798	6075.66
492.168	6271.59
492.538	6400.62
492.908	6507.29
493.278	6671.35
493.648	6761.74
494.017	6935.98
494.387	7055.29
494.757	7215.97
495.126	7379.58
495.496	7478.79
495.866	7654.6
496.235	7783.86
496.605	7883.52
496.974	8069.96
497.344	8178.2
497.713	8233.12
498.082	8428.82
498.452	8566.89
498.821	8695.25
499.19	8791.75
499.559	8913.32
499.928	9038.07
500.298	9210.04
500.667	9345.63
501.036	9433.09
501.405	9587.43
501.774	9682.57
502.143	9826.97
502.512	9924.6
502.88	10109.68
503.249	10176.34
503.618	10255.21
503.987	10432.61
504.356	10528.88
504.724	10686.61
505.093	10738.81
505.462	10833.95
505.83	10963.67
506.199	11095.87
506.567	11287.95
506.936	11375.41
507.304	11553.71
507.672	11614.5
508.041	11736.53
508.409	11847.26
508.777	11940.82
509.145	12137.65
509.514	12153.92
509.882	12271.2
510.25	12357.08
510.618	12470.75
510.986	12485.21
511.354	12727.46
511.722	12913.45
512.09	12964.52
512.458	12958.87
512.826	13126.32
513.193	13216.26
513.561	13260.33
513.929	13474.11
514.297	13633.2
514.664	13663.26
515.032	13790.48
515.4	13869.13
515.767	13901.89
516.135	14031.83
516.502	14082.68
516.869	14278.16
517.237	14336.69
517.604	14315.89
517.972	14500.97
518.339	14579.84
518.706	14632.5
519.073	14669.33
519.44	14845.15
519.808	15042.2
520.175	14946.39
520.542	15188.41
520.909	15326.72
521.276	15263.89
521.643	15442.87
522.009	15582.75
522.376	15650.1
522.743	15712.47
523.11	15869.98
523.477	16071.1
523.843	16085.11
524.21	16326.46
524.577	16286.92
524.943	16384.99
525.31	16450.53
525.676	16613.46
526.043	16695.72
526.409	16819.56
526.776	16858.65
527.142	16951.76
527.508	17023.85
527.874	17122.15
528.241	17136.39
528.607	17243.28
528.973	17443.5
529.339	17461.12
529.705	17526.88
530.071	17635.58
530.437	17683.49
530.803	17903.6
531.169	17899.53
531.535	17819.53
531.901	17891.85
532.267	17989.24
532.632	18140.88
532.998	18117.83
533.364	18114.66
533.73	18243.48
534.095	18316.24
534.461	18304.04
534.826	18342.91
535.192	18435.56
535.557	18460.19
535.923	18485.05
536.288	18640.3
536.653	18624.93
537.019	18500.42
537.384	18673.29
537.749	18656.12
538.114	18773.4
538.479	18732.73
538.845	18826.96
539.21	18759.85
539.575	18870.58
539.94	18875.55
540.305	19028.09
540.67	18873.74
541.034	19010.69
541.399	18996.45
541.764	19019.73
542.129	19016.11
542.494	19136.78
542.858	19110.12
543.223	19141.3
543.587	19204.81
543.952	19175.88
544.316	19205.03
544.681	19258.59
545.045	19233.51
545.41	19390.79
545.774	19373.61
546.138	19435.08
546.503	19358.93
546.867	19314.86
547.231	19610.44
547.595	19382.2
547.959	19532.03
548.324	19404.12
548.688	19399.83
549.052	19512.82
549.416	19543.55
549.779	19467.62
550.143	19735.19
550.507	19664.91
550.871	19698.58
551.235	19742.87
551.599	19746.71
551.962	19762.53
552.326	19770.44
552.689	19907.39
553.053	19715.53
553.417	19808.41
553.78	20097.44
554.143	19902.87
554.507	19963.66
554.87	19997.78
555.234	20173.59
555.597	19953.26
555.96	20134.95
556.323	20101.96
556.686	20136.98
557.05	20200.94
557.413	20261.5
557.776	20350.76
558.139	20375.17
558.502	20374.04
558.865	20486.81
559.228	20521.61
559.59	20633.69
559.953	20472.12
560.316	20704.2
560.679	20669.17
561.041	20807.25
561.404	20980.8
561.767	20992.33
562.129	20868.04
562.492	21051.99
562.854	21121.14
563.217	21058.09
563.579	21197.3
563.941	21247.69
564.304	21279.33
564.666	21452.88
565.028	21419.21
565.39	21469.38
565.753	21529.49
566.115	21630.05
566.477	21672.76
566.839	21707.56
567.201	21840.89
567.563	21809.48
567.925	21886.77
568.287	22000.44
568.648	21969.48
569.01	22039.53
569.372	22216.93
569.734	22263.03
570.095	22207.66
570.457	22444.95
570.819	22324.5
571.18	22402.91
571.542	22491.95
571.903	22531.95
572.265	22623.47
572.626	22596.81
572.987	22679.06
573.349	22650.59
573.71	22680.87
574.071	22814.2
574.432	22791.38
574.794	23016
575.155	22983.24
575.516	22863.01
575.877	22983.69
576.238	22984.37
576.599	23004.71
576.96	23100.52
577.32	23081.54
577.681	23137.36
578.042	23307.52
578.403	23221.42
578.763	23232.04
579.124	23304.36
579.485	23256
579.845	23411.47
580.206	23343.23
580.566	23331.02
580.927	23445.6
581.287	23458.03
581.648	23362.21
582.008	23438.59
582.368	23451.93
582.728	23512.94
583.089	23441.3
583.449	23377.35
583.809	23510.23
584.169	23493.96
584.529	23379.16
584.889	23774.18
585.249	23451.25
585.609	23514.3
585.969	23531.25
586.329	23315.43
586.688	23583
587.048	23448.54
587.408	23459.16
587.768	23559.27
588.127	23415.54
588.487	23416.9
588.846	23535.09
589.206	23345.49
589.565	23357.24
589.925	23425.26
590.284	23408.54
590.643	23496.22
591.003	23567.85
591.362	23565.6
591.721	23582.77
592.08	23505.71
592.44	23631.58
592.799	23564.69
593.158	23458.71
593.517	23519.49
593.876	23507.52
594.235	23560.4
594.593	23373.51
594.952	23531.25
595.311	23524.47
595.67	23519.72
596.029	23703.9
596.387	23639.94
596.746	23638.14
597.104	23666.84
597.463	23542.54
597.822	23625.71
598.18	23599.72
598.538	23494.86
598.897	23664.8
599.255	23524.69
599.613	23799.49
599.972	23622.32
600.33	23717
600.688	23606.72
601.046	23730.56
601.404	23832.71
601.762	23759.26
602.12	23809.66
602.478	23968.75
602.836	23794.52
603.194	23788.19
603.552	23790.9
603.91	23699.83
604.268	23870.9
604.625	23839.94
604.983	23804.68
605.341	23778.24
605.698	23890.78
606.056	24067.5
606.413	23890.78
606.771	23988.41
607.128	23988.18
607.485	23972.36
607.843	24003.55
608.2	24100.04
608.557	24251.45
608.914	24107.73
609.272	24256.2
609.629	24317.89
609.986	24350.21
610.343	24278.34
610.7	24468.62
611.057	24404.67
611.414	24423.65
611.771	24382.07
612.127	24403.99
612.484	24497.77
612.841	24646.24
613.198	24550.43
613.554	24631.1
613.911	24648.28
614.267	24722.17
614.624	24767.37
614.98	24649.63
615.337	24778.9
615.693	24701.61
616.05	24684.44
616.406	24878.78
616.762	24843.08
617.118	24802.4
617.475	24868.61
617.831	24884.66
618.187	24914.71
618.543	24889.63
618.899	25042.39
619.255	25019.79
619.611	25009.85
619.967	25089.4
620.323	25166.46
620.678	25055.5
621.034	25069.74
621.39	25024.09
621.746	24984.99
622.101	25185.44
622.457	25110.64
622.812	25151.99
623.168	25233.12
623.523	25182.05
623.879	25284.42
624.234	25137.53
624.589	25226.12
624.945	25191.77
625.3	25284.65
625.655	25300.69
626.01	25180.69
626.365	25228.6
626.72	25322.39
627.075	25395.38
627.43	25302.05
627.785	25191.77
628.14	25304.53
628.495	25368.49
628.85	25327.58
629.205	25280.35
629.559	25378.88
629.914	25392.44
630.269	25338.43
630.623	25357.41
630.978	25269.28
631.332	25322.84
631.687	25278.09
632.041	25188.83
632.396	25192.9
632.75	25113.12
633.104	25175.72
633.459	25078.78
633.813	25152.22
634.167	24997.42
634.521	24976.18
634.875	25143.41
635.229	25069.06
635.583	24839.69
635.937	24971.21
636.291	24856.86
636.645	24918.1
636.999	24919.01
637.352	24987.48
637.706	24820.93
638.06	24757.65
638.413	24744.55
638.767	24736.86
639.121	24714.72
639.474	24682.18
639.828	24850.08
640.181	24832.68
640.534	24752
640.888	24758.33
641.241	24634.27
641.594	24629.75
641.947	24636.53
642.301	24614.61
642.654	24674.94
643.007	24610.31
643.36	24538.68
643.713	24617.77
644.066	24598.56
644.419	24476.53
644.771	24250.55
645.124	24129.65
645.477	24067.28
645.83	23999.93
646.182	23889.88
646.535	23782.09
646.888	23897.79
647.24	23823.22
647.593	23841.07
647.945	23738.25
648.298	23655.76
648.65	23714.29
649.002	23595.42
649.355	23736.66
649.707	23718.13
650.059	23662.99
650.411	24065.92
650.763	24116.09
651.115	24243.09
651.467	24178.69
651.819	24356.99
652.171	24226.14
652.523	24204.45
652.875	24168.74
653.227	23978.92
653.578	24124
653.93	24148.4
654.282	24008.07
654.633	24045.13
654.985	24081.51
655.337	24100.5
655.688	24092.59
656.039	24230.21
656.391	24003.32
656.742	24074.51
657.094	24062.76
657.445	24169.2
657.796	24094.17
658.147	24049.42
658.498	24040.38
658.849	24123.09
659.2	24067.95
659.551	24005.81
659.902	24121.74
660.253	24078.58
660.604	24114.06
660.955	23961.97
661.306	24114.73
661.656	24039.71
662.007	23989.31
662.358	24039.93
662.708	24079.48
663.059	24092.81
663.409	23991.35
663.76	24110.67
664.11	23972.82
664.461	24128.74
664.811	24219.82
665.161	24088.07
665.511	23997.9
665.862	24098.24
666.212	24083.1
666.562	24027.96
666.912	24058.69
667.262	23922.42
667.612	24045.13
667.962	24051.68
668.312	23965.81
668.662	24104.56
669.011	24048.29
669.361	24013.72
669.711	23911.57
670.06	23987.05
670.41	23978.24
670.76	23933.95
671.109	24010.1
671.459	23857.56
671.808	23884.46
672.157	24032.93
672.507	23774.18
672.856	23867.06
673.205	23889.88
673.554	23892.37
673.904	23782.09
674.253	23866.38
674.602	23877.23
674.951	23462.32
675.3	23455.77
675.649	23797.23
675.998	23684.91
676.346	23836.55
676.695	23784.12
677.044	23615.31
677.393	23708.87
677.741	23758.36
678.09	23660.28
678.438	23537.35
678.787	23636.1
679.135	23587.29
679.484	23443.79
679.832	23517.01
680.181	23413.51
680.529	23450.57
680.877	23413.06
681.225	23364.24
681.573	23456.22
681.922	23365.83
682.27	23275.21
682.618	23269.78
682.966	23142.78
683.314	23237.02
683.661	23159.96
684.009	23109.79
684.357	22994.31
684.705	23019.17
685.053	23003.58
685.4	22870.47
685.748	22752.74
686.095	22771.72
686.443	22791.6
686.79	22698.95
687.138	22771.04
687.485	22750.48
687.832	22646.52
688.18	22644.94
688.527	22539.63
688.874	22498.05
689.221	22458.96
689.568	22479.3
689.915	22375.57
690.262	22238.4
690.609	22234.78
690.956	22115.92
691.303	22152.3
691.65	21989.14
691.997	22001.79
692.344	21840.22
692.69	21911.4
693.037	21973.77
693.383	21601.58
693.73	21787.11
694.077	21672.54
694.423	21617.62
694.769	21578.98
695.116	21476.61
695.462	21460.34
695.808	21300.8
696.155	21480.45
696.501	21141.03
696.847	21209.27
697.193	21104.42
697.539	21116.39
697.885	20982.16
698.231	20869.17
698.577	20925.44
698.923	20790.75
699.269	20721.15
699.614	20661.94
699.96	20457.2
700.306	20571.32
700.651	20414.94
700.997	20423.98
701.342	20376.53
701.688	20427.82
702.033	20206.36
702.379	20222.63
702.724	20142.18
703.069	20234.61
703.415	20018.34
703.76	19948.29
704.105	20026.03
704.45	19923.43
704.795	19737.9
705.14	19656.32
705.485	19709.65
705.83	19586.26
706.175	19567.73
706.52	19524.35
706.865	19444.8
707.209	19410.22
707.554	19320.28
707.899	19351.24
708.243	19231.47
708.588	19283
708.932	19020.63
709.277	19063.79
709.621	19105.83
709.966	18888.88
710.31	18962.33
710.654	18716.23
710.998	18759.85
711.342	18839.39
711.687	18777.25
712.031	18654.09
712.375	18659.28
712.719	18668.1
713.063	18507.65
713.407	18631.26
713.75	18515.78
714.094	18538.83
714.438	18453.41
714.782	18421.1
715.125	18353.3
715.469	18407.76
715.812	18246.64
716.156	18208.67
716.499	18306.75
716.843	18238.73
717.186	18144.72
717.53	18278.28
717.873	18270.59
718.216	18127.55
718.559	18144.04
718.902	17963.48
719.246	18000.54
719.589	17989.7
719.932	17954.67
720.275	18002.13
720.617	17872.64
720.96	17909.7
721.303	17851.4
721.646	17753.77
721.989	17736.37
722.331	17758.52
722.674	17773.43
723.016	17699.08
723.359	17671.96
723.701	17670.61
724.044	17592.19
724.386	17541.57
724.729	17553.78
725.071	17515.13
725.413	17630.16
725.755	17557.17
726.097	17490.73
726.439	17297.51
726.782	17356.49
727.124	17441.69
727.465	17367.57
727.807	17333.67
728.149	17321.24
728.491	17330.05
728.833	17291.64
729.175	17286.44
729.516	17203.95
729.858	17241.02
730.199	17260
730.541	17265.87
730.882	17148.36
731.224	17241.02
731.565	17095.93
731.906	17074.69
732.248	17114.47
732.589	17133.45
732.93	17050.06
733.271	17104.07
733.612	17048.7
733.953	17076.27
734.294	17031.98
734.635	16957.63
734.976	16945.2
735.317	16970.74
735.658	16959.44
735.999	17004.41
736.339	16853
736.68	16963.73
737.021	16889.61
737.361	16841.7
737.702	16944.98
738.042	16930.29
738.383	16847.58
738.723	17046.44
739.063	16868.37
739.404	16986.33
739.744	16941.59
740.084	16933.45
740.424	16977.07
740.764	16907.69
741.104	16910.18
741.444	16862.04
741.784	16864.53
742.124	16916.05
742.464	16844.87
742.804	16944.07
743.143	16837.64
743.483	16843.51
743.823	16805.77
744.162	16846.9
744.502	16896.39
744.841	16855.71
745.181	16943.62
745.52	16979.1
745.86	17055.03
746.199	16880.35
746.538	17089.83
746.877	17085.31
747.216	17067.69
747.556	17101.58
747.895	17126.22
748.234	16978.2
748.573	17068.36
748.911	17181.36
749.25	17106.33
749.589	17210.96
749.928	17301.35
750.267	17289.15
750.605	17335.93
750.944	17277.4
751.283	17377.74
751.621	17434.46
751.96	17429.71
752.298	17542.93
752.636	17579.31
752.975	17653.43
753.313	17630.38
753.651	17790.38
753.989	17712.19
754.327	17794
754.666	17832.19
755.004	17923.26
755.342	18001.67
755.679	17975.23
756.017	17983.59
756.355	18210.71
756.693	18170.26
757.031	18281.89
757.368	18276.92
757.706	18284.15
758.044	18334.77
758.381	18479.63
758.719	18556.91
759.056	18574.99
759.394	18650.02
759.731	18575.22
760.068	18746.06
760.405	18745.83
760.743	18774.08
761.08	18858.37
761.417	18926.62
761.754	19023.34
762.091	18958.03
762.428	18978.6
762.765	19082.32
763.102	19247.29
763.438	19103.57
763.775	19196.22
764.112	19267.63
764.449	19211.36
764.785	19237.8
765.122	19261.53
765.458	19172.04
765.795	19315.09
766.131	19435.76
766.467	19370.23
766.804	19327.06
767.14	19387.85
767.476	19414.97
767.812	19386.72
768.148	19468.08
768.485	19393.73
768.821	19220.85
769.157	19287.97
769.492	19367.97
769.828	19430.56
770.164	19211.13
770.5	19244.8
770.836	19335.42
771.171	19223.11
771.507	19330.68
771.842	19185.37
772.178	19211.81
772.513	19218.82
772.849	19087.52
773.184	19195.09
773.519	19217.91
773.855	19155.54
774.19	19112.15
774.525	19034.64
774.86	19029.67
775.195	19111.93
775.53	19054.75
775.865	18988.09
776.2	18870.58
776.535	18803.01
776.87	18847.53
777.205	18831.26
777.539	18727.76
777.874	18813.86
778.209	18642.56
778.543	18631.26
778.878	18552.39
779.212	18562.79
779.547	18561.88
779.881	18525.95
780.215	18432.85
780.55	18473.3
780.884	18351.27
781.218	18338.84
781.552	18272.4
781.886	18255.68
782.22	18163.48
782.554	18011.62
782.888	17922.58
783.222	17862.24
783.556	17903.37
783.889	17928.68
784.223	17704.96
784.557	17803.49
784.89	17771.62
785.224	17659.99
785.557	17533.89
785.891	17556.94
786.224	17434
786.558	17409.15
786.891	17289.38
787.224	17313.33
787.557	17334.57
787.891	17399.88
788.224	17280.34
788.557	17129.61
788.89	17078.76
789.223	16955.83
789.556	16883.28
789.888	16915.83
790.221	16900.01
790.554	16659.79
790.887	16768.26
791.219	16660.24
791.552	16682.16
791.884	16583.18
792.217	16511.09
792.549	16539.57
792.882	16335.28
793.214	16222.96
793.546	16297.99
793.879	16218.9
794.211	16150.2
794.543	16170.99
794.875	16136.19
795.207	16191.55
795.539	16014.61
795.871	15981.39
796.203	15947.04
796.535	15813.03
796.867	15781.84
797.198	15829.98
797.53	15763.99
797.862	15763.99
798.193	15748.63
798.525	15565.58
798.856	15580.04
799.188	15519.93
799.519	15453.72
799.85	15318.35
800.182	15348.18
800.513	15373.95
800.844	15219.83
801.175	15251.46
801.506	15190.22
801.837	15255.76
802.168	15196.55
802.499	15102.31
802.83	15024.35
803.161	15006.05
803.491	14969.66
803.822	14931.7
804.153	14968.98
804.483	14750.46
804.814	14671.59
805.145	14700.97
805.475	14588.2
805.805	14646.51
806.136	14613.06
806.466	14561.99
806.796	14531.03
807.126	14453.97
807.457	14449
807.787	14423.01
808.117	14379.85
808.447	14358.61
808.777	14392.28
809.107	14259.85
809.436	14247.65
809.766	14204.26
810.096	14198.16
810.426	14178.05
810.755	14119.74
811.085	14068.9
811.414	14045.39
811.744	13942.8
812.073	13889.69
812.403	13917.49
812.732	13683.82
813.061	13894.66
813.39	13726.53
813.719	13722.69
814.049	13782.12
814.378	13770.15
814.707	13672.52
815.036	13757.04
815.365	13549.59
815.693	13452.87
816.022	13518.85
816.351	13514.56
816.68	13397.05
817.008	13418.52
817.337	13278.18
817.665	13324.06
817.994	13248.13
818.322	13339.42
818.651	13218.52
818.979	13161.12
819.307	13243.83
819.636	13204.74
819.964	13060.56
820.292	13115.25
820.62	13090.16
820.948	13103.95
821.276	13087.68
821.604	13024.18
821.932	13158.19
822.259	13080.22
822.587	13032.54
822.915	13037.06
823.243	13000
823.57	13010.62
823.898	12974.46
824.225	13040.67
824.553	13014.01
824.88	13015.59
825.207	13083.16
825.535	12968.13
825.862	13022.37
826.189	13049.94
826.516	13104.18
826.843	13116.83
827.17	13052.65
827.497	12970.85
827.824	13043.16
828.151	13081.35
828.478	12987.79
828.805	13063.27
829.131	12938.98
829.458	13027.79
829.785	12908.47
830.111	12971.07
830.438	12950.05
830.764	12992.09
831.09	12936.95
831.417	12880.23
831.743	12992.09
832.069	12949.83
832.395	12851.75
832.722	12996.61
833.048	12902.82
833.374	12810.85
833.7	12810.17
834.026	12930.85
834.351	12932.65
834.677	12892.43
835.003	12858.98
835.329	12864.18
835.654	12851.07
835.98	12749.83
836.306	12816.95
836.631	12810.85
836.956	12746.22
837.282	12773.56
837.607	12651.08
837.932	12675.94
838.258	12696.05
838.583	12574.92
838.908	12586.45
839.233	12666.22
839.558	12558.43
839.883	12513.23
840.208	12551.65
840.533	12548.26
840.858	12565.88
841.182	12531.31
841.507	12541.93
841.832	12430.97
842.156	12407.02
842.481	12357.53
842.805	12334.93
843.13	12322.27
843.454	12323.18
843.778	12235.72
844.103	12255.61
844.427	12240.24
844.751	12146.91
845.075	12153.69
845.399	12061.94
845.723	12038.89
846.047	12033.24
846.371	11946.01
846.695	11911.89
847.019	11782.4
847.343	11797.09
847.666	11754.61
847.99	11764.1
848.313	11675.74
848.637	11622.41
848.96	11611.33
849.284	11570.88
849.607	11477.78
849.931	11410.66
850.254	11351.9
850.577	11255.41
850.9	11198.69
851.223	11231.23
851.546	11210.44
851.869	11109.2
852.192	11138.58
852.515	11068.07
852.838	10978.81
853.161	11125.92
853.483	10972.25
853.806	10885.7
854.129	10870.34
854.451	10879.15
854.774	10761.41
855.096	10835.31
855.419	10744.46
855.741	10678.48
856.063	10602.77
856.385	10662.43
856.708	10632.6
857.03	10563.9
857.352	10584.92
857.674	10550.8
857.996	10520.06
858.318	10430.57
858.64	10427.64
858.961	10450.01
859.283	10354.64
859.605	10302.67
859.926	10383.34
860.248	10357.35
860.57	10218.6
860.891	10213.63
861.212	10212.5
861.534	10141.32
861.855	10126.4
862.176	10173.63
862.498	10136.34
862.819	10157.36
863.14	10110.81
863.461	10006.86
863.782	10031.71
864.103	10031.04
864.424	9972.05
864.745	10013.41
865.065	10007.53
865.386	9962.11
865.707	9862.68
866.027	9901.32
866.348	9859.74
866.668	9891.6
866.989	9879.85
867.309	9763.47
867.63	9800.99
867.95	9784.49
868.27	9763.7
868.59	9747.65
868.91	9816.8
869.23	9756.69
869.55	9705.17
869.87	9686.41
870.19	9704.72
870.51	9750.14
870.83	9667.66
871.15	9649.8
871.469	9615.68
871.789	9652.51
872.109	9590.82
872.428	9547.88
872.748	9607.77
873.067	9598.96
873.386	9590.6
873.706	9549.24
874.025	9485.74
874.344	9477.83
874.663	9456.81
874.982	9473.31
875.301	9439.64
875.62	9428.57
875.939	9370.49
876.258	9362.8
876.577	9389.7
876.896	9407.1
877.214	9284.39
877.533	9398.96
877.852	9288.23
878.17	9306.31
878.489	9289.59
878.807	9274.67
879.125	9274.22
879.444	9259.98
879.762	9220.21
880.08	9219.76
880.398	9152.19
880.716	9173.88
881.034	9154.45
881.352	9109.7
881.67	9129.59
881.988	9181.11
882.306	9096.6
882.624	9041.91
882.941	8972.31
883.259	8963.04
883.577	8964.4
883.894	8972.53
884.212	8944.28
884.529	8948.8
884.846	8824.29
885.164	8921.69
885.481	8916.49
885.798	8872.65
886.115	8785.87
886.432	8774.35
886.75	8763.05
887.067	8811.41
887.383	8767.57
887.7	8756.72
888.017	8764.85
888.334	8669.72
888.651	8718.98
888.967	8696.38
889.284	8603.28
889.6	8611.41
889.917	8566.22
890.233	8502.26
890.55	8511.3
890.866	8510.85
891.182	8468.82
891.498	8482.83
891.815	8472.66
892.131	8361.02
892.447	8367.58
892.763	8317.18
893.079	8330.97
893.395	8272.66
893.71	8240.57
894.026	8249.61
894.342	8227.69
894.657	8233.57
894.973	8219.11
895.289	8198.54
895.604	8158.77
895.92	8099.11
896.235	8034.25
896.55	8049.62
896.865	7982.28
897.181	7982.95
897.496	7951.77
897.811	7886.23
898.126	7893.69
898.441	7890.08
898.756	7877.19
899.071	7811.66
899.386	7831.32
899.7	7770.3
900.015	7714.94
900.33	7697.54
900.644	7657.54
900.959	7701.61
901.273	7570.76
901.588	7578.9
901.902	7564.43
902.216	7562.17
902.531	7514.27
902.845	7543.64
903.159	7436.53
903.473	7440.14
903.787	7360.6
904.101	7338
904.415	7355.17
904.729	7294.16
905.042	7270.66
905.356	7280.15
905.67	7237.44
905.984	7226.82
906.297	7201.28
906.611	7164.9
906.924	7110.89
907.237	7156.99
907.551	7063.2
907.864	7022.53
908.177	7014.84
908.491	7015.52
908.804	7006.26
909.117	6923.32
909.43	6895.75
909.743	6859.14
910.056	6912.02
910.368	6809.88
910.681	6832.02
910.994	6795.87
911.307	6765.58
911.619	6698.24
911.932	6778.69
912.244	6645.36
912.557	6619.83
912.869	6633.16
913.181	6629.32
913.494	6529.43
913.806	6542.09
914.118	6516.55
914.43	6476.78
914.742	6461.19
915.054	6440.4
915.366	6415.99
915.678	6371.92
915.99	6307.97
916.302	6282.89
916.613	6277.24
916.925	6285.15
917.236	6256.22
917.548	6201.53
917.859	6248.54
918.171	6171.25
918.482	6185.71
918.794	6112.04
919.105	6095.77
919.416	6039.5
919.727	6035.66
920.038	6020.97
920.349	5926.28
920.66	5983.91
920.971	5962.22
921.282	5967.64
921.593	5874.76
921.903	5884.93
922.214	5833.86
922.525	5844.71
922.835	5771.71
923.146	5752.96
923.456	5741.66
923.767	5730.36
924.077	5708.89
924.387	5674.77
924.697	5642.45
925.008	5684.94
925.318	5634.77
925.628	5632.96
925.938	5570.59
926.248	5484.49
926.558	5493.75
926.867	5487.2
927.177	5502.12
927.487	5417.15
927.796	5392.97
928.106	5389.12
928.416	5388.67
928.725	5367.66
929.034	5309.8
929.344	5317.26
929.653	5264.38
929.962	5244.27
930.271	5254.66
930.581	5206.08
930.89	5240.88
931.199	5150.71
931.508	5118.85
931.817	5166.08
932.125	5144.16
932.434	5138.06
932.743	5026.42
933.051	5069.58
933.36	5013.31
933.669	4989.13
933.977	4942.36
934.286	4983.71
934.594	4961.11
934.902	4938.74
935.21	4871.4
935.519	4891.28
935.827	4896.93
936.135	4858.29
936.443	4776.26
936.751	4807.67
937.059	4760.89
937.367	4747.56
937.674	4745.07
937.982	4729.48
938.29	4693.32
938.597	4694
938.905	4637.51
939.213	4661.01
939.52	4589.82
939.827	4604.74
940.135	4571.74
940.442	4590.95
940.749	4535.81
941.056	4572.42
941.363	4477.74
941.67	4454.69
941.977	4438.19
942.284	4429.6
942.591	4435.48
942.898	4445.65
943.205	4387.12
943.511	4392.99
943.818	4338.3
944.125	4353.22
944.431	4360
944.738	4348.7
945.044	4279.77
945.35	4256.27
945.657	4228.93
945.963	4256.05
946.269	4190.96
946.575	4205.43
946.881	4159.33
947.187	4159.78
947.493	4138.99
947.799	4139.89
948.105	4112.77
948.41	4085.66
948.716	4068.25
949.022	4047.69
949.327	4055.37
949.633	4001.14
949.938	4003.62
950.244	3985.54
950.549	3941.48
950.854	3956.17
951.16	3938.09
951.465	3908.26
951.77	3879.56
952.075	3925.66
952.38	3829.16
952.685	3824.42
952.99	3837.53
953.294	3819.22
953.599	3813.35
953.904	3739.68
954.209	3758.66
954.513	3748.26
954.818	3729.73
955.122	3720.69
955.426	3708.26
955.731	3700.35
956.035	3685.44
956.339	3685.67
956.643	3664.88
956.948	3612.45
957.252	3580.58
957.556	3596.4
957.86	3566.57
958.163	3550.08
958.467	3583.07
958.771	3527.48
959.075	3525.9
959.378	3506.91
959.682	3502.39
959.985	3449.06
960.289	3451.1
960.592	3436.63
960.896	3407.93
961.199	3404.32
961.502	3394.83
961.805	3413.36
962.108	3375.17
962.411	3336.07
962.714	3377.2
963.017	3309.86
963.32	3321.83
963.623	3308.73
963.926	3274.38
964.228	3325.45
964.531	3276.64
964.833	3264.89
965.136	3241.38
965.438	3185.34
965.741	3156.41
966.043	3172.23
966.345	3183.53
966.648	3190.09
966.95	3164.1
967.252	3127.49
967.554	3126.36
967.856	3096.3
968.158	3099.01
968.46	3080.71
968.761	3021.73
969.063	3074.38
969.365	3025.57
969.666	3056.98
969.968	2988.28
970.269	2973.37
970.571	2982.86
970.872	2985.35
971.174	2981.28
971.475	2924.33
971.776	2914.84
972.077	2908.06
972.378	2911.67
972.679	2889.98
972.98	2896.31
973.281	2899.25
973.582	2874.16
973.883	2845.69
974.183	2799.14
974.484	2805.46
974.785	2790.1
975.085	2811.34
975.386	2788.29
975.686	2810.21
975.986	2757.1
976.287	2722.3
976.587	2744.67
976.887	2722.98
977.187	2704.22
977.487	2732.47
977.787	2677.33
978.087	2638.46
978.387	2646.37
978.687	2673.94
978.987	2621.06
979.286	2610.21
979.586	2602.98
979.885	2605.47
980.185	2602.98
980.484	2587.16
980.784	2572.02
981.083	2579.48
981.382	2561.4
981.682	2551.46
981.981	2540.61
982.28	2506.49
982.579	2495.41
982.878	2509.88
983.177	2469.65
983.475	2491.12
983.774	2490.89
984.073	2433.04
984.372	2416.77
984.67	2427.39
984.969	2418.35
985.267	2423.78
985.566	2385.36
985.864	2387.39
986.162	2391.91
986.461	2402.54
986.759	2370.67
987.057	2366.15
987.355	2338.58
987.653	2350.33
987.951	2319.15
988.249	2281.41
988.547	2267.62
988.844	2266.95
989.142	2274.4
989.44	2267.17
989.737	2237.12
990.035	2266.95
990.332	2252.26
990.63	2245.48
990.927	2242.54
991.224	2181.52
991.521	2168.87
991.819	2168.42
992.116	2157.34
992.413	2163.45
992.71	2145.82
993.006	2141.98
993.303	2151.47
993.6	2108.98
993.897	2125.03
994.193	2115.76
994.49	2117.57
994.787	2099.27
995.083	2103.56
995.379	2090.23
995.676	2064.47
995.972	2052.04
996.268	2023.11
996.565	2003.45
996.861	1971.13
997.157	1991.25
997.453	2031.25
997.749	1987.63
998.044	1986.28
998.34	1974.75
998.636	1950.12
998.932	1958.03
999.227	1943.56
999.523	1899.72
999.818	1930.23
1000.114	1914.41
1000.409	1879.61
1000.704	1864.47
1001	1882.1
1001.295	1872.15
1001.59	1857.69
1001.885	1826.28
1002.18	1811.59
1002.475	1823.79
1002.77	1813.17
1003.065	1789.44
1003.359	1802.55
1003.654	1824.02
1003.949	1758.48
1004.243	1772.95
1004.538	1756
1004.832	1776.34
1005.127	1756.9
1005.421	1756.23
1005.715	1753.29
1006.009	1736.79
1006.304	1699.73
1006.598	1689.33
1006.892	1711.48
1007.186	1689.33
1007.48	1665.38
1007.773	1653.18
1008.067	1650.69
1008.361	1617.02
1008.655	1636.23
1008.948	1625.38
1009.242	1633.52
1009.535	1603.23
1009.829	1589.22
1010.122	1602.33
1010.415	1565.04
1010.708	1555.55
1011.001	1568.21
1011.295	1551.48
1011.588	1548.32
1011.881	1551.03
1012.173	1525.5
1012.466	1509
1012.759	1521.43
1013.052	1502.67
1013.344	1476.23
1013.637	1514.2
1013.93	1469.9
1014.222	1486.63
1014.514	1461.09
1014.807	1450.92
1015.099	1461.54
1015.391	1427.87
1015.683	1450.7
1015.976	1415.22
1016.268	1426.52
1016.56	1380.42
1016.851	1425.39
1017.143	1375.22
1017.435	1363.47
1017.727	1373.18
1018.018	1355.56
1018.31	1365.05
1018.602	1323.24
1018.893	1338.38
1019.185	1344.48
1019.476	1310.59
1019.767	1299.74
1020.058	1293.64
1020.35	1307.42
1020.641	1297.25
1020.932	1298.84
1021.223	1295.45
1021.514	1259.51
1021.804	1269.91
1022.095	1256.8
1022.386	1269.01
1022.677	1240.31
1022.967	1250.93
1023.258	1213.41
1023.548	1219.74
1023.839	1208.44
1024.129	1191.72
1024.419	1199.4
1024.709	1167.31
1025	1166.86
1025.29	1166.64
1025.58	1148.78
1025.87	1159.86
1026.16	1150.14
1026.449	1149.24
1026.739	1131.38
1027.029	1127.54
1027.319	1131.61
1027.608	1116.24
1027.898	1131.16
1028.187	1090.25
1028.477	1089.58
1028.766	1091.61
1029.055	1066.98
1029.344	1085.28
1029.634	1057.71
1029.923	1062.46
1030.212	1070.82
1030.501	1053.64
1030.79	1045.96
1031.078	1060.42
1031.367	1016.58
1031.656	1000.99
1031.945	1020.65
1032.233	1016.81
1032.522	1012.74
1032.81	989.01
1033.099	969.13
1033.387	946.98
1033.675	978.62
1033.963	952.63
1034.251	957.38
1034.54	957.15
1034.828	943.37
1035.116	945.85
1035.403	945.4
1035.691	956.7
1035.979	922.57
1036.267	938.85
1036.554	943.82
1036.842	903.59
1037.129	915.57
1037.417	925.29
1037.704	906.3
1037.992	881.22
1038.279	869.24
1038.566	870.37
1038.853	870.37
1039.14	870.37
