Data from hue_110_FLMS001491_00051.txt Node
Date: Tue Feb 07 17:01:30 GMT 2017
User: dcchb
Spectrometer: FLMS00149
Trigger mode: 0
Integration Time (sec): 2.000000E-2
Scans to average: 10
Electric dark correction enabled: true
Nonlinearity correction enabled: false
Boxcar width: 0
XAxis mode: Wavelengths
Number of Pixels in Spectrum: 2048
>>>>>Begin Spectral Data<<<<<
341.393	-26.6
341.776	-26.6
342.16	-26.6
342.543	-67.27
342.927	-58.68
343.31	-62.3
343.693	-88.74
344.077	-65.24
344.46	-72.7
344.843	-55.07
345.226	-33.6
345.61	-8.97
345.993	-31.57
346.376	-25.92
346.759	33.74
347.142	35.1
347.525	41.65
347.908	69.22
348.291	80.97
348.674	82.55
349.057	100.86
349.44	131.14
349.823	138.37
350.206	161.65
350.588	191.93
350.971	197.35
351.354	219.95
351.737	227.86
352.119	221.08
352.502	250.46
352.884	266.96
353.267	267.63
353.65	280.52
354.032	270.57
354.414	301.31
354.797	280.97
355.179	310.57
355.562	321.87
355.944	323.23
356.326	333.17
356.709	313.28
357.091	323.23
357.473	316.67
357.855	332.94
358.238	339.95
358.62	339.5
359.002	326.39
359.384	332.72
359.766	321.64
360.148	327.29
360.53	348.54
360.912	318.71
361.294	334.98
361.676	337.46
362.057	338.14
362.439	318.48
362.821	330.46
363.203	303.57
363.584	295.2
363.966	324.58
364.348	292.94
364.729	304.47
365.111	300.4
365.493	309.44
365.874	325.94
366.256	311.47
366.637	313.06
367.019	301.08
367.4	296.56
367.781	289.1
368.163	306.96
368.544	304.92
368.925	293.17
369.306	315.99
369.688	300.85
370.069	314.19
370.45	313.06
370.831	288.88
371.212	310.57
371.593	310.12
371.974	298.37
372.355	305.83
372.736	301.08
373.117	301.98
373.498	324.58
373.879	305.6
374.26	299.72
374.641	291.14
375.021	324.36
375.402	283.68
375.783	324.36
376.163	308.54
376.544	324.36
376.925	315.09
377.305	332.94
377.686	344.69
378.066	317.58
378.447	320.06
378.827	339.04
379.208	297.01
379.588	307.18
379.968	310.57
380.349	317.12
380.729	320.51
381.109	328.88
381.489	328.88
381.87	341.76
382.25	318.93
382.63	324.81
383.01	343.34
383.39	321.87
383.77	342.21
384.15	322.32
384.53	338.37
384.91	347.86
385.29	343.11
385.67	353.28
386.049	346.5
386.429	324.13
386.809	347.18
387.189	337.24
387.568	341.76
387.948	330.46
388.328	343.34
388.707	363.9
389.087	343.56
389.466	340.85
389.846	365.03
390.225	365.48
390.605	370.91
390.984	341.53
391.363	372.49
391.743	348.54
392.122	345.37
392.501	353.96
392.881	367.97
393.26	378.37
393.639	357.35
394.018	362.77
394.397	362.77
394.776	355.54
395.155	365.71
395.534	338.14
395.913	365.48
396.292	374.52
396.671	381.08
397.05	377.24
397.429	365.94
397.808	385.6
398.186	377.91
398.565	391.02
398.944	390.57
399.323	379.95
399.701	379.27
400.08	363.45
400.458	387.86
400.837	391.7
401.215	397.57
401.594	386.28
401.972	377.01
402.351	384.69
402.729	409.1
403.107	375.43
403.486	398.25
403.864	400.96
404.242	415.2
404.62	412.72
404.999	398.03
405.377	404.35
405.755	399.83
406.133	391.7
406.511	409.1
406.889	416.78
407.267	399.83
407.645	414.52
408.023	420.17
408.401	414.75
408.779	433.05
409.156	416.78
409.534	422.21
409.912	416.33
410.29	434.86
410.667	438.48
411.045	452.94
411.422	438.48
411.8	439.61
412.178	443.67
412.555	443.67
412.933	452.71
413.31	460.62
413.687	450.45
414.065	451.13
414.442	459.04
414.819	471.02
415.197	463.79
415.574	468.53
415.951	488.42
416.328	489.55
416.705	475.31
417.082	461.3
417.46	480.06
417.837	494.07
418.214	486.61
418.591	495.65
418.967	471.24
419.344	506.95
419.721	498.81
420.098	495.42
420.475	518.93
420.852	501.3
421.228	519.15
421.605	513.05
421.982	525.03
422.358	536.55
422.735	515.31
423.111	521.19
423.488	539.04
423.864	520.06
424.241	516.22
424.617	525.48
424.994	558.93
425.37	530.9
425.746	529.1
426.123	542.43
426.499	561.19
426.875	544.69
427.251	588.53
427.627	557.57
428.003	577.91
428.379	588.08
428.756	556.44
429.132	581.75
429.507	599.38
429.883	599.6
430.259	615.65
430.635	593.5
431.011	624.01
431.387	603.44
431.763	625.14
432.138	614.29
432.514	621.75
432.89	631.24
433.265	655.19
433.641	654.52
434.016	628.08
434.392	653.16
434.767	661.52
435.143	659.94
435.518	664.69
435.894	676.89
436.269	678.92
436.644	680.05
437.02	691.58
437.395	693.39
437.77	711.69
438.145	705.59
438.52	710.79
438.895	713.5
439.271	696.32
439.646	721.63
440.021	734.29
440.395	727.28
440.77	717.34
441.145	730.45
441.52	745.36
441.895	773.38
442.27	776.32
442.645	778.81
443.019	764.34
443.394	777
443.769	781.52
444.143	765.47
444.518	785.36
444.892	770.9
445.267	809.09
445.641	783.1
446.016	795.3
446.39	817
446.764	809.09
447.139	814.74
447.513	817.68
447.887	812.93
448.262	839.14
448.636	817.68
449.01	821.29
449.384	884.57
449.758	845.92
450.132	847.28
450.506	837.56
450.88	850.9
451.254	859.94
451.628	883.21
452.002	890.22
452.376	899.93
452.75	897.67
453.123	913.04
453.497	924.79
453.871	913.72
454.244	918.69
454.618	943.32
454.992	958.69
455.365	960.27
455.739	955.98
456.112	986.26
456.486	988.75
456.859	1014.06
457.232	1000.72
457.606	1022.87
457.979	1030.1
458.352	1049.53
458.725	1073.71
459.099	1056.99
459.472	1066.03
459.845	1096.31
460.218	1119.36
460.591	1129.08
460.964	1101.74
461.337	1141.74
461.71	1152.36
462.083	1162.53
462.456	1173.83
462.829	1194.84
463.201	1210.89
463.574	1214.28
463.947	1262.64
464.32	1266.7
464.692	1301.05
465.065	1282.75
465.438	1304.67
465.81	1338.79
466.183	1341.05
466.555	1373.82
466.928	1381.73
467.3	1404.78
467.672	1410.65
468.045	1471.44
468.417	1434.38
468.789	1473.03
469.161	1489.07
469.534	1518.67
469.906	1544.89
470.278	1563.42
470.65	1616.98
471.022	1655.85
471.394	1667.6
471.766	1694.94
472.138	1748.05
472.51	1767.26
472.882	1814.03
473.253	1813.81
473.625	1858.78
473.997	1937.65
474.369	1983.07
474.74	2000.24
475.112	2022.84
475.484	2105.55
475.855	2141.48
476.227	2183.97
476.598	2254.93
476.97	2280.46
477.341	2358.65
477.713	2376.51
478.084	2440.91
478.455	2513.9
478.827	2573.56
479.198	2674.35
479.569	2719.1
479.94	2807.68
480.311	2861.69
480.682	2985.3
481.053	3074.34
481.424	3166.99
481.795	3215.81
482.166	3310.72
482.537	3367.21
482.908	3497.15
483.279	3561.56
483.65	3676.13
484.021	3825.51
484.391	3860.76
484.762	3992.28
485.133	4052.39
485.503	4151.37
485.874	4308.43
486.244	4356.79
486.615	4526.51
486.985	4646.95
487.356	4768.76
487.726	4861.64
488.097	5041.07
488.467	5089.2
488.837	5241.29
489.207	5420.72
489.578	5484.22
489.948	5655.74
490.318	5777.32
490.688	5903.42
491.058	6005.79
491.428	6156.97
491.798	6234.48
492.168	6481.71
492.538	6536.17
492.908	6687.8
493.278	6812.32
493.648	6977.74
494.017	7053.9
494.387	7209.37
494.757	7323.49
495.126	7386.77
495.496	7542.02
495.866	7649.14
496.235	7785.85
496.605	7919.18
496.974	8022.23
497.344	8172.29
497.713	8311.94
498.082	8376.57
498.452	8513.07
498.821	8629.45
499.19	8701.76
499.559	8813.62
499.928	8986.05
500.298	9025.14
500.667	9158.47
501.036	9183.78
501.405	9345.36
501.774	9371.8
502.143	9523.21
502.512	9586.26
502.88	9765.92
503.249	9721.85
503.618	9808.85
503.987	9879.58
504.356	10025.8
504.724	10073.03
505.093	10134.95
505.462	10210.2
505.83	10309.18
506.199	10412.23
506.567	10520.7
506.936	10571.09
507.304	10704.87
507.672	10598.89
508.041	10803.63
508.409	10868.94
508.777	10892.67
509.145	11054.7
509.514	11131.98
509.882	11137.63
510.25	11128.14
510.618	11275.03
510.986	11270.96
511.354	11289.72
511.722	11420.79
512.09	11517.51
512.458	11476.83
512.826	11559.09
513.193	11637.5
513.561	11627.11
513.929	11724.96
514.297	11772.87
514.664	11821
515.032	11861.45
515.4	11934.67
515.767	12029.81
516.135	12052.64
516.502	11959.3
516.869	12141.45
517.237	12157.49
517.604	12145.51
517.972	12237.71
518.339	12273.65
518.706	12234.78
519.073	12346.64
519.44	12373.08
519.808	12479.29
520.175	12298.96
520.542	12498.05
520.909	12537.37
521.276	12517.71
521.643	12580.98
522.009	12627.31
522.376	12640.19
522.743	12697.36
523.11	12714.99
523.477	12803.58
523.843	12741.66
524.21	12936.91
524.577	12949.79
524.943	12947.3
525.31	13018.26
525.676	13095.55
526.043	13078.82
526.409	13053.51
526.776	13122.44
527.142	13098.71
527.508	13156.56
527.874	13135.77
528.241	13176.67
528.607	13134.64
528.973	13264.35
529.339	13157.01
529.705	13237.69
530.071	13271.81
530.437	13292.15
530.803	13355.65
531.169	13341.87
531.535	13316.78
531.901	13303
532.267	13213.51
532.632	13282.89
532.998	13269.55
533.364	13256.45
533.73	13271.59
534.095	13383.9
534.461	13318.36
534.826	13290.57
535.192	13262.32
535.557	13350.45
535.923	13290.12
536.288	13280.63
536.653	13255.77
537.019	13144.58
537.384	13173.51
537.749	13109.56
538.114	13139.61
538.479	13104.13
538.845	13091.03
539.21	13029.56
539.575	12994.98
539.94	12987.75
540.305	13045.38
540.67	12850.13
541.034	12945.04
541.399	12892.61
541.764	12875.89
542.129	12958.15
542.494	12779.62
542.858	12751.6
543.223	12764.25
543.587	12755.67
543.952	12662.11
544.316	12693.52
544.681	12654.65
545.045	12674.77
545.41	12703.24
545.774	12646.07
546.138	12611.49
546.503	12566.97
546.867	12437.48
547.231	12566.52
547.595	12623.92
547.959	12482
548.324	12396.81
548.688	12382.12
549.052	12368.56
549.416	12327.66
549.779	12281.1
550.143	12242.69
550.507	12269.8
550.871	12239.97
551.235	12218.73
551.599	12253.99
551.962	12192.07
552.326	12173.31
552.689	12114.55
553.053	12117.04
553.417	12101.45
553.78	12249.47
554.143	12018.06
554.507	12041.34
554.87	12109.58
555.234	12108.68
555.597	11985.07
555.96	12019.64
556.323	12010.6
556.686	11941.68
557.05	11982.81
557.413	11933.99
557.776	11953.65
558.139	11956.82
558.502	11930.38
558.865	11845.41
559.228	11910.94
559.59	11896.48
559.953	11955.24
560.316	11971.73
560.679	11901.68
561.041	12069.58
561.404	11920.44
561.767	12006.53
562.129	11895.13
562.492	11983.71
562.854	11941.45
563.217	11939.19
563.579	11972.64
563.941	12065.06
564.304	11964.73
564.666	12087.66
565.028	12082.01
565.39	12036.36
565.753	12091.5
566.115	12101.9
566.477	12069.58
566.839	12091.96
567.201	12189.58
567.563	12167.21
567.925	12143.71
568.287	12195
568.648	12152.97
569.01	12217.83
569.372	12172.86
569.734	12118.85
570.095	12286.08
570.457	12263.48
570.819	12211.05
571.18	12260.99
571.542	12293.53
571.903	12273.19
572.265	12306.19
572.626	12260.99
572.987	12327.43
573.349	12302.12
573.71	12375.34
574.071	12343.02
574.432	12336.47
574.794	12414.43
575.155	12365.17
575.516	12350.71
575.877	12322.46
576.238	12302.8
576.599	12508.22
576.96	12348.9
577.32	12400.87
577.681	12390.71
578.042	12508.44
578.403	12509.57
578.763	12414.43
579.124	12446.3
579.485	12499.18
579.845	12458.05
580.206	12446.07
580.566	12473.19
580.927	12425.73
581.287	12465.05
581.648	12427.09
582.008	12420.08
582.368	12333.53
582.728	12448.1
583.089	12438.84
583.449	12384.38
583.809	12354.55
584.169	12393.64
584.529	12312.52
584.889	12479.29
585.249	12332.18
585.609	12355.68
585.969	12354.77
586.329	12306.19
586.688	12296.7
587.048	12359.07
587.408	12255.34
587.768	12346.86
588.127	12236.59
588.487	12266.87
588.846	12303.48
589.206	12253.08
589.565	12258.51
589.925	12221.67
590.284	12220.54
590.643	12275.91
591.003	12257.38
591.362	12266.41
591.721	12171.28
592.08	12166.76
592.44	12213.76
592.799	12226.42
593.158	12231.39
593.517	12216.7
593.876	12179.19
594.235	12171.05
594.593	12230.71
594.952	12213.08
595.311	12234.78
595.67	12188.9
596.029	12169.02
596.387	12195.91
596.746	12176.25
597.104	12181.45
597.463	12138.06
597.822	12116.14
598.18	12092.18
598.538	12149.36
598.897	12189.35
599.255	12106.42
599.613	12215.34
599.972	12131.73
600.33	12190.03
600.688	12137.38
601.046	12225.96
601.404	12177.83
601.762	12057.15
602.12	12172.86
602.478	12118.4
602.836	12158.62
603.194	12090.83
603.552	12190.03
603.91	12065.29
604.268	12172.63
604.625	12122.92
604.983	12122.69
605.341	12037.49
605.698	12133.76
606.056	12221.22
606.413	12219.64
606.771	12184.38
607.128	12131.73
607.485	12119.3
607.843	12116.36
608.2	12173.99
608.557	12169.69
608.914	12154.33
609.272	12175.8
609.629	12200.43
609.986	12178.28
610.343	12195.91
610.7	12234.33
611.057	12224.83
611.414	12282.69
611.771	12258.73
612.127	12324.49
612.484	12304.83
612.841	12272.06
613.198	12287.88
613.554	12296.02
613.911	12443.81
614.267	12320.88
614.624	12320.42
614.98	12202.91
615.337	12369.69
615.693	12291.72
616.05	12388.9
616.406	12370.37
616.762	12363.81
617.118	12415.34
617.475	12354.77
617.831	12435.68
618.187	12402.46
618.543	12460.99
618.899	12566.75
619.255	12454.66
619.611	12471.83
619.967	12489.23
620.323	12601.55
620.678	12430.93
621.034	12442.46
621.39	12415.56
621.746	12558.16
622.101	12653.98
622.457	12400.87
622.812	12569.46
623.168	12473.19
623.523	12449.01
623.879	12500.08
624.234	12448.56
624.589	12533.07
624.945	12460.31
625.3	12493.3
625.655	12536.46
626.01	12476.13
626.365	12492.62
626.72	12478.61
627.075	12483.81
627.43	12467.31
627.785	12394.32
628.14	12406.3
628.495	12509.12
628.85	12494.66
629.205	12372.17
629.559	12523.13
629.914	12438.39
630.269	12529.46
630.623	12417.6
630.978	12339.86
631.332	12391.16
631.687	12479.29
632.041	12352.29
632.396	12327.66
632.75	12307.77
633.104	12387.77
633.459	12331.5
633.813	12322.68
634.167	12277.26
634.521	12320.88
634.875	12352.97
635.229	12285.62
635.583	12227.55
635.937	12207.21
636.291	12158.39
636.645	12238.17
636.999	12146.64
637.352	12197.94
637.706	12142.12
638.06	12176.7
638.413	12180.99
638.767	12118.85
639.121	12130.15
639.474	12053.99
639.828	12021.45
640.181	12088.34
640.534	12030.49
640.888	12038.17
641.241	12041.34
641.594	12009.92
641.947	12004.27
642.301	11984.39
642.654	11921.79
643.007	12041.34
643.36	11918.4
643.713	11995.69
644.066	12020.09
644.419	11910.27
644.771	11822.81
645.124	11735.81
645.477	11677.5
645.83	11713.21
646.182	11616.49
646.535	11625.98
646.888	11527.23
647.24	11597.73
647.593	11625.53
647.945	11604.29
648.298	11543.5
648.65	11538.98
649.002	11462.59
649.355	11551.86
649.707	11521.35
650.059	11585.08
650.411	11736.49
650.763	11751.4
651.115	11858.52
651.467	11787.33
651.819	11876.14
652.171	11795.24
652.523	11786.43
652.875	11783.94
653.227	11710.27
653.578	11873.2
653.93	11792.08
654.282	11729.25
654.633	11719.54
654.985	11745.75
655.337	11754.56
655.688	11728.58
656.039	11870.27
656.391	11797.27
656.742	11774.68
657.094	11860.55
657.445	11788.91
657.796	11856.71
658.147	11825.75
658.498	11917.27
658.849	11890.15
659.2	11821.23
659.551	11807.9
659.902	11925.86
660.253	11809.7
660.604	11922.69
660.955	11805.18
661.306	11796.14
661.656	11855.35
662.007	11751.85
662.358	11871.62
662.708	11916.59
663.059	11912.75
663.409	11858.06
663.76	11937.84
664.11	11848.35
664.461	11903.71
664.811	11957.27
665.161	11899.87
665.511	11899.42
665.862	11908.68
666.212	11895.13
666.562	11927.67
666.912	11862.13
667.262	11852.19
667.612	11821.91
667.962	11867.78
668.312	11890.61
668.662	11856.71
669.011	11859.87
669.361	11839.08
669.711	11846.76
670.06	11824.62
670.41	11807.22
670.76	11719.76
671.109	11847.67
671.459	11831.85
671.808	11787.33
672.157	11846.76
672.507	11756.82
672.856	11757.73
673.205	11743.49
673.554	11832.08
673.904	11804.05
674.253	11857.84
674.602	11776.71
674.951	11619.43
675.3	11523.16
675.649	11738.07
675.998	11726.09
676.346	11739.65
676.695	11771.51
677.044	11566.09
677.393	11665.98
677.741	11648.35
678.09	11682.93
678.438	11614.45
678.787	11748.24
679.135	11654
679.484	11578.52
679.832	11613.1
680.181	11505.53
680.529	11576.72
680.877	11541.91
681.225	11437.51
681.573	11569.94
681.922	11453.1
682.27	11356.16
682.618	11490.39
682.966	11411.75
683.314	11484.06
683.661	11412.43
684.009	11321.13
684.357	11345.54
684.705	11271.86
685.053	11339.21
685.4	11339.89
685.748	11244.97
686.095	11237.52
686.443	11219.44
686.79	11158.42
687.138	11178.99
687.485	11208.14
687.832	11082.72
688.18	11132.21
688.527	10981.93
688.874	10974.25
689.221	10960.01
689.568	10981.93
689.915	10912.55
690.262	10883.17
690.609	10890.18
690.956	10842.5
691.303	10832.33
691.65	10729.73
691.997	10755.04
692.344	10680.69
692.69	10737.64
693.037	10645.67
693.383	10533.13
693.73	10627.81
694.077	10545.78
694.423	10507.82
694.769	10427.82
695.116	10416.75
695.462	10439.57
695.808	10329.29
696.155	10397.54
696.501	10252.23
696.847	10218.78
697.193	10144.21
697.539	10182.4
697.885	10142.4
698.231	10083.2
698.577	10095.4
698.923	10022.41
699.269	10089.97
699.614	9937.44
699.96	9941.5
700.306	9917.1
700.651	9869.87
700.997	9894.05
701.342	9775.86
701.688	9768.63
702.033	9724.79
702.379	9748.06
702.724	9658.12
703.069	9721.62
703.415	9596.88
703.76	9528.86
704.105	9553.27
704.45	9579.48
704.795	9481.86
705.14	9457.9
705.485	9462.19
705.83	9360.05
706.175	9400.5
706.52	9413.61
706.865	9300.39
707.209	9343.55
707.554	9233.05
707.899	9250
708.243	9258.13
708.588	9223.56
708.932	9147.85
709.277	9097.01
709.621	9136.55
709.966	9089.55
710.31	9066.5
710.654	9020.62
710.998	9024.92
711.342	9014.75
711.687	9038.48
712.031	8931.36
712.375	8897.69
712.719	8944.69
713.063	8921.87
713.407	8948.99
713.75	8866.96
714.094	8845.04
714.438	8791.93
714.782	8845.26
715.125	8771.82
715.469	8828.31
715.812	8724.14
716.156	8762.1
716.499	8732.27
716.843	8728.88
717.186	8704.02
717.53	8714.64
717.873	8699.5
718.216	8647.07
718.559	8678.94
718.902	8616.34
719.246	8639.84
719.589	8635.1
719.932	8607.98
720.275	8595.55
720.617	8541.99
720.96	8569.79
721.303	8597.13
721.646	8531.6
721.989	8486.18
722.331	8541.54
722.674	8482.79
723.016	8544.93
723.359	8470.13
723.701	8538.6
724.044	8486.18
724.386	8491.6
724.729	8460.87
725.071	8466.51
725.413	8473.75
725.755	8486.85
726.097	8424.93
726.439	8351.72
726.782	8317.37
727.124	8452.96
727.465	8341.55
727.807	8362.56
728.149	8390.13
728.491	8292.28
728.833	8377.25
729.175	8324.6
729.516	8326.86
729.858	8329.12
730.199	8367.53
730.541	8332.28
730.882	8265.39
731.224	8281.43
731.565	8291.15
731.906	8290.93
732.248	8276.24
732.589	8281.43
732.93	8320.3
733.271	8296.35
733.612	8325.95
733.953	8324.6
734.294	8352.17
734.635	8274.43
734.976	8412.05
735.317	8308.33
735.658	8263.58
735.999	8356.24
736.339	8345.61
736.68	8286.18
737.021	8325.28
737.361	8346.07
737.702	8354.43
738.042	8348.55
738.383	8281.66
738.723	8343.35
739.063	8361.66
739.404	8403.01
739.744	8391.71
740.084	8393.52
740.424	8456.57
740.764	8399.85
741.104	8428.78
741.444	8387.65
741.784	8451.37
742.124	8501.32
742.464	8484.82
742.804	8481.88
743.143	8488.21
743.483	8550.35
743.823	8466.29
744.162	8540.19
744.502	8581.99
744.841	8668.54
745.181	8628.77
745.52	8646.62
745.86	8698.15
746.199	8693.18
746.538	8795.55
746.877	8894.75
747.216	8872.38
747.556	8863.57
747.895	8986.95
748.234	8971.36
748.573	9007.97
748.911	9095.42
749.25	9118.7
749.589	9148.76
749.928	9286.38
750.267	9427.17
750.605	9459.48
750.944	9479.37
751.283	9506.71
751.621	9596.43
751.96	9664.68
752.298	9803.2
752.636	9888.85
752.975	10047.49
753.313	9987.6
753.651	10189.18
753.989	10305.79
754.327	10386.46
754.666	10421.94
755.004	10538.55
755.342	10737.64
755.679	10811.31
756.017	10908.71
756.355	11076.16
756.693	11204.97
757.031	11280.23
757.368	11424.4
757.706	11608.8
758.044	11670.72
758.381	11835.01
758.719	11962.47
759.056	12106.64
759.394	12348.45
759.731	12420.31
760.068	12539.18
760.405	12652.17
760.743	12828.89
761.08	13038.37
761.417	13119.27
761.754	13295.99
762.091	13485.14
762.428	13549.32
762.765	13707.05
763.102	13952.7
763.438	14079.93
763.775	14152.24
764.112	14336.64
764.449	14480.37
764.785	14623.87
765.122	14712.45
765.458	14829.29
765.795	14928.04
766.131	15141.37
766.467	15331.19
766.804	15376.16
767.14	15456.16
767.476	15645.99
767.812	15731.41
768.148	15892.31
768.485	15948.13
768.821	16061.12
769.157	16172.75
769.492	16209.36
769.828	16403.71
770.164	16380.2
770.5	16512.63
770.836	16639.41
771.171	16635.79
771.507	16838.05
771.842	16809.35
772.178	16866.97
772.513	16942.9
772.849	17056.12
773.184	17132.95
773.519	17187.19
773.855	17252.05
774.19	17283.68
774.525	17306.28
774.86	17460.85
775.195	17460.63
775.53	17422.21
775.865	17625.37
776.2	17459.05
776.535	17500.18
776.87	17551.02
777.205	17632.83
777.539	17638.7
777.874	17646.84
778.209	17555.32
778.543	17744.69
778.878	17588.08
779.212	17656.33
779.547	17610
779.881	17715.99
780.215	17646.84
780.55	17850.9
780.884	17747.85
781.218	17664.69
781.552	17745.59
781.886	17691.36
782.22	17720.96
782.554	17674.63
782.888	17594.64
783.222	17546.5
783.556	17640.74
783.889	17684.58
784.223	17570.23
784.557	17564.81
784.89	17662.88
785.224	17543.79
785.557	17528.2
785.891	17586.95
786.224	17393.74
786.558	17501.53
786.891	17389.67
787.224	17287.98
787.557	17327.75
787.891	17468.76
788.224	17303.57
788.557	17399.39
788.89	17314.64
789.223	17361.2
789.556	17216.79
789.888	17232.84
790.221	17145.16
790.554	17092.28
790.887	17121.65
791.219	17004.14
791.552	16997.59
791.884	17013.63
792.217	17009.57
792.549	16834.88
792.882	16861.77
793.214	16810.25
793.546	16924.15
793.879	16636.24
794.211	16706.52
794.543	16748.78
794.875	16689.35
795.207	16791.27
795.539	16638.28
795.871	16692.51
796.203	16641.21
796.535	16411.39
796.867	16435.12
797.198	16387.66
797.53	16438.73
797.862	16290.72
798.193	16409.81
798.525	16246.65
798.856	16248.68
799.188	16149.02
799.519	16091.62
799.85	16003.49
800.182	15978.63
800.513	16081.23
800.844	15946.32
801.175	16026.09
801.506	15925.53
801.837	15825.42
802.168	15827.45
802.499	15759.2
802.83	15714.46
803.161	15660
803.491	15653.22
803.822	15722.82
804.153	15633.56
804.483	15413.68
804.814	15438.31
805.145	15433.79
805.475	15436.27
805.805	15312.89
806.136	15408.71
806.466	15356.28
806.796	15292.1
807.126	15235.83
807.457	15238.77
807.787	15164.64
808.117	15174.81
808.447	15130.29
808.777	15089.39
809.107	15041.03
809.436	14983.63
809.766	15017.3
810.096	14968.26
810.426	14921.26
810.755	14912.67
811.085	14947.93
811.414	14934.37
811.744	14792.68
812.073	14798.78
812.403	14760.59
812.732	14679.23
813.061	14664.09
813.39	14596.75
813.719	14622.29
814.049	14691.44
814.378	14620.25
814.707	14548.16
815.036	14508.84
815.365	14563.53
815.693	14362.4
816.022	14420.03
816.351	14274.27
816.68	14253.26
817.008	14396.53
817.337	14183.88
817.665	14165.35
817.994	14243.31
818.322	14126.03
818.651	14129.64
818.979	14083.77
819.307	14135.52
819.636	14025.92
819.964	14032.47
820.292	14094.84
820.62	14057.55
820.948	13989.53
821.276	14023.66
821.604	13976.88
821.932	14020.27
822.259	13980.95
822.587	14012.36
822.915	13919.03
823.243	14000.15
823.57	13924.9
823.898	13990.66
824.225	13944.79
824.553	13938.91
824.88	13939.59
825.207	14000.38
825.535	13930.78
825.862	14053.26
826.189	13956.54
826.516	13937.11
826.843	14101.39
827.17	13986.6
827.497	13983.21
827.824	14029.31
828.151	14000.83
828.478	13968.97
828.805	14054.84
829.131	13967.39
829.458	14031.79
829.785	13900.27
830.111	13937.56
830.438	14073.37
830.764	13982.53
831.09	14048.97
831.417	13917.44
831.743	13994.96
832.069	13927.61
832.395	13915.86
832.722	13981.85
833.048	13925.13
833.374	13953.38
833.7	13906.37
834.026	13959.48
834.351	13935.07
834.677	13831.35
835.003	13927.84
835.329	13871.34
835.654	13845.13
835.98	13758.35
836.306	13834.96
836.631	13712.03
836.956	13792.02
837.282	13791.57
837.607	13742.76
837.932	13718.35
838.258	13672.93
838.583	13650.56
838.908	13619.15
839.233	13568.53
839.558	13623.22
839.883	13580.5
840.208	13581.18
840.533	13493.73
840.858	13511.35
841.182	13542.54
841.507	13489.89
841.832	13451.24
842.156	13401.53
842.481	13371.24
842.805	13339.38
843.13	13266.39
843.454	13295.09
843.778	13326.27
844.103	13208.31
844.427	13208.08
844.751	13185.94
845.075	13109.1
845.399	13037.02
845.723	12992.05
846.047	13064.13
846.371	12943.23
846.695	12985.49
847.019	12769.45
847.343	12793.63
847.666	12791.15
847.99	12705.5
848.313	12673.18
848.637	12565.62
848.96	12534.2
849.284	12555.9
849.607	12439.52
849.931	12431.38
850.254	12329.46
850.577	12276.81
850.9	12218.73
851.223	12187.32
851.546	12104.16
851.869	12126.31
852.192	12142.58
852.515	12053.99
852.838	11976.03
853.161	11923.37
853.483	11878.18
853.806	11816.71
854.129	11809.25
854.451	11719.31
854.774	11703.49
855.096	11719.08
855.419	11654.45
855.741	11636.15
856.063	11537.17
856.385	11523.84
856.708	11529.03
857.03	11459.2
857.352	11454.01
857.674	11444.97
857.996	11368.36
858.318	11317.74
858.64	11244.75
858.961	11266.22
859.283	11253.79
859.605	11147.57
859.926	11172.21
860.248	11158.42
860.57	11100.12
860.891	11047.46
861.212	11050.18
861.534	11082.27
861.855	10948.94
862.176	11028.03
862.498	11010.85
862.819	10988.03
863.14	10953.45
863.461	10914.36
863.782	10945.55
864.103	10924.08
864.424	10863.06
864.745	10819.45
865.065	10809.96
865.386	10757.3
865.707	10771.09
866.027	10685.21
866.348	10711.65
866.668	10706.91
866.989	10695.16
867.309	10652.22
867.63	10665.33
867.95	10702.39
868.27	10535.39
868.59	10585.55
868.91	10566.8
869.23	10558.21
869.55	10536.06
869.87	10583.75
870.19	10547.82
870.51	10551.66
870.83	10528.83
871.15	10476.41
871.469	10447.25
871.789	10420.81
872.109	10401.61
872.428	10405.45
872.748	10437.99
873.067	10365.22
873.386	10366.58
873.706	10325.45
874.025	10265.34
874.344	10291.33
874.663	10225.11
874.982	10181.72
875.301	10260.59
875.62	10209.52
875.939	10229.18
876.258	10163.42
876.577	10147.6
876.896	10147.15
877.214	10122.06
877.533	10115.51
877.852	10106.02
878.17	10116.19
878.489	10078.68
878.807	10098.11
879.125	9992.58
879.444	10038.22
879.762	9994.61
880.08	9955.52
880.398	9937.66
880.716	9974.72
881.034	9902.41
881.352	9940.15
881.67	9918.23
881.988	9897.89
882.306	9849.53
882.624	9834.84
882.941	9802.07
883.259	9787.61
883.577	9784.9
883.894	9725.01
884.212	9706.93
884.529	9685.01
884.846	9670.55
885.164	9686.82
885.481	9651.34
885.798	9626.94
886.115	9532.02
886.432	9578.12
886.75	9512.36
887.067	9591.46
887.383	9501.74
887.7	9513.72
888.017	9467.39
888.334	9495.41
888.651	9429.65
888.967	9417.9
889.284	9373.38
889.6	9312.82
889.917	9266.04
890.233	9266.49
890.55	9278.92
890.866	9216.1
891.182	9201.18
891.498	9219.49
891.815	9125.71
892.131	9073.28
892.447	9040.28
892.763	9036.67
893.079	9024.47
893.395	8915.77
893.71	8939.04
894.026	8944.02
894.342	8925.26
894.657	8888.65
894.973	8865.83
895.289	8860.63
895.604	8836.67
895.92	8756.9
896.235	8712.84
896.55	8795.32
896.865	8692.5
897.181	8688.66
897.496	8627.41
897.811	8590.13
898.126	8547.19
898.441	8523.69
898.756	8535.21
899.071	8523.91
899.386	8494.31
899.7	8385.16
900.015	8416.35
900.33	8352.85
900.644	8268.55
900.959	8306.97
901.273	8275.79
901.588	8219.06
901.902	8132.06
902.216	8196.24
902.531	8177.71
902.845	8090.03
903.159	8082.8
903.473	8101.1
903.787	8037.83
904.101	7967.32
904.415	7974.1
904.729	7946.98
905.042	7912.4
905.356	7886.42
905.67	7828.57
905.984	7829.47
906.297	7782.69
906.611	7726.2
906.924	7684.16
907.237	7751.96
907.551	7661.11
907.864	7659.76
908.177	7584.05
908.491	7650.49
908.804	7483.94
909.117	7492.53
909.43	7429.48
909.743	7406.66
910.056	7380.44
910.368	7344.51
910.681	7321.91
910.994	7321.01
911.307	7367.33
911.619	7279.2
911.932	7314.23
912.244	7171.18
912.557	7153.1
912.869	7100
913.181	7067
913.494	7107.68
913.806	7028.13
914.118	7009.83
914.43	6972.32
914.742	6968.25
915.054	6924.18
915.366	6981.13
915.678	6920.79
915.99	6866.78
916.302	6789.72
916.613	6798.31
916.925	6767.12
917.236	6722.38
917.548	6677.41
917.859	6718.54
918.171	6644.42
918.482	6603.74
918.794	6573.68
919.105	6656.84
919.416	6539.33
919.727	6548.37
920.038	6536.85
920.349	6421.6
920.66	6449.84
920.971	6446.91
921.282	6393.57
921.593	6381.82
921.903	6289.17
922.214	6297.76
922.525	6309.28
922.835	6252.34
923.146	6244.43
923.456	6235.16
923.767	6196.97
924.077	6159.23
924.387	6191.55
924.697	6092.57
925.008	6028.84
925.318	6053.92
925.628	6055.5
925.938	6030.65
926.248	5966.92
926.558	5985.68
926.867	5987.26
927.177	5895.51
927.487	5885.34
927.796	5817.09
928.106	5821.16
928.416	5825.45
928.725	5800.37
929.034	5803.08
929.344	5805.57
929.653	5729.64
929.962	5661.62
930.271	5682.41
930.581	5632.46
930.89	5614.39
931.199	5592.24
931.508	5608.28
931.817	5582.75
932.125	5466.59
932.434	5505.69
932.743	5489.87
933.051	5465.24
933.36	5477.44
933.669	5412.13
933.977	5425.24
934.286	5384.56
934.594	5375.75
934.902	5311.57
935.21	5292.59
935.519	5320.38
935.827	5272.02
936.135	5285.58
936.443	5181.86
936.751	5239.03
937.059	5203.1
937.367	5141.86
937.674	5142.99
937.982	5109.09
938.29	5075.64
938.597	5115.64
938.905	4994.52
939.213	5024.35
939.52	5055.76
939.827	4985.93
940.135	5003.33
940.442	4910.45
940.749	4940.96
941.056	4935.08
941.363	4871.81
941.67	4871.35
941.977	4879.04
942.284	4763.79
942.591	4753.84
942.898	4763.79
943.205	4784.58
943.511	4748.65
943.818	4782.32
944.125	4700.06
944.431	4658.93
944.738	4661.87
945.044	4635.43
945.35	4573.51
945.657	4618.71
945.963	4570.35
946.269	4504.81
946.575	4548.88
946.881	4483.12
947.187	4476.79
947.493	4488.99
947.799	4492.38
948.105	4413.97
948.41	4415.55
948.716	4445.38
949.022	4392.5
949.327	4386.62
949.633	4347.75
949.938	4370.8
950.244	4322.22
950.549	4282.67
950.854	4268.21
951.16	4254.42
951.465	4189.79
951.77	4274.53
952.075	4214.88
952.38	4153.63
952.685	4162
952.99	4134.88
953.294	4090.81
953.599	4138.49
953.904	4131.71
954.209	4043.35
954.513	4046.97
954.818	4016.91
955.122	3998.16
955.426	4020.53
955.731	4003.58
956.035	3997.03
956.339	3949.57
956.643	3956.35
956.948	3924.04
957.252	3895.79
957.556	3883.13
957.86	3864.15
958.163	3872.96
958.467	3842
958.771	3830.93
959.075	3804.49
959.378	3786.86
959.682	3755.68
959.985	3763.36
960.289	3740.76
960.592	3735.34
960.896	3733.08
961.199	3674.1
961.502	3673.42
961.805	3668
962.108	3655.57
962.411	3606.3
962.714	3636.13
963.017	3574.89
963.32	3635.23
963.623	3556.59
963.926	3584.38
964.228	3564.04
964.531	3499.19
964.833	3533.09
965.136	3490.83
965.438	3482.46
965.741	3448.12
966.043	3460.54
966.345	3423.26
966.648	3421.22
966.95	3419.42
967.252	3381.9
967.554	3415.8
967.856	3369.47
968.158	3317.27
968.46	3343.94
968.761	3322.7
969.063	3291.28
969.365	3274.11
969.666	3297.61
969.968	3262.58
970.269	3232.3
970.571	3242.25
970.872	3228.91
971.174	3185.75
971.475	3220.78
971.776	3183.49
972.077	3176.26
972.378	3130.61
972.679	3105.3
972.98	3145.98
973.281	3100.55
973.582	3101.68
973.883	3056.71
974.183	3085.87
974.484	3068.92
974.785	3089.03
975.085	3064.62
975.386	3053.1
975.686	3009.26
975.986	2997.96
976.287	2960.9
976.587	2938.75
976.887	2924.29
977.187	2958.64
977.487	2942.82
977.787	2910.5
978.087	2875.93
978.387	2904.4
978.687	2910.95
978.987	2884.51
979.286	2818.3
979.586	2836.83
979.885	2812.2
980.185	2810.62
980.484	2769.72
980.784	2780.11
981.083	2753.9
981.382	2774.69
981.682	2741.92
981.981	2724.29
982.28	2749.38
982.579	2692.43
982.878	2722.94
983.177	2692.2
983.475	2689.94
983.774	2668.25
984.073	2662.37
984.372	2642.26
984.67	2609.04
984.969	2637.97
985.267	2633.45
985.566	2623.5
985.864	2591.19
986.162	2595.48
986.461	2580.12
986.759	2549.83
987.057	2531.08
987.355	2557.52
987.653	2505.77
987.951	2462.6
988.249	2491.76
988.547	2478.2
988.844	2427.35
989.142	2464.64
989.44	2461.25
989.737	2416.73
990.035	2400.01
990.332	2445.88
990.63	2414.7
990.927	2402.72
991.224	2390.29
991.521	2382.61
991.819	2338.54
992.116	2369.05
992.413	2347.13
992.71	2323.85
993.006	2311.2
993.303	2301.03
993.6	2304.64
993.897	2300.8
994.193	2289.28
994.49	2262.16
994.787	2218.32
995.083	2235.27
995.379	2223.51
995.676	2200.01
995.972	2213.8
996.268	2188.94
996.565	2187.36
996.861	2170.64
997.157	2188.04
997.453	2178.77
997.749	2162.05
998.044	2123.63
998.34	2152.1
998.636	2085.21
998.932	2096.74
999.227	2125.66
999.523	2059.45
999.818	2062.62
1000.114	2039.79
1000.409	2046.34
1000.704	2055.38
1001	2022.39
1001.295	2014.03
1001.59	2006.8
1001.885	1972.9
1002.18	1962.05
1002.475	1980.13
1002.77	1987.81
1003.065	1917.08
1003.359	1945.78
1003.654	1960.02
1003.949	1922.51
1004.243	1917.99
1004.538	1883.41
1004.832	1892.22
1005.127	1880.47
1005.421	1862.62
1005.715	1817.88
1006.009	1849.74
1006.304	1814.26
1006.598	1826.24
1006.892	1771.55
1007.186	1794.15
1007.48	1792.11
1007.773	1775.84
1008.067	1732
1008.361	1744.21
1008.655	1736.3
1008.948	1718.67
1009.242	1736.3
1009.535	1723.87
1009.829	1715.05
1010.122	1708.5
1010.415	1677.99
1010.708	1708.5
1011.001	1651.55
1011.295	1677.54
1011.588	1673.92
1011.881	1641.38
1012.173	1622.63
1012.466	1642.29
1012.759	1609.29
1013.052	1600.93
1013.344	1604.77
1013.637	1600.93
1013.93	1551.22
1014.222	1579.24
1014.514	1552.57
1014.807	1556.41
1015.099	1515.96
1015.391	1515.96
1015.683	1539.92
1015.976	1513.7
1016.268	1510.31
1016.56	1499.69
1016.851	1496.53
1017.143	1463.08
1017.435	1506.25
1017.727	1472.8
1018.018	1445.46
1018.31	1421.95
1018.602	1466.7
1018.893	1424.44
1019.185	1415.4
1019.476	1387.38
1019.767	1409.07
1020.058	1383.99
1020.35	1361.62
1020.641	1379.02
1020.932	1377.44
1021.223	1349.19
1021.514	1362.07
1021.804	1311.9
1022.095	1329.75
1022.386	1330.88
1022.677	1329.3
1022.967	1309.64
1023.258	1312.8
1023.548	1290.88
1023.839	1248.4
1024.129	1243.88
1024.419	1256.31
1024.709	1247.04
1025	1249.76
1025.29	1233.03
1025.58	1243.43
1025.87	1236.2
1026.16	1202.07
1026.449	1209.53
1026.739	1164.11
1027.029	1210.89
1027.319	1168.4
1027.608	1183.77
1027.898	1182.41
1028.187	1170.89
1028.477	1136.99
1028.766	1143.77
1029.055	1150.77
1029.344	1095.64
1029.634	1131.11
1029.923	1118.91
1030.212	1120.95
1030.501	1076.2
1030.79	1082.98
1031.078	1092.7
1031.367	1087.27
1031.656	1056.77
1031.945	1056.54
1032.233	1049.31
1032.522	1068.52
1032.81	1071.45
1033.099	1043.21
1033.387	1024.68
1033.675	1038.01
1033.963	1039.14
1034.251	1020.83
1034.54	1014.28
1034.828	1014.28
1035.116	1003.89
1035.403	983.1
1035.691	979.93
1035.979	982.42
1036.267	973.6
1036.554	953.49
1036.842	956.43
1037.129	934.28
1037.417	937.9
1037.704	931.57
1037.992	934.06
1038.279	915.53
1038.566	910.1
1038.853	910.1
1039.14	910.1
