Data from hue_10_FLMS001491_78.txt Node
Date: Mon Feb 06 15:32:32 GMT 2017
User: dcchb
Spectrometer: FLMS00149
Trigger mode: 0
Integration Time (sec): 2.000000E-2
Scans to average: 10
Electric dark correction enabled: true
Nonlinearity correction enabled: false
Boxcar width: 0
XAxis mode: Wavelengths
Number of Pixels in Spectrum: 2048
>>>>>Begin Spectral Data<<<<<
341.393	-17.23
341.776	-17.23
342.16	-17.23
342.543	-80.96
342.927	-71.69
343.31	-53.61
343.693	-67.63
344.077	-74.4
344.46	-62.2
344.843	-69.21
345.226	-21.75
345.61	-45.71
345.993	-38.93
346.376	-7.74
346.759	17.8
347.142	25.25
347.525	42.43
347.908	69.32
348.291	76.78
348.674	83.33
349.057	126.27
349.44	131.01
349.823	144.35
350.206	159.49
350.588	176.66
350.971	216.66
351.354	229.99
351.737	247.85
352.119	251.24
352.502	253.72
352.884	269.99
353.267	272.03
353.65	289.65
354.032	295.98
354.414	300.27
354.797	299.82
355.179	305.47
355.562	332.82
355.944	310.67
356.326	318.81
356.709	320.16
357.091	357
357.473	352.25
357.855	331.01
358.238	348.63
358.62	348.41
359.002	341.4
359.384	348.18
359.766	349.99
360.148	335.3
360.53	344.79
360.912	339.37
361.294	335.98
361.676	341.86
362.057	326.26
362.439	330.78
362.821	316.77
363.203	352.02
363.584	304.34
363.966	328.75
364.348	310.22
364.729	314.06
365.111	330.1
365.493	314.51
365.874	305.7
366.256	331.91
366.637	330.78
367.019	319.03
367.4	321.97
367.781	314.29
368.163	321.74
368.544	307.28
368.925	326.26
369.306	315.87
369.688	312.7
370.069	327.62
370.45	309.31
370.831	309.99
371.212	298.69
371.593	301.63
371.974	309.54
372.355	305.02
372.736	333.49
373.117	312.25
373.498	325.58
373.879	314.96
374.26	305.47
374.641	309.77
375.021	317.9
375.402	321.74
375.783	322.42
376.163	325.81
376.544	333.72
376.925	329.43
377.305	326.71
377.686	328.3
378.066	307.51
378.447	319.71
378.827	341.18
379.208	297.56
379.588	310.67
379.968	304.34
380.349	337.34
380.729	307.96
381.109	323.1
381.489	354.96
381.87	322.65
382.25	344.57
382.63	336.43
383.01	328.75
383.39	323.55
383.77	319.71
384.15	340.95
384.53	320.84
384.91	346.6
385.29	333.49
385.67	335.53
386.049	351.35
386.429	341.18
386.809	358.8
387.189	330.33
387.568	341.86
387.948	351.35
388.328	355.64
388.707	328.75
389.087	348.63
389.466	342.53
389.846	358.13
390.225	366.94
390.605	362.42
390.984	350.44
391.363	351.12
391.743	363.78
392.122	351.8
392.501	376.66
392.881	360.39
393.26	367.39
393.639	353.38
394.018	350.22
394.397	352.93
394.776	360.84
395.155	364.68
395.534	347.05
395.913	379.14
396.292	376.88
396.671	381.63
397.05	391.12
397.429	370.33
397.808	346.38
398.186	357.22
398.565	364.68
398.944	373.94
399.323	393.38
399.701	360.39
400.08	366.26
400.458	383.44
400.837	372.36
401.215	372.82
401.594	368.3
401.972	375.07
402.351	410.78
402.729	364.91
403.107	379.14
403.486	382.08
403.864	374.85
404.242	378.24
404.62	385.24
404.999	408.07
405.377	395.41
405.755	395.41
406.133	385.24
406.511	396.09
406.889	394.51
407.267	404.23
407.645	401.06
408.023	404.45
408.401	393.38
408.779	393.83
409.156	422.08
409.534	433.38
409.912	405.36
410.29	424.57
410.667	418.69
411.045	401.74
411.422	425.92
411.8	400.84
412.178	415.53
412.555	418.69
412.933	405.13
413.31	422.53
413.687	425.47
414.065	419.37
414.442	436.54
414.819	427.5
415.197	448.07
415.574	439.48
415.951	425.92
416.328	458.91
416.705	434.06
417.082	444
417.46	458.46
417.837	484.9
418.214	445.13
418.591	461.4
418.967	457.78
419.344	451.68
419.721	459.37
420.098	469.99
420.475	466.82
420.852	484.22
421.228	485.81
421.605	472.7
421.982	479.7
422.358	463.21
422.735	485.13
423.111	460.5
423.488	488.52
423.864	498.91
424.241	478.12
424.617	484.22
424.994	490.1
425.37	486.03
425.746	487.39
426.123	487.61
426.499	498.46
426.875	529.2
427.251	505.47
427.627	501.63
428.003	501.63
428.379	524.9
428.756	511.57
429.132	518.12
429.507	540.72
429.883	532.58
430.259	536.2
430.635	546.14
431.011	541.85
431.387	534.62
431.763	519.48
432.138	560.83
432.514	552.92
432.89	560.83
433.265	552.25
433.641	538.69
434.016	553.38
434.392	566.26
434.767	570.78
435.143	579.36
435.518	571.68
435.894	585.46
436.269	575.52
436.644	599.93
437.02	588.63
437.395	601.51
437.77	613.49
438.145	596.09
438.52	604
438.895	616.2
439.271	600.61
439.646	634.05
440.021	625.69
440.395	629.76
440.77	625.01
441.145	637.67
441.52	636.99
441.895	633.6
442.27	643.54
442.645	642.86
443.019	655.07
443.394	647.61
443.769	645.58
444.143	651.23
444.518	659.81
444.892	671.56
445.267	648.74
445.641	683.77
446.016	674.05
446.39	681.06
446.764	675.63
447.139	663.2
447.513	648.29
447.887	667.95
448.262	693.03
448.636	662.07
449.01	699.36
449.384	691
449.758	699.81
450.132	698.91
450.506	688.06
450.88	681.73
451.254	686.03
451.628	721.96
452.002	693.03
452.376	721.73
452.75	693.48
453.123	724.9
453.497	725.8
453.871	734.16
454.244	740.71
454.618	768.28
454.992	736.87
455.365	768.96
455.739	785.91
456.112	756.76
456.486	769.87
456.859	788.17
457.232	771
457.606	792.69
457.979	781.39
458.352	780.71
458.725	808.06
459.099	829.98
459.472	820.71
459.845	807.83
460.218	831.79
460.591	833.59
460.964	824.1
461.337	844.22
461.71	881.95
462.083	880.15
462.456	877.43
462.829	873.82
463.201	884.21
463.574	894.84
463.947	886.93
464.32	926.7
464.692	897.77
465.065	924.89
465.438	922.41
465.81	930.09
466.183	968.28
466.555	968.05
466.928	966.92
467.3	1002.85
467.672	1020.48
468.045	1027.26
468.417	1023.42
468.789	1003.76
469.161	1028.39
469.534	1051.22
469.906	1107.03
470.278	1087.6
470.65	1076.53
471.022	1121.04
471.394	1125.11
471.766	1128.95
472.138	1165.34
472.51	1160.82
472.882	1191.78
473.253	1218.67
473.625	1211.66
473.997	1254.6
474.369	1277.88
474.74	1258.89
475.112	1297.99
475.484	1316.07
475.855	1351.55
476.227	1360.81
476.598	1396.06
476.97	1401.71
477.341	1443.97
477.713	1469.28
478.084	1461.15
478.455	1501.6
478.827	1527.36
479.198	1575.72
479.569	1596.96
479.94	1626.34
480.311	1655.72
480.682	1681.03
481.053	1725.77
481.424	1718.09
481.795	1748.15
482.166	1802.61
482.537	1842.83
482.908	1902.72
483.279	1886.67
483.65	1943.4
484.021	1990.17
484.391	2024.52
484.762	2040.34
485.133	2069.27
485.503	2096.39
485.874	2156.05
486.244	2191.98
486.615	2266.55
486.985	2228.13
487.356	2331.63
487.726	2364.4
488.097	2379.32
488.467	2416.83
488.837	2471.97
489.207	2510.84
489.578	2525.75
489.948	2546.77
490.318	2636.94
490.688	2640.1
491.058	2672.19
491.428	2714.67
491.798	2735.69
492.168	2817.95
492.538	2855.69
492.908	2855.46
493.278	2918.51
493.648	2924.84
494.017	2974.55
494.387	3005.51
494.757	3030.82
495.126	3085.06
495.496	3106.53
495.866	3119.41
496.235	3170.93
496.605	3198.96
496.974	3191.05
497.344	3249.8
497.713	3280.54
498.082	3293.42
498.452	3304.04
498.821	3355.56
499.19	3346.75
499.559	3417.03
499.928	3450.7
500.298	3450.7
500.667	3471.26
501.036	3473.07
501.405	3522.56
501.774	3498.38
502.143	3546.06
502.512	3565.5
502.88	3640.98
503.249	3611.15
503.618	3615.22
503.987	3674.65
504.356	3666.51
504.724	3644.59
505.093	3710.13
505.462	3688.43
505.83	3734.99
506.199	3767.08
506.567	3809.33
506.936	3764.59
507.304	3852.27
507.672	3863.57
508.041	3883.68
508.409	3840.52
508.777	3882.1
509.145	3947.41
509.514	3956.68
509.882	3977.01
510.25	3979.05
510.618	4025.37
510.986	3984.02
511.354	4005.94
511.722	4067.86
512.09	4047.29
512.458	4045.03
512.826	4047.52
513.193	4128.2
513.561	4070.8
513.929	4089.55
514.297	4159.61
514.664	4139.04
515.032	4157.57
515.4	4205.03
515.767	4199.38
516.135	4221.75
516.502	4197.12
516.869	4244.58
517.237	4239.15
517.604	4232.83
517.972	4285.25
518.339	4273.05
518.706	4244.58
519.073	4287.74
519.44	4262.43
519.808	4294.75
520.175	4315.99
520.542	4338.36
520.909	4313.73
521.276	4353.05
521.643	4362.54
522.009	4387.85
522.376	4396.21
522.743	4402.31
523.11	4433.27
523.477	4448.64
523.843	4440.05
524.21	4521.63
524.577	4538.13
524.943	4514.85
525.31	4535.87
525.676	4570.44
526.043	4585.81
526.409	4646.83
526.776	4673.94
527.142	4644.79
527.508	4742.87
527.874	4699.25
528.241	4741.51
528.607	4753.94
528.973	4789.65
529.339	4737.22
529.705	4810.21
530.071	4854.28
530.437	4835.07
530.803	4867.84
531.169	4897.89
531.535	4915.75
531.901	4924.56
532.267	4921.4
532.632	4949.19
532.998	4988.29
533.364	5028.96
533.73	4975.63
534.095	5033.71
534.461	5061.96
534.826	5144.44
535.192	5107.61
535.557	5080.94
535.923	5172.46
536.288	5158.45
536.653	5170.43
537.019	5156.19
537.384	5215.63
537.749	5260.37
538.114	5210.88
538.479	5256.3
538.845	5247.72
539.21	5331.33
539.575	5286.13
539.94	5328.62
540.305	5346.47
540.67	5394.83
541.034	5376.75
541.399	5457.65
541.764	5449.29
542.129	5475.51
542.494	5468.5
542.858	5552.34
543.223	5490.42
543.587	5587.37
543.952	5547.14
544.316	5626.46
544.681	5593.69
545.045	5637.99
545.41	5690.19
545.774	5670.08
546.138	5722.96
546.503	5711.66
546.867	5711.66
547.231	5781.94
547.595	5858.55
547.959	5775.84
548.324	5796.85
548.688	5849.73
549.052	5847.93
549.416	5880.24
549.779	5952.78
550.143	5900.81
550.507	5983.29
550.871	5975.15
551.235	5950.3
551.599	6011.31
551.962	5999.33
552.326	5986.9
552.689	6090.86
553.053	6039.78
553.417	6125.21
553.78	6142.83
554.143	6161.82
554.507	6186
554.87	6216.5
555.234	6221.25
555.597	6163.62
555.96	6174.02
556.323	6281.59
556.686	6251.08
557.05	6313.9
557.413	6293.11
557.776	6304.18
558.139	6362.04
558.502	6380.11
558.865	6374.01
559.228	6372.66
559.59	6422.6
559.953	6360.45
560.316	6446.55
560.679	6422.6
561.041	6479.32
561.404	6458.76
561.767	6539.66
562.129	6539.21
562.492	6574.69
562.854	6552.31
563.217	6627.57
563.579	6606.78
563.941	6648.58
564.304	6645.19
564.666	6702.59
565.028	6775.36
565.39	6743.27
565.753	6732.42
566.115	6712.99
566.477	6799.76
566.839	6802.93
567.201	6835.47
567.563	6831.18
567.925	6898.52
568.287	6893.77
568.648	6974.9
569.01	6962.7
569.372	7030.95
569.734	6981.68
570.095	7023.04
570.457	7053.77
570.819	7117.27
571.18	7104.84
571.542	7156.59
571.903	7212.18
572.265	7244.72
572.626	7306.64
572.987	7324.95
573.349	7393.42
573.71	7368.11
574.071	7487.43
574.432	7549.35
574.794	7589.57
575.155	7627.54
575.516	7677.03
575.877	7723.13
576.238	7854.88
576.599	7900.07
576.96	7982.33
577.32	8097.81
577.681	8117.47
578.042	8268.2
578.403	8321.53
578.763	8381.87
579.124	8483.56
579.485	8712.48
579.845	8731.69
580.206	8875.19
580.566	8959.03
580.927	9098.91
581.287	9207.61
581.648	9301.17
582.008	9516.98
582.368	9699.35
582.728	9786.58
583.089	9996.29
583.449	10184.99
583.809	10429.5
584.169	10620.46
584.529	10820
584.889	11143.15
585.249	11188.35
585.609	11340.89
585.969	11693.65
586.329	11918.05
586.688	12076.24
587.048	12466.06
587.408	12622.66
587.768	13006.83
588.127	13232.59
588.487	13480.72
588.846	13800.26
589.206	14028.5
589.565	14344.65
589.925	14661.93
590.284	14894.69
590.643	15353.44
591.003	15596.37
591.362	15989.13
591.721	16385.05
592.08	16714.76
592.44	16935.32
592.799	17436.1
593.158	17700.27
593.517	18115.17
593.876	18506.8
594.235	18756.51
594.593	19242.15
594.952	19589.71
595.311	19844.17
595.67	20249.13
596.029	20757.14
596.387	21105.38
596.746	21369.78
597.104	21644.8
597.463	22220.83
597.822	22584.66
598.18	22780.36
598.538	23235.72
598.897	23732.65
599.255	23859.2
599.613	24593.2
599.972	24839.06
600.33	25144.14
600.688	25553.62
601.046	26080.61
601.404	26282.64
601.762	26578.45
602.12	27147.48
602.478	27508.82
602.836	27643.74
603.194	28030.39
603.552	28434.68
603.91	28610.49
604.268	29209.12
604.625	29438.27
604.983	29840.74
605.341	30011.58
605.698	30502.42
606.056	30700.15
606.413	31046.36
606.771	31522.5
607.128	31798.2
607.485	31995.03
607.843	32358.19
608.2	32631.18
608.557	33153.2
608.914	33282.46
609.272	33668.89
609.629	33925.83
609.986	34357.01
610.343	34455.76
610.7	34842.64
611.057	35186.81
611.414	35318.79
611.771	35586.58
612.127	35952.22
612.484	36036.96
612.841	36519.89
613.198	36561.24
613.554	36796.26
613.911	37274.44
614.267	37324.16
614.624	37514.21
614.98	37788.33
615.337	38185.83
615.693	38275.32
616.05	38461.53
616.406	38820.62
616.762	38842.99
617.118	38751.24
617.475	39193.94
617.831	39530.66
618.187	39697.2
618.543	39810.87
618.899	40156.4
619.255	40220.35
619.611	40397.3
619.967	40583.74
620.323	40882.26
620.678	40823.5
621.034	41015.36
621.39	41077.06
621.746	41128.81
622.101	41789.81
622.457	41425.29
622.812	41711.16
623.168	41915.68
623.523	41942.57
623.879	42224.37
624.234	42031.38
624.589	42220.98
624.945	42352.05
625.3	42542.33
625.655	42645.6
626.01	42719.5
626.365	42815.77
626.72	42871.13
627.075	42908.19
627.43	43041.98
627.785	42943.45
628.14	43155.87
628.495	43410.55
628.85	43289.43
629.205	43302.53
629.559	43588.85
629.914	43466.37
630.269	43513.38
630.623	43534.17
630.978	43455.98
631.332	43761.5
631.687	43856.87
632.041	43583.2
632.396	43871.56
632.75	43703.65
633.104	43807.15
633.459	43817.55
633.813	43753.6
634.167	43858.9
634.521	43906.36
634.875	43886.7
635.229	43935.51
635.583	43742.75
635.937	43846.7
636.291	43791.79
636.645	43924.21
636.999	43867.26
637.352	44031.78
637.706	43720.38
638.06	43921.05
638.413	43919.01
638.767	43836.31
639.121	43876.53
639.474	43697.1
639.828	43778.68
640.181	43808.06
640.534	43792.01
640.888	43898
641.241	43742.52
641.594	43775.97
641.947	43948.62
642.301	43755.18
642.654	43902.52
643.007	43868.17
643.36	43731.9
643.713	43846.93
644.066	44018
644.419	43613.71
644.771	43517.9
645.124	43141.18
645.477	43001.07
645.83	42961.3
646.182	42731.02
646.535	42558.37
646.888	42719.72
647.24	42569.9
647.593	42794.3
647.945	42734.64
648.298	42534.19
648.65	42592.5
649.002	42364.71
649.355	42497.81
649.707	42303.24
650.059	42602.89
650.411	43212.14
650.763	43182.76
651.115	43538.23
651.467	43489.65
651.819	43569.87
652.171	43402.19
652.523	43306.15
652.875	43367.16
653.227	43123.78
653.578	43478.12
653.93	43338.92
654.282	43242.2
654.633	43119.26
654.985	43211.01
655.337	43257.79
655.688	43227.06
656.039	43377.11
656.391	43076.32
656.742	43314.96
657.094	43115.65
657.445	43214.85
657.796	43203.1
658.147	43037.91
658.498	42940.06
658.849	43096.66
659.2	43052.6
659.551	43010.79
659.902	43241.07
660.253	43048.98
660.604	43124.23
660.955	42847.86
661.306	43111.13
661.656	42849.89
662.007	43062.09
662.358	42821.19
662.708	42972.15
663.059	42970.11
663.409	42747.29
663.76	43012.15
664.11	42943
664.461	43011.69
664.811	43026.16
665.161	42868.87
665.511	42919.04
665.862	42916.56
666.212	43124.01
666.562	42965.59
666.912	42788.87
667.262	42945.25
667.612	42819.16
667.962	42982.54
668.312	42869.55
668.662	43051.69
669.011	42821.42
669.361	42689.22
669.711	42792.26
670.06	42754.98
670.41	42780.29
670.76	42760.4
671.109	42790.23
671.459	42847.18
671.808	42660.29
672.157	42833.85
672.507	42546.85
672.856	42526.51
673.205	42595.66
673.554	42718.37
673.904	42546.62
674.253	42840.62
674.602	42677.24
674.951	42083.36
675.3	41910.03
675.649	42496
675.998	42511.82
676.346	42427.3
676.695	42597.24
677.044	42333.07
677.393	42526.06
677.741	42553.17
678.09	42282.67
678.438	42306.63
678.787	42339.85
679.135	42386.4
679.484	42034.54
679.832	42239.28
680.181	42019.18
680.529	42129.68
680.877	42033.41
681.225	41931.04
681.573	42166.97
681.922	41876.58
682.27	41620.32
682.618	41800.65
682.966	41642.46
683.314	41655.12
683.661	41671.39
684.009	41573.54
684.357	41491.06
684.705	41424.84
685.053	41490.38
685.4	41320.44
685.748	41206.09
686.095	41135.59
686.443	41028.7
686.79	40893.78
687.138	41003.39
687.485	40968.36
687.832	40888.36
688.18	40815.59
688.527	40642.94
688.874	40636.39
689.221	40467.13
689.568	40507.13
689.915	40603.62
690.262	40489.27
690.609	40398.2
690.956	40233.24
691.303	40048.38
691.65	39947.82
691.997	39992.79
692.344	39827.14
692.69	39735.17
693.037	39693.36
693.383	39453.14
693.73	39626.7
694.077	39339.47
694.423	39337.44
694.769	39212.92
695.116	39214.28
695.462	39177.44
695.808	39074.62
696.155	39040.05
696.501	38774.97
696.847	38593.51
697.193	38600.96
697.539	38680.96
697.885	38416.79
698.231	38151.48
698.577	38316.22
698.923	38187.87
699.269	38032.84
699.614	37901.09
699.96	37777.03
700.306	37822.68
700.651	37721.44
700.997	37555.11
701.342	37417.04
701.688	37472.63
702.033	37217.72
702.379	37269.02
702.724	37086.2
703.069	37210.94
703.415	36871.97
703.76	36848.24
704.105	36830.16
704.45	36778.19
704.795	36496.16
705.14	36422.71
705.485	36353.11
705.83	36349.27
706.175	36309.72
706.52	36194.25
706.865	36146.34
707.209	36059.11
707.554	36022.73
707.899	36078.77
708.243	35803.75
708.588	35811.21
708.932	35687.14
709.277	35580.02
709.621	35450.76
709.966	35360.82
710.31	35467.26
710.654	35145.46
710.998	35193.59
711.342	35066.14
711.687	35088.74
712.031	34965.35
712.375	34796.09
712.719	34915.18
713.063	34828.86
713.407	34881.51
713.75	34725.58
714.094	34682.87
714.438	34458.47
714.782	34427.51
715.125	34310.91
715.469	34305.03
715.812	34265.94
716.156	34114.98
716.499	34133.74
716.843	34193.62
717.186	33960.63
717.53	34100.06
717.873	34078.14
718.216	33824.59
718.559	33723.58
718.902	33547.54
719.246	33664.14
719.589	33527.88
719.932	33427.31
720.275	33403.58
720.617	33342.57
720.96	33404.94
721.303	33307.09
721.646	33254.44
721.989	33188
722.331	33178.28
722.674	33105.29
723.016	33022.35
723.359	33102.8
723.701	33027.78
724.044	32848.12
724.386	32734.68
724.729	32891.73
725.071	32732.19
725.413	32753.88
725.755	32701.23
726.097	32605.41
726.439	32519.09
726.782	32450.84
727.124	32450.84
727.465	32295.82
727.807	32339.43
728.149	32128.59
728.491	32297.85
728.833	32315.48
729.175	32035.94
729.516	32093.34
729.858	31851.99
730.199	31957.75
730.541	31902.38
730.882	31753.91
731.224	31927.69
731.565	31783.06
731.906	31865.77
732.248	31734.02
732.589	31567.02
732.93	31485.22
733.271	31407.03
733.612	31468.04
733.953	31592.79
734.294	31423.98
734.635	31309.63
734.976	31331.78
735.317	31204.09
735.658	31251.33
735.999	31193.7
736.339	31160.03
736.68	31243.64
737.021	31078.45
737.361	30897.21
737.702	31080.93
738.042	30949.64
738.383	30870.77
738.723	30977.21
739.063	30793.03
739.404	30873.71
739.744	30706.03
740.084	30738.8
740.424	30745.58
740.764	30603.43
741.104	30642.08
741.444	30500.61
741.784	30443.89
742.124	30532.02
742.464	30366.15
742.804	30396.88
743.143	30353.27
743.483	30286.15
743.823	30051.58
744.162	30063.56
744.502	30115.99
744.841	30010.45
745.181	30156.21
745.52	29870.57
745.86	30104.91
746.199	29934.52
746.538	29856.33
746.877	29956.22
747.216	29888.2
747.556	29806.39
747.895	29757.35
748.234	29679.84
748.573	29423.58
748.911	29626.06
749.25	29517.13
749.589	29396.23
749.928	29425.61
750.267	29325.95
750.605	29323.01
750.944	29242.34
751.283	29242.79
751.621	29120.76
751.96	29133.64
752.298	29031.27
752.636	29116.24
752.975	28953.08
753.313	28960.76
753.651	29036.47
753.989	28777.04
754.327	28735.23
754.666	28551.51
755.004	28719.19
755.342	28686.42
755.679	28615.91
756.017	28371.85
756.355	28514
756.693	28363.72
757.031	28419.54
757.368	28125.31
757.706	28144.97
758.044	28139.54
758.381	28077.4
758.719	27895.93
759.056	27954.46
759.394	27946.78
759.731	27740.01
760.068	27751.76
760.405	27670.63
760.743	27519.9
761.08	27581.59
761.417	27417.98
761.754	27386.57
762.091	27291.2
762.428	27185.44
762.765	27057.99
763.102	27066.35
763.438	26854.83
763.775	26747.71
764.112	26819.8
764.449	26925.34
764.785	26682.86
765.122	26574.84
765.458	26488.29
765.795	26338.46
766.131	26325.35
766.467	26302.53
766.804	26222.3
767.14	26175.75
767.476	26080.61
767.812	25930.34
768.148	25929.88
768.485	25816.21
768.821	25728.76
769.157	25844.01
769.492	25537.35
769.828	25473.17
770.164	25241.99
770.5	25306.85
770.836	25201.99
771.171	24991.83
771.507	25017.59
771.842	24884.49
772.178	24841.78
772.513	24720.88
772.849	24750.25
773.184	24527.89
773.519	24643.14
773.855	24512.97
774.19	24353.88
774.525	24227.33
774.86	24287.89
775.195	24179.87
775.53	24020.78
775.865	23999.09
776.2	23773.56
776.535	23642.94
776.87	23633.9
777.205	23566.78
777.539	23509.16
777.874	23495.14
778.209	23252.89
778.543	23225.55
778.878	23102.39
779.212	23055.61
779.547	22944.65
779.881	22990.07
780.215	22860.13
780.55	22871.66
780.884	22711.89
781.218	22648.16
781.552	22691.55
781.886	22517.09
782.22	22410.43
782.554	22297.44
782.888	22163.65
783.222	22027.16
783.556	21995.52
783.889	21955.3
784.223	21837.34
784.557	21620.62
784.89	21840.5
785.224	21581.52
785.557	21530.68
785.891	21542.43
786.224	21433.28
786.558	21385.6
786.891	21198.93
787.224	21117.13
787.557	21036.23
787.891	20979.28
788.224	20946.29
788.557	21001.65
788.89	20832.84
789.223	20797.81
789.556	20771.6
789.888	20700.19
790.221	20559.18
790.554	20452.51
790.887	20358.5
791.219	20271.73
791.552	20191.73
791.884	20147.21
792.217	20069.25
792.549	20081.45
792.882	19919.19
793.214	19784.73
793.546	19872.64
793.879	19743.38
794.211	19620.44
794.543	19663.16
794.875	19571.63
795.207	19637.62
795.539	19500.22
795.871	19382.03
796.203	19359.66
796.535	19186.78
796.867	19120.12
797.198	19109.05
797.53	19117.41
797.862	18984.53
798.193	19013.45
798.525	18816.85
798.856	18827.25
799.188	18685.55
799.519	18639.23
799.85	18578.66
800.182	18600.58
800.513	18681.49
800.844	18371.66
801.175	18397.88
801.506	18374.15
801.837	18224.1
802.168	18268.62
802.499	18211.22
802.83	18096.19
803.161	18145.91
803.491	17975.29
803.822	18050.54
804.153	17963.31
804.483	17846.71
804.814	17740.95
805.145	17685.58
805.475	17746.82
805.805	17620.05
806.136	17658.91
806.466	17641.51
806.796	17541.86
807.126	17399.94
807.457	17347.96
807.787	17417.79
808.117	17338.02
808.447	17217.12
808.777	17310.9
809.107	17224.35
809.436	17102.09
809.766	17072.94
810.096	17026.16
810.426	16894.41
810.755	16960.63
811.085	16893.28
811.414	16918.59
811.744	16748.88
812.073	16706.62
812.403	16671.6
812.732	16560.19
813.061	16599.28
813.39	16439.96
813.719	16405.61
814.049	16538.49
814.378	16451.26
814.707	16392.73
815.036	16362.9
815.365	16258.27
815.693	16127.88
816.022	16150.03
816.351	16118.84
816.68	16053.76
817.008	16033.87
817.337	15929.92
817.665	15850.83
817.994	15945.29
818.322	15865.52
818.651	15821.9
818.979	15717.5
819.307	15905.29
819.636	15665.97
819.964	15585.07
820.292	15675.01
820.62	15667.33
820.948	15655.8
821.276	15730.15
821.604	15606.54
821.932	15688.57
822.259	15600.44
822.587	15541.46
822.915	15568.57
823.243	15576.71
823.57	15552.53
823.898	15530.61
824.225	15416.26
824.553	15484.06
824.88	15589.36
825.207	15550.5
825.535	15484.73
825.862	15593.88
826.189	15514.34
826.516	15558.18
826.843	15587.56
827.17	15504.85
827.497	15558.86
827.824	15607.89
828.151	15623.49
828.478	15522.47
828.805	15609.48
829.131	15494.68
829.458	15455.13
829.785	15391.86
830.111	15405.19
830.438	15523.6
830.764	15450.38
831.09	15572.64
831.417	15444.28
831.743	15412.42
832.069	15405.87
832.395	15381.01
832.722	15449.03
833.048	15381.91
833.374	15411.74
833.7	15366.32
834.026	15350.73
834.351	15297.85
834.677	15408.35
835.003	15339.43
835.329	15381.69
835.654	15365.87
835.98	15215.81
836.306	15240.45
836.631	15136.95
836.956	15256.04
837.282	15266.21
837.607	15114.57
837.932	15149.83
838.258	15064.86
838.583	15101.02
838.908	14940.79
839.233	14948.48
839.558	14935.82
839.883	15049.72
840.208	14928.59
840.533	14868.03
840.858	14831.87
841.182	14911.42
841.507	14753.23
841.832	14661.93
842.156	14777.63
842.481	14731.76
842.805	14655.6
843.13	14676.62
843.454	14627.36
843.778	14543.29
844.103	14571.99
844.427	14479.34
844.751	14494.03
845.075	14525.89
845.399	14453.8
845.723	14288.61
846.047	14392.79
846.371	14206.12
846.695	14207.93
847.019	14066.69
847.343	14125.9
847.666	14004.32
847.99	13979.01
848.313	13893.14
848.637	13858.34
848.96	13829.41
849.284	13819.02
849.607	13702.63
849.931	13664.44
850.254	13588.29
850.577	13478.23
850.9	13379.93
851.223	13435.97
851.546	13347.84
851.869	13212.48
852.192	13257.22
852.515	13134.51
852.838	13028.3
853.161	13133.16
853.483	13058.36
853.806	13010.22
854.129	12947.4
854.451	12928.87
854.774	12838.48
855.096	12868.53
855.419	12812.04
855.741	12771.81
856.063	12725.71
856.385	12641.19
856.708	12573.62
857.03	12583.79
857.352	12498.15
857.674	12492.72
857.996	12505.38
858.318	12425.15
858.64	12450.69
858.961	12429.9
859.283	12368.88
859.605	12234.88
859.926	12312.84
860.248	12213.86
860.57	12162.34
860.891	12222.67
861.212	12092.96
861.534	12171.37
861.855	12043.24
862.176	12166.86
862.498	12053.86
862.819	12049.34
863.14	11989.91
863.461	11870.14
863.782	11872.17
864.103	11904.49
864.424	11836.47
864.745	11938.39
865.065	11765.06
865.386	11773.65
865.707	11802.35
866.027	11813.19
866.348	11720.77
866.668	11779.07
866.989	11697.94
867.309	11596.25
867.63	11535.91
867.95	11603.25
868.27	11525.97
868.59	11575.91
868.91	11592.18
869.23	11568.45
869.55	11458.4
869.87	11523.71
870.19	11594.67
870.51	11501.11
870.83	11485.52
871.15	11381.57
871.469	11404.39
871.789	11434.67
872.109	11456.82
872.428	11310.61
872.748	11331.4
873.067	11360.55
873.386	11399.64
873.706	11370.04
874.025	11252.3
874.344	11261.12
874.663	11234.22
874.982	11181.57
875.301	11200.1
875.62	11157.16
875.939	11109.71
876.258	11103.15
876.577	11073.32
876.896	11093.44
877.214	11025.42
877.533	10987.23
877.852	11048.24
878.17	11009.37
878.489	10953.1
878.807	10992.65
879.125	10923.5
879.444	10854.35
879.762	10901.35
880.08	10899.77
880.398	10914.23
880.716	10923.05
881.034	10827.68
881.352	10906.32
881.67	10746.33
881.988	10795.14
882.306	10762.37
882.624	10728.25
882.941	10651.19
883.259	10630.62
883.577	10601.7
883.894	10598.76
884.212	10629.49
884.529	10634.24
884.846	10538.2
885.164	10477.41
885.481	10491.87
885.798	10454.58
886.115	10419.33
886.432	10471.53
886.75	10398.54
887.067	10413.68
887.383	10357.19
887.7	10370.07
888.017	10262.72
888.334	10280.8
888.651	10281.93
888.967	10277.87
889.284	10183.18
889.6	10102.05
889.917	10039.45
890.233	10149.28
890.55	10073.12
890.866	10024.31
891.182	10076.51
891.498	9983.18
891.815	10040.58
892.131	9972.56
892.447	9873.36
892.763	9907.71
893.079	9874.49
893.395	9817.31
893.71	9767.14
894.026	9785.45
894.342	9796.52
894.657	9669.97
894.973	9723.76
895.289	9707.03
895.604	9642.4
895.92	9592.91
896.235	9525.34
896.55	9546.59
896.865	9461.39
897.181	9500.48
897.496	9500.94
897.811	9436.53
898.126	9376.65
898.441	9337.78
898.756	9269.53
899.071	9193.15
899.386	9241.51
899.7	9197.22
900.015	9146.6
900.33	9101.4
900.644	8990.22
900.959	9060.72
901.273	9058.91
901.588	8940.05
901.902	8952.93
902.216	8900.73
902.531	8932.36
902.845	8876.09
903.159	8824.8
903.473	8742.54
903.787	8676.1
904.101	8727.62
904.415	8706.83
904.729	8710
905.042	8621.86
905.356	8619.6
905.67	8566.95
905.984	8564.92
906.297	8545.93
906.611	8474.07
906.924	8504.8
907.237	8445.15
907.551	8361.53
907.864	8373.28
908.177	8309.1
908.491	8338.48
908.804	8226.17
909.117	8191.14
909.43	8149.11
909.743	8148.66
910.056	8120.18
910.368	8093.52
910.681	8061.65
910.994	7998.15
911.307	8000.41
911.619	7943.46
911.932	7919.96
912.244	7878.83
912.557	7851.04
912.869	7820.53
913.181	7806.97
913.494	7819.4
913.806	7757.71
914.118	7696.24
914.43	7668.67
914.742	7584.6
915.054	7587.31
915.366	7581.44
915.678	7543.25
915.99	7527.2
916.302	7421.44
916.613	7427.09
916.925	7455.34
917.236	7385.29
917.548	7307.77
917.859	7291.28
918.171	7264.16
918.482	7242.69
918.794	7242.92
919.105	7217.61
919.416	7130.15
919.727	7109.14
920.038	7070.27
920.349	7079.76
920.66	7016.93
920.971	7049.93
921.282	6977.39
921.593	6964.96
921.903	6887.67
922.214	6924.28
922.525	6938.07
922.835	6870.05
923.146	6803.15
923.456	6794.57
923.767	6700.11
924.077	6745.75
924.387	6669.37
924.697	6699.65
925.008	6685.64
925.318	6643.61
925.628	6579.43
925.938	6577.17
926.248	6525.65
926.558	6440.68
926.867	6456.95
927.177	6503.73
927.487	6460.11
927.796	6417.63
928.106	6341.47
928.416	6305.09
928.725	6339.89
929.034	6284.52
929.344	6308.48
929.653	6244.53
929.962	6204.3
930.271	6143.96
930.581	6127.47
930.89	6174.02
931.199	6108.94
931.508	6112.1
931.817	6087.69
932.125	6061.48
932.434	6016.73
932.743	5940.35
933.051	5907.36
933.36	5915.04
933.669	5869.39
933.977	5816.29
934.286	5774.93
934.594	5792.56
934.902	5761.37
935.21	5756.85
935.519	5734.71
935.827	5742.39
936.135	5684.31
936.443	5620.36
936.751	5589.4
937.059	5616.29
937.367	5571.55
937.674	5586.01
937.982	5549.18
938.29	5514.15
938.597	5502.4
938.905	5401.61
939.213	5430.54
939.52	5415.17
939.827	5398.9
940.135	5344.66
940.442	5290.88
940.749	5323.19
941.056	5325.23
941.363	5245.68
941.67	5284.32
941.977	5189.64
942.284	5212.24
942.591	5156.19
942.898	5141.5
943.205	5163.42
943.511	5134.72
943.818	5106.7
944.125	5052.69
944.431	5028.06
944.738	5017.21
945.044	5024.67
945.35	4960.94
945.657	4986.93
945.963	4898.57
946.269	4885.92
946.575	4864.67
946.881	4874.62
947.187	4841.17
947.493	4788.07
947.799	4867.39
948.105	4831.23
948.41	4777.45
948.716	4822.64
949.022	4737.67
949.327	4704.45
949.633	4699.48
949.938	4695.19
950.244	4702.19
950.549	4646.38
950.854	4656.77
951.16	4559.15
951.465	4528.86
951.77	4547.85
952.075	4490.22
952.38	4510.33
952.685	4521.63
952.99	4461.97
953.294	4485.7
953.599	4463.78
953.904	4425.82
954.209	4375.42
954.513	4397.79
954.818	4361.18
955.122	4331.13
955.426	4382.88
955.731	4314.63
956.035	4225.37
956.339	4228.53
956.643	4221.53
956.948	4198.03
957.252	4186.95
957.556	4195.77
957.86	4172.49
958.163	4143.34
958.467	4155.99
958.771	4118.25
959.075	4111.7
959.378	4107.18
959.682	4064.92
959.985	4058.59
960.289	4045.71
960.592	3987.41
960.896	4033.06
961.199	3972.04
961.502	4016.79
961.805	3908.32
962.108	3907.41
962.411	3926.39
962.714	3880.29
963.017	3832.61
963.32	3884.81
963.623	3817.24
963.926	3840.07
964.228	3814.76
964.531	3795.1
964.833	3781.99
965.136	3765.04
965.438	3744.25
965.741	3709.45
966.043	3710.81
966.345	3706.29
966.648	3690.24
966.95	3670.58
967.252	3665.38
967.554	3640.98
967.856	3620.87
968.158	3582.9
968.46	3603.24
968.761	3549
969.063	3534.99
969.365	3525.95
969.666	3517.14
969.968	3519.62
970.269	3492.73
970.571	3468.33
970.872	3448.67
971.174	3423.81
971.475	3395.11
971.776	3388.55
972.077	3411.83
972.378	3413.64
972.679	3328.9
972.98	3354.66
973.281	3358.95
973.582	3335.68
973.883	3339.52
974.183	3303.59
974.484	3266.98
974.785	3243.7
975.085	3255
975.386	3228.56
975.686	3200.54
975.986	3176.58
976.287	3195.34
976.587	3161.22
976.887	3177.26
977.187	3130.03
977.487	3165.74
977.787	3127.09
978.087	3084.38
978.387	3071.28
978.687	3086.87
978.987	3057.72
979.286	3059.52
979.586	3042.58
979.885	3038.73
980.185	3021.11
980.484	3006.87
980.784	2996.93
981.083	2965.52
981.382	2935.23
981.682	2968
981.981	2892.75
982.28	2887.1
982.579	2898.85
982.878	2853.65
983.177	2899.98
983.475	2859.08
983.774	2869.47
984.073	2832.64
984.372	2831.73
984.67	2807.33
984.969	2789.7
985.267	2805.07
985.566	2777.05
985.864	2779.31
986.162	2761.68
986.461	2722.81
986.759	2717.84
987.057	2693.43
987.355	2663.83
987.653	2720.1
987.951	2680.55
988.249	2670.38
988.547	2654.11
988.844	2645.75
989.142	2612.53
989.44	2588.8
989.737	2609.14
990.035	2615.24
990.332	2565.53
990.63	2560.55
990.927	2548.13
991.224	2536.37
991.521	2589.03
991.819	2491.86
992.116	2518.07
992.413	2476.94
992.71	2467.45
993.006	2492.76
993.303	2467
993.6	2467.9
993.897	2431.07
994.193	2466.09
994.49	2421.57
994.787	2403.95
995.083	2399.65
995.379	2399.2
995.676	2405.53
995.972	2364.63
996.268	2385.64
996.565	2351.75
996.861	2319.43
997.157	2318.07
997.453	2314.46
997.749	2292.31
998.044	2301.58
998.34	2280.56
998.636	2228.13
998.932	2244.18
999.227	2263.61
999.523	2238.3
999.818	2202.6
1000.114	2224.74
1000.409	2175.71
1000.704	2203.5
1001	2167.57
1001.295	2100.45
1001.59	2149.27
1001.885	2105.65
1002.18	2111.07
1002.475	2112.43
1002.77	2081.92
1003.065	2095.93
1003.359	2111.3
1003.654	2060.45
1003.949	2054.13
1004.243	2021.81
1004.538	2031.53
1004.832	2011.42
1005.127	2004.64
1005.421	1987.46
1005.715	1946.11
1006.009	1985.88
1006.304	1969.84
1006.598	1957.18
1006.892	1940.68
1007.186	1919.22
1007.48	1909.05
1007.773	1931.19
1008.067	1901.59
1008.361	1873.11
1008.655	1882.38
1008.948	1869.72
1009.242	1848.03
1009.535	1870.18
1009.829	1812.78
1010.122	1803.74
1010.415	1843.51
1010.708	1807.13
1011.001	1784.53
1011.295	1750.86
1011.588	1805.32
1011.881	1775.72
1012.173	1750.41
1012.466	1740.46
1012.759	1718.99
1013.052	1724.19
1013.344	1688.26
1013.637	1706.79
1013.93	1692.1
1014.222	1681.03
1014.514	1669.28
1014.807	1660.01
1015.099	1637.19
1015.391	1637.87
1015.683	1628.83
1015.976	1631.77
1016.268	1595.16
1016.56	1590.64
1016.851	1564.42
1017.143	1652.33
1017.435	1575.04
1017.727	1563.07
1018.018	1578.89
1018.31	1555.61
1018.602	1531.43
1018.893	1531.2
1019.185	1524.88
1019.476	1538.21
1019.767	1514.93
1020.058	1484.42
1020.35	1503.86
1020.641	1475.38
1020.932	1483.97
1021.223	1473.58
1021.514	1419.79
1021.804	1424.09
1022.095	1423.86
1022.386	1399.91
1022.677	1420.47
1022.967	1398.32
1023.258	1386.35
1023.548	1387.93
1023.839	1366.24
1024.129	1344.77
1024.419	1341.83
1024.709	1355.61
1025	1334.82
1025.29	1332.34
1025.58	1286.01
1025.87	1283.75
1026.16	1296.86
1026.449	1300.25
1026.739	1266.58
1027.029	1269.06
1027.319	1282.4
1027.608	1259.35
1027.898	1272
1028.187	1253.24
1028.477	1244.88
1028.766	1218.22
1029.055	1198.78
1029.344	1192.68
1029.634	1196.07
1029.923	1203.3
1030.212	1190.19
1030.501	1188.39
1030.79	1131.44
1031.078	1156.07
1031.367	1168.05
1031.656	1138.67
1031.945	1143.64
1032.233	1161.27
1032.522	1125.79
1032.81	1118.11
1033.099	1124.21
1033.387	1104.55
1033.675	1094.6
1033.963	1069.52
1034.251	1063.42
1034.54	1056.19
1034.828	1049.63
1035.116	1041.5
1035.403	1059.35
1035.691	1048.5
1035.979	1028.39
1036.267	1052.35
1036.554	1037.66
1036.842	1034.72
1037.129	1004.89
1037.417	979.35
1037.704	1025.68
1037.992	984.55
1038.279	996.98
1038.566	983.65
1038.853	983.65
1039.14	983.65
