Data from hue_26_FLMS001491_00035.txt Node
Date: Tue Feb 07 17:13:54 GMT 2017
User: dcchb
Spectrometer: FLMS00149
Trigger mode: 0
Integration Time (sec): 2.000000E-2
Scans to average: 10
Electric dark correction enabled: true
Nonlinearity correction enabled: false
Boxcar width: 0
XAxis mode: Wavelengths
Number of Pixels in Spectrum: 2048
>>>>>Begin Spectral Data<<<<<
341.393	-9.77
341.776	-9.77
342.16	-9.77
342.543	-60.39
342.927	-68.53
343.31	-80.96
343.693	-52.26
344.077	-87.74
344.46	-51.35
344.843	-66.72
345.226	-34.63
345.61	-26.04
345.993	-12.94
346.376	-9.1
346.759	24.8
347.142	27.06
347.525	18.47
347.908	58.47
348.291	74.97
348.674	97.79
349.057	120.17
349.44	128.3
349.823	160.62
350.206	180.96
350.588	207.17
350.971	218.02
351.354	226.6
351.737	233.84
352.119	259.6
352.502	279.71
352.884	289.2
353.267	283.1
353.65	309.99
354.032	299.37
354.414	307.51
354.797	341.18
355.179	327.17
355.562	331.23
355.944	309.77
356.326	314.96
356.709	336.43
357.091	330.78
357.473	313.16
357.855	315.64
358.238	385.24
358.62	352.02
359.002	341.63
359.384	334.62
359.766	326.49
360.148	329.65
360.53	344.12
360.912	346.15
361.294	335.75
361.676	334.17
362.057	330.1
362.439	319.48
362.821	322.87
363.203	318.35
363.584	296.88
363.966	334.85
364.348	334.4
364.729	335.08
365.111	314.06
365.493	296.88
365.874	332.82
366.256	329.65
366.637	316.32
367.019	338.24
367.4	337.11
367.781	316.09
368.163	315.87
368.544	329.88
368.925	303.89
369.306	333.49
369.688	317.68
370.069	323.32
370.45	305.02
370.831	316.55
371.212	302.53
371.593	337.34
371.974	319.26
372.355	333.04
372.736	320.39
373.117	312.25
373.498	314.29
373.879	319.26
374.26	322.42
374.641	319.03
375.021	337.34
375.402	311.57
375.783	307.73
376.163	303.66
376.544	328.97
376.925	354.51
377.305	332.82
377.686	354.51
378.066	355.87
378.447	331.46
378.827	334.62
379.208	338.47
379.588	307.05
379.968	355.64
380.349	346.83
380.729	327.62
381.109	338.92
381.489	338.47
381.87	338.01
382.25	336.21
382.63	345.25
383.01	337.11
383.39	335.53
383.77	351.35
384.15	355.41
384.53	342.08
384.91	318.58
385.29	361.06
385.67	338.47
386.049	360.16
386.429	355.41
386.809	337.79
387.189	340.05
387.568	375.98
387.948	357.22
388.328	363.78
388.707	369.2
389.087	367.84
389.466	357.67
389.846	359.71
390.225	382.53
390.605	372.59
390.984	345.47
391.363	367.17
391.743	367.39
392.122	359.71
392.501	362.87
392.881	392.7
393.26	377.33
393.639	352.48
394.018	393.83
394.397	388.41
394.776	408.52
395.155	397.67
395.534	373.72
395.913	373.72
396.292	389.76
396.671	380.5
397.05	397.45
397.429	379.59
397.808	381.85
398.186	380.27
398.565	395.41
398.944	396.09
399.323	396.77
399.701	374.4
400.08	388.18
400.458	377.33
400.837	418.46
401.215	422.76
401.594	388.41
401.972	426.37
402.351	411.68
402.729	404.9
403.107	419.59
403.486	428.41
403.864	422.53
404.242	415.07
404.62	423.89
404.999	432.7
405.377	440.16
405.755	421.63
406.133	427.73
406.511	444
406.889	425.47
407.267	445.13
407.645	474.06
408.023	431.12
408.401	447.84
408.779	464.34
409.156	458.69
409.534	442.42
409.912	460.04
410.29	471.34
410.667	443.77
411.045	473.6
411.422	468.86
411.8	476.09
412.178	483.77
412.555	472.02
412.933	477.45
413.31	481.29
413.687	476.77
414.065	473.83
414.442	473.83
414.819	472.25
415.197	511.57
415.574	516.09
415.951	490.78
416.328	502.08
416.705	499.14
417.082	501.63
417.46	514.51
417.837	514.51
418.214	511.12
418.591	524.9
418.967	518.57
419.344	530.33
419.721	529.2
420.098	546.37
420.475	511.12
420.852	519.93
421.228	551.57
421.605	545.47
421.982	532.81
422.358	539.82
422.735	563.09
423.111	538.91
423.488	545.92
423.864	559.93
424.241	555.18
424.617	551.57
424.994	558.12
425.37	555.64
425.746	556.31
426.123	558.35
426.499	570.55
426.875	580.95
427.251	613.94
427.627	586.59
428.003	574.84
428.379	606.48
428.756	600.15
429.132	604.22
429.507	620.94
429.883	627.5
430.259	645.8
430.635	636.54
431.011	646.48
431.387	653.49
431.763	642.19
432.138	648.29
432.514	644.67
432.89	657.1
433.265	652.36
433.641	665.46
434.016	657.1
434.392	692.35
434.767	693.03
435.143	669.76
435.518	702.52
435.894	709.08
436.269	709.53
436.644	707.27
437.02	709.3
437.395	713.37
437.77	731.9
438.145	742.52
438.52	714.73
438.895	754.73
439.271	749.98
439.646	749.53
440.021	769.64
440.395	767.61
440.77	753.37
441.145	765.8
441.52	757.21
441.895	791.11
442.27	772.13
442.645	796.31
443.019	788.85
443.394	809.19
443.769	787.27
444.143	787.27
444.518	811
444.892	821.16
445.267	808.96
445.641	826.59
446.016	821.16
446.39	841.5
446.764	841.73
447.139	843.76
447.513	834.27
447.887	834.95
448.262	846.25
448.636	840.83
449.01	861.39
449.384	873.59
449.758	892.35
450.132	887.15
450.506	883.76
450.88	882.63
451.254	886.47
451.628	874.27
452.002	892.8
452.376	921.05
452.75	913.59
453.123	925.34
453.497	914.04
453.871	943.2
454.244	971.9
454.618	961.95
454.992	978.9
455.365	960.14
455.739	992.23
456.112	1017.09
456.486	986.58
456.859	1029.97
457.232	1029.07
457.606	1020.03
457.979	1015.28
458.352	1042.4
458.725	1054.83
459.099	1058.9
459.472	1085.56
459.845	1097.99
460.218	1120.37
460.591	1089.63
460.964	1108.84
461.337	1129.63
461.71	1134.83
462.083	1151.55
462.456	1135.51
462.829	1143.19
463.201	1210.08
463.574	1198.33
463.947	1212.34
464.32	1256.86
464.692	1226.58
465.065	1274.94
465.438	1280.81
465.81	1290.08
466.183	1293.92
466.555	1335.05
466.928	1344.77
467.3	1336.86
467.672	1365.78
468.045	1380.25
468.417	1384.99
468.789	1386.8
469.161	1451.43
469.534	1437.19
469.906	1476.29
470.278	1489.62
470.65	1530.07
471.022	1527.13
471.394	1552.45
471.766	1561.26
472.138	1598.77
472.51	1626.12
472.882	1637.87
473.253	1667.24
473.625	1696.4
473.997	1702.5
474.369	1729.39
474.74	1780.91
475.112	1792.66
475.484	1822.49
475.855	1866.79
476.227	1882.38
476.598	1929.38
476.97	1931.64
477.341	2009.83
477.713	2046.44
478.084	2044.41
478.455	2111.07
478.827	2160.79
479.198	2226.33
479.569	2175.93
479.94	2241.01
480.311	2303.61
480.682	2359.88
481.053	2407.56
481.424	2442.82
481.795	2455.92
482.166	2496.38
482.537	2549.48
482.908	2631.96
483.279	2643.04
483.65	2706.54
484.021	2747.22
484.391	2829.25
484.762	2847.33
485.133	2887.55
485.503	2932.52
485.874	3017.94
486.244	3052.97
486.615	3099.3
486.985	3170.26
487.356	3191.27
487.726	3251.38
488.097	3352.17
488.467	3356.47
488.837	3412.51
489.207	3476.91
489.578	3499.74
489.948	3592.62
490.318	3592.17
490.688	3620.41
491.058	3755.32
491.428	3781.09
491.798	3884.14
492.168	3951.7
492.538	3973.4
492.908	3992.61
493.278	4044.58
493.648	4046.84
494.017	4125.48
494.387	4143.79
494.757	4258.14
495.126	4295.65
495.496	4295.2
495.866	4321.64
496.235	4374.07
496.605	4423.78
496.974	4494.74
497.344	4596.66
497.713	4542.87
498.082	4581.52
498.452	4619.71
498.821	4696.54
499.19	4720.95
499.559	4721.85
499.928	4755.98
500.298	4842.3
500.667	4843.21
501.036	4868.29
501.405	4895.18
501.774	4891.11
502.143	4948.74
502.512	4973.37
502.88	5040.26
503.249	5072.8
503.618	5094.27
503.987	5112.58
504.356	5147.83
504.724	5136.08
505.093	5207.26
505.462	5191.22
505.83	5227.83
506.199	5299.92
506.567	5375.85
506.936	5381.72
507.304	5469.18
507.672	5453.59
508.041	5529.29
508.409	5480.03
508.777	5566.8
509.145	5589.85
509.514	5533.58
509.882	5562.06
510.25	5582.85
510.618	5683.64
510.986	5725.67
511.354	5696.97
511.722	5774.25
512.09	5813.35
512.458	5758.66
512.826	5872.78
513.193	5908.94
513.561	5851.77
513.929	5912.78
514.297	5962.05
514.664	5959.11
515.032	5962.27
515.4	5987.58
515.767	6035.72
516.135	6117.3
516.502	6046.56
516.869	6149.39
517.237	6184.87
517.604	6136.28
517.972	6192.78
518.339	6251.98
518.706	6228.25
519.073	6254.47
519.44	6263.28
519.808	6393
520.175	6303.28
520.542	6387.57
520.909	6432.54
521.276	6416.5
521.643	6514.35
522.009	6540.34
522.376	6568.36
522.743	6644.74
523.11	6663.72
523.477	6688.58
523.843	6712.08
524.21	6802.7
524.577	6766.32
524.943	6850.84
525.31	6848.58
525.676	6923.6
526.043	6949.59
526.409	6973.32
526.776	7045.63
527.142	7053.32
527.508	7126.31
527.874	7132.86
528.241	7211.28
528.607	7175.12
528.973	7289.24
529.339	7269.81
529.705	7346.19
530.071	7364.72
530.437	7423.7
530.803	7440.65
531.169	7489.69
531.535	7425.51
531.901	7494.66
532.267	7523.81
532.632	7585.05
532.998	7599.52
533.364	7627.77
533.73	7717.48
534.095	7798.16
534.461	7737.82
534.826	7781.66
535.192	7811.72
535.557	7878.61
535.923	7853.52
536.288	7942.33
536.653	8010.35
537.019	7969.68
537.384	8072.95
537.749	8117.24
538.114	8037.47
538.479	8055.78
538.845	8144.59
539.21	8084.25
539.575	8186.17
539.94	8250.57
540.305	8254.64
540.67	8246.28
541.034	8315.43
541.399	8322.66
541.764	8393.62
542.129	8377.12
542.494	8439.5
542.858	8439.72
543.223	8551.36
543.587	8549.32
543.952	8524.24
544.316	8636.78
544.681	8543
545.045	8664.35
545.41	8676.1
545.774	8726.49
546.138	8777.79
546.503	8722.65
546.867	8807.4
547.231	8888.75
547.595	8891.46
547.959	8893.72
548.324	8859.6
548.688	8994.74
549.052	9000.38
549.416	9004.45
549.779	9033.6
550.143	9069.08
550.507	9214.16
550.871	9114.96
551.235	9169.87
551.599	9199.48
551.962	9194.96
552.326	9266.37
552.689	9307.5
553.053	9298
553.417	9313.82
553.78	9444.44
554.143	9422.75
554.507	9388.4
554.87	9490.09
555.234	9545.91
555.597	9477.66
555.96	9575.96
556.323	9560.82
556.686	9561.27
557.05	9704.32
557.413	9666.13
557.776	9692.57
558.139	9790.19
558.502	9807.82
558.865	9835.84
559.228	9779.35
559.59	9921.04
559.953	9892.79
560.316	9979.79
560.679	9998.1
561.041	10061.83
561.404	10058.66
561.767	10163.97
562.129	10004.43
562.492	10202.84
562.854	10190.18
563.217	10196.74
563.579	10247.81
563.941	10375.04
564.304	10302.72
564.666	10444.64
565.028	10449.61
565.39	10511.53
565.753	10484.64
566.115	10537.29
566.477	10610.74
566.839	10584.75
567.201	10649.38
567.563	10703.84
567.925	10687.35
568.287	10763.05
568.648	10796.95
569.01	10868.13
569.372	10958.75
569.734	10829.26
570.095	10982.93
570.457	10990.16
570.819	11103.61
571.18	11099.31
571.542	11195.13
571.903	11242.36
572.265	11279.65
572.626	11282.81
572.987	11336.82
573.349	11417.27
573.71	11429.25
574.071	11540.66
574.432	11658.39
574.794	11735.68
575.155	11725.51
575.516	11707.88
575.877	11807.32
576.238	11883.92
576.599	11978.16
576.96	12082.11
577.32	12182
577.681	12224.25
578.042	12380.86
578.403	12353.97
578.763	12478.03
579.124	12588.54
579.485	12725.03
579.845	12844.13
580.206	12800.28
580.566	13024.91
580.927	13103.55
581.287	13333.38
581.648	13315.07
582.008	13589.87
582.368	13666.02
582.728	13893.14
583.089	13984.89
583.449	14155.05
583.809	14262.62
584.169	14621.03
584.529	14697.64
584.889	14967.91
585.249	15125.87
585.609	15181.92
585.969	15534.22
586.329	15635.24
586.688	15847.66
587.048	16110.71
587.408	16305.28
587.768	16592.28
588.127	16690.58
588.487	16936.9
588.846	17365.14
589.206	17434.06
589.565	17703.21
589.925	18033.14
590.284	18287.6
590.643	18581.38
591.003	18867.02
591.362	19239.44
591.721	19394.24
592.08	19660.9
592.44	19966.42
592.799	20302.23
593.158	20584.04
593.517	20783.13
593.876	21061.76
594.235	21451.36
594.593	21704.46
594.952	22120.49
595.311	22265.12
595.67	22645.68
596.029	22947.81
596.387	23267.58
596.746	23556.16
597.104	23744.18
597.463	24114.11
597.822	24489.02
598.18	24807.43
598.538	24988.89
598.897	25378.94
599.255	25522.21
599.613	26111.8
599.972	26297.56
600.33	26522.18
600.688	26815.28
601.046	27086.24
601.404	27361.71
601.762	27696.39
602.12	28110.16
602.478	28315.13
602.836	28763.93
603.194	28798.73
603.552	29100.65
603.91	29331.15
604.268	29731.82
604.625	29718.03
604.983	30198.25
605.341	30355.08
605.698	30807.5
606.056	31086.58
606.413	31226.24
606.771	31512.56
607.128	31750.97
607.485	31970.18
607.843	32145.54
608.2	32545.98
608.557	32873.2
608.914	32932.18
609.272	33283.14
609.629	33538.95
609.986	33764.93
610.343	33822.33
610.7	34331.47
611.057	34326.72
611.414	34481.97
611.771	34864.79
612.127	35092.81
612.484	35282.41
612.841	35479.69
613.198	35561.27
613.554	35839.45
613.911	36093.01
614.267	36290.51
614.624	36400.12
614.98	36627.46
615.337	36932.08
615.693	37070.16
616.05	37081.23
616.406	37484.83
616.762	37474.21
617.118	37621.78
617.475	37735.22
617.831	37913.52
618.187	38090.02
618.543	38099.73
618.899	38471.93
619.255	38512.38
619.611	38676.67
619.967	38891.35
620.323	39069.88
620.678	38904.23
621.034	39075.07
621.39	39191.23
621.746	39192.81
622.101	39770.65
622.457	39543.31
622.812	39806.81
623.168	39997.99
623.523	39976.75
623.879	40180.36
624.234	39984.65
624.589	40214.25
624.945	40339.9
625.3	40472.78
625.655	40485.88
626.01	40602.49
626.365	40725.65
626.72	40722.94
627.075	40601.81
627.43	40800.68
627.785	40805.42
628.14	40973.78
628.495	41086.77
628.85	41036.15
629.205	40885.2
629.559	41209.71
629.914	41001.13
630.269	41240.67
630.623	41261.23
630.978	41249.71
631.332	41402.92
631.687	41470.94
632.041	41348.46
632.396	41490.83
632.75	41332.42
633.104	41352.3
633.459	41335.13
633.813	41413.32
634.167	41493.09
634.521	41308.24
634.875	41573.99
635.229	41400.66
635.583	41154.57
635.937	41469.81
636.291	41384.84
636.645	41512.07
636.999	41303.04
637.352	41520.89
637.706	41396.82
638.06	41578.06
638.413	41435.46
638.767	41383.49
639.121	41421
639.474	41268.24
639.828	41353.88
640.181	41457.38
640.534	41310.95
640.888	41247.22
641.241	41179.43
641.594	41151.63
641.947	41437.95
642.301	41310.04
642.654	41401.79
643.007	41438.4
643.36	41223.49
643.713	41235.92
644.066	41281.8
644.419	41085.64
644.771	40879.55
645.124	40656.73
645.477	40446.56
645.83	40328.37
646.182	40064.2
646.535	40091.54
646.888	40319.34
647.24	40006.35
647.593	40237.98
647.945	40202.28
648.298	39953.7
648.65	39923.19
649.002	39945.33
649.355	40038.21
649.707	40057.87
650.059	40172.22
650.411	40665.09
650.763	40705.99
651.115	41091.74
651.467	40875.48
651.819	40875.25
652.171	40828.47
652.523	40780.79
652.875	40800
653.227	40593.9
653.578	40886.1
653.93	40763.84
654.282	40749.15
654.633	40547.8
654.985	40746.22
655.337	40761.13
655.688	40936.49
656.039	40820.11
656.391	40523.62
656.742	40646.56
657.094	40685.65
657.445	40780.11
657.796	40554.13
658.147	40673
658.498	40579.44
658.849	40725.65
659.2	40588.25
659.551	40516.84
659.902	40708.93
660.253	40475.26
660.604	40637.97
660.955	40476.39
661.306	40566.33
661.656	40480.01
662.007	40494.7
662.358	40510.97
662.708	40578.09
663.059	40563.4
663.409	40297.87
663.76	40570.18
664.11	40470.74
664.461	40502.83
664.811	40692.21
665.161	40383.51
665.511	40437.3
665.862	40385.1
666.212	40512.55
666.562	40489.73
666.912	40437.3
667.262	40315.27
667.612	40429.84
667.962	40427.13
668.312	40375.15
668.662	40532.66
669.011	40468.48
669.361	40336.06
669.711	40387.58
670.06	40285.89
670.41	40298.77
670.76	40177.64
671.109	40434.13
671.459	40252.9
671.808	40225.55
672.157	40404.3
672.507	39989.63
672.856	40085.9
673.205	40185.78
673.554	40313.01
673.904	40136.74
674.253	40378.77
674.602	40207.25
674.951	39637.32
675.3	39494.5
675.649	40294.48
675.998	39906.69
676.346	40076.63
676.695	40167.93
677.044	39806.81
677.393	40003.19
677.741	40087.7
678.09	39926.58
678.438	39766.13
678.787	39789.86
679.135	39739.01
679.484	39573.82
679.832	39796.64
680.181	39661.27
680.529	39673.7
680.877	39553.25
681.225	39494.95
681.573	39617.43
681.922	39412.47
682.27	39380.38
682.618	39334.73
682.966	39351.68
683.314	39272.36
683.661	39226.26
684.009	39120.5
684.357	39157.56
684.705	39102.42
685.053	39014.51
685.4	38977.9
685.748	38880.96
686.095	38937.68
686.443	38709.66
686.79	38730.45
687.138	38696.33
687.485	38793.27
687.832	38530.68
688.18	38574.07
688.527	38314.87
688.874	38392.83
689.221	38156.68
689.568	38292.72
689.915	38193.74
690.262	38114.65
690.609	37934.77
690.956	37895.22
691.303	37913.75
691.65	37675.79
691.997	37733.87
692.344	37563.02
692.69	37471.95
693.037	37298.4
693.383	37197.38
693.73	37371.39
694.077	37013.21
694.423	36969.59
694.769	36895.47
695.116	36948.35
695.462	36786.09
695.808	36774.12
696.155	36756.94
696.501	36515.37
696.847	36482.6
697.193	36284.41
697.539	36528.25
697.885	36068.83
698.231	36118.09
698.577	36123.29
698.923	36114.7
699.269	35802.17
699.614	35634.49
699.96	35512.91
700.306	35621.83
700.651	35490.54
700.997	35377.77
701.342	35345
701.688	35197.89
702.033	35199.24
702.379	35177.1
702.724	35007.84
703.069	35117.89
703.415	34730.78
703.76	34705.92
704.105	34735.98
704.45	34604.91
704.795	34526.95
705.14	34394.07
705.485	34357.01
705.83	34284.01
706.175	34210.8
706.52	34136
706.865	33989.78
707.209	34067.75
707.554	33853.97
707.899	33947.75
708.243	33785.72
708.588	33769.23
708.932	33416.92
709.277	33484.26
709.621	33528.78
709.966	33325.62
710.31	33296.24
710.654	33117.49
710.998	33163.82
711.342	33212.4
711.687	33030.71
712.031	33004.73
712.375	32866.65
712.719	32869.59
713.063	32799.99
713.407	32879.08
713.75	32543.72
714.094	32600.89
714.438	32444.51
714.782	32463.72
715.125	32327
715.469	32302.15
715.812	32265.08
716.156	32063.28
716.499	32080
716.843	32182.83
717.186	32143.96
717.53	32107.8
717.873	32051.76
718.216	31906.22
718.559	31936.96
718.902	31677.3
719.246	31701.93
719.589	31550.98
719.932	31545.1
720.275	31484.77
720.617	31552.79
720.96	31344.2
721.303	31523.86
721.646	31351.89
721.989	31261.49
722.331	31306.92
722.674	31238.67
723.016	31161.84
723.359	31167.94
723.701	31213.59
724.044	30979.02
724.386	30900.15
724.729	30984.44
725.071	30950.99
725.413	30901.05
725.755	30820.6
726.097	30685.46
726.439	30594.85
726.782	30515.53
727.124	30726.59
727.465	30566.82
727.807	30380.61
728.149	30416.09
728.491	30368.41
728.833	30377.9
729.175	30292.48
729.516	30153.5
729.858	30095.65
730.199	30119.83
730.541	30111.24
730.882	29998.25
731.224	30257.68
731.565	29883
731.906	29930
732.248	29922.55
732.589	29684.36
732.93	29643.23
733.271	29719.39
733.612	29759.16
733.953	29741.99
734.294	29631.03
734.635	29513.52
734.976	29636.9
735.317	29505.61
735.658	29494.54
735.999	29471.94
736.339	29478.72
736.68	29527.3
737.021	29384.48
737.361	29228.1
737.702	29424.03
738.042	29197.82
738.383	29310.36
738.723	29175.9
739.063	29132.51
739.404	29035.79
739.744	29052.74
740.084	28924.83
740.424	29009.8
740.764	28954.21
741.104	28997.15
741.444	28861.11
741.784	28783.37
742.124	28824.95
742.464	28721.45
742.804	28727.78
743.143	28581.11
743.483	28567.1
743.823	28449.82
744.162	28393.32
744.502	28498.18
744.841	28377.95
745.181	28537.5
745.52	28445.98
745.86	28418.41
746.199	28322.59
746.538	28285.3
746.877	28452.08
747.216	28362.14
747.556	28200.78
747.895	28191.74
748.234	28015.7
748.573	28017.51
748.911	28070.39
749.25	27987.23
749.589	27911.3
749.928	27900.45
750.267	27876.05
750.605	27855.93
750.944	27788.14
751.283	27688.48
751.621	27737.97
751.96	27546.79
752.298	27660.46
752.636	27704.3
752.975	27469.05
753.313	27340.69
753.651	27415.72
753.989	27271.09
754.327	27373.69
754.666	27195.61
755.004	27234.71
755.342	27242.39
755.679	26957.88
756.017	27022.06
756.355	26957.88
756.693	26956.3
757.031	27038.55
757.368	26804.44
757.706	26747.49
758.044	26693.93
758.381	26769.41
758.719	26624.1
759.056	26597.44
759.394	26490.77
759.731	26468.63
760.068	26279.93
760.405	26319.48
760.743	26218.92
761.08	26229.31
761.417	26072.7
761.754	25913.16
762.091	25933.05
762.428	25815.31
762.765	25640.4
763.102	25798.81
763.438	25573.96
763.775	25598.82
764.112	25509.33
764.449	25568.08
764.785	25440.18
765.122	25233.4
765.458	25154.08
765.795	25054.2
766.131	25172.84
766.467	25105.72
766.804	24792.51
767.14	24829.8
767.476	24847.65
767.812	24612.4
768.148	24667.77
768.485	24550.03
768.821	24483.14
769.157	24386.19
769.492	24294.45
769.828	24277.27
770.164	23990.27
770.5	24050.16
770.836	24068.24
771.171	23810.16
771.507	23802.71
771.842	23656.5
772.178	23659.21
772.513	23586.22
772.849	23508.7
773.184	23348.71
773.519	23391.19
773.855	23274.13
774.19	23140.35
774.525	23115.95
774.86	23124.08
775.195	23080.92
775.53	22857.65
775.865	22823.3
776.2	22587.15
776.535	22566.81
776.87	22557.99
777.205	22365.46
777.539	22350.77
777.874	22462.18
778.209	22133.15
778.543	22066.71
778.878	22035.07
779.212	21969.76
779.547	21889.31
779.881	21893.38
780.215	21753.72
780.55	21814.29
780.884	21521.19
781.218	21567.06
781.552	21478.93
781.886	21321.19
782.22	21244.36
782.554	21316.9
782.888	21067.86
783.222	20955.32
783.556	20901.09
783.889	20876.23
784.223	20800.98
784.557	20716.69
784.89	20727.31
785.224	20520.31
785.557	20482.34
785.891	20555.79
786.224	20501.33
786.558	20434.21
786.891	20137.27
787.224	20122.8
787.557	20045.29
787.891	20020.43
788.224	19915.8
788.557	19858.18
788.89	19863.6
789.223	19806.88
789.556	19725.75
789.888	19629.71
790.221	19510.39
790.554	19325.54
790.887	19410.73
791.219	19364.63
791.552	19281.7
791.884	19172.55
792.217	19133
792.549	18982.27
792.882	18879.45
793.214	18912.44
793.546	18886.45
793.879	18810.75
794.211	18721.94
794.543	18821.6
794.875	18625.44
795.207	18657.08
795.539	18546.57
795.871	18522.62
796.203	18435.39
796.535	18297.09
796.867	18253.25
797.198	18125.12
797.53	18164.21
797.862	18081.28
798.193	18125.12
798.525	17991.79
798.856	18044.44
799.188	17750.66
799.519	17737.78
799.85	17766.71
800.182	17768.97
800.513	17745.69
800.844	17492.14
801.175	17541.4
801.506	17627.5
801.837	17457.11
802.168	17453.72
802.499	17391.12
802.83	17283.1
803.161	17172.37
803.491	17193.16
803.822	17184.8
804.153	17052.38
804.483	16954.07
804.814	16887.41
805.145	16863.23
805.475	16900.06
805.805	16757.02
806.136	16801.31
806.466	16815.77
806.796	16787.98
807.126	16590.24
807.457	16569.45
807.787	16543.69
808.117	16418.49
808.447	16423.47
808.777	16502.56
809.107	16275.67
809.436	16231.61
809.766	16171.04
810.096	16136.69
810.426	16203.81
810.755	16141.67
811.085	16128.78
811.414	16044.72
811.744	15930.6
812.073	15914.33
812.403	15922.24
812.732	15887.44
813.061	15833.2
813.39	15669.36
813.719	15624.84
814.049	15686.76
814.378	15667.55
814.707	15573.09
815.036	15576.48
815.365	15426.66
815.693	15355.7
816.022	15400.44
816.351	15364.74
816.68	15314.8
817.008	15336.04
817.337	15165.65
817.665	15168.36
817.994	15183.05
818.322	15084.74
818.651	15083.61
818.979	15056.04
819.307	15091.07
819.636	15072.77
819.964	14921.13
820.292	14997.97
820.62	15032.32
820.948	14849.5
821.276	15013.56
821.604	14977.4
821.932	14960
822.259	14912.32
822.587	14839.55
822.915	14829.16
823.243	14897.63
823.57	14789.84
823.898	14791.42
824.225	14854.24
824.553	14913
824.88	14848.14
825.207	14871.87
825.535	14831.42
825.862	14852.43
826.189	14768.59
826.516	14861.25
826.843	14942.6
827.17	14914.35
827.497	14785.32
827.824	14807.69
828.151	14891.76
828.478	14917.52
828.805	14987.12
829.131	14791.42
829.458	14800.68
829.785	14704.87
830.111	14809.5
830.438	14898.53
830.764	14749.16
831.09	14735.38
831.417	14721.59
831.743	14758.88
832.069	14831.19
832.395	14634.36
832.722	14714.13
833.048	14605.66
833.374	14727.24
833.7	14564.31
834.026	14665.32
834.351	14708.71
834.677	14607.7
835.003	14580.8
835.329	14712.55
835.654	14577.64
835.98	14525.44
836.306	14552.1
836.631	14494.93
836.956	14523.4
837.282	14523.63
837.607	14550.52
837.932	14339.23
838.258	14523.63
838.583	14374.71
838.908	14263.98
839.233	14369.51
839.558	14324.31
839.883	14228.5
840.208	14223.52
840.533	14235.95
840.858	14162.73
841.182	14256.07
841.507	14117.76
841.832	14077.54
842.156	14076.64
842.481	13987.82
842.805	13991.44
843.13	13960.25
843.454	13965.45
843.778	13913.02
844.103	13936.3
844.427	13857.43
844.751	13866.92
845.075	13873.03
845.399	13774.27
845.723	13637.78
846.047	13736.08
846.371	13571.79
846.695	13511.9
847.019	13492.02
847.343	13391
847.666	13363.21
847.99	13347.39
848.313	13276.66
848.637	13255.19
848.96	13209.54
849.284	13136.1
849.607	13067.62
849.931	13083.44
850.254	12965.03
850.577	12886.38
850.9	12885.03
851.223	12781.3
851.546	12754.64
851.869	12682.32
852.192	12660.63
852.515	12607.3
852.838	12558.48
853.161	12526.85
853.483	12421.54
853.806	12457.47
854.129	12385.38
854.451	12335.66
854.774	12253.86
855.096	12267.87
855.419	12236.68
855.741	12241.66
856.063	12135.9
856.385	12085.73
856.708	12054.54
857.03	11998.95
857.352	12034.43
857.674	11951.49
857.996	11918.05
858.318	11878.05
858.64	11814.32
858.961	11809.8
859.283	11773.42
859.605	11737.71
859.926	11791.5
860.248	11677.15
860.57	11619.75
860.891	11604.16
861.212	11557.38
861.534	11524.84
861.855	11514.67
862.176	11538.4
862.498	11559.19
862.819	11578.17
863.14	11486.87
863.461	11448
863.782	11408.68
864.103	11481.45
864.424	11356.48
864.745	11428.57
865.065	11247.33
865.386	11202.59
865.707	11216.37
866.027	11277.39
866.348	11186.99
866.668	11201
866.989	11210.5
867.309	11142.48
867.63	11142.48
867.95	11098.86
868.27	10983.38
868.59	11053.44
868.91	11076.94
869.23	11030.84
869.55	11027.68
869.87	10981.8
870.19	11034
870.51	11029.03
870.83	10998.75
871.15	10933.22
871.469	10950.62
871.789	10972.54
872.109	10902.93
872.428	10791.52
872.748	10894.57
873.067	10923.5
873.386	10921.69
873.706	10843.73
874.025	10754.24
874.344	10693.9
874.663	10772.99
874.982	10693.22
875.301	10743.84
875.62	10620.46
875.939	10660.45
876.258	10697.29
876.577	10629.95
876.896	10586.78
877.214	10563.51
877.533	10566.67
877.852	10574.58
878.17	10576.16
878.489	10571.42
878.807	10543.62
879.125	10493
879.444	10507.46
879.762	10447.13
880.08	10451.19
880.398	10412.55
880.716	10425.43
881.034	10430.4
881.352	10347.02
881.67	10311.99
881.988	10390.86
882.306	10297.07
882.624	10302.05
882.941	10234.7
883.259	10178.43
883.577	10116.06
883.894	10130.98
884.212	10126.91
884.529	10204.19
884.846	10125.55
885.164	10120.13
885.481	10069.74
885.798	10042.62
886.115	9947.03
886.432	9987.48
886.75	9987.03
887.067	9944.54
887.383	9886.46
887.7	9916.74
888.017	9907.25
888.334	9897.76
888.651	9874.71
888.967	9819.8
889.284	9774.6
889.6	9758.11
889.917	9728.05
890.233	9756.07
890.55	9721.72
890.866	9640.82
891.182	9663.64
891.498	9578.22
891.815	9547.04
892.131	9486.02
892.447	9464.55
892.763	9495.29
893.079	9421.84
893.395	9434.95
893.71	9373.93
894.026	9408.06
894.342	9456.42
894.657	9292.35
894.973	9293.71
895.289	9277.67
895.604	9273.6
895.92	9133.26
896.235	9150.44
896.55	9128.97
896.865	9071.57
897.181	9095.98
897.496	9150.89
897.811	9025.47
898.126	8998.12
898.441	8916.77
898.756	8975.07
899.071	8794.51
899.386	8881.97
899.7	8825.93
900.015	8786.83
900.33	8752.26
900.644	8746.38
900.959	8714.74
901.273	8710.22
901.588	8668.64
901.902	8621.41
902.216	8573.28
902.531	8566.5
902.845	8523.79
903.159	8413.73
903.473	8514.3
903.787	8332.38
904.101	8323.34
904.415	8387.07
904.729	8378.71
905.042	8326.96
905.356	8248.99
905.67	8190.91
905.984	8215.32
906.297	8195.21
906.611	8168.09
906.924	8104.82
907.237	8070.01
907.551	8005.83
907.864	8020.98
908.177	7983.24
908.491	8003.57
908.804	7916.12
909.117	7859.4
909.43	7900.07
909.743	7827.31
910.056	7766.29
910.368	7776.01
910.681	7716.8
910.994	7722.45
911.307	7643.58
911.619	7665.73
911.932	7606.75
912.244	7561.33
912.557	7550.93
912.869	7500.09
913.181	7543.47
913.494	7475
913.806	7438.39
914.118	7327.43
914.43	7334.67
914.742	7355.23
915.054	7310.26
915.366	7283.59
915.678	7240.21
915.99	7195.46
916.302	7147.55
916.613	7177.16
916.925	7143.03
917.236	7152.3
917.548	7047.44
917.859	7045.41
918.171	6981.68
918.482	6943.26
918.794	6983.49
919.105	6926.99
919.416	6879.99
919.727	6865.53
920.038	6865.3
920.349	6817.17
920.66	6767.68
920.971	6786.43
921.282	6731.97
921.593	6669.82
921.903	6670.28
922.214	6625.98
922.525	6586.44
922.835	6564.97
923.146	6551.86
923.456	6533.11
923.767	6515.7
924.077	6473.45
924.387	6445.65
924.697	6404.07
925.008	6371.75
925.318	6424.18
925.628	6399.55
925.938	6322.26
926.248	6261.25
926.558	6250.4
926.867	6218.09
927.177	6168.14
927.487	6147.58
927.796	6126.34
928.106	6076.62
928.416	6044.08
928.725	6105.32
929.034	6032.33
929.344	6064.42
929.653	5999.11
929.962	5932.22
930.271	5905.55
930.581	5909.17
930.89	5902.61
931.199	5813.12
931.508	5816.06
931.817	5777.64
932.125	5803.18
932.434	5750.53
932.743	5718.66
933.051	5671.21
933.36	5706.23
933.669	5669.4
933.977	5623.52
934.286	5674.82
934.594	5585.56
934.902	5521.61
935.21	5543.98
935.519	5546.01
935.827	5520.02
936.135	5469.86
936.443	5414.26
936.751	5419.46
937.059	5374.27
937.367	5337.88
937.674	5346.7
937.982	5334.94
938.29	5326.13
938.597	5349.86
938.905	5271.44
939.213	5271.9
939.52	5257.66
939.827	5219.47
940.135	5158.45
940.442	5125.91
940.749	5146.02
941.056	5151.45
941.363	5058.34
941.67	5045.69
941.977	5000.04
942.284	4988.74
942.591	5016.76
942.898	4988.51
943.205	4924.56
943.511	4915.97
943.818	4883.43
944.125	4861.51
944.431	4889.98
944.738	4908.97
945.044	4845.69
945.35	4790.55
945.657	4752.36
945.963	4781.96
946.269	4738.12
946.575	4740.38
946.881	4677.56
947.187	4676.88
947.493	4651.12
947.799	4617.68
948.105	4563.89
948.41	4598.92
948.716	4601.18
949.022	4574.96
949.327	4506.72
949.633	4535.87
949.938	4523.89
950.244	4501.75
950.549	4469.88
950.854	4393.05
951.16	4407.96
951.465	4387.62
951.77	4423.1
952.075	4332.71
952.38	4378.59
952.685	4321.41
952.99	4306.5
953.294	4290.45
953.599	4238.25
953.904	4259.27
954.209	4202.32
954.513	4210.91
954.818	4168.2
955.122	4233.05
955.426	4182.43
955.731	4127.29
956.035	4137.01
956.339	4119.16
956.643	4112.15
956.948	4048.42
957.252	4019.5
957.556	4051.36
957.86	4017.01
958.163	4019.5
958.467	4014.75
958.771	3970.91
959.075	3967.97
959.378	3945.38
959.682	3916
959.985	3876.68
960.289	3904.25
960.592	3881.42
960.896	3928.65
961.199	3871.48
961.502	3821.76
961.805	3800.75
962.108	3743.8
962.411	3803.23
962.714	3782.44
963.017	3740.18
963.32	3743.12
963.623	3722.56
963.926	3676.68
964.228	3679.85
964.531	3658.15
964.833	3646.18
965.136	3620.41
965.438	3578.38
965.741	3631.26
966.043	3577.25
966.345	3553.3
966.648	3589.23
966.95	3539.06
967.252	3527.53
967.554	3505.61
967.856	3502.22
968.158	3470.36
968.46	3444.6
968.761	3425.39
969.063	3423.36
969.365	3416.8
969.666	3416.58
969.968	3363.7
970.269	3347.2
970.571	3344.49
970.872	3336.58
971.174	3338.16
971.475	3331.83
971.776	3302.91
972.077	3257.26
972.378	3285.05
972.679	3232.85
972.98	3234.66
973.281	3227.66
973.582	3230.14
973.883	3206.41
974.183	3184.27
974.484	3138.39
974.785	3163.25
975.085	3123.25
975.386	3141.33
975.686	3145.85
975.986	3119.86
976.287	3120.31
976.587	3112.4
976.887	3045.06
977.187	3055.68
977.487	3041.45
977.787	3014.33
978.087	2971.39
978.387	3020.43
978.687	2993.54
978.987	2982.92
979.286	2961.9
979.586	2924.39
979.885	2931.62
980.185	2903.14
980.484	2897.95
980.784	2899.08
981.083	2867.44
981.382	2856.37
981.682	2858.4
981.981	2837.38
982.28	2854.56
982.579	2814.78
982.878	2781.79
983.177	2789.25
983.475	2805.29
983.774	2743.6
984.073	2745.41
984.372	2722.81
984.67	2750.61
984.969	2715.35
985.267	2735.01
985.566	2728.01
985.864	2662.02
986.162	2650.95
986.461	2635.35
986.759	2641.46
987.057	2628.57
987.355	2612.98
987.653	2621.57
987.951	2580.89
988.249	2578.18
988.547	2555.36
988.844	2565.53
989.142	2577.95
989.44	2555.13
989.737	2537.28
990.035	2537.96
990.332	2488.47
990.63	2474.23
990.927	2502.02
991.224	2486.66
991.521	2416.6
991.819	2481.91
992.116	2459.77
992.413	2398.75
992.71	2380.67
993.006	2388.36
993.303	2389.03
993.6	2389.03
993.897	2352.42
994.193	2356.27
994.49	2347.45
994.787	2333.22
995.083	2316.27
995.379	2313.78
995.676	2319.88
995.972	2298.64
996.268	2315.81
996.565	2300.45
996.861	2233.56
997.157	2248.02
997.453	2221.81
997.749	2226.1
998.044	2213.22
998.34	2178.87
998.636	2210.51
998.932	2155.37
999.227	2172.32
999.523	2148.36
999.818	2128.7
1000.114	2100.68
1000.409	2117.4
1000.704	2101.13
1001	2122.15
1001.295	2092.09
1001.59	2095.71
1001.885	2083.96
1002.18	2051.87
1002.475	2019.55
1002.77	2001.25
1003.065	2011.87
1003.359	2012.32
1003.654	1984.75
1003.949	1993.79
1004.243	2002.15
1004.538	1942.27
1004.832	1940.46
1005.127	1958.76
1005.421	1920.57
1005.715	1960.12
1006.009	1903.17
1006.304	1902.49
1006.598	1879.67
1006.892	1914.47
1007.186	1895.71
1007.48	1864.3
1007.773	1882.15
1008.067	1835.15
1008.361	1840.35
1008.655	1835.15
1008.948	1808.71
1009.242	1823.85
1009.535	1791.08
1009.829	1786.34
1010.122	1812.33
1010.415	1793.57
1010.708	1739.56
1011.001	1749.28
1011.295	1737.52
1011.588	1739.33
1011.881	1703.63
1012.173	1726.45
1012.466	1701.82
1012.759	1684.64
1013.052	1681.03
1013.344	1677.41
1013.637	1668.83
1013.93	1638.54
1014.222	1632.44
1014.514	1629.51
1014.807	1615.04
1015.099	1619.56
1015.391	1618.88
1015.683	1619.34
1015.976	1562.84
1016.268	1565.1
1016.56	1570.52
1016.851	1550.64
1017.143	1526.23
1017.435	1529.39
1017.727	1514.25
1018.018	1507.7
1018.31	1497.98
1018.602	1499.11
1018.893	1491.66
1019.185	1493.46
1019.476	1452.56
1019.767	1462.73
1020.058	1429.74
1020.35	1427.48
1020.641	1422.28
1020.932	1426.57
1021.223	1380.92
1021.514	1389.29
1021.804	1389.74
1022.095	1368.5
1022.386	1358.1
1022.677	1388.61
1022.967	1368.27
1023.258	1339.34
1023.548	1342.06
1023.839	1340.7
1024.129	1321.94
1024.419	1331.21
1024.709	1303.86
1025	1300.25
1025.29	1296.18
1025.58	1289.63
1025.87	1271.55
1026.16	1268.38
1026.449	1279.23
1026.739	1252.34
1027.029	1232.91
1027.319	1226.8
1027.608	1206.47
1027.898	1193.36
1028.187	1218.89
1028.477	1217.99
1028.766	1187.93
1029.055	1178.67
1029.344	1151.55
1029.634	1166.01
1029.923	1157.65
1030.212	1154.04
1030.501	1151.1
1030.79	1117.88
1031.078	1128.95
1031.367	1078.56
1031.656	1133.02
1031.945	1104.1
1032.233	1094.6
1032.522	1092.8
1032.81	1104.77
1033.099	1091.89
1033.387	1074.72
1033.675	1071.78
1033.963	1056.64
1034.251	1047.6
1034.54	1057.99
1034.828	1051.22
1035.116	1027.04
1035.403	1036.07
1035.691	1056.86
1035.979	1020.48
1036.267	1001.5
1036.554	1025
1036.842	985.91
1037.129	993.14
1037.417	980.26
1037.704	984.78
1037.992	974.38
1038.279	972.8
1038.566	972.57
1038.853	972.57
1039.14	972.57
