Data from hue_80_FLMS001491_33.txt Node
Date: Mon Feb 06 15:22:54 GMT 2017
User: dcchb
Spectrometer: FLMS00149
Trigger mode: 0
Integration Time (sec): 2.000000E-2
Scans to average: 10
Electric dark correction enabled: true
Nonlinearity correction enabled: false
Boxcar width: 0
XAxis mode: Wavelengths
Number of Pixels in Spectrum: 2048
>>>>>Begin Spectral Data<<<<<
341.393	-14.39
341.776	-14.39
342.16	-14.39
342.543	-55.97
342.927	-53.71
343.31	-82.87
343.693	-68.4
344.077	-78.8
344.46	-43.77
344.843	-60.04
345.226	-46.26
345.61	-45.35
345.993	-21.62
346.376	10.01
346.759	21.76
347.142	15.66
347.525	53.18
347.908	51.14
348.291	81.65
348.674	115.55
349.057	98.15
349.44	129.33
349.823	141.31
350.206	161.87
350.588	198.48
350.971	207.52
351.354	212.72
351.737	241.65
352.119	243.45
352.502	265.15
352.884	265.6
353.267	284.13
353.65	284.36
354.032	288.65
354.414	304.24
354.797	319.38
355.179	321.19
355.562	312.6
355.944	333.85
356.326	327.75
356.709	319.16
357.091	329.55
357.473	339.04
357.855	351.93
358.238	334.98
358.62	362.55
359.002	349.89
359.384	339.27
359.766	335.2
360.148	335.66
360.53	344.69
360.912	317.8
361.294	358.93
361.676	345.82
362.057	324.81
362.439	345.82
362.821	325.26
363.203	310.34
363.584	330.46
363.966	311.25
364.348	320.06
364.729	342.89
365.111	314.86
365.493	322.1
365.874	310.12
366.256	312.15
366.637	314.19
367.019	304.24
367.4	302.21
367.781	338.82
368.163	309.89
368.544	313.51
368.925	322.32
369.306	318.03
369.688	287.29
370.069	314.86
370.45	297.69
370.831	312.38
371.212	321.19
371.593	276.67
371.974	287.52
372.355	295.2
372.736	315.77
373.117	295.88
373.498	328.65
373.879	303.57
374.26	319.38
374.641	339.04
375.021	318.03
375.402	324.58
375.783	337.69
376.163	314.41
376.544	318.93
376.925	315.54
377.305	315.32
377.686	330.91
378.066	323.68
378.447	344.69
378.827	331.81
379.208	327.52
379.588	302.89
379.968	314.86
380.349	311.93
380.729	305.37
381.109	333.4
381.489	312.6
381.87	342.66
382.25	334.53
382.63	326.39
383.01	343.56
383.39	344.47
383.77	351.02
384.15	331.36
384.53	348.08
384.91	324.36
385.29	340.4
385.67	344.02
386.049	341.08
386.429	334.53
386.809	349.89
387.189	355.77
387.568	345.6
387.948	349.67
388.328	345.6
388.707	358.71
389.087	355.54
389.466	356.67
389.846	341.08
390.225	358.71
390.605	353.28
390.984	361.87
391.363	351.7
391.743	356.22
392.122	352.83
392.501	362.55
392.881	370.68
393.26	359.38
393.639	364.81
394.018	358.03
394.397	377.46
394.776	400.51
395.155	377.46
395.534	382.66
395.913	374.98
396.292	359.61
396.671	395.77
397.05	385.15
397.429	384.69
397.808	395.31
398.186	377.01
398.565	366.61
398.944	383.11
399.323	406.39
399.701	389.89
400.08	382.66
400.458	367.97
400.837	400.96
401.215	396.44
401.594	368.2
401.972	379.27
402.351	391.47
402.729	387.41
403.107	395.09
403.486	395.09
403.864	403
404.242	410.23
404.62	408.87
404.999	404.13
405.377	393.05
405.755	425.6
406.133	400.51
406.511	436.22
406.889	440.74
407.267	416.33
407.645	433.05
408.023	434.64
408.401	400.06
408.779	438.03
409.156	438.25
409.534	449.55
409.912	445.03
410.29	441.19
410.667	413.17
411.045	446.39
411.422	457.01
411.8	468.31
412.178	447.29
412.555	435.09
412.933	459.49
413.31	455.43
413.687	449.32
414.065	452.49
414.442	438.03
414.819	480.28
415.197	477.12
415.574	461.53
415.951	451.58
416.328	467.63
416.705	474.18
417.082	491.36
417.46	477.8
417.837	511.92
418.214	469.44
418.591	494.29
418.967	481.19
419.344	522.99
419.721	502.2
420.098	489.1
420.475	510.34
420.852	479.38
421.228	501.53
421.605	498.59
421.982	525.48
422.358	515.09
422.735	527.74
423.111	543.11
423.488	536.78
423.864	520.28
424.241	550.34
424.617	535.2
424.994	537.91
425.37	533.84
425.746	539.49
426.123	544.01
426.499	555.76
426.875	541.75
427.251	548.76
427.627	571.58
428.003	572.94
428.379	593.73
428.756	570.9
429.132	585.14
429.507	598.7
429.883	595.76
430.259	586.27
430.635	603.9
431.011	605.48
431.387	622.43
431.763	606.16
432.138	621.75
432.514	625.59
432.89	610
433.265	632.37
433.641	641.64
434.016	664.23
434.392	634.4
434.767	674.63
435.143	648.64
435.518	650.22
435.894	654.52
436.269	666.27
436.644	683.22
437.02	692.26
437.395	680.73
437.77	687.96
438.145	700.62
438.52	706.72
438.895	705.36
439.271	715.31
439.646	714.18
440.021	735.42
440.395	745.36
440.77	731.8
441.145	727.96
441.52	762.31
441.895	753.27
442.27	753.95
442.645	741.52
443.019	748.98
443.394	771.8
443.769	780.16
444.143	745.59
444.518	781.52
444.892	772.93
445.267	781.74
445.641	806.38
446.016	765.02
446.39	795.3
446.764	786.26
447.139	786.26
447.513	816.55
447.887	802.54
448.262	794.85
448.636	839.6
449.01	824
449.384	826.94
449.758	822.42
450.132	829.65
450.506	835.98
450.88	868.75
451.254	837.79
451.628	880.27
452.002	868.07
452.376	892.93
452.75	915.53
453.123	902.19
453.497	902.19
453.871	934.28
454.244	918.24
454.618	927.5
454.992	959.82
455.365	954.62
455.739	959.59
456.112	978.58
456.486	970.44
456.859	1013.83
457.232	997.78
457.606	1001.17
457.979	1025.58
458.352	1008.63
458.725	1043.66
459.099	1035.3
459.472	1078.91
459.845	1079.82
460.218	1076.88
460.591	1070.78
460.964	1077.56
461.337	1144.22
461.71	1130.21
462.083	1130.21
462.456	1165.46
462.829	1157.55
463.201	1126.59
463.574	1155.52
463.947	1217.21
464.32	1209.76
464.692	1238.91
465.065	1241.17
465.438	1275.29
465.81	1262.41
466.183	1316.65
466.555	1334.27
466.928	1351
467.3	1367.04
467.672	1385.12
468.045	1416.98
468.417	1420.6
468.789	1388.51
469.161	1468.05
469.534	1488.85
469.906	1499.92
470.278	1512.57
470.65	1547.15
471.022	1598.9
471.394	1588.73
471.766	1669.18
472.138	1656.52
472.51	1684.09
472.882	1729.97
473.253	1747.82
473.625	1785.79
473.997	1840.47
474.369	1871.66
474.74	1898.1
475.112	1941.71
475.484	1994.37
475.855	2055.84
476.227	2067.81
476.598	2150.3
476.97	2171.09
477.341	2207.47
477.713	2299.22
478.084	2325.66
478.455	2424.19
478.827	2458.31
479.198	2540.12
479.569	2575.6
479.94	2644.97
480.311	2746.89
480.682	2831.18
481.053	2927.23
481.424	2959.09
481.795	3025.98
482.166	3131.97
482.537	3177.84
482.908	3292.41
483.279	3331.96
483.65	3470.49
484.021	3561.11
484.391	3674.55
484.762	3736.02
485.133	3832.74
485.503	3917.26
485.874	4069.79
486.244	4154.99
486.615	4297.13
486.985	4347.53
487.356	4487.41
487.726	4594.75
488.097	4732.6
488.467	4836.33
488.837	4971.47
489.207	5075.87
489.578	5246.26
489.948	5367.16
490.318	5483.77
490.688	5552.47
491.058	5690.09
491.428	5838.79
491.798	5980.25
492.168	6124.43
492.538	6233.58
492.908	6355.84
493.278	6522.38
493.648	6542.27
494.017	6818.2
494.387	6915.59
494.757	6995.37
495.126	7165.76
495.496	7202.82
495.866	7350.16
496.235	7455.69
496.605	7647.33
496.974	7717.16
497.344	7855.91
497.713	7970.48
498.082	8115.34
498.452	8225.62
498.821	8326.86
499.19	8444.37
499.559	8566.4
499.928	8693.85
500.298	8826.96
500.667	8957.35
501.036	9018.14
501.405	9167.97
501.774	9212.48
502.143	9323.22
502.512	9405.92
502.88	9572.93
503.249	9628.74
503.618	9744.22
503.987	9813.6
504.356	9962.97
504.724	10005.01
505.093	10123.19
505.462	10198.45
505.83	10322.96
506.199	10374.94
506.567	10629.85
506.936	10668.94
507.304	10751.88
507.672	10799.33
508.041	10896.06
508.409	11047.24
508.777	11096.28
509.145	11203.62
509.514	11208.14
509.882	11345.08
510.25	11430.73
510.618	11524.97
510.986	11472.54
511.354	11632.31
511.722	11821.91
512.09	11885.63
512.458	11825.07
512.826	12066.19
513.193	12057.15
513.561	12056.7
513.929	12194.33
514.297	12289.92
514.664	12409.91
515.032	12409.01
515.4	12528.55
515.767	12641.09
516.135	12729
516.502	12644.03
516.869	12869.79
517.237	12912.05
517.604	12839.51
517.972	12973.51
518.339	13030.91
518.706	13063.68
519.073	13110.23
519.44	13150.01
519.808	13312.71
520.175	13297.35
520.542	13424.58
520.909	13455.31
521.276	13453.95
521.643	13692.14
522.009	13706.6
522.376	13721.29
522.743	13852.59
523.11	13901.63
523.477	14023.2
523.843	13985.47
524.21	14109.53
524.577	14262.07
524.943	14269.07
525.31	14378
525.676	14398.56
526.043	14499.35
526.409	14522.63
526.776	14599.01
527.142	14573.92
527.508	14623.64
527.874	14704.32
528.241	14738.21
528.607	14817.53
528.973	14905.22
529.339	14871.32
529.705	14954.25
530.071	15008.04
530.437	15044.87
530.803	15064.53
531.169	15132.1
531.535	15152.67
531.901	15153.12
532.267	15178.88
532.632	15274.02
532.998	15246.9
533.364	15276.96
533.73	15273.34
534.095	15364.86
534.461	15453.22
534.826	15406.9
535.192	15337.07
535.557	15457.52
535.923	15482.6
536.288	15506.33
536.653	15438.31
537.019	15379.78
537.384	15464.75
537.749	15479.21
538.114	15518.53
538.479	15401.7
538.845	15483.51
539.21	15494.58
539.575	15445.31
539.94	15501.13
540.305	15462.04
540.67	15567.8
541.034	15485.54
541.399	15534.13
541.764	15570.51
542.129	15558.08
542.494	15568.93
542.858	15431.3
543.223	15419.55
543.587	15496.39
543.952	15393.34
544.316	15519.89
544.681	15424.98
545.045	15505.88
545.41	15478.08
545.774	15453
546.138	15506.56
546.503	15473.79
546.867	15432.66
547.231	15433.79
547.595	15490.06
547.959	15414.81
548.324	15472.21
548.688	15499.78
549.052	15457.52
549.416	15398.31
549.779	15364.64
550.143	15447.12
550.507	15533.67
550.871	15409.38
551.235	15411.87
551.599	15504.97
551.962	15427.91
552.326	15420.68
552.689	15480.79
553.053	15420.68
553.417	15387.01
553.78	15579.32
554.143	15407.35
554.507	15443.96
554.87	15416.61
555.234	15550.4
555.597	15494.8
555.96	15459.78
556.323	15531.87
556.686	15534.35
557.05	15586.33
557.413	15594.91
557.776	15526.89
558.139	15662.03
558.502	15613.9
558.865	15664.29
559.228	15736.15
559.59	15703.39
559.953	15726.21
560.316	15782.03
560.679	15811.41
561.041	15881.23
561.404	15842.59
561.767	15942.25
562.129	15852.99
562.492	15958.52
562.854	15966.66
563.217	15903.61
563.579	15988.12
563.941	16046.88
564.304	16108.12
564.666	16107.44
565.028	16081.46
565.39	16142.25
565.753	16190.61
566.115	16235.35
566.477	16207.1
566.839	16277.16
567.201	16337.72
567.563	16344.05
567.925	16464.27
568.287	16370.04
568.648	16353.09
569.01	16433.54
569.372	16489.58
569.734	16446.87
570.095	16544.95
570.457	16570.26
570.819	16631.5
571.18	16616.13
571.542	16684.15
571.903	16699.52
572.265	16756.01
572.626	16710.59
572.987	16830.59
573.349	16863.58
573.71	16876.91
574.071	16857.25
574.432	16965.27
574.794	16940.42
575.155	16911.94
575.516	16871.04
575.877	16991.71
576.238	17012.73
576.599	17053.63
576.96	17050.47
577.32	17028.1
577.681	16988.32
578.042	17152.84
578.403	17053.86
578.763	17040.3
579.124	17075.1
579.485	17161.2
579.845	17160.98
580.206	17074.2
580.566	17127.53
580.927	17174.31
581.287	17137.7
581.648	17130.02
582.008	17247.53
582.368	17212.73
582.728	17204.36
583.089	17127.3
583.449	17152.84
583.809	17100.86
584.169	17169.34
584.529	17119.62
584.889	17149.9
585.249	17123.24
585.609	17076.01
585.969	17186.29
586.329	17134.99
586.688	17129.11
587.048	17091.6
587.408	17086.4
587.768	17015.67
588.127	17074.42
588.487	16948.55
588.846	17143.35
589.206	16988.78
589.565	17028.1
589.925	17190.58
590.284	17064.03
590.643	17127.53
591.003	17170.69
591.362	17198.94
591.721	17039.17
592.08	17204.59
592.44	17090.47
592.799	17099.96
593.158	17055.44
593.517	17058.38
593.876	17011.37
594.235	16979.06
594.593	17047.98
594.952	17071.49
595.311	16959.4
595.67	17035.55
596.029	17100.19
596.387	17059.96
596.746	17098.15
597.104	16972.96
597.463	16994.88
597.822	17111.26
598.18	17029.91
598.538	16944.71
598.897	17138.15
599.255	16970.25
599.613	17102.67
599.972	17036.46
600.33	17103.8
600.688	16955.33
601.046	16990.36
601.404	17144.93
601.762	17059.06
602.12	17152.61
602.478	17168.43
602.836	17150.35
603.194	16942.22
603.552	17091.37
603.91	17030.81
604.268	17109
604.625	17094.54
604.983	17213.86
605.341	17018.83
605.698	17085.27
606.056	17202.78
606.413	17111.49
606.771	17173.63
607.128	17234.42
607.485	17060.19
607.843	17144.03
608.2	17266.28
608.557	17306.28
608.914	17103.35
609.272	17274.64
609.629	17288.43
609.986	17302.67
610.343	17300.41
610.7	17499.72
611.057	17375.21
611.414	17363.91
611.771	17372.5
612.127	17379.05
612.484	17398.48
612.841	17453.62
613.198	17452.95
613.554	17451.14
613.911	17439.84
614.267	17548.08
614.624	17485.49
614.98	17490.68
615.337	17546.95
615.693	17563.68
616.05	17586.27
616.406	17626.05
616.762	17671.02
617.118	17525.71
617.475	17666.27
617.831	17665.14
618.187	17604.13
618.543	17684.8
618.899	17811.35
619.255	17801.41
619.611	17678.93
619.967	17804.12
620.323	17819.49
620.678	17834.4
621.034	17634.18
621.39	17799.6
621.746	17712.37
622.101	17893.61
622.457	17748.76
622.812	17833.95
623.168	17887.74
623.523	17828.75
623.879	17908.07
624.234	17866.27
624.589	17892.71
624.945	17885.7
625.3	17994.63
625.655	17904.68
626.01	17903.55
626.365	17931.8
626.72	17823.56
627.075	17861.07
627.43	17837.34
627.785	17834.63
628.14	17865.36
628.495	17841.41
628.85	17872.6
629.205	17743.78
629.559	17854.52
629.914	17763.22
630.269	17795.99
630.623	17749.21
630.978	17755.99
631.332	17750.11
631.687	17793.95
632.041	17768.87
632.396	17713.73
632.75	17669.44
633.104	17657.91
633.459	17646.39
633.813	17659.04
634.167	17593.28
634.521	17548.31
634.875	17686.39
635.229	17609.55
635.583	17509.44
635.937	17551.93
636.291	17506.5
636.645	17550.34
636.999	17485.26
637.352	17487.07
637.706	17444.58
638.06	17440.29
638.413	17464.92
638.767	17393.06
639.121	17455.2
639.474	17279.62
639.828	17348.09
640.181	17330.46
640.534	17384.25
640.888	17324.13
641.241	17265.15
641.594	17304.02
641.947	17304.02
642.301	17257.47
642.654	17310.58
643.007	17346.96
643.36	17262.44
643.713	17233.29
644.066	17284.59
644.419	17093.18
644.771	17090.02
645.124	16952.85
645.477	16890.02
645.83	16773.64
646.182	16671.27
646.535	16595.79
646.888	16668.11
647.24	16588.11
647.593	16618.62
647.945	16719.18
648.298	16543.14
648.65	16631.5
649.002	16479.41
649.355	16654.77
649.707	16494.33
650.059	16606.19
650.411	16913.75
650.763	16808.67
651.115	16988.1
651.467	17022
651.819	16931.15
652.171	17021.32
652.523	16844.83
652.875	16989.91
653.227	16860.42
653.578	17065.38
653.93	17023.8
654.282	16851.15
654.633	16888.89
654.985	16805.05
655.337	16926.86
655.688	16972.73
656.039	16982
656.391	16830.14
656.742	16778.16
657.094	16895.9
657.445	16931.38
657.796	16932.28
658.147	16889.57
658.498	16933.64
658.849	16983.58
659.2	16926.86
659.551	16826.29
659.902	16975.22
660.253	16962.34
660.604	16956.46
660.955	16859.74
661.306	16970.47
661.656	16941.09
662.007	16893.86
662.358	16910.13
662.708	16895.45
663.059	16982.9
663.409	16907.42
663.76	16941.77
664.11	16960.08
664.461	16996.01
664.811	17009.11
665.161	16937.03
665.511	16914.88
665.862	16904.03
666.212	17018.83
666.562	17015.44
666.912	16991.04
667.262	16958.04
667.612	16941.77
667.962	16955.33
668.312	16991.26
668.662	17088.21
669.011	16932.51
669.361	16920.76
669.711	16947.65
670.06	16855.45
670.41	16878.72
670.76	16946.52
671.109	16939.29
671.459	16859.97
671.808	16816.58
672.157	16838.95
672.507	16789.23
672.856	16738.16
673.205	16762.34
673.554	16809.8
673.904	16723.25
674.253	16927.31
674.602	16727.99
674.951	16567.09
675.3	16464.72
675.649	16749.91
675.998	16662.91
676.346	16707.88
676.695	16777.71
677.044	16606.19
677.393	16624.72
677.741	16666.53
678.09	16629.24
678.438	16613.19
678.787	16585.17
679.135	16670.14
679.484	16461.78
679.832	16560.54
680.181	16550.82
680.529	16546.75
680.877	16398.96
681.225	16417.04
681.573	16575.91
681.922	16382.92
682.27	16369.36
682.618	16284.16
682.966	16297.72
683.314	16329.36
683.661	16189.48
684.009	16222.02
684.357	16108.8
684.705	16171.62
685.053	16209.81
685.4	16059.76
685.748	16020.44
686.095	16061.8
686.443	15982.48
686.79	15911.29
687.138	16010.05
687.485	15990.38
687.832	15951.74
688.18	15940.44
688.527	15770.73
688.874	15775.48
689.221	15785.19
689.568	15642.82
689.915	15655.03
690.262	15667.68
690.609	15532.09
690.956	15519.44
691.303	15529.83
691.65	15418.2
691.997	15410.29
692.344	15285.32
692.69	15239.44
693.037	15223.4
693.383	15079.67
693.73	15168.26
694.077	15129.16
694.423	15012.33
694.769	15020.01
695.116	14967.59
695.462	14997.42
695.808	14941.15
696.155	14867.02
696.501	14799.23
696.847	14830.19
697.193	14621.61
697.539	14645.79
697.885	14581.83
698.231	14513.59
698.577	14468.84
698.923	14502.74
699.269	14410.99
699.614	14344.33
699.96	14305.23
700.306	14236.31
700.651	14258.9
700.997	14096.42
701.342	14202.41
701.688	14132.81
702.033	14038.12
702.379	13994.28
702.724	13938.01
703.069	13970.78
703.415	13811.91
703.76	13785.24
704.105	13842.19
704.45	13741.4
704.795	13681.07
705.14	13668.64
705.485	13628.41
705.83	13512.03
706.175	13503.67
706.52	13552.26
706.865	13513.39
707.209	13486.04
707.554	13413.5
707.899	13400.62
708.243	13333.05
708.588	13297.8
708.932	13180.29
709.277	13152.72
709.621	13177.58
709.966	13088.31
710.31	13186.62
710.654	12954.76
710.998	13043.57
711.342	12990.92
711.687	12968.54
712.031	12888.32
712.375	12920.63
712.719	12886.51
713.063	12804.71
713.407	12861.2
713.75	12751.37
714.094	12848.77
714.438	12773.07
714.782	12765.38
715.125	12655.11
715.469	12699.62
715.812	12563.58
716.156	12594.09
716.499	12594.32
716.843	12542.57
717.186	12521.78
717.53	12600.19
717.873	12588.67
718.216	12449.46
718.559	12514.09
718.902	12362.68
719.246	12459.63
719.589	12431.16
719.932	12362.01
720.275	12354.32
720.617	12293.98
720.96	12305.51
721.303	12356.81
721.646	12236.36
721.989	12197.72
722.331	12305.74
722.674	12162.24
723.016	12298.73
723.359	12223.25
723.701	12220.77
724.044	12108.23
724.386	12103.03
724.729	12040.43
725.071	12124.05
725.413	12084.72
725.755	12072.07
726.097	12007.21
726.439	11925.63
726.782	12014.9
727.124	12061
727.465	11976.03
727.807	11964.95
728.149	11985.52
728.491	11949.59
728.833	11924.95
729.175	11988.68
729.516	11941.23
729.858	11972.64
730.199	11971.28
730.541	11935.8
730.882	11957.95
731.224	11905.52
731.565	11904.62
731.906	11843.83
732.248	11962.69
732.589	11820.78
732.93	11835.01
733.271	11842.92
733.612	11882.47
733.953	11896.71
734.294	11806.99
734.635	11856.48
734.976	11792.08
735.317	11839.08
735.658	11787.78
735.999	11806.09
736.339	11830.49
736.68	11943.71
737.021	11832.3
737.361	11855.8
737.702	11846.76
738.042	11847.44
738.383	11917.72
738.723	11879.76
739.063	11840.21
739.404	11863.94
739.744	11885.63
740.084	11795.24
740.424	11864.39
740.764	11848.8
741.104	11875.24
741.444	11844.96
741.784	11876.59
742.124	11981
742.464	11936.71
742.804	11903.94
743.143	11878.63
743.483	11960.43
743.823	11900.77
744.162	11964.95
744.502	11972.19
744.841	11980.32
745.181	12054.67
745.52	11979.64
745.86	12195.91
746.199	12111.39
746.538	12173.76
746.877	12213.53
747.216	12275
747.556	12297.83
747.895	12289.46
748.234	12270.71
748.573	12393.87
748.911	12474.32
749.25	12451.49
749.589	12569.68
749.928	12619.85
750.267	12639.51
750.605	12689.68
750.944	12788.21
751.283	12765.38
751.621	12999.95
751.96	12919.96
752.298	13048.77
752.636	13130.35
752.975	13135.32
753.313	13136.45
753.651	13299.38
753.989	13307.07
754.327	13424.8
754.666	13538.7
755.004	13610.33
755.342	13769.2
755.679	13788.41
756.017	13935.75
756.355	14039.02
756.693	13996.99
757.031	14305.23
757.368	14248.74
757.706	14306.59
758.044	14474.94
758.381	14649.85
758.719	14758.33
759.056	14820.7
759.394	14868.15
759.731	14928.94
760.068	15063.4
760.405	15126.23
760.743	15317.63
761.08	15435.6
761.417	15475.82
761.754	15617.74
762.091	15560.11
762.428	15766.44
762.765	15847.34
763.102	15948.35
763.438	15958.97
763.775	16017.73
764.112	16218.63
764.449	16392.63
764.785	16402.8
765.122	16367.1
765.458	16516.02
765.795	16552.18
766.131	16625.4
766.467	16669.91
766.804	16798.72
767.14	16899.29
767.476	16880.98
767.812	16932.96
768.148	17091.15
768.485	17056.57
768.821	17000.53
769.157	17142.22
769.492	17185.83
769.828	17235.78
770.164	17242.56
770.5	17379.95
770.836	17345.6
771.171	17432.83
771.507	17358.26
771.842	17356.22
772.178	17362.33
772.513	17468.76
772.849	17445.04
773.184	17449.78
773.519	17478.26
773.855	17547.86
774.19	17479.16
774.525	17498.37
774.86	17547.63
775.195	17595.09
775.53	17546.95
775.865	17482.77
776.2	17429.44
776.535	17409.33
776.87	17445.49
777.205	17386.51
777.539	17347.41
777.874	17423.12
778.209	17339.73
778.543	17257.02
778.878	17290.01
779.212	17280.75
779.547	17199.17
779.881	17403.23
780.215	17179.51
780.55	17279.84
780.884	17137.7
781.218	17146.96
781.552	17171.14
781.886	17142.9
782.22	17021.77
782.554	17090.02
782.888	16978.83
783.222	17002.34
783.556	16883.92
783.889	16839.18
784.223	16708.56
784.557	16812.74
784.89	16836.24
785.224	16664.27
785.557	16675.11
785.891	16669.91
786.224	16651.16
786.558	16688.67
786.891	16517.15
787.224	16536.36
787.557	16417.27
787.891	16487.55
788.224	16413.42
788.557	16375.69
788.89	16337.49
789.223	16370.04
789.556	16220.66
789.888	16197.84
790.221	16127.56
790.554	15991.51
790.887	16101.34
791.219	16120.78
791.552	15965.3
791.884	15867.9
792.217	15932.53
792.549	15788.13
792.882	15730.5
793.214	15681.01
793.546	15718.08
793.879	15593.33
794.211	15556.27
794.543	15607.34
794.875	15533.45
795.207	15658.19
795.539	15559.44
795.871	15521.02
796.203	15296.39
796.535	15255.26
796.867	15288.71
797.198	15205.09
797.53	15233.79
797.862	15146.79
798.193	15165.1
798.525	15064.53
798.856	15080.35
799.188	15036.74
799.519	14989.28
799.85	14857.99
800.182	14871.09
800.513	14887.14
800.844	14749.06
801.175	14759.68
801.506	14793.35
801.837	14672.68
802.168	14648.5
802.499	14606.01
802.83	14512.68
803.161	14540.03
803.491	14477.66
803.822	14553.81
804.153	14410.54
804.483	14366.7
804.814	14206.48
805.145	14303.42
805.475	14238.11
805.805	14200.15
806.136	14191.79
806.466	14158.79
806.796	14155.86
807.126	14041.74
807.457	13914.96
807.787	13959.48
808.117	13909.76
808.447	13929.87
808.777	13966.03
809.107	13872.7
809.436	13889.42
809.766	13832.25
810.096	13757.45
810.426	13727.17
810.755	13734.4
811.085	13740.73
811.414	13679.94
811.744	13642.42
812.073	13544.35
812.403	13621.41
812.732	13397.91
813.061	13470.9
813.39	13360.62
813.719	13389.32
814.049	13357.46
814.378	13331.7
814.707	13323.79
815.036	13244.69
815.365	13228.2
815.693	13093.51
816.022	13131.25
816.351	13110.69
816.68	13058.48
817.008	13027.52
817.337	12984.14
817.665	12927.19
817.994	12978.49
818.322	12950.69
818.651	12821.2
818.979	12879.96
819.307	12916.12
819.636	12946.4
819.964	12772.62
820.292	12793.18
820.62	12787.08
820.948	12798.83
821.276	12892.39
821.604	12774.42
821.932	12773.07
822.259	12752.05
822.587	12721.09
822.915	12741.2
823.243	12774.88
823.57	12668.21
823.898	12768.32
824.225	12694.2
824.553	12800.64
824.88	12744.82
825.207	12695.1
825.535	12707.99
825.862	12761.09
826.189	12730.13
826.516	12766.06
826.843	12813.29
827.17	12796.34
827.497	12791.15
827.824	12776.91
828.151	12755.44
828.478	12710.92
828.805	12737.81
829.131	12723.35
829.458	12626.86
829.785	12639.74
830.111	12752.5
830.438	12727.65
830.764	12684.03
831.09	12748.66
831.417	12748.44
831.743	12798.83
832.069	12708.44
832.395	12623.02
832.722	12727.87
833.048	12612.62
833.374	12668.89
833.7	12611.49
834.026	12594.32
834.351	12685.61
834.677	12622.34
835.003	12574.88
835.329	12597.93
835.654	12557.25
835.98	12490.82
836.306	12586.86
836.631	12449.46
836.956	12536.24
837.282	12513.41
837.607	12474.77
837.932	12480.65
838.258	12432.06
838.583	12425.96
838.908	12332.85
839.233	12373.53
839.558	12342.57
839.883	12281.33
840.208	12227.55
840.533	12261.22
840.858	12246.3
841.182	12277.94
841.507	12174.67
841.832	12128.11
842.156	12129.92
842.481	12039.98
842.805	12118.17
843.13	12045.4
843.454	12008.57
843.778	12016.25
844.103	11919.08
844.427	11954.33
844.751	11952.75
845.075	11908.91
845.399	11950.04
845.723	11864.17
846.047	11877.27
846.371	11652.87
846.695	11717.5
847.019	11726.32
847.343	11566.32
847.666	11597.96
847.99	11511.41
848.313	11385.31
848.637	11345.54
848.96	11333.78
849.284	11350.05
849.607	11258.08
849.931	11233.22
850.254	11204.75
850.577	11111.42
850.9	11083.85
851.223	10988.48
851.546	10978.31
851.869	10898.54
852.192	10966.34
852.515	10883.63
852.838	10804.31
853.161	10780.35
853.483	10758.88
853.806	10733.57
854.129	10735.16
854.451	10658.1
854.774	10651.32
855.096	10558.66
855.419	10513.01
855.741	10477.76
856.063	10518.66
856.385	10448.16
856.708	10439.34
857.03	10397.31
857.352	10373.36
857.674	10316.86
857.996	10311.44
858.318	10194.38
858.64	10253.13
858.961	10182.85
859.283	10213.14
859.605	10151.44
859.926	10182.18
860.248	10081.39
860.57	10085.68
860.891	10046.13
861.212	10044.1
861.534	9974.5
861.855	9909.87
862.176	9988.73
862.498	9953.71
862.819	9995.74
863.14	9901.51
863.461	9843.2
863.782	9823.99
864.103	9853.14
864.424	9802.52
864.745	9836.65
865.065	9819.47
865.386	9807.27
865.707	9725.01
866.027	9676.43
866.348	9699.48
866.668	9734.05
866.989	9607.28
867.309	9629.42
867.63	9612.25
867.95	9582.64
868.27	9577.9
868.59	9615.64
868.91	9574.73
869.23	9578.8
869.55	9564.11
869.87	9535.64
870.19	9515.75
870.51	9549.42
870.83	9498.58
871.15	9396.89
871.469	9470.56
871.789	9485.47
872.109	9417.9
872.428	9413.38
872.748	9412.25
873.067	9317.11
873.386	9435.53
873.706	9395.53
874.025	9320.96
874.344	9351.24
874.663	9310.79
874.982	9292.26
875.301	9332.71
875.62	9249.32
875.939	9235.76
876.258	9249.54
876.577	9206.16
876.896	9205.93
877.214	9173.39
877.533	9210
877.852	9179.94
878.17	9174.97
878.489	9109.21
878.807	9160.51
879.125	9152.6
879.444	9103.33
879.762	9024.01
880.08	8990.57
880.398	8967.97
880.716	9069.66
881.034	8974.07
881.352	9017.91
881.67	8965.48
881.988	8975.88
882.306	8882.55
882.624	8960.29
882.941	8844.13
883.259	8877.13
883.577	8877.35
883.894	8786.73
884.212	8798.26
884.529	8807.75
884.846	8781.99
885.164	8746.28
885.481	8726.62
885.798	8710.35
886.115	8668.09
886.432	8610.47
886.75	8610.92
887.067	8631.48
887.383	8586.29
887.7	8606.85
888.017	8594.42
888.334	8575.89
888.651	8505.38
888.967	8416.12
889.284	8416.8
889.6	8419.51
889.917	8405.95
890.233	8421.54
890.55	8374.77
890.866	8365.05
891.182	8333.64
891.498	8258.84
891.815	8346.74
892.131	8243.02
892.447	8281.66
892.763	8178.16
893.079	8127.31
893.395	8156.24
893.71	8125.05
894.026	8095.22
894.342	8047.09
894.657	7993.08
894.973	8048.67
895.289	8029.24
895.604	8056.58
895.92	7952.18
896.235	7904.04
896.55	7923.03
896.865	7924.61
897.181	7809.36
897.496	7881.45
897.811	7755.12
898.126	7768.68
898.441	7739.75
898.756	7741.56
899.071	7676.03
899.386	7698.17
899.7	7600.77
900.015	7553.32
900.33	7571.62
900.644	7526.43
900.959	7495.47
901.273	7470.83
901.588	7506.77
901.902	7401.91
902.216	7433.77
902.531	7401.68
902.845	7379.99
903.159	7316.94
903.473	7304.51
903.787	7248.24
904.101	7217.73
904.415	7249.6
904.729	7180.45
905.042	7197.17
905.356	7118.3
905.67	7138.87
905.984	7085.53
906.297	7090.05
906.611	7020.23
906.924	7017.97
907.237	7008.7
907.551	6975.48
907.864	6931.41
908.177	6911.08
908.491	6836.28
908.804	6827.01
909.117	6741.14
909.43	6813.22
909.743	6776.62
910.056	6677.18
910.368	6689.61
910.681	6707.46
910.994	6649.61
911.307	6642.83
911.619	6577.52
911.932	6604.87
912.244	6535.72
912.557	6554.93
912.869	6483.97
913.181	6455.27
913.494	6439
913.806	6407.81
914.118	6398.55
914.43	6402.16
914.742	6356.74
915.054	6320.81
915.366	6253.92
915.678	6283.75
915.99	6233.58
916.302	6204.65
916.613	6178.21
916.925	6184.99
917.236	6151.55
917.548	6081.72
917.859	6141.83
918.171	6084.66
918.482	6048.05
918.794	5990.42
919.105	6018.9
919.416	5950.65
919.727	5941.38
920.038	5910.88
920.349	5874.49
920.66	5878.11
920.971	5868.16
921.282	5822.52
921.593	5830.43
921.903	5769.86
922.214	5759.02
922.525	5775.51
922.835	5726.93
923.146	5647.38
923.456	5626.82
923.767	5589.75
924.077	5621.84
924.387	5577.55
924.697	5551.79
925.008	5553.37
925.318	5549.53
925.628	5540.72
925.938	5530.55
926.248	5433.83
926.558	5424.79
926.867	5407.84
927.177	5414.84
927.487	5340.5
927.796	5344.79
928.106	5308.41
928.416	5281.06
928.725	5282.42
929.034	5236.32
929.344	5281.06
929.653	5251.91
929.962	5160.61
930.271	5157
930.581	5156.77
930.89	5107.51
931.199	5116.32
931.508	5106.38
931.817	5055.08
932.125	5006.49
932.434	4992.26
932.743	4977.34
933.051	5008.75
933.36	4979.15
933.669	4917.68
933.977	4902.99
934.286	4905.03
934.594	4922.2
934.902	4842.66
935.21	4855.76
935.519	4850.56
935.827	4777.12
936.135	4761.08
936.443	4740.96
936.751	4737.8
937.059	4710.68
937.367	4649.21
937.674	4731.47
937.982	4716.78
938.29	4654.64
938.597	4677.46
938.905	4616.9
939.213	4565.15
939.52	4526.96
939.827	4586.62
940.135	4468.65
940.442	4503.91
940.749	4520.18
941.056	4447.41
941.363	4437.47
941.67	4381.2
941.977	4430.69
942.284	4416.9
942.591	4385.04
942.898	4342.78
943.205	4357.7
943.511	4285.61
943.818	4278.15
944.125	4259.85
944.431	4259.85
944.738	4251.94
945.044	4194.31
945.35	4194.99
945.657	4155.89
945.963	4146.85
946.269	4103.01
946.575	4169.9
946.881	4153.41
947.187	4081.32
947.493	4078.61
947.799	4034.31
948.105	4062.79
948.41	4023.69
948.716	4009
949.022	3978.95
949.327	3974.88
949.633	3941.89
949.938	3924.04
950.244	3930.81
950.549	3938.05
950.854	3861.44
951.16	3903.24
951.465	3815.56
951.77	3831.38
952.075	3823.47
952.38	3799.97
952.685	3823.25
952.99	3762.46
953.294	3798.39
953.599	3738.05
953.904	3727.43
954.209	3683.59
954.513	3716.81
954.818	3673.65
955.122	3659.86
955.426	3666.41
955.731	3630.94
956.035	3633.87
956.339	3566.76
956.643	3610.6
956.948	3573.54
957.252	3529.7
957.556	3566.3
957.86	3519.07
958.163	3536.25
958.467	3528.34
958.771	3534.21
959.075	3479.53
959.378	3455.35
959.682	3489.7
959.985	3460.09
960.289	3370.6
960.592	3451.05
960.896	3385.74
961.199	3376.25
961.502	3373.09
961.805	3338.06
962.108	3320.44
962.411	3311.4
962.714	3270.72
963.017	3295.58
963.32	3283.15
963.623	3226.43
963.926	3229.36
964.228	3224.84
964.531	3230.04
964.833	3202.92
965.136	3178.29
965.438	3173.55
965.741	3151.85
966.043	3148.69
966.345	3148.69
966.648	3131.74
966.95	3105.3
967.252	3070.5
967.554	3109.37
967.856	3062.36
968.158	3062.81
968.46	3023.04
968.761	3001.35
969.063	3004.06
969.365	2975.81
969.666	2960.9
969.968	2966.55
970.269	2967.22
970.571	2965.19
970.872	2929.71
971.174	2892.65
971.475	2887
971.776	2913.44
972.077	2888.58
972.378	2861.92
972.679	2860.33
972.98	2836.15
973.281	2860.79
973.582	2864.18
973.883	2822.14
974.183	2793.44
974.484	2794.57
974.785	2813.56
975.085	2763.39
975.386	2782.37
975.686	2743.05
975.986	2736.04
976.287	2719.32
976.587	2717.74
976.887	2720
977.187	2689.04
977.487	2667.35
977.787	2656.27
978.087	2627.35
978.387	2661.7
978.687	2627.35
978.987	2652.43
979.286	2624.41
979.586	2586.22
979.885	2589.16
980.185	2554.35
980.484	2564.52
980.784	2543.73
981.083	2547.8
981.382	2522.49
981.682	2498.31
981.981	2517.52
982.28	2506.22
982.579	2482.94
982.878	2482.49
983.177	2452.44
983.475	2469.38
983.774	2435.71
984.073	2435.03
984.372	2401.82
984.67	2402.04
984.969	2421.48
985.267	2423.06
985.566	2389.39
985.864	2376.28
986.162	2380.12
986.461	2357.97
986.759	2336.73
987.057	2320.01
987.355	2306.68
987.653	2323.85
987.951	2320.01
988.249	2302.61
988.547	2261.71
988.844	2273.91
989.142	2250.86
989.44	2234.36
989.737	2211.99
990.035	2247.24
990.332	2212.22
990.63	2195.95
990.927	2210.41
991.224	2153.91
991.521	2157.75
991.819	2168.6
992.116	2144.2
992.413	2144.65
992.71	2120.24
993.006	2091.54
993.303	2106.91
993.6	2117.53
993.897	2122.73
994.193	2069.85
994.49	2092.67
994.787	2067.81
995.083	2059.45
995.379	2019.9
995.676	2045.89
995.972	2010.64
996.268	1991.88
996.565	1982.39
996.861	2004.99
997.157	1978.1
997.453	1965.44
997.749	1986.01
998.044	1946.01
998.34	1979
998.636	1951.43
998.932	1928.16
999.227	1932.68
999.523	1926.57
999.818	1902.17
1000.114	1851.32
1000.409	1887.93
1000.704	1866.69
1001	1860.81
1001.295	1861.49
1001.59	1828.27
1001.885	1831.43
1002.18	1833.02
1002.475	1838.67
1002.77	1804.32
1003.065	1788.27
1003.359	1769.74
1003.654	1772.91
1003.949	1752.11
1004.243	1768.16
1004.538	1729.29
1004.832	1768.61
1005.127	1750.76
1005.421	1750.76
1005.715	1698.33
1006.009	1720.25
1006.304	1701.04
1006.598	1687.71
1006.892	1682.51
1007.186	1672.57
1007.48	1658.78
1007.773	1654.94
1008.067	1623.98
1008.361	1653.81
1008.655	1623.53
1008.948	1617.2
1009.242	1622.17
1009.535	1577.88
1009.829	1597.09
1010.122	1583.98
1010.415	1581.5
1010.708	1544.21
1011.001	1540.14
1011.295	1536.98
1011.588	1529.3
1011.881	1516.64
1012.173	1544.66
1012.466	1507.15
1012.759	1515.96
1013.052	1471.9
1013.344	1484.55
1013.637	1488.85
1013.93	1445.46
1014.222	1465.34
1014.514	1419.47
1014.807	1445
1015.099	1438.9
1015.391	1440.94
1015.683	1422.41
1015.976	1415.17
1016.268	1418.56
1016.56	1395.06
1016.851	1375.85
1017.143	1384.89
1017.435	1365.01
1017.727	1354.84
1018.018	1350.09
1018.31	1341.96
1018.602	1341.05
1018.893	1327.04
1019.185	1297.89
1019.476	1305.8
1019.767	1289.98
1020.058	1283.2
1020.35	1279.36
1020.641	1269.42
1020.932	1249.53
1021.223	1266.03
1021.514	1267.16
1021.804	1254.95
1022.095	1245.24
1022.386	1257.21
1022.677	1219.25
1022.967	1216.08
1023.258	1163.88
1023.548	1183.54
1023.839	1183.54
1024.129	1204.33
1024.419	1190.1
1024.709	1166.14
1025	1160.04
1025.29	1144.9
1025.58	1156.42
1025.87	1143.09
1026.16	1146.26
1026.449	1131.11
1026.739	1118.91
1027.029	1142.87
1027.319	1093.15
1027.608	1111.23
1027.898	1091.12
1028.187	1086.14
1028.477	1084.79
1028.766	1084.79
1029.055	1068.07
1029.344	1063.77
1029.634	1067.84
1029.923	1030.1
1030.212	1034.17
1030.501	1042.08
1030.79	1004.56
1031.078	1013.15
1031.367	994.85
1031.656	1015.19
1031.945	1001.4
1032.233	998.69
1032.522	970.44
1032.81	984
1033.099	955.3
1033.387	967.5
1033.675	959.14
1033.963	971.34
1034.251	956.2
1034.54	942.19
1034.828	943.55
1035.116	943.32
1035.403	903.1
1035.691	939.93
1035.979	876.21
1036.267	905.36
1036.554	899.71
1036.842	900.39
1037.129	895.19
1037.417	890.67
1037.704	889.76
1037.992	882.99
1038.279	877.34
1038.566	882.53
1038.853	882.53
1039.14	882.53
