Data from hue_20_FLMS001491_92.txt Node
Date: Mon Feb 06 15:34:59 GMT 2017
User: dcchb
Spectrometer: FLMS00149
Trigger mode: 0
Integration Time (sec): 2.000000E-2
Scans to average: 10
Electric dark correction enabled: true
Nonlinearity correction enabled: false
Boxcar width: 0
XAxis mode: Wavelengths
Number of Pixels in Spectrum: 2048
>>>>>Begin Spectral Data<<<<<
341.393	-13.59
341.776	-13.59
342.16	-13.59
342.543	-68.5
342.927	-73.7
343.31	-70.76
343.693	-75.73
344.077	-69.86
344.46	-65.56
344.843	-49.97
345.226	-40.48
345.61	-19.24
345.993	-6.36
346.376	-1.38
346.759	11.5
347.142	13.08
347.525	29.12
347.908	55.56
348.291	85.17
348.674	88.11
349.057	116.8
349.44	120.19
349.823	134.43
350.206	151.38
350.588	189.35
350.971	202.9
351.354	229.12
351.737	241.77
352.119	269.57
352.502	242.23
352.884	274.31
353.267	279.51
353.65	280.42
354.032	292.85
354.414	308.21
354.797	298.72
355.179	307.99
355.562	289.91
355.944	314.99
356.326	333.52
356.709	358.83
357.091	305.95
357.473	330.81
357.855	340.75
358.238	342.11
358.62	320.87
359.002	358.15
359.384	335.78
359.766	322.9
360.148	327.87
360.53	331.71
360.912	342.79
361.294	300.75
361.676	323.35
362.057	311.38
362.439	335.56
362.821	352.96
363.203	332.62
363.584	318.61
363.966	327.19
364.348	329.23
364.729	307.31
365.111	324.93
365.493	303.92
365.874	308.89
366.256	318.38
366.637	317.48
367.019	326.97
367.4	302.34
367.781	307.53
368.163	330.81
368.544	325.61
368.925	316.12
369.306	325.16
369.688	318.83
370.069	319.51
370.45	331.71
370.831	318.38
371.212	306.4
371.593	312.96
371.974	326.74
372.355	310.25
372.736	328.1
373.117	324.26
373.498	325.61
373.879	317.93
374.26	320.87
374.641	314.99
375.021	310.25
375.402	337.36
375.783	319.96
376.163	330.58
376.544	321.77
376.925	297.37
377.305	338.72
377.686	333.07
378.066	350.02
378.447	324.93
378.827	336.23
379.208	333.75
379.588	329.68
379.968	343.92
380.349	334.88
380.729	315.9
381.109	333.07
381.489	351.6
381.87	345.5
382.25	352.05
382.63	357.02
383.01	347.99
383.39	325.61
383.77	340.75
384.15	350.92
384.53	361.32
384.91	329
385.29	351.37
385.67	364.93
386.049	365.84
386.429	365.16
386.809	370.58
387.189	371.26
387.568	360.41
387.948	377.36
388.328	366.74
388.707	368.78
389.087	398.15
389.466	359.06
389.846	380.75
390.225	360.64
390.605	376.69
390.984	393.41
391.363	393.18
391.743	385.05
392.122	393.86
392.501	385.05
392.881	411.03
393.26	399.74
393.639	371.26
394.018	413.75
394.397	394.99
394.776	410.81
395.155	404.48
395.534	400.19
395.913	370.13
396.292	388.89
396.671	393.41
397.05	398.61
397.429	408.32
397.808	401.09
398.186	411.71
398.565	408.77
398.944	421.43
399.323	395.67
399.701	418.27
400.08	405.38
400.458	409.68
400.837	430.47
401.215	433.41
401.594	425.5
401.972	430.24
402.351	424.14
402.729	410.36
403.107	418.94
403.486	442.9
403.864	428.89
404.242	449.45
404.62	451.49
404.999	460.75
405.377	447.19
405.755	476.57
406.133	449.9
406.511	446.29
406.889	458.04
407.267	449
407.645	462.78
408.023	449.45
408.401	469.11
408.779	471.6
409.156	490.58
409.534	504.14
409.912	469.79
410.29	494.42
410.667	504.82
411.045	492.16
411.422	478.38
411.8	492.16
412.178	492.84
412.555	517.02
412.933	480.19
413.31	502.56
413.687	512.27
414.065	526.51
414.442	516.79
414.819	524.93
415.197	548.43
415.574	526.29
415.951	542.33
416.328	538.49
416.705	546.4
417.082	541.43
417.46	558.83
417.837	556.79
418.214	566.51
418.591	562.22
418.967	551.82
419.344	550.47
419.721	569
420.098	565.15
420.475	557.7
420.852	598.83
421.228	599.73
421.605	584.36
421.982	583.46
422.358	573.97
422.735	597.02
423.111	611.71
423.488	624.59
423.864	590.92
424.241	629.11
424.617	609
424.994	607.87
425.37	632.95
425.746	623.91
426.123	636.57
426.499	629.56
426.875	641.76
427.251	632.95
427.627	648.09
428.003	664.14
428.379	663.01
428.756	657.81
429.132	697.58
429.507	685.15
429.883	679.95
430.259	700.29
430.635	677.24
431.011	693.51
431.387	698.26
431.763	744.13
432.138	745.26
432.514	730.35
432.89	743
433.265	752.95
433.641	751.59
434.016	751.36
434.392	757.01
434.767	765.6
435.143	771.93
435.518	805.15
435.894	808.76
436.269	798.14
436.644	782.32
437.02	796.79
437.395	819.16
437.77	814.64
438.145	844.92
438.52	839.95
438.895	839.27
439.271	860.74
439.646	863.23
440.021	842.66
440.395	842.44
440.77	878.37
441.145	872.72
441.52	872.94
441.895	863.9
442.27	854.64
442.645	900.06
443.019	886.05
443.394	898.93
443.769	904.81
444.143	890.34
444.518	911.36
444.892	913.39
445.267	910.23
445.641	956.78
446.016	934.64
446.39	972.6
446.764	957.01
447.139	941.42
447.513	952.94
447.887	1000.17
448.262	978.03
448.636	995.2
449.01	989.78
449.384	1006.95
449.758	978.48
450.132	1001.3
450.506	1021.19
450.88	1018.48
451.254	1004.47
451.628	1022.09
452.002	1039.94
452.376	1044.01
452.75	1067.51
453.123	1060.06
453.497	1072.71
453.871	1081.98
454.244	1113.84
454.618	1140.51
454.992	1138.47
455.365	1108.42
455.739	1155.65
456.112	1154.74
456.486	1148.64
456.859	1181.41
457.232	1181.64
457.606	1213.27
457.979	1225.93
458.352	1218.47
458.725	1251.92
459.099	1236.1
459.472	1279.71
459.845	1285.59
460.218	1308.86
460.591	1286.27
460.964	1313.84
461.337	1334.63
461.71	1365.36
462.083	1342.08
462.456	1385.92
462.829	1380.95
463.201	1391.8
463.574	1421.63
463.947	1440.39
464.32	1446.49
464.692	1487.16
465.065	1486.26
465.438	1508.63
465.81	1519.71
466.183	1514.96
466.555	1551.57
466.928	1559.25
467.3	1561.06
467.672	1606.26
468.045	1623.88
468.417	1621.4
468.789	1658.23
469.161	1672.7
469.534	1716.76
469.906	1715.41
470.278	1747.27
470.65	1753.6
471.022	1798.34
471.394	1861.39
471.766	1846.48
472.138	1875.63
472.51	1880.83
472.882	1930.09
473.253	1961.5
473.625	1972.35
473.997	2029.52
474.369	2046.92
474.74	2072.46
475.112	2100.26
475.484	2134.83
475.855	2169.18
476.227	2176.86
476.598	2253.92
476.97	2240.14
477.341	2265.45
477.713	2344.09
478.084	2400.81
478.455	2480.58
478.827	2441.94
479.198	2551.77
479.569	2549.06
479.94	2593.35
480.311	2624.31
480.682	2671.31
481.053	2750.86
481.424	2812.33
481.795	2832.89
482.166	2853
482.537	2912.21
482.908	3009.61
483.279	3052.55
483.65	3071.53
484.021	3134.13
484.391	3165.09
484.762	3239.66
485.133	3227.23
485.503	3300.45
485.874	3382.03
486.244	3417.73
486.615	3479.43
486.985	3520.33
487.356	3621.35
487.726	3645.98
488.097	3692.3
488.467	3743.6
488.837	3822.24
489.207	3886.88
489.578	3937.72
489.948	3965.07
490.318	4016.82
490.688	4043.93
491.058	4112.63
491.428	4165.74
491.798	4248.9
492.168	4349.69
492.538	4321.44
492.908	4381.55
493.278	4424.49
493.648	4427.43
494.017	4528.44
494.387	4604.6
494.757	4628.32
495.126	4619.74
495.496	4701.77
495.866	4732.5
496.235	4756
496.605	4807.08
496.974	4844.36
497.344	4913.29
497.713	4962.1
498.082	4970.91
498.452	5030.8
498.821	5039.16
499.19	5032.16
499.559	5120.74
499.928	5136.56
500.298	5209.78
500.667	5267.18
501.036	5217.46
501.405	5304.24
501.774	5268.99
502.143	5324.35
502.512	5377.46
502.88	5412.26
503.249	5444.12
503.618	5497.91
503.987	5519.37
504.356	5584.46
504.724	5586.94
505.093	5606.6
505.462	5627.62
505.83	5657.45
506.199	5698.58
506.567	5824.68
506.936	5792.36
507.304	5813.6
507.672	5856.77
508.041	5882.75
508.409	5946.26
508.777	5948.06
509.145	6022.19
509.514	6002.3
509.882	6025.35
510.25	6056.76
510.618	6105.8
510.986	6128.85
511.354	6173.14
511.722	6213.59
512.09	6284.33
512.458	6252.01
512.826	6306.92
513.193	6371.56
513.561	6362.74
513.929	6445.68
514.297	6466.69
514.664	6477.32
515.032	6483.42
515.4	6560.25
515.767	6582.62
516.135	6621.49
516.502	6573.36
516.869	6692
517.237	6699
517.604	6703.3
517.972	6804.99
518.339	6867.14
518.706	6797.31
519.073	6827.14
519.44	6904.2
519.808	6956.17
520.175	6994.36
520.542	7042.5
520.909	7098.09
521.276	7088.37
521.643	7095.15
522.009	7211.31
522.376	7177.64
522.743	7283.4
523.11	7377.86
523.477	7353.22
523.843	7376.73
524.21	7419.89
524.577	7516.84
524.943	7564.29
525.31	7584.86
525.676	7637.74
526.043	7647
526.409	7704.85
526.776	7745.08
527.142	7815.59
527.508	7792.54
527.874	7961.34
528.241	7938.97
528.607	7973.32
528.973	8006.77
529.339	8084.05
529.705	8090.15
530.071	8211.73
530.437	8215.35
530.803	8270.94
531.169	8332.86
531.535	8359.98
531.901	8360.43
532.267	8394.55
532.632	8483.14
532.998	8553.65
533.364	8565.4
533.73	8596.36
534.095	8635
534.461	8614.43
534.826	8703.47
535.192	8751.61
535.557	8788.67
535.923	8797.93
536.288	8811.72
536.653	8874.99
537.019	8954.31
537.384	8931.04
537.749	9019.85
538.114	9006.74
538.479	9040.64
538.845	9046.74
539.21	9077.47
539.575	9133.06
539.94	9143.91
540.305	9159.5
540.67	9325.83
541.034	9270.69
541.399	9367.18
541.764	9383.23
542.129	9401.53
542.494	9459.16
542.858	9446.73
543.223	9463.45
543.587	9571.25
543.952	9542.55
544.316	9667.74
544.681	9613.05
545.045	9702.09
545.41	9707.97
545.774	9771.01
546.138	9807.85
546.503	9816.21
546.867	9781.41
547.231	9961.29
547.595	9889.88
547.959	9941.63
548.324	9956.77
548.688	10000.61
549.052	10078.35
549.416	10063.89
549.779	10068.63
550.143	10158.35
550.507	10223.43
550.871	10163.32
551.235	10294.16
551.599	10303.66
551.962	10332.58
552.326	10365.12
552.689	10464.33
553.053	10382.75
553.417	10455.52
553.78	10526.7
554.143	10503.42
554.507	10628.84
554.87	10602.86
555.234	10755.85
555.597	10642.18
555.96	10730.99
556.323	10706.36
556.686	10794.94
557.05	10903.64
557.413	10840.14
557.776	10858.9
558.139	10932.79
558.502	11019.57
558.865	11042.39
559.228	11096.63
559.59	11129.62
559.953	11225.89
560.316	11332.33
560.679	11245.78
561.041	11395.15
561.404	11392.44
561.767	11511.76
562.129	11391.54
562.492	11529.61
562.854	11525.09
563.217	11564.41
563.579	11549.95
563.941	11697.74
564.304	11723.05
564.666	11758.08
565.028	11833.56
565.39	11856.16
565.753	11925.08
566.115	11963.95
566.477	11992.2
566.839	12023.38
567.201	12168.24
567.563	12061.12
567.925	12145.87
568.287	12286.2
568.648	12210.95
569.01	12282.59
569.372	12408.91
569.734	12443.94
570.095	12473.09
570.457	12540.21
570.819	12589.02
571.18	12622.01
571.542	12689.58
571.903	12696.81
572.265	12775.91
572.626	12729.58
572.987	12862.91
573.349	12983.13
573.71	13017.48
574.071	12997.6
574.432	13108.1
574.794	13214.09
575.155	13220.64
575.516	13144.94
575.877	13271.26
576.238	13360.75
576.599	13532.27
576.96	13525.04
577.32	13556.23
577.681	13585.6
578.042	13835.99
578.403	13808.87
578.763	13926.16
579.124	13997.8
579.485	14198.02
579.845	14188.53
580.206	14285.25
580.566	14424
580.927	14436.2
581.287	14685.24
581.648	14675.07
582.008	14859.92
582.368	14893.14
582.728	15118.44
583.089	15227.59
583.449	15407.93
583.809	15523.63
584.169	15591.2
584.529	15783.29
584.889	16074.13
585.249	16122.03
585.609	16211.3
585.969	16470.73
586.329	16576.94
586.688	16864.16
587.048	17097.15
587.408	17218.28
587.768	17419.17
588.127	17560.41
588.487	17793.18
588.846	18146.61
589.206	18269.55
589.565	18449.66
589.925	18713.15
590.284	18983.65
590.643	19238.11
591.003	19459.35
591.362	19737.53
591.721	20008.03
592.08	20255.26
592.44	20537.74
592.799	20727.34
593.158	20908.8
593.517	21358.73
593.876	21602.57
594.235	21829
594.593	22130.01
594.952	22542.88
595.311	22631.02
595.67	23000.72
596.029	23358.23
596.387	23732.91
596.746	24002.5
597.104	24212.44
597.463	24535.37
597.822	24883.84
598.18	25049.93
598.538	25302.81
598.897	25708
599.255	25900.53
599.613	26477.92
599.972	26456.45
600.33	26944.8
600.688	27124.23
601.046	27482.86
601.404	27796.75
601.762	27982.51
602.12	28404.42
602.478	28759.44
602.836	28931.19
603.194	29050.06
603.552	29366.88
603.91	29572.75
604.268	30058.16
604.625	30151.95
604.983	30491.15
605.341	30649.56
605.698	31023.11
606.056	31391.46
606.413	31517.11
606.771	31936.76
607.128	32148.96
607.485	32122.29
607.843	32599.11
608.2	32896.28
608.557	33260.34
608.914	33323.16
609.272	33735.36
609.629	34004.73
609.986	34169.69
610.343	34212.18
610.7	34789.34
611.057	34889.9
611.414	35049.67
611.771	35325.6
612.127	35588.64
612.484	35735.76
612.841	36043.54
613.198	36055.07
613.554	36295.51
613.911	36477.43
614.267	36869.06
614.624	36927.81
614.98	37171.65
615.337	37500.23
615.693	37615.71
616.05	37490.51
616.406	37935.02
616.762	38034
617.118	38056.37
617.475	38356.25
617.831	38460.2
618.187	38714.66
618.543	38878.27
618.899	39291.14
619.255	39144.48
619.611	39400.07
619.967	39612.72
620.323	39750.11
620.678	39675.31
621.034	39759.15
621.39	39831.24
621.746	39966.6
622.101	40468.29
622.457	40217.45
622.812	40174.96
623.168	40589.64
623.523	40672.57
623.879	40902.4
624.234	40653.14
624.589	40868.05
624.945	41025.56
625.3	41152.56
625.655	41150.3
626.01	41278.89
626.365	41401.6
626.72	41410.86
627.075	41484.76
627.43	41471.88
627.785	41420.8
628.14	41685.88
628.495	41756.39
628.85	41839.55
629.205	41631.87
629.559	41940.11
629.914	41780.34
630.269	41920.68
630.623	41866.22
630.978	41687.01
631.332	42064.18
631.687	42111.86
632.041	41983.95
632.396	42080.22
632.75	42106.89
633.104	42199.31
633.459	42068.47
633.813	42011.52
634.167	42074.57
634.521	42137.17
634.875	42127.68
635.229	42061.69
635.583	41958.42
635.937	42042.93
636.291	41994.35
636.645	42099.2
636.999	42007.45
637.352	42191.86
637.706	42028.47
638.06	42045.65
638.413	42033.22
638.767	41982.6
639.121	42162.93
639.474	41873.22
639.828	41931.75
640.181	41950.51
640.534	42049.26
640.888	41952.31
641.241	41811.08
641.594	41867.12
641.947	42141.46
642.301	42015.82
642.654	42079.09
643.007	42080.22
643.36	41972.65
643.713	41998.87
644.066	42148.24
644.419	41725.43
644.771	41463.29
645.124	41288.6
645.477	41249.06
645.83	40993.24
646.182	40875.51
646.535	40785.79
646.888	40819.69
647.24	40579.47
647.593	40725.68
647.945	40763.87
648.298	40361.85
648.65	40494.27
649.002	40426.03
649.355	40637.77
649.707	40567.94
650.059	40754.83
650.411	41203.63
650.763	41261.26
651.115	41578.99
651.467	41502.16
651.819	41522.5
652.171	41383.06
652.523	41439.56
652.875	41379
653.227	41217.19
653.578	41514.13
653.93	41403.4
654.282	41270.53
654.633	41153.92
654.985	41203.63
655.337	41315.72
655.688	41278.43
656.039	41366.57
656.391	40993.02
656.742	41163.64
657.094	41051.55
657.445	41331.09
657.796	41251.32
658.147	41133.58
658.498	41089.74
658.849	41246.34
659.2	41082.73
659.551	41011.55
659.902	41223.75
660.253	40980.14
660.604	41076.41
660.955	41053.13
661.306	41193.24
661.656	41024.66
662.007	40996.63
662.358	40961.38
662.708	40901.72
663.059	40983.98
663.409	40798.45
663.76	40929.07
664.11	40957.31
664.461	41094.71
664.811	41115.95
665.161	40992.11
665.511	40924.32
665.862	40972.91
666.212	41005.67
666.562	41043.64
666.912	40919.12
667.262	40998.89
667.612	40956.86
667.962	40831.21
668.312	40861.72
668.662	41147.36
669.011	41086.35
669.361	40848.16
669.711	40862.4
670.06	40830.31
670.41	40771.1
670.76	40724.1
671.109	40920.93
671.459	40668.28
671.808	40698.79
672.157	40791.67
672.507	40602.75
672.856	40716.42
673.205	40648.62
673.554	40839.58
673.904	40668.96
674.253	40709.64
674.602	40799.58
674.951	40107.17
675.3	39854.52
675.649	40644.33
675.998	40543.09
676.346	40576.98
676.695	40522.3
677.044	40332.7
677.393	40424.67
677.741	40580.15
678.09	40362.3
678.438	40361.17
678.787	40388.97
679.135	40295.86
679.484	40128.41
679.832	40367.95
680.181	39944.46
680.529	40115.75
680.877	39958.24
681.225	40012.25
681.573	40193.94
681.922	39895.65
682.27	39828.08
682.618	39829.21
682.966	39703.56
683.314	39849.32
683.661	39641.87
684.009	39552.38
684.357	39489.33
684.705	39428.99
685.053	39455.43
685.4	39565.71
685.748	39249.11
686.095	39253.18
686.443	39181.54
686.79	39053.63
687.138	39221.31
687.485	39156
687.832	38869.91
688.18	38916.24
688.527	38822.45
688.874	38772.51
689.221	38703.36
689.568	38547.66
689.915	38407.1
690.262	38557.83
690.609	38330.94
690.956	38339.98
691.303	38231.73
691.65	37985.87
691.997	38002.59
692.344	37890.73
692.69	37862.93
693.037	37828.81
693.383	37558.08
693.73	37737.28
694.077	37447.8
694.423	37375.71
694.769	37408.71
695.116	37180.92
695.462	37170.97
695.808	37143.18
696.155	37186.56
696.501	36886.23
696.847	36867.48
697.193	36692.57
697.539	36719.01
697.885	36491.89
698.231	36478.56
698.577	36399.92
698.923	36400.82
699.269	36149.53
699.614	35998.12
699.96	35936.65
700.306	36029.08
700.651	35793.38
700.997	35727.17
701.342	35676.1
701.688	35560.84
702.033	35472.03
702.379	35359.27
702.724	35148.88
703.069	35288.31
703.415	35006.51
703.76	35045.83
704.105	35032.04
704.45	35007.19
704.795	34788.44
705.14	34755.44
705.485	34696.23
705.83	34439.74
706.175	34601.77
706.52	34488.1
706.865	34312.52
707.209	34299.86
707.554	34207.66
707.899	34208.79
708.243	33928.35
708.588	34048.79
708.932	33854.22
709.277	33774
709.621	33924.05
709.966	33524.29
710.31	33711.18
710.654	33506.44
710.998	33528.13
711.342	33484.06
711.687	33409.04
712.031	33214.47
712.375	33031.42
712.719	33136.05
713.063	32991.42
713.407	33158.42
713.75	32862.61
714.094	32959.56
714.438	32758.43
714.782	32823.74
715.125	32627.36
715.469	32720.02
715.812	32449.97
716.156	32392.79
716.499	32410.42
716.843	32428.5
717.186	32287.71
717.53	32371.32
717.873	32393.92
718.216	32388.5
718.559	31990.54
718.902	31846.82
719.246	32009.98
719.589	31900.83
719.932	31717.56
720.275	31749.42
720.617	31878
720.96	31712.81
721.303	31621.51
721.646	31632.59
721.989	31495.87
722.331	31569.54
722.674	31414.96
723.016	31489.09
723.359	31348.07
723.701	31344.46
724.044	31128.42
724.386	30992.15
724.729	31130
725.071	31083
725.413	31110.57
725.755	30979.72
726.097	30877.35
726.439	30685.27
726.782	30810.91
727.124	30825.83
727.465	30709.45
727.807	30717.81
728.149	30587.64
728.491	30546.51
728.833	30627.64
729.175	30552.16
729.516	30525.95
729.858	30378.16
730.199	30427.19
730.541	30390.81
730.882	30224.04
731.224	30451.37
731.565	30168.9
731.906	30125.73
732.248	30170.48
732.589	29982.46
732.93	29880.09
733.271	29865.85
733.612	30012.52
733.953	29949.69
734.294	29804.39
734.635	29835.8
734.976	29871.73
735.317	29724.61
735.658	29697.95
735.999	29715.8
736.339	29563.94
736.68	29643.94
737.021	29588.35
737.361	29440.33
737.702	29569.36
738.042	29531.17
738.383	29434
738.723	29465.41
739.063	29254.57
739.404	29355.13
739.744	29302.25
740.084	29215.47
740.424	29144.06
740.764	29113.56
741.104	29172.54
741.444	29053.45
741.784	29019.1
742.124	29074.69
742.464	28991.3
742.804	28947.91
743.143	28884.86
743.483	28800.8
743.823	28605.32
744.162	28647.35
744.502	28720.8
744.841	28676.73
745.181	28773.68
745.52	28670.86
745.86	28554.48
746.199	28406.68
746.538	28510.18
746.877	28461.6
747.216	28490.75
747.556	28441.71
747.895	28441.48
748.234	28256.86
748.573	28258.44
748.911	28172.34
749.25	28193.35
749.589	28148.84
749.928	28155.62
750.267	28176.41
750.605	28054.6
750.944	27998.78
751.283	27907.71
751.621	28032.23
751.96	27927.6
752.298	27844.89
752.636	27912.91
752.975	27678.34
753.313	27597.89
753.651	27876.07
753.989	27688.28
754.327	27530.1
754.666	27331
755.004	27587.49
755.342	27489.87
755.679	27353.83
756.017	27240.84
756.355	27331.23
756.693	27115.64
757.031	27259.37
757.368	27044.91
757.706	27022.09
758.044	26971.92
758.381	26950
758.719	26898.25
759.056	26804.24
759.394	26725.14
759.731	26677.46
760.068	26614.64
760.405	26411.93
760.743	26448.99
761.08	26480.18
761.417	26299.62
761.754	26252.16
762.091	26158.15
762.428	26125.61
762.765	25920.42
763.102	26218.49
763.438	25909.57
763.775	25808.33
764.112	25722.91
764.449	25914.09
764.785	25764.72
765.122	25503.26
765.458	25494.22
765.795	25348.68
766.131	25410.15
766.467	25327.44
766.804	25200.21
767.14	25009.94
767.476	25082.25
767.812	24972.65
768.148	24891.52
768.485	24814.23
768.821	24653.79
769.157	24634.8
769.492	24665.54
769.828	24543.73
770.164	24396.84
770.5	24373.57
770.836	24362.04
771.171	24135.61
771.507	24139
771.842	23869.4
772.178	23959.12
772.513	23869.4
772.849	23803.87
773.184	23736.3
773.519	23655.17
773.855	23537.66
774.19	23516.19
774.525	23360.71
774.86	23358.45
775.195	23463.31
775.53	23248.4
775.865	23165.24
776.2	22996.88
776.535	22696.55
776.87	22828.98
777.205	22811.12
777.539	22686.38
777.874	22709.21
778.209	22459.27
778.543	22380.63
778.878	22342.21
779.212	22300.18
779.547	22200.07
779.881	22199.16
780.215	21976.57
780.55	22022.22
780.884	21891.6
781.218	21850.92
781.552	21839.17
781.886	21673.98
782.22	21505.85
782.554	21520.54
782.888	21287.55
783.222	21212.97
783.556	21186.99
783.889	21059.53
784.223	20924.39
784.557	20965.07
784.89	20982.92
785.224	20776.15
785.557	20788.58
785.891	20670.16
786.224	20658.19
786.558	20667.68
786.891	20422.03
787.224	20380
787.557	20359.89
787.891	20270.63
788.224	20211.87
788.557	20262.26
788.89	20166.45
789.223	20065.43
789.556	19947.02
789.888	19828.38
790.221	19836.96
790.554	19665.22
790.887	19742.5
791.219	19743.18
791.552	19525.79
791.884	19381.84
792.217	19486.92
792.549	19353.81
792.882	19146.59
793.214	19134.16
793.546	19217.77
793.879	18968.06
794.211	18935.29
794.543	18941.85
794.875	18920.83
795.207	18895.52
795.539	18829.99
795.871	18814.62
796.203	18655.3
796.535	18601.74
796.867	18531.46
797.198	18448.53
797.53	18388.64
797.862	18267.51
798.193	18310.22
798.525	18110.68
798.856	18183.45
799.188	18021.87
799.519	18094.64
799.85	17902.33
800.182	17966.96
800.513	17977.35
800.844	17738.94
801.175	17796.79
801.506	17748.88
801.837	17617.59
802.168	17691.71
802.499	17604.25
802.83	17386.63
803.161	17414.88
803.491	17413.75
803.822	17469.57
804.153	17260.08
804.483	17207.2
804.814	17129.92
805.145	17161.78
805.475	17118.39
805.805	17017.15
806.136	17045.17
806.466	16976.93
806.796	16980.77
807.126	16731.06
807.457	16805.41
807.787	16813.54
808.117	16734.45
808.447	16601.57
808.777	16655.8
809.107	16527.9
809.436	16463.27
809.766	16515.92
810.096	16449.48
810.426	16458.3
810.755	16327.68
811.085	16235.48
811.414	16268.92
811.744	16165.65
812.073	16093.56
812.403	16117.51
812.732	16029.83
813.061	15970.63
813.39	15975.37
813.719	15889.95
814.049	15943.06
814.378	15942.83
814.707	15849.05
815.036	15795.04
815.365	15731.54
815.693	15633.23
816.022	15628.71
816.351	15715.94
816.68	15415.39
817.008	15561.6
817.337	15336.97
817.665	15310.53
817.994	15427.81
818.322	15406.12
818.651	15251.77
818.979	15214.49
819.307	15238.67
819.636	15251.77
819.964	15106.92
820.292	15175.84
820.62	15195.05
820.948	15109.18
821.276	15104.89
821.604	15047.49
821.932	15114.6
822.259	15032.8
822.587	15123.64
822.915	15077.99
823.243	15072.34
823.57	15046.36
823.898	15089.07
824.225	14979.01
824.553	15058.11
824.88	15023.08
825.207	15074.6
825.535	15052.91
825.862	15103.53
826.189	14999.58
826.516	15009.75
826.843	15184.88
827.17	15115.73
827.497	15043.42
827.824	14990.31
828.151	15122.06
828.478	15037.54
828.805	15125.45
829.131	15012.68
829.458	14930.2
829.785	14923.87
830.111	14884.78
830.438	15045.9
830.764	14990.99
831.09	14997.09
831.417	14867.38
831.743	15042.97
832.069	15016.75
832.395	14947.83
832.722	14931.1
833.048	14905.57
833.374	14905.12
833.7	14840.26
834.026	14708.96
834.351	14800.26
834.677	14830.77
835.003	14861.05
835.329	14785.35
835.654	14797.1
835.98	14701.73
836.306	14696.31
836.631	14600.27
836.956	14681.85
837.282	14689.98
837.607	14563.88
837.932	14585.8
838.258	14567.27
838.583	14564.33
838.908	14461.29
839.233	14602.53
839.558	14468.52
839.883	14469.65
840.208	14423.77
840.533	14390.1
840.858	14420.61
841.182	14390.33
841.507	14334.28
841.832	14324.79
842.156	14301.06
842.481	14355.53
842.805	14229.2
843.13	14208.41
843.454	14274.62
843.778	14160.96
844.103	13999.83
844.427	14056.78
844.751	14086.38
845.075	13960.28
845.399	13950.34
845.723	13888.65
846.047	13867.63
846.371	13795.54
846.695	13774.3
847.019	13631.7
847.343	13635.77
847.666	13543.57
847.99	13461.76
848.313	13491.82
848.637	13351.49
848.96	13369.34
849.284	13339.73
849.607	13271.71
849.931	13230.81
850.254	13099.06
850.577	13015
850.9	12952.17
851.223	12987.65
851.546	12894.32
851.869	12797.6
852.192	12899.52
852.515	12698.39
852.838	12714.67
853.161	12710.82
853.483	12683.93
853.806	12624.05
854.129	12524.16
854.451	12511.28
854.774	12438.97
855.096	12452.75
855.419	12333.21
855.741	12370.04
856.063	12267.67
856.385	12234.68
856.708	12239.2
857.03	12189.48
857.352	12263.15
857.674	12066.32
857.996	12062.03
858.318	12006.89
858.64	12031.07
858.961	11993.55
859.283	11935.25
859.605	11843.28
859.926	11918.3
860.248	11829.72
860.57	11782.03
860.891	11770.51
861.212	11749.04
861.534	11694.35
861.855	11630.85
862.176	11665.88
862.498	11712.43
862.819	11649.83
863.14	11653.45
863.461	11553.79
863.782	11619.1
864.103	11563.28
864.424	11470.63
864.745	11494.81
865.065	11426.34
865.386	11439.9
865.707	11425.89
866.027	11437.86
866.348	11441.48
866.668	11374.59
866.989	11360.58
867.309	11355.15
867.63	11333.46
867.95	11308.83
868.27	11212.33
868.59	11193.12
868.91	11250.52
869.23	11127.14
869.55	11202.62
869.87	11168.72
870.19	11169.85
870.51	11150.64
870.83	11120.81
871.15	11037.42
871.469	11026.35
871.789	11047.59
872.109	11104.09
872.428	11080.13
872.748	11042.85
873.067	10994.03
873.386	10951.55
873.706	10939.35
874.025	10898.44
874.344	10938.67
874.663	10960.36
874.982	10840.82
875.301	10851.89
875.62	10805.11
875.939	10825.22
876.258	10787.03
876.577	10786.81
876.896	10773.7
877.214	10714.72
877.533	10775.51
877.852	10738.9
878.17	10664.32
878.489	10747.94
878.807	10709.07
879.125	10660.48
879.444	10603.31
879.762	10612.12
880.08	10648.73
880.398	10547.49
880.716	10580.71
881.034	10514.05
881.352	10515.4
881.67	10458.91
881.988	10534.38
882.306	10494.39
882.624	10400.6
882.941	10326.48
883.259	10381.17
883.577	10345.46
883.894	10267.05
884.212	10351.11
884.529	10258.91
884.846	10264.33
885.164	10230.21
885.481	10166.26
885.798	10154.96
886.115	10081.06
886.432	10120.61
886.75	10112.25
887.067	10083.1
887.383	10048.52
887.7	10081.51
888.017	9960.61
888.334	10011.69
888.651	9982.53
888.967	10002.65
889.284	9939.15
889.6	9901.41
889.917	9795.65
890.233	9837
890.55	9798.81
890.866	9752.94
891.182	9724.46
891.498	9719.94
891.815	9670
892.131	9677.46
892.447	9607.18
892.763	9566.5
893.079	9593.62
893.395	9575.09
893.71	9523.34
894.026	9516.11
894.342	9468.65
894.657	9406.5
894.973	9425.03
895.289	9434.75
895.604	9304.36
895.92	9284.02
896.235	9211.03
896.55	9214.19
896.865	9265.04
897.181	9135.78
897.496	9166.96
897.811	9146.85
898.126	9101.43
898.441	9078.15
898.756	9063.69
899.071	9037.7
899.386	8989.57
899.7	8927.87
900.015	8899.17
900.33	8823.47
900.644	8813.75
900.959	8849.46
901.273	8800.64
901.588	8729.23
901.902	8680.42
902.216	8696.01
902.531	8674.77
902.845	8611.5
903.159	8590.25
903.473	8574.66
903.787	8502.12
904.101	8515.91
904.415	8534.89
904.729	8464.38
905.042	8442.46
905.356	8343.71
905.67	8343.93
905.984	8335.35
906.297	8365.18
906.611	8240.21
906.924	8262.35
907.237	8179.64
907.551	8209.47
907.864	8112.98
908.177	8149.36
908.491	8126.99
908.804	8048.35
909.117	8031.4
909.43	8028.24
909.743	7912.98
910.056	7916.83
910.368	7837.51
910.681	7846.77
910.994	7806.32
911.307	7801.12
911.619	7770.16
911.932	7711.86
912.244	7672.76
912.557	7646.78
912.869	7585.99
913.181	7574.91
913.494	7599.32
913.806	7500.79
914.118	7461.47
914.43	7482.94
914.742	7460.11
915.054	7411.98
915.366	7417.63
915.678	7311.19
915.99	7321.59
916.302	7239.1
916.613	7252.21
916.925	7215.15
917.236	7234.81
917.548	7162.72
917.859	7163.17
918.171	7136.96
918.482	7051.54
918.794	7057.19
919.105	7023.74
919.416	6943.29
919.727	6920.47
920.038	6933.57
920.349	6849.74
920.66	6897.87
920.971	6823.52
921.282	6824.2
921.593	6785.56
921.903	6752.79
922.214	6721.6
922.525	6740.59
922.835	6695.61
923.146	6604.77
923.456	6648.84
923.767	6556.18
924.077	6610.87
924.387	6503.08
924.697	6533.36
925.008	6471.21
925.318	6461.95
925.628	6445.45
925.938	6384.44
926.248	6360.93
926.558	6362.29
926.867	6303.53
927.177	6268.96
927.487	6233.25
927.796	6170.66
928.106	6196.87
928.416	6176.98
928.725	6145.8
929.034	6103.54
929.344	6125.46
929.653	6103.77
929.962	6075.29
930.271	6002.3
930.581	5989.42
930.89	5959.14
931.199	5890.44
931.508	5876.88
931.817	5850.44
932.125	5848.63
932.434	5863.32
932.743	5805.24
933.051	5762.98
933.36	5735.19
933.669	5748.75
933.977	5663.55
934.286	5698.8
934.594	5648.86
934.902	5603.44
935.21	5614.74
935.519	5625.36
935.827	5587.62
936.135	5539.49
936.443	5500.62
936.751	5464.23
937.059	5433.5
937.367	5437.34
937.674	5431.47
937.982	5410
938.29	5395.31
938.597	5356.22
938.905	5292.94
939.213	5323
939.52	5282.77
939.827	5262.21
940.135	5272.6
940.442	5221.3
940.749	5262.43
941.056	5200.74
941.363	5142.21
941.67	5153.06
941.977	5076.22
942.284	5106.5
942.591	5081.19
942.898	5022.66
943.205	5029.67
943.511	5042.33
943.818	4968.88
944.125	4951.03
944.431	4891.14
944.738	4914.87
945.044	4901.31
945.35	4875.78
945.657	4847.08
945.963	4806.4
946.269	4831.48
946.575	4830.81
946.881	4784.93
947.187	4712.39
947.493	4721.66
947.799	4700.64
948.105	4651.83
948.41	4687.53
948.716	4706.29
949.022	4669.45
949.327	4621.55
949.633	4591.94
949.938	4642.79
950.244	4565.05
950.549	4519.85
950.854	4522.56
951.16	4493.86
951.465	4444.15
951.77	4445.28
952.075	4426.3
952.38	4403.7
952.685	4366.64
952.99	4336.35
953.294	4405.05
953.599	4340.2
953.904	4329.8
954.209	4287.77
954.513	4269.24
954.818	4255.45
955.122	4208.67
955.426	4194.66
955.731	4232.4
956.035	4166.87
956.339	4179.52
956.643	4170.94
956.948	4140.65
957.252	4094.33
957.556	4115.34
957.86	4085.29
958.163	4045.52
958.467	4043.93
958.771	4038.28
959.075	4008.45
959.378	4015.01
959.682	4022.69
959.985	3947.21
960.289	3980.43
960.592	3925.74
960.896	3881.45
961.199	3840.1
961.502	3896.82
961.805	3842.36
962.108	3771.4
962.411	3833.77
962.714	3787.44
963.017	3749.48
963.32	3753.77
963.623	3759.19
963.926	3718.29
964.228	3731.17
964.531	3717.39
964.833	3665.64
965.136	3647.11
965.438	3617.28
965.741	3645.75
966.043	3627.22
966.345	3627.45
966.648	3627.9
966.95	3628.8
967.252	3537.05
967.554	3583.15
967.856	3559.65
968.158	3482.59
968.46	3494.12
968.761	3510.61
969.063	3476.04
969.365	3450.73
969.666	3457.06
969.968	3386.32
970.269	3400.11
970.571	3413.44
970.872	3375.93
971.174	3402.37
971.475	3355.82
971.776	3387.68
972.077	3352.65
972.378	3322.6
972.679	3326.66
972.98	3262.26
973.281	3293.44
973.582	3288.92
973.883	3238.53
974.183	3256.61
974.484	3224.97
974.785	3234.69
975.085	3181.58
975.386	3128.93
975.686	3139.32
975.986	3163.96
976.287	3149.72
976.587	3116.73
976.887	3082.6
977.187	3052.55
977.487	3066.78
977.787	3056.39
978.087	3059.33
978.387	3009.84
978.687	3050.96
978.987	3018.65
979.286	2993.11
979.586	2990.4
979.885	2975.71
980.185	2966.22
980.484	2901.59
980.784	2926.45
981.083	2926.45
981.382	2917.41
981.682	2895.04
981.981	2876.73
982.28	2849.39
982.579	2793.8
982.878	2808.26
983.177	2842.61
983.475	2809.62
983.774	2789.73
984.073	2770.97
984.372	2781.14
984.67	2760.35
984.969	2745.44
985.267	2727.81
985.566	2705.66
985.864	2696.62
986.162	2698.88
986.461	2668.15
986.759	2689.17
987.057	2674.7
987.355	2645.1
987.653	2644.65
987.951	2643.29
988.249	2591.09
988.547	2634.25
988.844	2595.16
989.142	2550.19
989.44	2576.18
989.737	2544.31
990.035	2577.76
990.332	2539.34
990.63	2529.62
990.927	2453.92
991.224	2483.3
991.521	2508.38
991.819	2477.42
992.116	2485.1
992.413	2458.89
992.71	2443.52
993.006	2408.27
993.303	2401.26
993.6	2394.03
993.897	2394.71
994.193	2402.62
994.49	2366.92
994.787	2370.98
995.083	2345.9
995.379	2333.92
995.676	2328.95
995.972	2328.5
996.268	2277.43
996.565	2287.14
996.861	2295.5
997.157	2262.51
997.453	2265
997.749	2281.27
998.044	2207.6
998.34	2249.63
998.636	2217.09
998.932	2233.13
999.227	2144.77
999.523	2194.94
999.818	2196.98
1000.114	2164.89
1000.409	2166.92
1000.704	2142.06
1001	2115.85
1001.295	2097.54
1001.59	2110.65
1001.885	2072.91
1002.18	2093.25
1002.475	2043.76
1002.77	2049.86
1003.065	2047.38
1003.359	2060.71
1003.654	2027.72
1003.949	1992.91
1004.243	1971.45
1004.538	1993.14
1004.832	1990.65
1005.127	1968.51
1005.421	1956.53
1005.715	1949.98
1006.009	1915.18
1006.304	1925.57
1006.598	1904.1
1006.892	1912.92
1007.186	1869.75
1007.48	1873.82
1007.773	1877.44
1008.067	1881.96
1008.361	1838.34
1008.655	1849.41
1008.948	1844.22
1009.242	1843.77
1009.535	1804.22
1009.829	1815.52
1010.122	1794.05
1010.415	1778.46
1010.708	1766.7
1011.001	1754.95
1011.295	1749.3
1011.588	1769.42
1011.881	1713.6
1012.173	1743.43
1012.466	1723.99
1012.759	1678.12
1013.052	1712.47
1013.344	1675.63
1013.637	1675.86
1013.93	1685.13
1014.222	1638.8
1014.514	1649.42
1014.807	1641.06
1015.099	1652.13
1015.391	1601.29
1015.683	1608.74
1015.976	1605.13
1016.268	1590.89
1016.56	1566.26
1016.851	1565.35
1017.143	1561.29
1017.435	1561.51
1017.727	1528.52
1018.018	1546.37
1018.31	1533.49
1018.602	1512.47
1018.893	1511.8
1019.185	1488.75
1019.476	1470.67
1019.767	1485.81
1020.058	1476.77
1020.35	1447.17
1020.641	1442.65
1020.932	1455.3
1021.223	1434.96
1021.514	1423.66
1021.804	1406.94
1022.095	1391.57
1022.386	1389.99
1022.677	1417.56
1022.967	1375.53
1023.258	1359.71
1023.548	1344.57
1023.839	1336.89
1024.129	1327.39
1024.419	1323.55
1024.709	1303.67
1025	1274.97
1025.29	1283.55
1025.58	1292.37
1025.87	1297.11
1026.16	1232.03
1026.449	1244.23
1026.739	1274.74
1027.029	1239.71
1027.319	1246.49
1027.608	1227.28
1027.898	1240.84
1028.187	1248.07
1028.477	1233.61
1028.766	1199.94
1029.055	1188.64
1029.344	1224.35
1029.634	1174.86
1029.923	1190.45
1030.212	1181.86
1030.501	1180.05
1030.79	1138.02
1031.078	1170.56
1031.367	1150.45
1031.656	1128.98
1031.945	1121.98
1032.233	1126.5
1032.522	1119.26
1032.81	1110.9
1033.099	1089.66
1033.387	1095.76
1033.675	1085.37
1033.963	1058.7
1034.251	1071.58
1034.54	1049.44
1034.828	1052.37
1035.116	1029.55
1035.403	1029.55
1035.691	1052.6
1035.979	1046.72
1036.267	1041.98
1036.554	988.65
1036.842	1017.35
1037.129	982.77
1037.417	994.97
1037.704	964.92
1037.992	992.71
1038.279	978.93
1038.566	961.08
1038.853	961.08
1039.14	961.08
