Data from hue_170_FLMS001491_00023.txt Node
Date: Tue Feb 07 16:48:27 GMT 2017
User: dcchb
Spectrometer: FLMS00149
Trigger mode: 0
Integration Time (sec): 2.000000E-2
Scans to average: 10
Electric dark correction enabled: true
Nonlinearity correction enabled: false
Boxcar width: 0
XAxis mode: Wavelengths
Number of Pixels in Spectrum: 2048
>>>>>Begin Spectral Data<<<<<
341.393	-17.91
341.776	-17.91
342.16	-17.91
342.543	-46.61
342.927	-52.71
343.31	-65.14
343.693	-61.3
344.077	-35.31
344.46	-52.48
344.843	-67.85
345.226	-58.13
345.61	-32.37
345.993	-17.46
346.376	-5.71
346.759	-11.81
347.142	34.07
347.525	27.74
347.908	52.15
348.291	91.01
348.674	86.95
349.057	115.65
349.44	128.75
349.823	153.16
350.206	174.18
350.588	195.19
350.971	213.27
351.354	217.56
351.737	244.68
352.119	240.84
352.502	272.93
352.884	270.9
353.267	263.44
353.65	309.99
354.032	284.23
354.414	313.61
354.797	330.1
355.179	301.86
355.562	314.74
355.944	331.46
356.326	333.04
356.709	338.69
357.091	336.88
357.473	331.69
357.855	367.84
358.238	345.25
358.62	340.27
359.002	351.35
359.384	342.76
359.766	351.35
360.148	320.84
360.53	337.34
360.912	341.18
361.294	329.2
361.676	331.91
362.057	326.04
362.439	324.45
362.821	333.27
363.203	325.81
363.584	300.73
363.966	301.86
364.348	303.44
364.729	323.32
365.111	317.9
365.493	336.88
365.874	325.13
366.256	320.84
366.637	323.1
367.019	312.93
367.4	330.78
367.781	319.94
368.163	324.45
368.544	326.26
368.925	323.78
369.306	309.54
369.688	310.44
370.069	319.26
370.45	303.66
370.831	313.61
371.212	295.3
371.593	315.42
371.974	305.02
372.355	300.95
372.736	335.3
373.117	335.08
373.498	300.05
373.879	321.07
374.26	322.42
374.641	319.48
375.021	298.24
375.402	327.84
375.783	314.29
376.163	334.62
376.544	324
376.925	357.67
377.305	335.75
377.686	336.88
378.066	325.58
378.447	335.98
378.827	320.61
379.208	329.65
379.588	340.95
379.968	324.23
380.349	331.91
380.729	318.58
381.109	332.36
381.489	342.99
381.87	324.68
382.25	339.37
382.63	339.6
383.01	340.95
383.39	307.28
383.77	356.77
384.15	347.05
384.53	335.3
384.91	344.34
385.29	359.48
385.67	347.96
386.049	361.52
386.429	337.79
386.809	339.37
387.189	348.63
387.568	371.69
387.948	368.97
388.328	372.59
388.707	373.04
389.087	343.89
389.466	388.86
389.846	350.22
390.225	364.68
390.605	375.98
390.984	346.15
391.363	381.18
391.743	364
392.122	367.17
392.501	373.27
392.881	383.44
393.26	376.43
393.639	375.98
394.018	373.94
394.397	367.17
394.776	377.56
395.155	385.24
395.534	389.99
395.913	381.63
396.292	386.37
396.671	386.6
397.05	398.35
397.429	380.5
397.808	391.12
398.186	394.51
398.565	404.68
398.944	394.96
399.323	392.48
399.701	421.63
400.08	407.16
400.458	394.51
400.837	426.6
401.215	423.21
401.594	415.3
401.972	416.43
402.351	417.79
402.729	415.75
403.107	432.47
403.486	438.58
403.864	428.41
404.242	413.27
404.62	436.09
404.999	430.21
405.377	423.66
405.755	441.74
406.133	434.96
406.511	443.77
406.889	442.42
407.267	441.06
407.645	450.1
408.023	463.66
408.401	457.56
408.779	482.64
409.156	473.83
409.534	482.19
409.912	485.13
410.29	465.92
410.667	494.17
411.045	477.45
411.422	488.97
411.8	497.33
412.178	518.57
412.555	505.69
412.933	510.66
413.31	558.8
413.687	527.16
414.065	526.48
414.442	520.61
414.819	533.26
415.197	568.52
415.574	569.87
415.951	567.84
416.328	563.77
416.705	536.43
417.082	559.7
417.46	564.9
417.837	568.97
418.214	576.2
418.591	578.01
418.967	596.99
419.344	580.04
419.721	590.89
420.098	605.8
420.475	608.97
420.852	615.29
421.228	624.11
421.605	623.88
421.982	633.15
422.358	638.8
422.735	651.68
423.111	658.01
423.488	673.15
423.864	665.01
424.241	698.23
424.617	691.45
424.994	680.83
425.37	706.14
425.746	681.51
426.123	704.78
426.499	694.61
426.875	719.25
427.251	717.89
427.627	734.84
428.003	759.25
428.379	738.91
428.756	755.4
429.132	752.69
429.507	782.3
429.883	770.32
430.259	785.91
430.635	771.9
431.011	792.69
431.387	818.23
431.763	815.52
432.138	813.03
432.514	853.93
432.89	860.94
433.265	842.18
433.641	863.2
434.016	869.3
434.392	869.75
434.767	894.84
435.143	877.21
435.518	922.18
435.894	928.05
436.269	927.83
436.644	956.3
437.02	965.79
437.395	964.89
437.77	982.74
438.145	988.17
438.52	991.56
438.895	1011.22
439.271	1012.35
439.646	1052.12
440.021	1057.54
440.395	1048.28
440.77	1040.14
441.145	1063.87
441.52	1095.96
441.895	1094.15
442.27	1097.32
442.645	1118.33
443.019	1119.69
443.394	1119.01
443.769	1143.19
444.143	1135.73
444.518	1168.05
444.892	1154.26
445.267	1183.19
445.641	1187.93
446.016	1191.32
446.39	1197.2
446.764	1197.88
447.139	1185.22
447.513	1249.18
447.887	1244.88
448.262	1227.93
448.636	1223.41
449.01	1217.54
449.384	1249.4
449.758	1293.02
450.132	1300.7
450.506	1280.14
450.88	1310.64
451.254	1289.4
451.628	1350.19
452.002	1331.66
452.376	1353.13
452.75	1370.3
453.123	1374.82
453.497	1414.37
453.871	1402.62
454.244	1446.01
454.618	1452.33
454.992	1439.23
455.365	1468.83
455.739	1482.16
456.112	1546.34
456.486	1559.68
456.859	1569.85
457.232	1583.18
457.606	1584.08
457.979	1590.64
458.352	1633.12
458.725	1676.51
459.099	1673.35
459.472	1704.53
459.845	1694.14
460.218	1734.59
460.591	1734.81
460.964	1753.12
461.337	1766.22
461.71	1841.7
462.083	1871.08
462.456	1843.51
462.829	1857.75
463.201	1896.16
463.574	1904.98
463.947	1923.28
464.32	1989.72
464.692	2011.42
465.065	2005.99
465.438	2054.58
465.81	2100.45
466.183	2104.52
466.555	2191.98
466.928	2193.78
467.3	2208.92
467.672	2258.19
468.045	2302.03
468.417	2303.61
468.789	2347.23
469.161	2361.46
469.534	2428.58
469.906	2491.63
470.278	2500.89
470.65	2566.88
471.022	2601.01
471.394	2677.39
471.766	2692.08
472.138	2734.11
472.51	2784.73
472.882	2851.85
473.253	2877.83
473.625	2953.54
473.997	3045.06
474.369	3068.11
474.74	3121.9
475.112	3196.7
475.484	3252.51
475.855	3334.55
476.227	3367.99
476.598	3514.43
476.97	3549.91
477.341	3596.69
477.713	3685.72
478.084	3737.7
478.455	3863.8
478.827	3902.44
479.198	4046.16
479.569	4101.98
479.94	4228.76
480.311	4258.81
480.682	4439.15
481.053	4506.94
481.424	4614.29
481.795	4682.76
482.166	4795.75
482.537	4888.63
482.908	4997.33
483.279	5114.84
483.65	5219.02
484.021	5329.97
484.391	5472.57
484.762	5574.49
485.133	5623.3
485.503	5674.14
485.874	5910.97
486.244	6032.78
486.615	6222.83
486.985	6282.72
487.356	6423.73
487.726	6497.63
488.097	6651.29
488.467	6723.38
488.837	6937.84
489.207	7024.84
489.578	7155.46
489.948	7265.06
490.318	7454.89
490.688	7484.72
491.058	7631.16
491.428	7763.58
491.798	7872.96
492.168	8121.09
492.538	8152.05
492.908	8276.34
493.278	8404.92
493.648	8424.81
494.017	8600.4
494.387	8708.19
494.757	8804.01
495.126	8912.25
495.496	8992.93
495.866	9087.84
496.235	9202.41
496.605	9264.56
496.974	9387.04
497.344	9454.16
497.713	9533.93
498.082	9679.91
498.452	9825.67
498.821	9892.56
499.19	9901.38
499.559	10012.11
499.928	10129.17
500.298	10186.57
500.667	10256.4
501.036	10256.85
501.405	10458.2
501.774	10353.57
502.143	10522.38
502.512	10572.55
502.88	10669.27
503.249	10660.68
503.618	10705.42
503.987	10812.54
504.356	10878.98
504.724	11010.95
505.093	10997.39
505.462	11019.99
505.83	11129.37
506.199	11175.02
506.567	11357.16
506.936	11275.13
507.304	11380.21
507.672	11454.11
508.041	11495.23
508.409	11559.19
508.777	11597.38
509.145	11627.66
509.514	11755.79
509.882	11736.36
510.25	11779.52
510.618	11782.46
510.986	11829.69
511.354	11908.56
511.722	12011.61
512.09	12067.65
512.458	12016.58
512.826	12091.6
513.193	12206.4
513.561	12201.88
513.929	12257.93
514.297	12329.79
514.664	12314.87
515.032	12397.36
515.4	12384.93
515.767	12417.7
516.135	12534.98
516.502	12439.16
516.869	12499.28
517.237	12564.81
517.604	12560.74
517.972	12568.2
518.339	12554.87
518.706	12615.43
519.073	12634.19
519.44	12724.58
519.808	12732.04
520.175	12781.08
520.542	12815.2
520.909	12889.77
521.276	12841.41
521.643	12908.3
522.009	12981.98
522.376	12965.7
522.743	12952.15
523.11	13013.84
523.477	13094.51
523.843	13100.62
524.21	13234.85
524.577	13246.37
524.943	13257
525.31	13323.66
525.676	13309.2
526.043	13292.25
526.409	13372.02
526.776	13407.73
527.142	13379.25
527.508	13377.67
527.874	13396.88
528.241	13529.31
528.607	13443.66
528.973	13483.66
529.339	13340.61
529.705	13526.14
530.071	13573.6
530.437	13511.68
530.803	13541.51
531.169	13517.33
531.535	13401.85
531.901	13432.81
532.267	13480.49
532.632	13527.5
532.998	13494.5
533.364	13467.16
533.73	13520.27
534.095	13511.68
534.461	13409.53
534.826	13539.7
535.192	13434.17
535.557	13493.83
535.923	13363.89
536.288	13339.48
536.653	13377.44
537.019	13294.28
537.384	13275.07
537.749	13279.14
538.114	13227.39
538.479	13175.19
538.845	13245.02
539.21	13157.11
539.575	13085.93
539.94	13129.54
540.305	13184.68
540.67	12995.53
541.034	13065.36
541.399	12987.17
541.764	13029.88
542.129	12972.03
542.494	12889.1
542.858	12864.01
543.223	12871.92
543.587	12840.74
543.952	12772.72
544.316	12753.51
544.681	12706.5
545.045	12692.27
545.41	12762.09
545.774	12652.72
546.138	12541.31
546.503	12572.04
546.867	12464.7
547.231	12557.35
547.595	12535.66
547.959	12460.18
548.324	12373.18
548.688	12373.18
549.052	12388.54
549.416	12347.87
549.779	12297.25
550.143	12246.85
550.507	12252.5
550.871	12244.82
551.235	12159.17
551.599	12212.28
551.962	12107.42
552.326	12111.04
552.689	12153.97
553.053	12049.57
553.417	12097.48
553.78	12104.71
554.143	12015.22
554.507	12007.76
554.87	11983.13
555.234	12006.86
555.597	11848.67
555.96	11955.11
556.323	11949.46
556.686	11811.61
557.05	11912.85
557.413	11868.78
557.776	11810.93
558.139	11833.3
558.502	11819.07
558.865	11820.88
559.228	11847.09
559.59	11806.86
559.953	11809.58
560.316	11939.06
560.679	11823.59
561.041	11875.11
561.404	11871.95
561.767	11829.01
562.129	11726.41
562.492	11855
562.854	11805.96
563.217	11840.99
563.579	11874.66
563.941	11845.28
564.304	11884.15
564.666	11860.65
565.028	11847.32
565.39	11888.44
565.753	11916.92
566.115	11875.56
566.477	11947.88
566.839	11895.9
567.201	11902.91
567.563	11915.79
567.925	11976.35
568.287	11972.51
568.648	11976.35
569.01	11981.78
569.372	12021.77
569.734	11970.93
570.095	12082.56
570.457	12033.07
570.819	12018.84
571.18	12025.84
571.542	12054.32
571.903	12003.02
572.265	12145.16
572.626	12088.44
572.987	12177.25
573.349	12104.48
573.71	12111.26
574.071	12108.55
574.432	12117.14
574.794	12197.59
575.155	12140.64
575.516	12157.59
575.877	12095.22
576.238	12116.01
576.599	12141.32
576.96	12156.69
577.32	12172.05
577.681	12163.47
578.042	12136.8
578.403	12192.39
578.763	12125.05
579.124	12202.11
579.485	12201.43
579.845	12262.45
580.206	12171.6
580.566	12207.53
580.927	12188.55
581.287	12242.11
581.648	12143.35
582.008	12176.57
582.368	12125.5
582.728	12236.68
583.089	12221.32
583.449	12184.93
583.809	12174.99
584.169	12124.82
584.529	12128.21
584.889	12176.12
585.249	12092.51
585.609	12061.77
585.969	12143.58
586.329	12068.1
586.688	12058.16
587.048	12038.95
587.408	12024.26
587.768	12017.03
588.127	12007.31
588.487	11935
588.846	12103.13
589.206	11937.48
589.565	11953.3
589.925	12036.24
590.284	12001.66
590.643	12015.9
591.003	12053.64
591.362	11990.14
591.721	11958.5
592.08	11898.39
592.44	11967.99
592.799	11979.29
593.158	11919.18
593.517	11938.39
593.876	11966.86
594.235	11931.61
594.593	11909.01
594.952	11955.79
595.311	11874.66
595.67	11903.13
596.029	11941.55
596.387	11965.73
596.746	11933.64
597.104	11826.53
597.463	11801.22
597.822	11834.89
598.18	11870.59
598.538	11857.26
598.897	11831.95
599.255	11785.85
599.613	11907.65
599.972	11847.77
600.33	11867.88
600.688	11783.81
601.046	11989.46
601.404	11928.22
601.762	11817.49
602.12	11965.73
602.478	11914.88
602.836	11822.46
603.194	11888.22
603.552	11789.69
603.91	11836.92
604.268	11891.61
604.625	11806.19
604.983	11908.78
605.341	11768
605.698	11804.83
606.056	11832.4
606.413	11842.57
606.771	11858.61
607.128	11858.16
607.485	11815.68
607.843	11859.74
608.2	11945.84
608.557	11857.03
608.914	11914.21
609.272	11906.52
609.629	11938.61
609.986	11989.68
610.343	11914.21
610.7	11981.32
611.057	11920.53
611.414	11918.05
611.771	11972.74
612.127	12032.62
612.484	12024.03
612.841	12093.41
613.198	11961.21
613.554	11983.58
613.911	12004.83
614.267	12105.61
614.624	11996.24
614.98	12057.71
615.337	12062.9
615.693	12065.16
616.05	12130.47
616.406	12069.68
616.762	12110.36
617.118	12166.18
617.475	12059.74
617.831	12174.76
618.187	12095.22
618.543	12179.51
618.899	12184.71
619.255	12185.39
619.611	12117.37
619.967	12225.38
620.323	12229.68
620.678	12133.64
621.034	12141.32
621.39	12112.17
621.746	12152.17
622.101	12274.42
622.457	12159.85
622.812	12163.47
623.168	12217.48
623.523	12196.23
623.879	12286.4
624.234	12091.6
624.589	12173.41
624.945	12184.26
625.3	12123.24
625.655	12134.77
626.01	12154.88
626.365	12226.29
626.72	12062.68
627.075	12116.24
627.43	12145.16
627.785	12184.26
628.14	12135.44
628.495	12208.21
628.85	12131.38
629.205	12097.03
629.559	12189.68
629.914	12066.97
630.269	12062.9
630.623	12044.6
630.978	12064.49
631.332	12050.25
631.687	12117.37
632.041	12031.72
632.396	12001.89
632.75	11937.93
633.104	12047.31
633.459	11944.04
633.813	11935.22
634.167	11929.35
634.521	11906.98
634.875	11963.92
635.229	11891.61
635.583	11871.5
635.937	11898.39
636.291	11843.7
636.645	11860.2
636.999	11815.9
637.352	11836.69
637.706	11794.44
638.06	11860.42
638.413	11793.76
638.767	11696.81
639.121	11771.61
639.474	11706.53
639.828	11731.16
640.181	11760.76
640.534	11692.52
640.888	11648.9
641.241	11701.56
641.594	11678.96
641.947	11710.14
642.301	11701.56
642.654	11626.3
643.007	11680.09
643.36	11598.28
643.713	11619.75
644.066	11652.29
644.419	11528
644.771	11467.66
645.124	11373.66
645.477	11368.23
645.83	11308.12
646.182	11175.02
646.535	11246.43
646.888	11304.51
647.24	11212.53
647.593	11251.85
647.945	11235.13
648.298	11233.32
648.65	11124.4
649.002	11148.35
649.355	11167.33
649.707	11197.84
650.059	11262.25
650.411	11368.68
650.763	11344.73
651.115	11452.75
651.467	11440.55
651.819	11410.26
652.171	11456.82
652.523	11502.47
652.875	11457.72
653.227	11407.1
653.578	11476.93
653.93	11486.2
654.282	11425.63
654.633	11405.97
654.985	11433.54
655.337	11430.38
655.688	11471.28
656.039	11506.31
656.391	11411.85
656.742	11412.75
657.094	11455.24
657.445	11516.93
657.796	11417.27
658.147	11392.64
658.498	11392.41
658.849	11543.14
659.2	11394.22
659.551	11513.54
659.902	11492.3
660.253	11464.73
660.604	11546.53
660.955	11476.48
661.306	11473.54
661.656	11522.58
662.007	11476.93
662.358	11547.89
662.708	11480.32
663.059	11525.06
663.409	11441.9
663.76	11526.19
664.11	11550.6
664.461	11544.95
664.811	11612.97
665.161	11526.87
665.511	11516.25
665.862	11564.84
666.212	11519.64
666.562	11485.29
666.912	11553.09
667.262	11518.06
667.612	11541.33
667.962	11542.92
668.312	11481
668.662	11555.12
669.011	11529.58
669.361	11498.17
669.711	11486.87
670.06	11504.73
670.41	11399.87
670.76	11421.11
671.109	11469.92
671.459	11473.54
671.808	11445.07
672.157	11370.72
672.507	11473.77
672.856	11516.93
673.205	11448.23
673.554	11489.36
673.904	11438.51
674.253	11462.69
674.602	11356.71
674.951	11261.12
675.3	11236.48
675.649	11363.26
675.998	11363.03
676.346	11359.64
676.695	11447.33
677.044	11315.13
677.393	11313.77
677.741	11378.4
678.09	11278.74
678.438	11208.24
678.787	11276.26
679.135	11325.07
679.484	11208.91
679.832	11244.85
680.181	11113.78
680.529	11259.99
680.877	11158.52
681.225	11083.49
681.573	11212.3
681.922	11120.78
682.27	11083.04
682.618	11100.67
682.966	10993.1
683.314	11098.86
683.661	11029.26
684.009	10923.5
684.357	11001.91
684.705	10931.41
685.053	10944.74
685.4	10975.93
685.748	10929.37
686.095	10871.52
686.443	10848.7
686.79	10781.58
687.138	10813.22
687.485	10814.12
687.832	10816.38
688.18	10762.37
688.527	10679.21
688.874	10640.34
689.221	10625.65
689.568	10565.09
689.915	10574.81
690.262	10599.21
690.609	10495.03
690.956	10445.09
691.303	10477.63
691.65	10393.12
691.997	10397.86
692.344	10325.1
692.69	10322.61
693.037	10252.33
693.383	10161.03
693.73	10182.05
694.077	10109.06
694.423	10154.03
694.769	10121.03
695.116	10109.06
695.462	10076.74
695.808	10051.2
696.155	10010.08
696.501	9971.21
696.847	9909.29
697.193	9852.34
697.539	9857.54
697.885	9824.77
698.231	9779.35
698.577	9729.63
698.923	9709.29
699.269	9661.16
699.614	9650.76
699.96	9627.71
700.306	9611.67
700.651	9511.78
700.997	9588.62
701.342	9500.48
701.688	9479.69
702.033	9432.92
702.379	9425.01
702.724	9367.61
703.069	9345.91
703.415	9291.45
703.76	9260.49
704.105	9263.43
704.45	9233.37
704.795	9158.8
705.14	9103.88
705.485	9166.03
705.83	9032.47
706.175	9048.52
706.52	9075.86
706.865	8966.94
707.209	9027.05
707.554	8910.9
707.899	8952.93
708.243	8901.86
708.588	8886.49
708.932	8805.36
709.277	8804.01
709.621	8827.73
709.966	8729.43
710.31	8754.74
710.654	8717.45
710.998	8696.66
711.342	8680.62
711.687	8717
712.031	8605.82
712.375	8627.29
712.719	8610.56
713.063	8611.02
713.407	8614.86
713.75	8567.4
714.094	8527.63
714.438	8509.32
714.782	8494.64
715.125	8468.65
715.469	8467.74
715.812	8484.92
716.156	8416.22
716.499	8425.94
716.843	8416.45
717.186	8380.06
717.53	8423.9
717.873	8407.63
718.216	8348.42
718.559	8345.49
718.902	8263
719.246	8304.58
719.589	8338.48
719.932	8267.07
720.275	8275.43
720.617	8257.35
720.96	8190.91
721.303	8256
721.646	8253.29
721.989	8208.09
722.331	8208.32
722.674	8183.68
723.016	8178.49
723.359	8154.76
723.701	8156.79
724.044	8141.65
724.386	8123.57
724.729	8134.19
725.071	8176.9
725.413	8161.08
725.755	8102.56
726.097	8140.29
726.439	8071.82
726.782	8070.47
727.124	8053.52
727.465	8036.12
727.807	8034.99
728.149	8082.89
728.491	8078.38
728.833	8049.68
729.175	8073.18
729.516	8023.46
729.858	8043.57
730.199	8000.41
730.541	8023.69
730.882	8030.47
731.224	8007.42
731.565	8003.8
731.906	7962.45
732.248	7993.63
732.589	7938.94
732.93	7956.57
733.271	7966.06
733.612	8011.26
733.953	7983.91
734.294	8005.83
734.635	8036.12
734.976	8041.09
735.317	8004.25
735.658	7999.06
735.999	8020.52
736.339	7926.06
736.68	8056.68
737.021	7968.55
737.361	7986.17
737.702	8051.03
738.042	8048.09
738.383	8038.38
738.723	8052.16
739.063	7990.92
739.404	8075.66
739.744	8079.28
740.084	8061.2
740.424	8089.9
740.764	8050.58
741.104	8142.78
741.444	8069.34
741.784	8160.41
742.124	8196.11
742.464	8161.08
742.804	8157.92
743.143	8197.47
743.483	8226.62
743.823	8225.94
744.162	8264.58
744.502	8285.15
744.841	8299.61
745.181	8331.48
745.52	8361.98
745.86	8415.09
746.199	8434.07
746.538	8456.22
746.877	8509.55
747.216	8592.03
747.556	8603.11
747.895	8624.8
748.234	8625.25
748.573	8731.92
748.911	8774.85
749.25	8855.53
749.589	8867.28
749.928	9010.1
750.267	9045.58
750.605	9123.55
750.944	9180.95
751.283	9279.25
751.621	9289.19
751.96	9356.99
752.298	9526.25
752.636	9546.59
752.975	9634.72
753.313	9699.12
753.651	9867.03
753.989	9909.74
754.327	10049.62
754.666	10120.81
755.004	10274.25
755.342	10376.85
755.679	10540.68
756.017	10587.01
756.355	10752.88
756.693	10800.56
757.031	11097.5
757.368	11064.96
757.706	11220.89
758.044	11411.85
758.381	11558.28
758.719	11699.75
759.056	11829.24
759.394	11972.06
759.731	12083.24
760.068	12223.35
760.405	12301.54
760.743	12541.99
761.08	12745.15
761.417	12864.69
761.754	12955.99
762.091	13185.59
762.428	13365.47
762.765	13442.53
763.102	13643.2
763.438	13798.68
763.775	13813.14
764.112	14146.69
764.449	14283.41
764.785	14389.17
765.122	14469.39
765.458	14611.99
765.795	14840.23
766.131	14970.85
766.467	15128.13
766.804	15178.3
767.14	15240.22
767.476	15472.76
767.812	15613.77
768.148	15743.03
768.485	15840.88
768.821	15918.4
769.157	16071.61
769.492	16224.15
769.828	16310.7
770.164	16368.78
770.5	16465.95
770.836	16593.41
771.171	16576
771.507	16697.13
771.842	16772.84
772.178	16947.75
772.513	17024.81
772.849	17062.77
773.184	17053.73
773.519	17210.79
773.855	17145.93
774.19	17223.22
774.525	17440.16
774.86	17462.54
775.195	17628.86
775.53	17562.87
775.865	17559.26
776.2	17559.93
776.535	17511.57
776.87	17697.78
777.205	17674.28
777.539	17659.14
777.874	17886.7
778.209	17753.15
778.543	17799.25
778.878	17813.26
779.212	17901.62
779.547	17859.36
779.881	17949.08
780.215	17924.9
780.55	18030.66
780.884	17900.49
781.218	17934.61
781.552	17931
781.886	17956.08
782.22	17858.46
782.554	17962.41
782.888	17833.6
783.222	17849.64
783.556	17895.07
783.889	17848.97
784.223	17806.03
784.557	17795.41
784.89	17785.69
785.224	17872.69
785.557	17744.56
785.891	17683.32
786.224	17702.08
786.558	17834.05
786.891	17729.42
787.224	17634.28
787.557	17526.26
787.891	17622.31
788.224	17539.82
788.557	17542.53
788.89	17609.42
789.223	17728.52
789.556	17529.88
789.888	17545.24
790.221	17553.61
790.554	17428.19
790.887	17420.28
791.219	17377.79
791.552	17436.77
791.884	17233.84
792.217	17303.22
792.549	17323.33
792.882	17156.55
793.214	17054.41
793.546	17114.97
793.879	17079.95
794.211	17096.67
794.543	17083.56
794.875	17024.81
795.207	17130.57
795.539	16966.5
795.871	16885.15
796.203	16851.48
796.535	16822.1
796.867	16752.72
797.198	16736.45
797.53	16727.41
797.862	16604.03
798.193	16716.79
798.525	16620.75
798.856	16587.76
799.188	16471.37
799.519	16462.11
799.85	16396.57
800.182	16345.95
800.513	16433.41
800.844	16170.59
801.175	16376.01
801.506	16297.82
801.837	16275.22
802.168	16244.26
802.499	16197.26
802.83	16113.19
803.161	15993.87
803.491	16032.06
803.822	15973.76
804.153	15949.58
804.483	15905.51
804.814	15744.61
805.145	15791.84
805.475	15957.04
805.805	15767.44
806.136	15722.69
806.466	15778.74
806.796	15729.02
807.126	15592.08
807.457	15572.87
807.787	15591.4
808.117	15436.15
808.447	15458.97
808.777	15545.07
809.107	15412.42
809.436	15364.06
809.766	15356.38
810.096	15332.87
810.426	15213.33
810.755	15291.74
811.085	15310.28
811.414	15269.82
811.744	15183.5
812.073	15117.96
812.403	15130.17
812.732	15080
813.061	15060.79
813.39	15012.2
813.719	14929.72
814.049	15052.88
814.378	14947.12
814.707	14896.73
815.036	14798.2
815.365	14867.12
815.693	14623.51
816.022	14752.1
816.351	14710.52
816.68	14633.46
817.008	14582.61
817.337	14574.25
817.665	14519.34
817.994	14547.13
818.322	14574.7
818.651	14545.78
818.979	14367.48
819.307	14523.4
819.636	14421.49
819.964	14392.11
820.292	14415.84
820.62	14356.85
820.948	14390.98
821.276	14410.86
821.604	14388.94
821.932	14431.88
822.259	14389.62
822.587	14261.94
822.915	14262.17
823.243	14400.24
823.57	14355.27
823.898	14369.51
824.225	14284.99
824.553	14334.48
824.88	14336.29
825.207	14313.24
825.535	14313.92
825.862	14490.86
826.189	14370.19
826.516	14419.45
826.843	14415.61
827.17	14390.98
827.497	14444.99
827.824	14349.62
828.151	14444.31
828.478	14466.68
828.805	14478.43
829.131	14461.48
829.458	14405.67
829.785	14332.9
830.111	14394.59
830.438	14493.57
830.764	14517.53
831.09	14381.94
831.417	14293.58
831.743	14440.02
832.069	14345.33
832.395	14313.69
832.722	14382.84
833.048	14264.2
833.374	14385.78
833.7	14253.58
834.026	14249.51
834.351	14290.87
834.677	14215.16
835.003	14253.81
835.329	14222.17
835.654	14235.28
835.98	14107.37
836.306	14142.62
836.631	14199.57
836.956	14161.15
837.282	14107.82
837.607	14169.06
837.932	14094.49
838.258	14120.02
838.583	14042.06
838.908	13926.81
839.233	14068.05
839.558	13995.06
839.883	13847.26
840.208	13854.49
840.533	13932.68
840.858	13889.52
841.182	13928.16
841.507	13859.69
841.832	13763.88
842.156	13786.7
842.481	13792.8
842.805	13754.61
843.13	13710.09
843.454	13640.04
843.778	13503.09
844.103	13560.04
844.427	13568.63
844.751	13553.94
845.075	13481.62
845.399	13527.5
845.723	13400.5
846.047	13344.9
846.371	13374.28
846.695	13264
847.019	13201.63
847.343	13186.94
847.666	13091.35
847.99	13031.92
848.313	12953.5
848.637	12896.78
848.96	12983.78
849.284	12918.7
849.607	12808.42
849.931	12822.21
850.254	12679.84
850.577	12679.61
850.9	12545.6
851.223	12615.88
851.546	12387.64
851.869	12469.67
852.192	12467.86
852.515	12362.78
852.838	12284.82
853.161	12344.03
853.483	12227.19
853.806	12145.84
854.129	12290.02
854.451	12056.58
854.774	12069
855.096	12023.58
855.419	11938.61
855.741	11947.65
856.063	11896.13
856.385	11829.01
856.708	11849.12
857.03	11822.91
857.352	11730.26
857.674	11778.84
857.996	11702.91
858.318	11607.32
858.64	11700.2
858.961	11615.68
859.283	11552.63
859.605	11477.38
859.926	11541.56
860.248	11474.22
860.57	11446.65
860.891	11369.59
861.212	11365.52
861.534	11323.94
861.855	11309.25
862.176	11289.59
862.498	11297.95
862.819	11314.45
863.14	11240.1
863.461	11222.7
863.782	11149.71
864.103	11238.74
864.424	11176.15
864.745	11163.94
865.065	11135.47
865.386	11162.81
865.707	11022.25
866.027	11099.54
866.348	11067.45
866.668	11054.34
866.989	10964.85
867.309	10950.62
867.63	11018.64
867.95	10927.11
868.27	10906.32
868.59	10883.73
868.91	10878.75
869.23	10939.09
869.55	10862.03
869.87	10879.66
870.19	10850.28
870.51	10852.09
870.83	10864.74
871.15	10720.34
871.469	10735.25
871.789	10787.46
872.109	10721.02
872.428	10651.41
872.748	10705.65
873.067	10697.97
873.386	10641.25
873.706	10632.66
874.025	10596.95
874.344	10640.12
874.663	10560.8
874.982	10636.5
875.301	10491.19
875.62	10574.13
875.939	10493.9
876.258	10477.41
876.577	10442.83
876.896	10410.29
877.214	10410.52
877.533	10403.96
877.852	10417.52
878.17	10435.38
878.489	10419.1
878.807	10361.93
879.125	10329.62
879.444	10301.59
879.762	10276.51
880.08	10269.73
880.398	10273.57
880.716	10238.32
881.034	10229.28
881.352	10234.25
881.67	10169.85
881.988	10162.84
882.306	10137.53
882.624	10143.86
882.941	10109.06
883.259	10039.45
883.577	10064.76
883.894	10026.57
884.212	10045.1
884.529	10024.31
884.846	9940.7
885.164	9945.67
885.481	9898.44
885.798	9887.82
886.115	9760.36
886.432	9899.57
886.75	9803.3
887.067	9767.37
887.383	9769.86
887.7	9746.13
888.017	9770.53
888.334	9797.43
888.651	9641.72
888.967	9712.46
889.284	9673.14
889.6	9616.41
889.917	9585.45
890.233	9576.87
890.55	9511.33
890.866	9468.17
891.182	9488.96
891.498	9428.4
891.815	9501.39
892.131	9401.5
892.447	9351.11
892.763	9388.85
893.079	9345.91
893.395	9344.33
893.71	9238.8
894.026	9235.41
894.342	9192.7
894.657	9107.05
894.973	9127.61
895.289	9107.27
895.604	9054.39
895.92	9024.34
896.235	8948.63
896.55	8944.57
896.865	8966.26
897.181	8944.57
897.496	8933.49
897.811	8940.73
898.126	8869.77
898.441	8770.79
898.756	8801.52
899.071	8728.3
899.386	8714.06
899.7	8592.94
900.015	8603.33
900.33	8545.03
900.644	8622.77
900.959	8631.13
901.273	8524.01
901.588	8499.16
901.902	8410.12
902.216	8407.18
902.531	8378.93
902.845	8359.95
903.159	8314.08
903.473	8263.46
903.787	8181.88
904.101	8184.36
904.415	8171.93
904.729	8112.27
905.042	8171.93
905.356	8124.25
905.67	8070.92
905.984	8035.66
906.297	7979.39
906.611	7966.29
906.924	7917.93
907.237	7993.18
907.551	7851.26
907.864	7861.43
908.177	7790.47
908.491	7853.75
908.804	7759.97
909.117	7660.76
909.43	7641.55
909.743	7610.82
910.056	7628.9
910.368	7609.23
910.681	7540.76
910.994	7549.35
911.307	7500.31
911.619	7458.96
911.932	7464.15
912.244	7408.11
912.557	7372.41
912.869	7370.6
913.181	7311.84
913.494	7289.7
913.806	7269.81
914.118	7209.7
914.43	7195.23
914.742	7122.69
915.054	7112.07
915.366	7099.87
915.678	7091.73
915.99	7096.48
916.302	6979.2
916.613	6941
916.925	6957.95
917.236	6922.25
917.548	6932.87
917.859	6898.97
918.171	6796.37
918.482	6861.91
918.794	6797.5
919.105	6789.14
919.416	6738.75
919.727	6742.59
920.038	6701.91
920.349	6696.04
920.66	6632.76
920.971	6639.09
921.282	6623.27
921.593	6577.85
921.903	6527.91
922.214	6498.08
922.525	6489.26
922.835	6438.19
923.146	6440.68
923.456	6366.78
923.767	6402.94
924.077	6376.95
924.387	6288.37
924.697	6290.4
925.008	6329.27
925.318	6250.85
925.628	6228.93
925.938	6214.24
926.248	6130.4
926.558	6096.05
926.867	6093.12
927.177	6108.26
927.487	6056.06
927.796	5970.63
928.106	6024.87
928.416	5943.29
928.725	5990.52
929.034	5956.17
929.344	5976.96
929.653	5960.46
929.962	5816.06
930.271	5805.21
930.581	5848.15
930.89	5782.62
931.199	5753.92
931.508	5733.8
931.817	5767.48
932.125	5704.88
932.434	5730.19
932.743	5645.44
933.051	5641.38
933.36	5604.09
933.669	5559.8
933.977	5563.87
934.286	5514.37
934.594	5502.85
934.902	5471.44
935.21	5448.84
935.519	5482.96
935.827	5450.87
936.135	5414.94
936.443	5354.38
936.751	5352.35
937.059	5374.94
937.367	5309.63
937.674	5340.14
937.982	5245.46
938.29	5244.78
938.597	5205.23
938.905	5157.32
939.213	5184.67
939.52	5158
939.827	5152.35
940.135	5148.96
940.442	5105.35
940.749	5123.88
941.056	5110.77
941.363	5052.69
941.67	5012.24
941.977	5000.72
942.284	4916.65
942.591	4944.45
942.898	4891.34
943.205	4899.7
943.511	4889.53
943.818	4897.44
944.125	4846.14
944.431	4815.86
944.738	4792.59
945.044	4771.34
945.35	4760.04
945.657	4723.66
945.963	4707.39
946.269	4619.03
946.575	4659.93
946.881	4662.65
947.187	4640.27
947.493	4666.71
947.799	4602.76
948.105	4584.68
948.41	4557.79
948.716	4537.23
949.022	4498.58
949.327	4522.08
949.633	4459.26
949.938	4495.64
950.244	4453.61
950.549	4421.07
950.854	4440.05
951.16	4377.46
951.465	4341.3
951.77	4322.54
952.075	4320.28
952.38	4293.16
952.685	4296.33
952.99	4238.25
953.294	4225.14
953.599	4183.56
953.904	4214.75
954.209	4175.43
954.513	4239.38
954.818	4115.77
955.122	4155.54
955.426	4137.91
955.731	4139.04
956.035	4106.28
956.339	4074.41
956.643	4074.41
956.948	4051.81
957.252	4018.82
957.556	3991.03
957.86	4038.26
958.163	4009.33
958.467	3954.42
958.771	3952.38
959.075	3948.77
959.378	3875.32
959.682	3860.18
959.985	3836.23
960.289	3861.54
960.592	3827.87
960.896	3826.51
961.199	3838.94
961.502	3764.14
961.805	3789.45
962.108	3749.9
962.411	3761.2
962.714	3695.89
963.017	3657.7
963.32	3724.37
963.623	3678.49
963.926	3686.4
964.228	3648.21
964.531	3603.69
964.833	3588.78
965.136	3580.64
965.438	3573.41
965.741	3521.43
966.043	3540.87
966.345	3538.61
966.648	3509.23
966.95	3525.73
967.252	3485.05
967.554	3480.08
967.856	3484.82
968.158	3434.66
968.46	3446.41
968.761	3390.81
969.063	3386.07
969.365	3384.94
969.666	3400.31
969.968	3374.77
970.269	3335
970.571	3309.24
970.872	3258.16
971.174	3304.72
971.475	3308.56
971.776	3306.98
972.077	3237.6
972.378	3244.83
972.679	3254.77
972.98	3254.32
973.281	3200.54
973.582	3193.53
973.883	3175
974.183	3165.96
974.484	3136.13
974.785	3160.54
975.085	3115.79
975.386	3107.88
975.686	3112.18
975.986	3090.71
976.287	3102.91
976.587	3043.71
976.887	3033.54
977.187	3080.99
977.487	3035.57
977.787	3004.38
978.087	3017.27
978.387	2990.83
978.687	2963.93
978.987	2928
979.286	2918.74
979.586	2955.57
979.885	2947.89
980.185	2888.91
980.484	2853.2
980.784	2894.78
981.083	2837.16
981.382	2866.53
981.682	2823.15
981.981	2798.97
982.28	2825.41
982.579	2775.01
982.878	2752.64
983.177	2771.4
983.475	2787.21
983.774	2731.62
984.073	2724.62
984.372	2709.93
984.67	2688.91
984.969	2707.89
985.267	2707.67
985.566	2621.34
985.864	2632.19
986.162	2655.24
986.461	2604.85
986.759	2594
987.057	2585.64
987.355	2614.11
987.653	2601.46
987.951	2596.94
988.249	2578.41
988.547	2540.44
988.844	2541.57
989.142	2544.06
989.44	2517.84
989.737	2506.09
990.035	2514.45
990.332	2459.99
990.63	2484.4
990.927	2451.63
991.224	2468.58
991.521	2412.31
991.819	2454.34
992.116	2431.97
992.413	2423.83
992.71	2381.12
993.006	2378.64
993.303	2360.11
993.6	2350.39
993.897	2376.38
994.193	2366.89
994.49	2310.17
994.787	2329.6
995.083	2300.67
995.379	2299.09
995.676	2295.7
995.972	2257.29
996.268	2239.88
996.565	2240.34
996.861	2205.31
997.157	2235.14
997.453	2222.48
997.749	2189.94
998.044	2183.84
998.34	2191.75
998.636	2185.87
998.932	2163.05
999.227	2161.47
999.523	2145.65
999.818	2116.27
1000.114	2085.54
1000.409	2108.59
1000.704	2069.72
1001	2086.44
1001.295	2111.53
1001.59	2064.07
1001.885	2036.05
1002.18	2026.33
1002.475	2032.66
1002.77	2029.49
1003.065	1992.66
1003.359	2001.02
1003.654	1994.47
1003.949	1938.88
1004.243	1947.24
1004.538	1935.71
1004.832	1927.35
1005.127	1931.87
1005.421	1915.15
1005.715	1893
1006.009	1903.4
1006.304	1905.43
1006.598	1878.99
1006.892	1874.47
1007.186	1861.36
1007.48	1827.47
1007.773	1839.44
1008.067	1848.03
1008.361	1811.42
1008.655	1782.95
1008.948	1775.26
1009.242	1786.56
1009.535	1799.67
1009.829	1769.16
1010.122	1758.99
1010.415	1737.52
1010.708	1727.58
1011.001	1733.91
1011.295	1732.78
1011.588	1733.91
1011.881	1705.66
1012.173	1675.61
1012.466	1671.09
1012.759	1630.18
1013.052	1621.82
1013.344	1627.7
1013.637	1648.26
1013.93	1624.53
1014.222	1610.75
1014.514	1636.51
1014.807	1622.95
1015.099	1597.42
1015.391	1578.89
1015.683	1566.23
1015.976	1577.08
1016.268	1567.36
1016.56	1535.04
1016.851	1534.37
1017.143	1539.11
1017.435	1524.88
1017.727	1486.91
1018.018	1499.79
1018.31	1500.47
1018.602	1462.96
1018.893	1460.47
1019.185	1455.95
1019.476	1469.51
1019.767	1418.44
1020.058	1432.9
1020.35	1445.1
1020.641	1377.08
1020.932	1408.49
1021.223	1439.45
1021.514	1355.84
1021.804	1381.15
1022.095	1356.29
1022.386	1372.79
1022.677	1346.8
1022.967	1309.06
1023.258	1336.86
1023.548	1330.53
1023.839	1316.07
1024.129	1297.76
1024.419	1302.28
1024.709	1275.62
1025	1309.06
1025.29	1294.6
1025.58	1283.07
1025.87	1235.17
1026.16	1253.47
1026.449	1237.65
1026.739	1230.87
1027.029	1230.19
1027.319	1216.41
1027.608	1219.35
1027.898	1208.27
1028.187	1209.86
1028.477	1203.75
1028.766	1194.49
1029.055	1163.08
1029.344	1172.34
1029.634	1176.86
1029.923	1151.33
1030.212	1144.32
1030.501	1145.22
1030.79	1123.53
1031.078	1113.59
1031.367	1126.02
1031.656	1131.44
1031.945	1113.13
1032.233	1098.22
1032.522	1091.21
1032.81	1072.91
1033.099	1092.34
1033.387	1049.86
1033.675	1063.64
1033.963	1057.09
1034.251	1049.86
1034.54	1066.13
1034.828	1031.78
1035.116	1006.92
1035.403	1028.17
1035.691	1020.48
1035.979	1032.01
1036.267	992.23
1036.554	967.38
1036.842	982.29
1037.129	973.03
1037.417	980.93
1037.704	982.52
1037.992	943.2
1038.279	968.28
1038.566	954.95
1038.853	954.95
1039.14	954.95
