Data from hue_70_FLMS001491_37.txt Node
Date: Mon Feb 06 15:20:46 GMT 2017
User: dcchb
Spectrometer: FLMS00149
Trigger mode: 0
Integration Time (sec): 2.000000E-2
Scans to average: 10
Electric dark correction enabled: true
Nonlinearity correction enabled: false
Boxcar width: 0
XAxis mode: Wavelengths
Number of Pixels in Spectrum: 2048
>>>>>Begin Spectral Data<<<<<
341.393	4.08
341.776	4.08
342.16	4.08
342.543	-76.37
342.927	-61.91
343.31	-74.33
343.693	-70.04
344.077	-54.9
344.46	-59.65
344.843	-59.65
345.226	-36.6
345.61	-24.84
345.993	-16.93
346.376	-1.79
346.759	27.58
347.142	34.59
347.525	41.82
347.908	36.85
348.291	59.67
348.674	76.4
349.057	121.82
349.44	152.55
349.823	145.77
350.206	144.64
350.588	201.36
350.971	198.65
351.354	227.35
351.737	231.42
352.119	256.05
352.502	271.19
352.884	267.58
353.267	288.14
353.65	287.46
354.032	295.83
354.414	304.64
354.797	313.9
355.179	313
355.562	345.99
355.944	328.59
356.326	329.95
356.709	370.63
357.091	344.41
357.473	339.21
357.855	343.06
358.238	357.97
358.62	343.06
359.002	348.25
359.384	337.41
359.766	342.83
360.148	337.18
360.53	331.53
360.912	332.43
361.294	342.83
361.676	339.67
362.057	350.51
362.439	340.8
362.821	331.3
363.203	305.09
363.584	318.42
363.966	336.28
364.348	336.28
364.729	320.91
365.111	313.23
365.493	318.88
365.874	343.06
366.256	347.8
366.637	298.99
367.019	307.8
367.4	334.02
367.781	307.35
368.163	336.28
368.544	305.54
368.925	321.59
369.306	328.37
369.688	331.3
370.069	311.64
370.45	326.56
370.831	311.42
371.212	314.13
371.593	324.98
371.974	310.97
372.355	302.15
372.736	308.03
373.117	335.82
373.498	331.98
373.879	295.15
374.26	321.14
374.641	322.72
375.021	310.29
375.402	321.14
375.783	313.23
376.163	336.73
376.544	333.34
376.925	337.86
377.305	326.33
377.686	320.46
378.066	341.93
378.447	312.55
378.827	328.82
379.208	311.19
379.588	317.29
379.968	343.51
380.349	339.21
380.729	321.81
381.109	341.25
381.489	333.34
381.87	337.41
382.25	324.53
382.63	345.77
383.01	348.03
383.39	349.38
383.77	345.54
384.15	340.57
384.53	346.67
384.91	323.85
385.29	348.48
385.67	340.12
386.049	354.81
386.429	344.19
386.809	348.93
387.189	371.98
387.568	363.17
387.948	354.36
388.328	362.49
388.707	348.71
389.087	345.99
389.466	360.91
389.846	360
390.225	363.39
390.605	368.14
390.984	359.78
391.363	372.43
391.743	353.68
392.122	355.71
392.501	368.82
392.881	368.14
393.26	380.8
393.639	360.68
394.018	366.11
394.397	382.38
394.776	359.33
395.155	368.82
395.534	368.59
395.913	364.07
396.292	377.63
396.671	373.11
397.05	376.28
397.429	377.86
397.808	381.47
398.186	379.89
398.565	385.99
398.944	369.04
399.323	382.38
399.701	389.83
400.08	380.34
400.458	388.48
400.837	381.7
401.215	382.6
401.594	379.67
401.972	381.7
402.351	389.61
402.729	390.06
403.107	400.23
403.486	405.2
403.864	402.72
404.242	384.64
404.62	396.84
404.999	411.53
405.377	413.79
405.755	406.78
406.133	409.95
406.511	382.6
406.889	427.8
407.267	402.72
407.645	394.13
408.023	432.09
408.401	415.6
408.779	432.09
409.156	415.14
409.534	412.88
409.912	432.09
410.29	457.18
410.667	432.55
411.045	411.98
411.422	436.39
411.8	462.37
412.178	453.56
412.555	441.58
412.933	423.96
413.31	445.2
413.687	462.37
414.065	458.08
414.442	452.43
414.819	450.4
415.197	466.89
415.574	464.86
415.951	482.71
416.328	464.18
416.705	464.63
417.082	481.13
417.46	469.61
417.837	474.8
418.214	473.9
418.591	502.83
418.967	486.33
419.344	475.03
419.721	503.28
420.098	510.96
420.475	509.61
420.852	527.46
421.228	514.58
421.605	502.6
421.982	481.13
422.358	505.76
422.735	517.74
423.111	505.76
423.488	513.9
423.864	512.09
424.241	533.33
424.617	527.68
424.994	525.2
425.37	531.98
425.746	534.46
426.123	532.43
426.499	534.46
426.875	544.18
427.251	561.81
427.627	549.15
428.003	559.77
428.379	563.16
428.756	543.73
429.132	564.97
429.507	573.33
429.883	580.34
430.259	589.83
430.635	582.15
431.011	597.96
431.387	583.5
431.763	608.13
432.138	599.77
432.514	618.08
432.89	599.32
433.265	625.76
433.641	614.91
434.016	608.13
434.392	615.37
434.767	613.33
435.143	650.39
435.518	630.73
435.894	666.21
436.269	654.01
436.644	678.19
437.02	652.43
437.395	636.38
437.77	674.35
438.145	665.99
438.52	677.28
438.895	680.22
439.271	664.63
439.646	682.26
440.021	687.91
440.395	693.1
440.77	672.54
441.145	720.9
441.52	703.72
441.895	697.62
442.27	717.28
442.645	717.51
443.019	717.74
443.394	728.58
443.769	737.85
444.143	732.42
444.518	752.76
444.892	751.86
445.267	755.7
445.641	748.24
446.016	777.39
446.39	760.9
446.764	774.68
447.139	794.8
447.513	780.78
447.887	769.03
448.262	754.12
448.636	753.21
449.01	744.85
449.384	814.23
449.758	800.9
450.132	793.67
450.506	795.7
450.88	799.99
451.254	825.3
451.628	828.69
452.002	817.39
452.376	809.48
452.75	845.19
453.123	825.53
453.497	839.31
453.871	854
454.244	847.9
454.618	860.56
454.992	880.44
455.365	896.26
455.739	891.52
456.112	907.56
456.486	915.92
456.859	914.57
457.232	936.03
457.606	918.18
457.979	954.57
458.352	967.45
458.725	972.87
459.099	957.05
459.472	996.82
459.845	1016.26
460.218	993.43
460.591	1015.81
460.964	1025.98
461.337	1049.25
461.71	1060.55
462.083	1059.87
462.456	1070.72
462.829	1100.32
463.201	1119.08
463.574	1116.14
463.947	1136.71
464.32	1142.81
464.692	1145.29
465.065	1159.53
465.438	1168.12
465.81	1173.09
466.183	1181.45
466.555	1221.68
466.928	1255.35
467.3	1264.61
467.672	1272.52
468.045	1302.35
468.417	1314.78
468.789	1301.9
469.161	1350.49
469.534	1340.54
469.906	1402.69
470.278	1405.4
470.65	1440.88
471.022	1475.46
471.394	1489.92
471.766	1516.36
472.138	1554.32
472.51	1557.94
472.882	1619.41
473.253	1637.94
473.625	1680.2
473.997	1738.73
474.369	1735.56
474.74	1788.89
475.112	1825.73
475.484	1862.34
475.855	1909.57
476.227	1932.84
476.598	1992.5
476.97	2020.98
477.341	2105.27
477.713	2137.59
478.084	2192.72
478.455	2249.9
478.827	2300.74
479.198	2397.01
479.569	2402.44
479.94	2520.85
480.311	2582.55
480.682	2644.01
481.053	2766.27
481.424	2799.26
481.795	2873.61
482.166	2971.91
482.537	3035.64
482.908	3160.16
483.279	3212.13
483.65	3307.95
484.021	3457.32
484.391	3520.6
484.762	3589.3
485.133	3669.97
485.503	3795.62
485.874	3886.24
486.244	4025.9
486.615	4122.17
486.985	4192.22
487.356	4401.48
487.726	4474.02
488.097	4645.09
488.467	4714.01
488.837	4851.41
489.207	4948.36
489.578	5086.43
489.948	5204.62
490.318	5320.33
490.688	5360.55
491.058	5564.39
491.428	5760.31
491.798	5812.29
492.168	5995.79
492.538	6142.23
492.908	6255.22
493.278	6363.69
493.648	6515.55
494.017	6696.11
494.387	6822.89
494.757	6897.46
495.126	7127.28
495.496	7206.38
495.866	7324.57
496.235	7484.79
496.605	7639.14
496.974	7711.22
497.344	7925
497.713	8020.37
498.082	8167.93
498.452	8299.23
498.821	8451.32
499.19	8570.41
499.559	8728.82
499.928	8774.02
500.298	8870.29
500.667	9114.12
501.036	9141.69
501.405	9308.02
501.774	9381.69
502.143	9582.59
502.512	9661
502.88	9750.04
503.249	9821
503.618	10025.51
503.987	10109.8
504.356	10264.83
504.724	10304.83
505.093	10478.38
505.462	10531.04
505.83	10718.38
506.199	10820.97
506.567	10945.04
506.936	11142.32
507.304	11224.58
507.672	11255.31
508.041	11423.22
508.409	11556.32
508.777	11608.75
509.145	11692.36
509.514	11781.4
509.882	11954.28
510.25	12071.11
510.618	12118.34
510.986	12168.96
511.354	12360.37
511.722	12605.78
512.09	12670.64
512.458	12707.25
512.826	12884.87
513.193	12919.45
513.561	12954.93
513.929	13081.03
514.297	13261.36
514.664	13271.3
515.032	13386.1
515.4	13507.23
515.767	13593.78
516.135	13620.45
516.502	13633.33
516.869	13901.8
517.237	13949.93
517.604	13889.59
517.972	14036.26
518.339	14183.82
518.706	14180.43
519.073	14295.46
519.44	14392.63
519.808	14610.25
520.175	14567.54
520.542	14746.29
520.909	14865.61
521.276	14874.2
521.643	15065.61
522.009	15152.84
522.376	15245.71
522.743	15273.96
523.11	15366.16
523.477	15647.74
523.843	15569.32
524.21	15818.81
524.577	15789.66
524.943	15995.53
525.31	15987.62
525.676	16076.2
526.043	16186.26
526.409	16294.27
526.776	16437.55
527.142	16432.58
527.508	16510.09
527.874	16570.2
528.241	16726.58
528.607	16706.47
528.973	16902.85
529.339	16900.81
529.705	17108.72
530.071	17140.81
530.437	17118.89
530.803	17289.73
531.169	17268.94
531.535	17422.83
531.901	17331.54
532.267	17378.09
532.632	17549.16
532.998	17553.68
533.364	17686.78
533.73	17599.78
534.095	17775.59
534.461	17803.39
534.826	17945.3
535.192	17947.34
535.557	18010.39
535.923	18035.7
536.288	18074.12
536.653	18168.58
537.019	18069.37
537.384	18179.42
537.749	18238.86
538.114	18255.35
538.479	18182.13
538.845	18239.08
539.21	18252.64
539.575	18375.58
539.94	18376.03
540.305	18423.48
540.67	18409.93
541.034	18432.98
541.399	18397.5
541.764	18511.84
542.129	18610.37
542.494	18591.84
542.858	18616.02
543.223	18651.5
543.587	18659.18
543.952	18632.97
544.316	18703.25
544.681	18680.88
545.045	18736.7
545.41	18801.1
545.774	18849.69
546.138	18823.93
546.503	18820.08
546.867	18832.06
547.231	18940.76
547.595	18930.82
547.959	18937.6
548.324	18980.08
548.688	18926.75
549.052	19066.41
549.416	18994.77
549.779	18934.21
550.143	18958.16
550.507	19115.67
550.871	19185.05
551.235	19073.64
551.599	19255.78
551.962	19223.92
552.326	19314.31
552.689	19294.2
553.053	19268.66
553.417	19302.11
553.78	19414.64
554.143	19342.1
554.507	19461.42
554.87	19510.69
555.234	19579.61
555.597	19473.63
555.96	19557.92
556.323	19620.52
556.686	19616.45
557.05	19829.78
557.413	19679.95
557.776	19736.9
558.139	19810.57
558.502	19819.15
558.865	19835.65
559.228	19891.02
559.59	20034.06
559.953	20029.09
560.316	20198.35
560.679	20078.36
561.041	20225.25
561.404	20336.43
561.767	20322.64
562.129	20323.1
562.492	20395.86
562.854	20522.41
563.217	20534.16
563.579	20566.03
563.941	20669.3
564.304	20733.48
564.666	20856.64
565.028	20856.41
565.39	20811.67
565.753	20916.07
566.115	20996.52
566.477	21085.34
566.839	21146.58
567.201	21182.51
567.563	21189.51
567.925	21342.96
568.287	21448.26
568.648	21371.43
569.01	21511.99
569.372	21621.14
569.734	21609.84
570.095	21684.42
570.457	21735.04
570.819	21769.16
571.18	21849.61
571.542	21876.95
571.903	21934.13
572.265	21954.92
572.626	22044.86
572.987	22002.37
573.349	22119.43
573.71	22082.6
574.071	22171.41
574.432	22144.97
574.794	22362.14
575.155	22402.14
575.516	22235.36
575.877	22350.61
576.238	22361.69
576.599	22419.76
576.96	22400.56
577.32	22394
577.681	22507.44
578.042	22600.1
578.403	22658.63
578.763	22652.98
579.124	22658.85
579.485	22594.45
579.845	22753.99
580.206	22702.92
580.566	22612.75
580.927	22746.76
581.287	22820.43
581.648	22779.08
582.008	22751.28
582.368	22807.1
582.728	22807.1
583.089	22829.24
583.449	22803.26
583.809	22756.93
584.169	22851.84
584.529	22767.1
584.889	22916.93
585.249	22721.22
585.609	22801.45
585.969	22911.95
586.329	22896.14
586.688	22896.36
587.048	22950.6
587.408	22801
587.768	22791.73
588.127	22843.26
588.487	22711.73
588.846	22993.53
589.206	22758.06
589.565	22830.37
589.925	22940.2
590.284	22901.56
590.643	22942.91
591.003	22944.04
591.362	22915.12
591.721	22871.96
592.08	22876.93
592.44	23007.09
592.799	22950.6
593.158	22860.2
593.517	22932.07
593.876	22909.02
594.235	22999.41
594.593	22882.35
594.952	23038.96
595.311	22927.77
595.67	22885.29
596.029	23081.44
596.387	23027.66
596.746	23062.46
597.104	22932.74
597.463	23024.04
597.822	23008.45
598.18	22909.24
598.538	22874.21
598.897	23009.13
599.255	22893.65
599.613	23132.29
599.972	23117.6
600.33	23022.69
600.688	22997.15
601.046	23118.28
601.404	23136.35
601.762	23051.84
602.12	23251.61
602.478	23121.44
602.836	23231.04
603.194	23078.73
603.552	23246.86
603.91	23215.9
604.268	23344.26
604.625	23227.2
604.983	23342.45
605.341	23106.53
605.698	23318.27
606.056	23363.24
606.413	23322.79
606.771	23367.08
607.128	23417.7
607.485	23285.96
607.843	23361.89
608.2	23516.68
608.557	23608.21
608.914	23405.95
609.272	23629.22
609.629	23622.67
609.986	23738.82
610.343	23651.6
610.7	23737.24
611.057	23771.59
611.414	23660.41
611.771	23753.06
612.127	23819.5
612.484	23800.07
612.841	23925.94
613.198	23886.62
613.554	23872.38
613.911	23944.92
614.267	23994.41
614.624	23849.56
614.98	24086.16
615.337	24191.92
615.693	24069.89
616.05	23973.85
616.406	24288.87
616.762	24044.58
617.118	24162.32
617.475	24132.03
617.831	24234.86
618.187	24208.64
618.543	24190.11
618.899	24418.36
619.255	24248.42
619.611	24363.89
619.967	24360.28
620.323	24423.1
620.678	24263.33
621.034	24288.64
621.39	24419.94
621.746	24353.95
622.101	24623.55
622.457	24466.26
622.812	24529.99
623.168	24528.41
623.523	24453.61
623.879	24548.07
624.234	24365.48
624.589	24583.1
624.945	24545.58
625.3	24607.95
625.655	24564.57
626.01	24489.77
626.365	24577.45
626.72	24539.71
627.075	24543.32
627.43	24538.58
627.785	24539.48
628.14	24579.71
628.495	24613.6
628.85	24506.94
629.205	24461.07
629.559	24719.36
629.914	24485.47
630.269	24555.3
630.623	24460.84
630.978	24501.97
631.332	24649.08
631.687	24562.76
632.041	24439.6
632.396	24485.25
632.75	24322.09
633.104	24472.59
633.459	24299.71
633.813	24317.11
634.167	24347.85
634.521	24293.84
634.875	24357.79
635.229	24384.68
635.583	24244.8
635.937	24283.22
636.291	24268.98
636.645	24285.7
636.999	24254.74
637.352	24171.81
637.706	24017.46
638.06	24202.77
638.413	24077.8
638.767	24028.31
639.121	24014.3
639.474	24009.78
639.828	24041.19
640.181	24006.61
640.534	24022.89
640.888	24025.37
641.241	23879.61
641.594	24019.04
641.947	23992.83
642.301	23936.33
642.654	23868.99
643.007	23920.29
643.36	23969.1
643.713	23838.26
644.066	23904.7
644.419	23790.12
644.771	23666.06
645.124	23283.24
645.477	23363.02
645.83	23364.6
646.182	23288.22
646.535	23040.54
646.888	23083.93
647.24	22961.22
647.593	23178.61
647.945	23031.05
648.298	22834.44
648.65	23029.24
649.002	22807.78
649.355	23120.31
649.707	22945.17
650.059	23010.93
650.411	23289.57
650.763	23255.9
651.115	23566.4
651.467	23457.7
651.819	23492.28
652.171	23408.89
652.523	23394.43
652.875	23403.01
653.227	23237.14
653.578	23462.22
653.93	23350.13
654.282	23341.32
654.633	23099.29
654.985	23340.42
655.337	23532.05
655.688	23464.93
656.039	23541.54
656.391	23249.57
656.742	23349.68
657.094	23278.95
657.445	23401.66
657.796	23370.25
658.147	23310.14
658.498	23290.7
658.849	23363.69
659.2	23241.66
659.551	23211.83
659.902	23287.09
660.253	23336.58
660.604	23412.73
660.955	23252.96
661.306	23350.59
661.656	23361.43
662.007	23378.38
662.358	23242.11
662.708	23275.33
663.059	23263.81
663.409	23139.52
663.76	23350.13
664.11	23300.87
664.461	23396.69
664.811	23257.48
665.161	23311.04
665.511	23309.68
665.862	23332.51
666.212	23385.16
666.562	23291.15
666.912	23282.57
667.262	23133.87
667.612	23148.78
667.962	23210.03
668.312	23295.22
668.662	23338.16
669.011	23314.43
669.361	23231.04
669.711	23361.21
670.06	23251.15
670.41	23114.89
670.76	23098.16
671.109	23237.14
671.459	23259.97
671.808	23273.75
672.157	23192.4
672.507	23184.72
672.856	23092.74
673.205	23163.7
673.554	23135.45
673.904	23112.85
674.253	23157.6
674.602	23151.95
674.951	22840.32
675.3	22682.58
675.649	23028.11
675.998	22890.49
676.346	22950.6
676.695	23111.04
677.044	22926.64
677.393	23001.67
677.741	23059.52
678.09	22969.13
678.438	22857.04
678.787	22894.55
679.135	22846.65
679.484	22650.72
679.832	22901.78
680.181	22714.45
680.529	22806.19
680.877	22690.94
681.225	22627.89
681.573	22826.53
681.922	22592.41
682.27	22541.34
682.618	22652.75
682.966	22488.24
683.314	22616.59
683.661	22412.31
684.009	22364.85
684.357	22301.35
684.705	22391.52
685.053	22306.09
685.4	22298.86
685.748	22137.06
686.095	22076.04
686.443	22076.5
686.79	22044.86
687.138	22005.76
687.485	21878.99
687.832	21871.53
688.18	21920.57
688.527	21834.47
688.874	21614.81
689.221	21723.51
689.568	21769.61
689.915	21637.86
690.262	21608.03
690.609	21451.2
690.956	21444.87
691.303	21450.98
691.65	21318.55
691.997	21333.69
692.344	21274.26
692.69	21157.2
693.037	21178.67
693.383	20904.55
693.73	21069.06
694.077	20984.1
694.423	20909.97
694.769	20794.04
695.116	20839.92
695.462	20779.13
695.808	20754.72
696.155	20650.77
696.501	20486.93
696.847	20583.65
697.193	20380.04
697.539	20470.66
697.885	20335.3
698.231	20185.7
698.577	20148.41
698.923	20193.83
699.269	20021.63
699.614	19915.2
699.96	19909.77
700.306	19893.5
700.651	19759.72
700.997	19695.54
701.342	19574.87
701.688	19696.22
702.033	19575.77
702.379	19571.02
702.724	19482.21
703.069	19524.47
703.415	19284.25
703.76	19301.2
704.105	19361.76
704.45	19154.31
704.795	19120.64
705.14	19084.48
705.485	18999.74
705.83	18919.97
706.175	18975.56
706.52	18982.34
706.865	18853.08
707.209	18796.13
707.554	18704.16
707.899	18737.15
708.243	18649.24
708.588	18649.69
708.932	18452.64
709.277	18456.03
709.621	18469.81
709.966	18444.27
710.31	18361.57
710.654	18145.53
710.998	18362.02
711.342	18218.29
711.687	18209.03
712.031	18082.7
712.375	18032.53
712.719	18017.62
713.063	18046.77
713.407	18030.5
713.75	17916.15
714.094	17952.99
714.438	17868.24
714.782	17940.11
715.125	17747.8
715.469	17793.9
715.812	17744.86
716.156	17665.54
716.499	17618.99
716.843	17760
717.186	17573.11
717.53	17538.99
717.873	17655.37
718.216	17590.51
718.559	17496.28
718.902	17430.74
719.246	17429.61
719.589	17318.2
719.932	17306.45
720.275	17306.23
720.617	17266
720.96	17237.98
721.303	17225.32
721.646	17224.87
721.989	17054.25
722.331	17129.28
722.674	17121.15
723.016	17131.32
723.359	17070.53
723.701	17136.51
724.044	17024.43
724.386	16925.67
724.729	16999.34
725.071	16900.59
725.413	17039.57
725.755	16943.3
726.097	16914.82
726.439	16733.36
726.782	16809.29
727.124	16935.84
727.465	16810.65
727.807	16840.48
728.149	16706.92
728.491	16705.56
728.833	16779.46
729.175	16663.76
729.516	16703.76
729.858	16624.21
730.199	16677.09
730.541	16652.68
730.882	16606.81
731.224	16684.55
731.565	16539.24
731.906	16603.42
732.248	16548.28
732.589	16570.65
732.93	16522.74
733.271	16487.04
733.612	16464.21
733.953	16581.27
734.294	16395.97
734.635	16428.51
734.976	16522.74
735.317	16470.77
735.658	16484.55
735.999	16402.75
736.339	16356.87
736.68	16471.9
737.021	16395.74
737.361	16308.74
737.702	16445.23
738.042	16454.5
738.383	16334.05
738.723	16397.32
739.063	16241.17
739.404	16398.23
739.744	16348.51
740.084	16291.56
740.424	16341.73
740.764	16282.98
741.104	16424.44
741.444	16295.18
741.784	16239.14
742.124	16266.48
742.464	16191.23
742.804	16280.72
743.143	16380.37
743.483	16259.02
743.823	16269.64
744.162	16314.39
744.502	16434.38
744.841	16277.55
745.181	16410.66
745.52	16350.09
745.86	16335.63
746.199	16358.23
746.538	16434.61
746.877	16463.08
747.216	16465.8
747.556	16519.35
747.895	16506.02
748.234	16508.73
748.573	16525.91
748.911	16549.41
749.25	16663.3
749.589	16575.85
749.928	16648.39
750.267	16741.49
750.605	16816.52
750.944	16761.38
751.283	16739.46
751.621	16825.11
751.96	16889.29
752.298	16952.79
752.636	16911.89
752.975	17000.25
753.313	17090.64
753.651	17201.6
753.989	17107.59
754.327	17226.45
754.666	17181.26
755.004	17376.73
755.342	17353.46
755.679	17441.14
756.017	17492.89
756.355	17577.18
756.693	17521.14
757.031	17668.7
757.368	17691.53
757.706	17809.94
758.044	17774.91
758.381	17937.85
758.719	17927.68
759.056	17954.12
759.394	17992.08
759.731	18022.37
760.068	18135.36
760.405	18145.07
760.743	18173.32
761.08	18309.82
761.417	18290.15
761.754	18373.32
762.091	18303.94
762.428	18340.77
762.765	18280.89
763.102	18473.43
763.438	18360.44
763.775	18412.86
764.112	18528.11
764.449	18607.21
764.785	18568.79
765.122	18538.06
765.458	18600.88
765.795	18671.39
766.131	18673.87
766.467	18613.76
766.804	18651.5
767.14	18609.24
767.476	18803.36
767.812	18581.22
768.148	18734.66
768.485	18693.08
768.821	18646.53
769.157	18747.09
769.492	18661.9
769.828	18694.89
770.164	18669.81
770.5	18656.02
770.836	18642.24
771.171	18626.64
771.507	18587.77
771.842	18539.87
772.178	18622.12
772.513	18607.66
772.849	18561.56
773.184	18533.99
773.519	18573.09
773.855	18416.25
774.19	18463.03
774.525	18441.34
774.86	18381
775.195	18415.35
775.53	18305.07
775.865	18284.51
776.2	18192.08
776.535	18042.48
776.87	18135.36
777.205	18030.5
777.539	17995.25
777.874	17982.14
778.209	17873.44
778.543	18048.35
778.878	17865.99
779.212	17783.05
779.547	17767.91
779.881	17742.6
780.215	17708.25
780.55	17753.9
780.884	17602.72
781.218	17580.12
781.552	17616.95
781.886	17496.96
782.22	17497.18
782.554	17411.08
782.888	17187.81
783.222	17225.32
783.556	17130.19
783.889	17129.73
784.223	17072.33
784.557	17016.97
784.89	17035.95
785.224	17000.47
785.557	16845.22
785.891	16762.96
786.224	16817.88
786.558	16736.52
786.891	16624.66
787.224	16551.22
787.557	16540.14
787.891	16611.33
788.224	16460.6
788.557	16526.59
788.89	16479.81
789.223	16378.11
789.556	16342.64
789.888	16343.99
790.221	16202.3
790.554	16156.43
790.887	16183.54
791.219	16135.64
791.552	16014.51
791.884	15999.14
792.217	15954.85
792.549	15924.34
792.882	15752.14
793.214	15684.35
793.546	15741.3
793.879	15614.07
794.211	15598.02
794.543	15653.16
794.875	15494.3
795.207	15625.37
795.539	15436.9
795.871	15445.26
796.203	15243.68
796.535	15248.88
796.867	15231.03
797.198	15148.54
797.53	15125.27
797.862	14993.29
798.193	15074.65
798.525	14984.03
798.856	15060.18
799.188	14817.03
799.519	14807.53
799.85	14795.11
800.182	14775.67
800.513	14766.63
800.844	14670.14
801.175	14751.26
801.506	14724.82
801.837	14606.41
802.168	14544.04
802.499	14463.81
802.83	14450.71
803.161	14440.31
803.491	14404.16
803.822	14427.43
804.153	14329.81
804.483	14180.88
804.814	14126.2
805.145	14203.71
805.475	14120.77
805.805	14044.84
806.136	14094.33
806.466	14045.52
806.796	13986.54
807.126	13836.49
807.457	13854.11
807.787	13889.37
808.117	13837.39
808.447	13778.86
808.777	13714.91
809.107	13816.37
809.436	13668.36
809.766	13719.43
810.096	13589.26
810.426	13546.78
810.755	13583.61
811.085	13554.91
811.414	13518.3
811.744	13451.64
812.073	13378.65
812.403	13363.5
812.732	13190.85
813.061	13293
813.39	13222.04
813.719	13144.53
814.049	13247.8
814.378	13189.72
814.707	13123.28
815.036	13119.9
815.365	13109.05
815.693	13011.65
816.022	12977.07
816.351	13005.32
816.68	12913.57
817.008	12913.35
817.337	12822.28
817.665	12799.45
817.994	12769.85
818.322	12735.27
818.651	12757.42
818.979	12624.99
819.307	12715.39
819.636	12707.93
819.964	12563.07
820.292	12616.63
820.62	12592.9
820.948	12456.64
821.276	12657.08
821.604	12511.78
821.932	12556.75
822.259	12619.57
822.587	12551.1
822.915	12536.86
823.243	12548.16
823.57	12509.06
823.898	12510.19
824.225	12459.12
824.553	12493.47
824.88	12548.38
825.207	12514.94
825.535	12532.57
825.862	12573.47
826.189	12545.22
826.516	12527.82
826.843	12644.2
827.17	12531.44
827.497	12566.01
827.824	12549.74
828.151	12551.1
828.478	12509.52
828.805	12523.07
829.131	12488.73
829.458	12517.43
829.785	12448.27
830.111	12490.76
830.438	12501.15
830.764	12512.45
831.09	12542.74
831.417	12396.3
831.743	12427.71
832.069	12455.73
832.395	12381.16
832.722	12427.71
833.048	12387.94
833.374	12342.06
833.7	12279.92
834.026	12467.03
834.351	12381.61
834.677	12298.9
835.003	12272.01
835.329	12404.66
835.654	12328.96
835.98	12339.35
836.306	12282.86
836.631	12221.16
836.956	12239.69
837.282	12255.96
837.607	12152.24
837.932	12145.46
838.258	12124.22
838.583	12156.3
838.908	12205.34
839.233	12117.21
839.558	12051.22
839.883	11982.75
840.208	11965.58
840.533	12014.61
840.858	12035.18
841.182	12001.73
841.507	11992.92
841.832	11963.77
842.156	11823.43
842.481	11807.39
842.805	11875.41
843.13	11891
843.454	11805.35
843.778	11796.77
844.103	11763.32
844.427	11726.26
844.751	11731.23
845.075	11729.88
845.399	11644.45
845.723	11595.42
846.047	11574.4
846.371	11412.14
846.695	11491.24
847.019	11385.03
847.343	11384.57
847.666	11261.41
847.99	11290.79
848.313	11278.14
848.637	11188.65
848.96	11144.81
849.284	11051.47
849.607	11107.52
849.931	11060.51
850.254	10921.76
850.577	10889.22
850.9	10818.03
851.223	10907.75
851.546	10827.07
851.869	10692.84
852.192	10719.96
852.515	10594.76
852.838	10590.47
853.161	10632.28
853.483	10587.08
853.806	10531.71
854.129	10543.24
854.451	10448.78
854.774	10398.84
855.096	10377.59
855.419	10401.1
855.741	10272.51
856.063	10241.33
856.385	10237.49
856.708	10174.21
857.03	10175.11
857.352	10239.97
857.674	10145.96
857.996	10153.42
858.318	10026.64
858.64	10080.65
858.961	10004.5
859.283	9947.78
859.605	9890.6
859.926	9969.47
860.248	9929.92
860.57	9852.18
860.891	9872.52
861.212	9804.28
861.534	9808.34
861.855	9762.7
862.176	9803.15
862.498	9805.86
862.819	9792.3
863.14	9699.19
863.461	9664.62
863.782	9666.2
864.103	9666.65
864.424	9679.31
864.745	9634.56
865.065	9566.54
865.386	9474.79
865.707	9540.1
866.027	9540.1
866.348	9549.14
866.668	9542.81
866.989	9527
867.309	9442.48
867.63	9479.31
867.95	9409.94
868.27	9396.6
868.59	9430.05
868.91	9358.64
869.23	9362.03
869.55	9332.2
869.87	9354.34
870.19	9352.76
870.51	9331.75
870.83	9241.13
871.15	9266.44
871.469	9295.59
871.789	9322.93
872.109	9231.86
872.428	9235.48
872.748	9225.76
873.067	9217.4
873.386	9187.12
873.706	9245.65
874.025	9135.37
874.344	9161.58
874.663	9174.91
874.982	9082.94
875.301	9067.8
875.62	9050.85
875.939	9058.76
876.258	9039.32
876.577	8998.2
876.896	8998.65
877.214	9018.08
877.533	8982.15
877.852	8951.19
878.17	8944.19
878.489	8961.36
878.807	8909.84
879.125	8952.1
879.444	8851.53
879.762	8863.74
880.08	8888.14
880.398	8847.92
880.716	8887.24
881.034	8774.02
881.352	8868.03
881.67	8797.97
881.988	8767.47
882.306	8744.64
882.624	8773.12
882.941	8688.6
883.259	8596.17
883.577	8681.37
883.894	8601.6
884.212	8650.41
884.529	8616.28
884.846	8541.03
885.164	8580.58
885.481	8586.68
885.798	8538.55
886.115	8457.19
886.432	8461.49
886.75	8436.18
887.067	8477.53
887.383	8385.1
887.7	8427.59
888.017	8414.26
888.334	8339.23
888.651	8308.04
888.967	8353.24
889.284	8241.38
889.6	8243.64
889.917	8190.53
890.233	8214.94
890.55	8185.34
890.866	8124.09
891.182	8103.53
891.498	8129.74
891.815	8141.04
892.131	8057.66
892.447	8050.42
892.763	7981.73
893.079	8017.2
893.395	7969.3
893.71	7931.56
894.026	7969.3
894.342	7906.47
894.657	7889.3
894.973	7865.34
895.289	7861.95
895.604	7834.38
895.92	7808.85
896.235	7766.14
896.55	7709.19
896.865	7741.05
897.181	7700.15
897.496	7685.91
897.811	7675.97
898.126	7645.01
898.441	7606.37
898.756	7574.96
899.071	7528.4
899.386	7535.64
899.7	7484.56
900.015	7420.84
900.33	7371.57
900.644	7392.59
900.959	7416.54
901.273	7332.48
901.588	7306.49
901.902	7254.29
902.216	7264
902.531	7282.53
902.845	7225.36
903.159	7179.71
903.473	7219.03
903.787	7107.4
904.101	7074.86
904.415	7088.19
904.729	7056.33
905.042	6997.57
905.356	7000.73
905.67	6966.61
905.984	6911.24
906.297	6912.83
906.611	6927.52
906.924	6866.5
907.237	6875.54
907.551	6836.44
907.864	6791.25
908.177	6783.56
908.491	6746.96
908.804	6710.57
909.117	6718.03
909.43	6684.81
909.743	6604.81
910.056	6644.36
910.368	6560.75
910.681	6539.73
910.994	6491.82
911.307	6496.11
911.619	6488.66
911.932	6483.69
912.244	6408.89
912.557	6400.75
912.869	6351.26
913.181	6337.93
913.494	6317.14
913.806	6289.34
914.118	6237.59
914.43	6195.11
914.742	6197.37
915.054	6167.08
915.366	6218.83
915.678	6195.56
915.99	6153.3
916.302	6098.38
916.613	6134.77
916.925	6020.42
917.236	6062.23
917.548	6004.6
917.859	6020.65
918.171	5982
918.482	5956.24
918.794	5933.19
919.105	5947.65
919.416	5876.47
919.727	5850.48
920.038	5783.59
920.349	5799.41
920.66	5755.12
920.971	5719.41
921.282	5675.57
921.593	5675.8
921.903	5644.39
922.214	5624.72
922.525	5573.88
922.835	5550.15
923.146	5589.02
923.456	5516.25
923.767	5517.38
924.077	5531.39
924.387	5450.94
924.697	5434.45
925.008	5444.39
925.318	5428.35
925.628	5394.67
925.938	5386.77
926.248	5340.89
926.558	5299.54
926.867	5315.35
927.177	5261.8
927.487	5244.4
927.796	5221.8
928.106	5194.23
928.416	5159.65
928.725	5173.44
929.034	5149.26
929.344	5217.05
929.653	5137.05
929.962	5127.34
930.271	5061.58
930.581	5034.01
930.89	5029.03
931.199	5027.23
931.508	5026.77
931.817	4939.55
932.125	4942.94
932.434	4934.35
932.743	4888.02
933.051	4836.05
933.36	4846.89
933.669	4812.32
933.977	4768.02
934.286	4775.26
934.594	4768.02
934.902	4741.58
935.21	4779.1
935.519	4697.97
935.827	4658.87
936.135	4626.56
936.443	4654.36
936.751	4618.2
937.059	4631.53
937.367	4598.54
937.674	4611.42
937.982	4559.22
938.29	4514.47
938.597	4536.62
938.905	4451.42
939.213	4443.29
939.52	4457.98
939.827	4500.69
940.135	4423.85
940.442	4371.42
940.749	4366
941.056	4329.39
941.363	4364.87
941.67	4298.66
941.977	4323.06
942.284	4243.29
942.591	4307.02
942.898	4289.62
943.205	4249.39
943.511	4242.39
943.818	4199.9
944.125	4224.54
944.431	4173.24
944.738	4188.6
945.044	4122.62
945.35	4103.41
945.657	4078.1
945.963	4099.34
946.269	4066.57
946.575	4021.83
946.881	4049.4
947.187	4021.6
947.493	3986.12
947.799	3981.15
948.105	3956.97
948.41	3930.08
948.716	3928.27
949.022	3863.19
949.327	3902.28
949.633	3896.63
949.938	3867.48
950.244	3866.81
950.549	3854.83
950.854	3824.32
951.16	3832.91
951.465	3781.84
951.77	3787.94
952.075	3757.2
952.38	3725.57
952.685	3699.8
952.99	3672.69
953.294	3701.16
953.599	3657.77
953.904	3659.13
954.209	3655.29
954.513	3601.95
954.818	3622.74
955.122	3611.9
955.426	3577.1
955.731	3556.08
956.035	3555.17
956.339	3508.4
956.643	3516.76
956.948	3525.35
957.252	3489.19
957.556	3455.29
957.86	3474.95
958.163	3442.18
958.467	3408.29
958.771	3423.65
959.075	3435.4
959.378	3368.74
959.682	3352.92
959.985	3348.85
960.289	3359.7
960.592	3345.24
960.896	3322.41
961.199	3307.5
961.502	3285.35
961.805	3269.31
962.108	3240.83
962.411	3242.41
962.714	3184.56
963.017	3199.7
963.32	3220.95
963.623	3158.58
963.926	3169.2
964.228	3120.61
964.531	3154.28
964.833	3115.64
965.136	3109.31
965.438	3081.97
965.741	3065.47
966.043	3087.84
966.345	3058.92
966.648	3051.23
966.95	3077.22
967.252	3034.74
967.554	3022.76
967.856	3000.16
968.158	2982.53
968.46	3015.98
968.761	3001.97
969.063	2974.63
969.365	2943.21
969.666	2933.5
969.968	2901.63
970.269	2893.05
970.571	2870.45
970.872	2892.82
971.174	2840.17
971.475	2835.65
971.776	2830.9
972.077	2830.9
972.378	2809.66
972.679	2788.64
972.98	2767.17
973.281	2797.68
973.582	2781.86
973.883	2747.06
974.183	2739.6
974.484	2737.12
974.785	2749.77
975.085	2707.97
975.386	2713.39
975.686	2665.71
975.986	2684.46
976.287	2674.75
976.587	2668.87
976.887	2646.05
977.187	2660.74
977.487	2649.89
977.787	2599.49
978.087	2614.41
978.387	2574.18
978.687	2549.55
978.987	2577.12
979.286	2543.22
979.586	2558.36
979.885	2546.39
980.185	2526.28
980.484	2488.08
980.784	2511.13
981.083	2514.52
981.382	2455.32
981.682	2461.19
981.981	2475.88
982.28	2411.02
982.579	2451.25
982.878	2442.44
983.177	2372.61
983.475	2402.44
983.774	2411.02
984.073	2383.91
984.372	2366.28
984.67	2368.77
984.969	2367.41
985.267	2348.88
985.566	2333.06
985.864	2307.3
986.162	2294.64
986.461	2279.05
986.759	2281.08
987.057	2295.1
987.355	2274.08
987.653	2273.17
987.951	2245.38
988.249	2221.88
988.547	2263.91
988.844	2232.05
989.142	2185.04
989.44	2194.98
989.737	2187.75
990.035	2196.34
990.332	2184.36
990.63	2146.62
990.927	2118.15
991.224	2130.13
991.521	2116.57
991.819	2104.82
992.116	2116.79
992.413	2094.2
992.71	2070.69
993.006	2041.09
993.303	2094.65
993.6	2056.23
993.897	2058.94
994.193	2058.72
994.49	2028.21
994.787	2021.2
995.083	1982.33
995.379	1995.44
995.676	2031.6
995.972	1991.83
996.268	1977.14
996.565	1966.29
996.861	1929
997.157	1962.67
997.453	1923.35
997.749	1918.83
998.044	1923.13
998.34	1905.95
998.636	1896.46
998.932	1912.28
999.227	1875.67
999.523	1856.69
999.818	1847.42
1000.114	1826.63
1000.409	1839.06
1000.704	1849.91
1001	1821.66
1001.295	1842.23
1001.59	1798.16
1001.885	1806.52
1002.18	1785.05
1002.475	1788.67
1002.77	1781.21
1003.065	1772.62
1003.359	1774.66
1003.654	1718.61
1003.949	1733.98
1004.243	1722.91
1004.538	1698.5
1004.832	1729.69
1005.127	1694.43
1005.421	1710.03
1005.715	1690.14
1006.009	1676.13
1006.304	1688.11
1006.598	1659.63
1006.892	1657.15
1007.186	1617.6
1007.48	1626.41
1007.773	1620.54
1008.067	1623.93
1008.361	1625.73
1008.655	1568.79
1008.948	1584.38
1009.242	1554.55
1009.535	1564.72
1009.829	1577.6
1010.122	1567.43
1010.415	1547.09
1010.708	1536.24
1011.001	1528.56
1011.295	1499.18
1011.588	1513.42
1011.881	1529.92
1012.173	1496.47
1012.466	1477.04
1012.759	1485.62
1013.052	1505.06
1013.344	1464.61
1013.637	1470.94
1013.93	1446.3
1014.222	1425.29
1014.514	1432.97
1014.807	1427.32
1015.099	1414.67
1015.391	1383.03
1015.683	1393.42
1015.976	1399.98
1016.268	1374.67
1016.56	1382.12
1016.851	1329.92
1017.143	1345.06
1017.435	1330.37
1017.727	1319.08
1018.018	1306.19
1018.31	1336.25
1018.602	1278.4
1018.893	1313.88
1019.185	1284.73
1019.476	1297.38
1019.767	1294.9
1020.058	1272.75
1020.35	1263.94
1020.641	1244.95
1020.932	1260.77
1021.223	1264.39
1021.514	1271.85
1021.804	1245.18
1022.095	1238.17
1022.386	1212.64
1022.677	1191.4
1022.967	1208.34
1023.258	1172.64
1023.548	1184.62
1023.839	1160.21
1024.129	1167.22
1024.419	1164.05
1024.709	1155.92
1025	1145.52
1025.29	1116.59
1025.58	1124.73
1025.87	1102.58
1026.16	1127.44
1026.449	1108.69
1026.739	1113.88
1027.029	1104.17
1027.319	1093.32
1027.608	1072.75
1027.898	1082.92
1028.187	1083.83
1028.477	1092.64
1028.766	1064.17
1029.055	1034.34
1029.344	1055.58
1029.634	1030.04
1029.923	1040.21
1030.212	1025.98
1030.501	1023.94
1030.79	1030.04
1031.078	996.6
1031.367	993.21
1031.656	988.24
1031.945	977.84
1032.233	1016.71
1032.522	969.71
1032.81	961.8
1033.099	971.51
1033.387	953.21
1033.675	953.89
1033.963	962.93
1034.251	939.42
1034.54	933.55
1034.828	945.75
1035.116	938.29
1035.403	917.96
1035.691	905.98
1035.979	898.07
1036.267	915.47
1036.554	904.85
1036.842	892.19
1037.129	897.62
1037.417	874.34
1037.704	857.17
1037.992	882.25
1038.279	876.38
1038.566	852.2
1038.853	852.2
1039.14	852.2
