Data from hue_30_FLMS001491_76.txt Node
Date: Mon Feb 06 15:05:56 GMT 2017
User: dcchb
Spectrometer: FLMS00149
Trigger mode: 0
Integration Time (sec): 2.000000E-2
Scans to average: 10
Electric dark correction enabled: true
Nonlinearity correction enabled: false
Boxcar width: 0
XAxis mode: Wavelengths
Number of Pixels in Spectrum: 2048
>>>>>Begin Spectral Data<<<<<
341.393	-9.91
341.776	-9.91
342.16	-9.91
342.543	-57.82
342.927	-65.73
343.31	-68.22
343.693	-64.6
344.077	-60.54
344.46	-46.3
344.843	-53.76
345.226	-29.12
345.61	-22.12
345.993	-7.43
346.376	7.49
346.759	-8.79
347.142	14.49
347.525	31.89
347.908	44.09
348.291	63.53
348.674	101.04
349.057	98.33
349.44	106.47
349.823	125.9
350.206	154.37
350.588	204.77
350.971	226.01
351.354	223.3
351.737	240.47
352.119	248.61
352.502	245.67
352.884	276.41
353.267	292.45
353.65	304.43
354.032	302.62
354.414	305.78
354.797	344.88
355.179	301.26
355.562	309.85
355.944	330.42
356.326	343.52
356.709	346.91
357.091	343.97
357.473	362.5
357.855	348.49
358.238	347.59
358.62	346.23
359.002	342.39
359.384	327.03
359.766	347.82
360.148	343.07
360.53	334.93
360.912	345.1
361.294	343.75
361.676	324.09
362.057	325.9
362.439	313.24
362.821	316.18
363.203	332.9
363.584	338.1
363.966	334.93
364.348	339.45
364.729	313.47
365.111	328.16
365.493	310.08
365.874	334.48
366.256	334.26
366.637	310.53
367.019	301.94
367.4	310.75
367.781	289.51
368.163	315.27
368.544	305.78
368.925	301.26
369.306	339.91
369.688	308.95
370.069	326.35
370.45	309.4
370.831	308.04
371.212	331.54
371.593	310.3
371.974	311.43
372.355	327.48
372.736	308.04
373.117	309.4
373.498	301.04
373.879	334.93
374.26	328.83
374.641	321.6
375.021	324.09
375.402	324.54
375.783	338.1
376.163	333.35
376.544	331.54
376.925	325.9
377.305	331.77
377.686	307.14
378.066	331.77
378.447	351.43
378.827	349.62
379.208	334.93
379.588	329.74
379.968	317.76
380.349	338.32
380.729	347.59
381.109	334.48
381.489	337.87
381.87	342.39
382.25	327.03
382.63	358.89
383.01	349.17
383.39	344.43
383.77	347.36
384.15	342.84
384.53	362.28
384.91	359.11
385.29	350.75
385.67	359.57
386.049	359.79
386.429	355.27
386.809	366.35
387.189	360.7
387.568	370.19
387.948	348.49
388.328	380.81
388.707	351.88
389.087	365.89
389.466	366.12
389.846	384.65
390.225	358.21
390.605	367.25
390.984	381.71
391.363	385.55
391.743	362.73
392.122	363.63
392.501	372.9
392.881	361.83
393.26	367.02
393.639	382.62
394.018	400.92
394.397	393.46
394.776	380.58
395.155	394.14
395.534	372.9
395.913	391.43
396.292	378.1
396.671	388.94
397.05	390.75
397.429	403.41
397.808	390.75
398.186	388.49
398.565	395.95
398.944	370.87
399.323	376.74
399.701	413.35
400.08	388.27
400.458	413.12
400.837	385.1
401.215	395.95
401.594	406.12
401.972	392.11
402.351	387.59
402.729	413.35
403.107	417.42
403.486	443.86
403.864	431.43
404.242	428.49
404.62	432.79
404.999	440.47
405.377	442.28
405.755	404.99
406.133	407.7
406.511	419
406.889	422.39
407.267	426.23
407.645	447.02
408.023	426.91
408.401	442.73
408.779	459
409.156	435.5
409.534	431.2
409.912	459.45
410.29	444.54
410.667	446.34
411.045	465.55
411.422	477.3
411.8	461.26
412.178	475.95
412.555	452.22
412.933	467.59
413.31	474.14
413.687	481.15
414.065	468.04
414.442	481.15
414.819	487.02
415.197	485.21
415.574	497.64
415.951	489.51
416.328	509.39
416.705	517.3
417.082	517.75
417.46	492.22
417.837	525.89
418.214	512.11
418.591	517.08
418.967	503.29
419.344	510.07
419.721	511.43
420.098	519.34
420.475	527.02
420.852	534.48
421.228	548.26
421.605	539.68
421.982	521.14
422.358	554.59
422.735	551.2
423.111	550.07
423.488	543.74
423.864	567.47
424.241	553.46
424.617	579.67
424.994	560.24
425.37	551.2
425.746	574.48
426.123	573.12
426.499	561.14
426.875	613.8
427.251	587.58
427.627	615.83
428.003	595.94
428.379	609.05
428.756	615.38
429.132	611.54
429.507	616.06
429.883	625.55
430.259	644.76
430.635	638.2
431.011	617.19
431.387	638.66
431.763	641.82
432.138	648.15
432.514	642.95
432.89	667.36
433.265	662.16
433.641	690.63
434.016	674.59
434.392	666.9
434.767	702.83
435.143	708.71
435.518	723.17
435.894	714.59
436.269	739.67
436.644	721.14
437.02	721.82
437.395	711.2
437.77	737.41
438.145	746.9
438.52	739.22
438.895	744.87
439.271	766.34
439.646	756.39
440.021	762.49
440.395	752.32
440.77	788.03
441.145	793
441.52	781.93
441.895	798.43
442.27	800.91
442.645	807.46
443.019	792.32
443.394	805.66
443.769	826.9
444.143	820.8
444.518	822.38
444.892	817.86
445.267	821.25
445.641	829.38
446.016	817.18
446.39	816.05
446.764	841.14
447.139	836.39
447.513	854.7
447.887	879.55
448.262	849.72
448.636	849.72
449.01	867.35
449.384	872.1
449.758	882.04
450.132	882.72
450.506	887.46
450.88	895.6
451.254	924.52
451.628	914.13
452.002	899.44
452.376	902.15
452.75	913
453.123	924.75
453.497	944.64
453.871	945.77
454.244	974.69
454.618	974.69
454.992	985.31
455.365	1001.81
455.739	995.03
456.112	990.28
456.486	1010.85
456.859	1014.24
457.232	1022.37
457.606	1050.62
457.979	1075.03
458.352	1063.5
458.725	1106.44
459.099	1082.49
459.472	1103.05
459.845	1148.02
460.218	1145.53
460.591	1137.85
460.964	1125.65
461.337	1135.37
461.71	1169.26
462.083	1165.87
462.456	1204.74
462.829	1169.04
463.201	1177.62
463.574	1231.18
463.947	1243.39
464.32	1275.47
464.692	1255.59
465.065	1304.17
465.438	1273.22
465.81	1331.07
466.183	1338.07
466.555	1315.7
466.928	1369.26
467.3	1373.78
467.672	1412.19
468.045	1397.51
468.417	1421.69
468.789	1427.79
469.161	1425.75
469.534	1451.52
469.906	1533.32
470.278	1525.86
470.65	1559.54
471.022	1558.63
471.394	1621.68
471.766	1618.74
472.138	1638.63
472.51	1627.33
472.882	1689.02
473.253	1713.66
473.625	1718.85
473.997	1779.42
474.369	1797.95
474.74	1809.25
475.112	1856.48
475.484	1884.72
475.855	1875.46
476.227	1955.46
476.598	2012.18
476.97	1998.85
477.341	2078.39
477.713	2124.27
478.084	2122.68
478.455	2199.52
478.827	2183.47
479.198	2257.14
479.569	2293.3
479.94	2382.34
480.311	2416.69
480.682	2479.74
481.053	2524.93
481.424	2554.99
481.795	2591.82
482.166	2669.79
482.537	2726.96
482.908	2765.15
483.279	2824.13
483.65	2878.14
484.021	2954.75
484.391	2978.93
484.762	3048.54
485.133	3095.09
485.503	3139.83
485.874	3228.42
486.244	3302.99
486.615	3337.79
486.985	3415.98
487.356	3476.77
487.726	3562.19
488.097	3641.97
488.467	3671.8
488.837	3706.82
489.207	3808.52
489.578	3863.43
489.948	3914.05
490.318	3973.03
490.688	4081.5
491.058	4152.46
491.428	4195.85
491.798	4224.32
492.168	4322.4
492.538	4395.17
492.908	4406.69
493.278	4470.65
493.648	4505.67
494.017	4625.9
494.387	4675.16
494.757	4738.89
495.126	4809.39
495.496	4829.05
495.866	4886.91
496.235	4966.23
496.605	4986.79
496.974	5071.99
497.344	5137.75
497.713	5203.06
498.082	5229.04
498.452	5309.27
498.821	5400.79
499.19	5356.95
499.559	5359.44
499.928	5439.43
500.298	5478.3
500.667	5547
501.036	5582.03
501.405	5616.6
501.774	5700.44
502.143	5710.16
502.512	5716.71
502.88	5806.43
503.249	5830.84
503.618	5870.83
503.987	5930.49
504.356	5932.53
504.724	5995.8
505.093	6050.72
505.462	6036.25
505.83	6147.89
506.199	6194.44
506.567	6193.54
506.936	6221.11
507.304	6326.64
507.672	6301.78
508.041	6393.76
508.409	6420.42
508.777	6469.91
509.145	6492.74
509.514	6586.52
509.882	6611.15
510.25	6578.61
510.618	6634.2
510.986	6624.26
511.354	6727.08
511.722	6753.3
512.09	6812.73
512.458	6836.01
512.826	6872.84
513.193	6919.62
513.561	6906.29
513.929	6944.25
514.297	7042.55
514.664	7049.79
515.032	7080.97
515.4	7174.3
515.767	7167.98
516.135	7150.57
516.502	7171.59
516.869	7271.7
517.237	7240.06
517.604	7247.07
517.972	7337.01
518.339	7466.05
518.706	7398.48
519.073	7432.6
519.44	7466.27
519.808	7511.47
520.175	7547.4
520.542	7644.57
520.909	7623.1
521.276	7569.32
521.643	7701.29
522.009	7739.03
522.376	7825.36
522.743	7871.23
523.11	7837.79
523.477	7962.53
523.843	7926.37
524.21	8035.07
524.577	8078.91
524.943	8128.4
525.31	8168.85
525.676	8208.63
526.043	8259.47
526.409	8336.98
526.776	8407.94
527.142	8418.11
527.508	8412.24
527.874	8519.13
528.241	8502.86
528.607	8560.03
528.973	8598.67
529.339	8604.32
529.705	8700.14
530.071	8787.82
530.437	8801.83
530.803	8873.92
531.169	8907.14
531.535	8941.04
531.901	8949.85
532.267	8980.81
532.632	9019.23
532.998	9075.5
533.364	9123.4
533.73	9117.08
534.095	9170.86
534.461	9285.21
534.826	9240.01
535.192	9290.63
535.557	9460.8
535.923	9394.58
536.288	9426.45
536.653	9523.39
537.019	9514.81
537.384	9529.04
537.749	9541.02
538.114	9637.06
538.479	9673.45
538.845	9680
539.21	9734.91
539.575	9750.28
539.94	9767.46
540.305	9817.17
540.67	9810.39
541.034	9932.87
541.399	9934.91
541.764	10009.03
542.129	10011.52
542.494	10063.04
542.858	10082.93
543.223	10106.43
543.587	10180.33
543.952	10234.34
544.316	10258.52
544.681	10197.95
545.045	10306.2
545.41	10371.28
545.774	10413.77
546.138	10374.67
546.503	10540.54
546.867	10498.96
547.231	10566.3
547.595	10590.03
547.959	10662.57
548.324	10614.44
548.688	10698.96
549.052	10824.15
549.416	10754.32
549.779	10766.52
550.143	10838.16
550.507	10867.31
550.871	10933.75
551.235	10900.08
551.599	10981.21
551.962	11019.85
552.326	11086.52
552.689	11153.63
553.053	11071.83
553.417	11107.31
553.78	11310.69
554.143	11236.57
554.507	11242.9
554.87	11294.87
555.234	11399.05
555.597	11390.24
555.96	11397.69
556.323	11448.54
556.686	11507.52
557.05	11594.98
557.413	11584.58
557.776	11545.71
558.139	11702.32
558.502	11658.48
558.865	11749.32
559.228	11821.64
559.59	11796.33
559.953	11797.01
560.316	11976.89
560.679	11864.8
561.041	11982.99
561.404	12041.29
561.767	12160.84
562.129	12019.37
562.492	12169.2
562.854	12205.81
563.217	12197.9
563.579	12255.53
563.941	12257.56
564.304	12356.99
564.666	12372.81
565.028	12417.55
565.39	12508.63
565.753	12511.56
566.115	12522.86
566.477	12705.46
566.839	12622.3
567.201	12776.19
567.563	12758.56
567.925	12881.72
568.287	12929.63
568.648	12874.94
569.01	12948.16
569.372	12997.88
569.734	12981.83
570.095	13177.31
570.457	13193.81
570.819	13212.11
571.18	13240.36
571.542	13323.07
571.903	13349.51
572.265	13478.09
572.626	13474.7
572.987	13513.8
573.349	13616.17
573.71	13708.14
574.071	13792.21
574.432	13803.28
574.794	14005.08
575.155	14003.95
575.516	14049.15
575.877	14100.9
576.238	14197.4
576.599	14345.19
576.96	14370.27
577.32	14527.56
577.681	14553.09
578.042	14653.65
578.403	14834.21
578.763	14919.64
579.124	15025.85
579.485	15142.68
579.845	15357.82
580.206	15368.66
580.566	15486.4
580.927	15667.64
581.287	15868.76
581.648	15995.31
582.008	16213.39
582.368	16243.67
582.728	16480.05
583.089	16713.49
583.449	16888.62
583.809	17030.99
584.169	17338.33
584.529	17425.11
584.889	17744.19
585.249	17866.45
585.609	18088.14
585.969	18343.95
586.329	18467.57
586.688	18742.59
587.048	19052.41
587.408	19292.85
587.768	19518.39
588.127	19750.24
588.487	20011.48
588.846	20397.46
589.206	20490.56
589.565	20745.25
589.925	20975.52
590.284	21256.19
590.643	21563.08
591.003	21790.42
591.362	22168.94
591.721	22342.49
592.08	22685.76
592.44	23019.99
592.799	23239.19
593.158	23407.1
593.517	23867.88
593.876	24040.53
594.235	24376.79
594.593	24662.43
594.952	24866.95
595.311	25302.41
595.67	25614.04
596.029	25941.95
596.387	26207.7
596.746	26486.11
597.104	26701.25
597.463	26854.69
597.822	27393.21
598.18	27485.86
598.538	27793.87
598.897	28279.06
599.255	28291.94
599.613	28871.36
599.972	28925.82
600.33	29283.78
600.688	29539.14
601.046	29784.56
601.404	30236.52
601.762	30422.28
602.12	30684.65
602.478	30980.46
602.836	31208.47
603.194	31327.11
603.552	31705.64
603.91	31824.5
604.268	32235.56
604.625	32287.77
604.983	32651.37
605.341	32668.32
605.698	33156.22
606.056	33352.37
606.413	33527.28
606.771	33875.75
607.128	34060.83
607.485	34089.08
607.843	34313.7
608.2	34640.25
608.557	34951.65
608.914	35027.36
609.272	35454.46
609.629	35585.99
609.986	35745.3
610.343	35799.31
610.7	36277.72
611.057	36350.94
611.414	36371.73
611.771	36742.11
612.127	36891.26
612.484	37126.28
612.841	37213.74
613.198	37268.88
613.554	37555.42
613.911	37713.39
614.267	37787.74
614.624	38016.2
614.98	38161.96
615.337	38473.14
615.693	38520.6
616.05	38547.26
616.406	38985.44
616.762	38823.41
617.118	38975.95
617.475	39049.17
617.831	39358.77
618.187	39551.53
618.543	39688.25
618.899	40038.75
619.255	39949.03
619.611	39959.43
619.967	40218.86
620.323	40312.87
620.678	40419.53
621.034	40318.29
621.39	40440.32
621.746	40436.71
622.101	40997.82
622.457	40676.7
622.812	40868.78
623.168	41026.07
623.523	40983.81
623.879	41204.14
624.234	41039.18
624.589	41309.68
624.945	41343.35
625.3	41502.67
625.655	41530.91
626.01	41567.97
626.365	41510.8
626.72	41504.25
627.075	41585.15
627.43	41737.69
627.785	41697.69
628.14	41723.22
628.495	41814.52
628.85	41866.95
629.205	41903.11
629.559	42108.75
629.914	41894.75
630.269	41923.9
630.623	41948.3
630.978	41987.85
631.332	42089.09
631.687	42140.39
632.041	42021.07
632.396	42047.28
632.75	41980.39
633.104	42064.68
633.459	41932.26
633.813	41992.6
634.167	41991.24
634.521	42021.97
634.875	42162.08
635.229	42035.99
635.583	41970.45
635.937	41857.68
636.291	42057.68
636.645	42016.32
636.999	41808.65
637.352	41991.24
637.706	41818.82
638.06	42021.97
638.413	41952.82
638.767	41825.82
639.121	41876.22
639.474	41805.03
639.828	41795.31
640.181	41755.54
640.534	41824.01
640.888	41706.73
641.241	41628.09
641.594	41820.4
641.947	41783.56
642.301	41721.19
642.654	41692.04
643.007	41731.81
643.36	41531.14
643.713	41671.93
644.066	41778.36
644.419	41509.67
644.771	41298.6
645.124	40848.22
645.477	40991.49
645.83	40718.05
646.182	40468.12
646.535	40536.14
646.888	40570.49
647.24	40359.19
647.593	40560.54
647.945	40439.19
648.298	40218.63
648.65	40179.76
649.002	40248.46
649.355	40262.02
649.707	40298.18
650.059	40547.21
650.411	40848.22
650.763	40927.99
651.115	41405.72
651.467	41262.45
651.819	41163.69
652.171	40998.05
652.523	41036.24
652.875	41092.73
653.227	40922.57
653.578	41231.26
653.93	41070.59
654.282	40848.45
654.633	40902.68
654.985	40850.03
655.337	40804.38
655.688	40842.12
656.039	41061.55
656.391	40690.26
656.742	40786.3
657.094	40747.43
657.445	40846.41
657.796	40805.28
658.147	40812.97
658.498	40637.83
658.849	40719.64
659.2	40612.07
659.551	40633.76
659.902	40897.48
660.253	40592.63
660.604	40810.25
660.955	40693.2
661.306	40810.03
661.656	40595.57
662.007	40732.06
662.358	40741.1
662.708	40723.48
663.059	40496.36
663.409	40345.18
663.76	40616.36
664.11	40802.8
664.461	40695.68
664.811	40620.43
665.161	40547.89
665.511	40506.99
665.862	40446.87
666.212	40704.27
666.562	40748.56
666.912	40540.21
667.262	40456.82
667.612	40503.14
667.962	40568
668.312	40459.76
668.662	40609.13
669.011	40553.09
669.361	40474.44
669.711	40476.25
670.06	40341.34
670.41	40300.44
670.76	40241
671.109	40364.16
671.459	40437.38
671.808	40337.95
672.157	40332.3
672.507	40124.17
672.856	40217.73
673.205	40141.12
673.554	40339.76
673.904	40080.33
674.253	40424.95
674.602	40280.33
674.951	39680.57
675.3	39510.4
675.649	40160.1
675.998	40105.41
676.346	40102.7
676.695	40329.36
677.044	39887.57
677.393	40176.6
677.741	40118.52
678.09	40056.38
678.438	39908.36
678.787	40018.19
679.135	39881.92
679.484	39695.48
679.832	39842.82
680.181	39582.26
680.529	39815.48
680.877	39608.93
681.225	39641.47
681.573	39768.02
681.922	39418.65
682.27	39332.1
682.618	39371.87
682.966	39312.21
683.314	39278.09
683.661	39113.12
684.009	38996.29
684.357	39008.49
684.705	39116.74
685.053	38955.16
685.4	38980.92
685.748	38848.05
686.095	38740.48
686.443	38781.83
686.79	38596.53
687.138	38680.14
687.485	38672.91
687.832	38369.64
688.18	38617.09
688.527	38322.86
688.874	38414.39
689.221	38192.47
689.568	38203.77
689.915	38194.96
690.262	38046.26
690.609	37822.08
690.956	37775.53
691.303	37794.97
691.65	37552.49
691.997	37650.79
692.344	37336.45
692.69	37378.48
693.037	37479.27
693.383	37041.09
693.73	37219.39
694.077	37015.33
694.423	37089
694.769	36881.09
695.116	36879.51
695.462	36736.69
695.808	36684.04
696.155	36756.35
696.501	36372.86
696.847	36441.78
697.193	36176.03
697.539	36322.91
697.885	36038.63
698.231	35983.49
698.577	35944.39
698.923	35817.84
699.269	35694.68
699.614	35466.67
699.96	35543.27
700.306	35476.61
700.651	35378.31
700.997	35196.62
701.342	35161.14
701.688	35170.85
702.033	35011.54
702.379	34916.4
702.724	34858.55
703.069	34954.82
703.415	34454.26
703.76	34629.85
704.105	34600.25
704.45	34494.04
704.795	34283.42
705.14	34209.52
705.485	34221.05
705.83	34081.84
706.175	34153.48
706.52	33970.89
706.865	33940.83
707.209	33902.41
707.554	33694.28
707.899	33853.38
708.243	33695.19
708.588	33570.67
708.932	33459.49
709.277	33347.85
709.621	33381.07
709.966	33087.29
710.31	33197.35
710.654	32925.04
710.998	33030.35
711.342	33068.99
711.687	32799.39
712.031	32810.46
712.375	32521.43
712.719	32680.98
713.063	32584.48
713.407	32733.63
713.75	32469.68
714.094	32431.94
714.438	32314.21
714.782	32338.39
715.125	32132.52
715.469	32349.23
715.812	32106.08
716.156	31856.14
716.499	31967.32
716.843	32030.6
717.186	31702.02
717.53	31974.55
717.873	31861.34
718.216	31774.11
718.559	31652.08
718.902	31458.18
719.246	31556.71
719.589	31503.61
719.932	31342.25
720.275	31332.54
720.617	31232.2
720.96	31143.84
721.303	31111.3
721.646	31223.84
721.989	31049.16
722.331	31083.73
722.674	30923.28
723.016	30915.6
723.359	30934.81
723.701	30902.49
724.044	30773.46
724.386	30585.44
724.729	30705.66
725.071	30609.39
725.413	30673.8
725.755	30573.46
726.097	30403.97
726.439	30319.23
726.782	30315.16
727.124	30481.71
727.465	30246.69
727.807	30302.06
728.149	30150.42
728.491	30033.59
728.833	30206.01
729.175	30090.31
729.516	29980.48
729.858	29988.39
730.199	29916.53
730.541	29968.73
730.882	29834.05
731.224	29983.87
731.565	29717.44
731.906	29706.82
732.248	29571.91
732.589	29582.53
732.93	29488.74
733.271	29518.12
733.612	29503.21
733.953	29467.05
734.294	29298.47
734.635	29244.46
734.976	29369.43
735.317	29097.57
735.658	29294.63
735.999	29180.5
736.339	29255.53
736.68	29267.96
737.021	29035.42
737.361	29014.18
737.702	29162.88
738.042	29049.66
738.383	28964.01
738.723	29016.21
739.063	28843.11
739.404	28893.51
739.744	28813.51
740.084	28631.37
740.424	28838.37
740.764	28666.85
741.104	28835.2
741.444	28601.31
741.784	28361.77
742.124	28622.78
742.464	28467.08
742.804	28358.83
743.143	28387.98
743.483	28315.22
743.823	28169.91
744.162	28220.76
744.502	28307.08
744.841	28097.37
745.181	28155.9
745.52	27957.94
745.86	28140.76
746.199	28007.2
746.538	27978.05
746.877	27995.22
747.216	27978.28
747.556	27961.55
747.895	28002
748.234	27727.89
748.573	27710.03
748.911	27797.04
749.25	27774.21
749.589	27610.15
749.928	27591.62
750.267	27645.18
750.605	27478.85
750.944	27399.08
751.283	27371.51
751.621	27435.69
751.96	27379.2
752.298	27208.58
752.636	27249.71
752.975	27104.17
753.313	27098.98
753.651	27148.24
753.989	27036.38
754.327	27042.93
754.666	26888.36
755.004	26867.34
755.342	26864.41
755.679	26832.32
756.017	26677.52
756.355	26640.91
756.693	26569.05
757.031	26568.37
757.368	26678.87
757.706	26452.44
758.044	26329.51
758.381	26305.78
758.719	26297.42
759.056	26258.09
759.394	26167.02
759.731	25930.87
760.068	26027.59
760.405	25977.88
760.743	25901.95
761.08	25873.02
761.417	25700.14
761.754	25605.68
762.091	25678
762.428	25531.56
762.765	25353.94
763.102	25423.99
763.438	25327.72
763.775	25193.72
764.112	25171.57
764.449	25198.24
764.785	25128.86
765.122	24986.04
765.458	24725.03
765.795	24810
766.131	24724.35
766.467	24713.05
766.804	24568.42
767.14	24414.3
767.476	24412.49
767.812	24326.85
768.148	24310.35
768.485	24285.94
768.821	24132.95
769.157	24096.8
769.492	23986.97
769.828	24041.88
770.164	23744.04
770.5	23704.72
770.836	23831.72
771.171	23510.14
771.507	23643.93
771.842	23361.45
772.178	23350.15
772.513	23284.61
772.849	23277.61
773.184	23092.08
773.519	23079.2
773.855	23031.97
774.19	22916.71
774.525	22868.58
774.86	22765.98
775.195	22737.28
775.53	22575.25
775.865	22513.33
776.2	22331.19
776.535	22216.62
776.87	22193.57
777.205	22145.66
777.539	21957.64
777.874	22134.36
778.209	21907.25
778.543	21890.3
778.878	21737.54
779.212	21726.69
779.547	21599.91
779.881	21651.89
780.215	21404.89
780.55	21539.8
780.884	21249.41
781.218	21295.06
781.552	21309.3
781.886	21137.55
782.22	21096.2
782.554	20809.42
782.888	20799.48
783.222	20730.33
783.556	20527.17
783.889	20578.7
784.223	20451.24
784.557	20367.63
784.89	20424.8
785.224	20297.35
785.557	20287.63
785.891	20145.94
786.224	20085.83
786.558	20024.59
786.891	19887.64
787.224	19787.76
787.557	19751.83
787.891	19771.71
788.224	19726.74
788.557	19688.55
788.89	19498.27
789.223	19472.74
789.556	19442.68
789.888	19307.09
790.221	19188.68
790.554	19065.97
790.887	19169.92
791.219	18997.72
791.552	19025.74
791.884	18876.37
792.217	18909.59
792.549	18855.35
792.882	18611.06
793.214	18578.07
793.546	18615.58
793.879	18531.97
794.211	18407.91
794.543	18476.15
794.875	18341.01
795.207	18380.34
795.539	18370.62
795.871	18214.69
796.203	18087.69
796.535	18005.88
796.867	17999.55
797.198	17953
797.53	17968.14
797.862	17786.45
798.193	17906.68
798.525	17687.02
798.856	17749.62
799.188	17598.44
799.519	17595.05
799.85	17432.34
800.182	17430.98
800.513	17462.39
800.844	17273.47
801.175	17355.5
801.506	17244.09
801.837	17088.62
802.168	17141.05
802.499	17181.05
802.83	17042.07
803.161	16976.53
803.491	16935.85
803.822	16903.54
804.153	16780.15
804.483	16732.7
804.814	16661.51
805.145	16638.46
805.475	16560.27
805.805	16555.53
806.136	16595.98
806.466	16536.99
806.796	16443.66
807.126	16372.93
807.457	16314.85
807.787	16249.32
808.117	16193.73
808.447	16157.34
808.777	16211.58
809.107	16132.94
809.436	16072.15
809.766	16037.35
810.096	15952.6
810.426	15929.55
810.755	15963.22
811.085	15872.38
811.414	15909.89
811.744	15749.9
812.073	15769.33
812.403	15717.81
812.732	15659.96
813.061	15582.22
813.39	15465.38
813.719	15431.26
814.049	15510.81
814.378	15469.23
814.707	15396.46
815.036	15346.07
815.365	15224.26
815.693	15147.43
816.022	15186.3
816.351	15140.65
816.68	15023.59
817.008	15157.37
817.337	14936.13
817.665	14936.36
817.994	14937.04
818.322	14915.12
818.651	14898.85
818.979	14771.17
819.307	14775.68
819.636	14773.88
819.964	14731.39
820.292	14731.39
820.62	14772.3
820.948	14699.75
821.276	14691.62
821.604	14701.79
821.932	14663.15
822.259	14647.1
822.587	14685.29
822.915	14576.82
823.243	14694.11
823.57	14645.07
823.898	14709.7
824.225	14559.19
824.553	14527.78
824.88	14559.65
825.207	14614.11
825.535	14574.79
825.862	14602.13
826.189	14485.98
826.516	14656.59
826.843	14574.33
827.17	14640.55
827.497	14612.07
827.824	14600.55
828.151	14605.29
828.478	14618.85
828.805	14696.59
829.131	14502.7
829.458	14543.6
829.785	14461.34
830.111	14498.63
830.438	14640.1
830.764	14573.2
831.09	14592.19
831.417	14464.51
831.743	14647.55
832.069	14529.82
832.395	14538.63
832.722	14454.79
833.048	14491.85
833.374	14382.25
833.7	14528.91
834.026	14404.4
834.351	14483.72
834.677	14403.49
835.003	14318.3
835.329	14352.19
835.654	14369.37
835.98	14263.83
836.306	14264.51
836.631	14257.96
836.956	14306.32
837.282	14283.95
837.607	14133.22
837.932	14199.65
838.258	14249.6
838.583	14215.02
838.908	14107
839.233	14067
839.558	14097.28
839.883	13972.32
840.208	14063.84
840.533	14041.24
840.858	14019.55
841.182	14054.12
841.507	13998.08
841.832	13866.1
842.156	13913.11
842.481	13831.53
842.805	13804.19
843.13	13802.38
843.454	13787.69
843.778	13684.87
844.103	13654.36
844.427	13685.54
844.751	13586.11
845.075	13624.98
845.399	13562.16
845.723	13552.21
846.047	13615.49
846.371	13441.03
846.695	13347.25
847.019	13314.03
847.343	13246.69
847.666	13185.22
847.99	13169.17
848.313	13124.43
848.637	12935.51
848.96	12919.69
849.284	12923.98
849.607	12860.03
849.931	12825
850.254	12769.86
850.577	12701.16
850.9	12578.68
851.223	12593.82
851.546	12493.26
851.869	12425.24
852.192	12451.23
852.515	12322.87
852.838	12357.22
853.161	12315.18
853.483	12217.56
853.806	12209.65
854.129	12134.85
854.451	12119.94
854.774	12013.5
855.096	12103.44
855.419	11930.34
855.741	11935.31
856.063	11905.25
856.385	11906.38
856.708	11818.47
857.03	11734.18
857.352	11815.76
857.674	11805.59
857.996	11724.92
858.318	11689.89
858.64	11677.46
858.961	11660.06
859.283	11494.19
859.605	11548.2
859.926	11518.6
860.248	11498.48
860.57	11430.24
860.891	11504.13
861.212	11354.76
861.534	11403.12
861.855	11339.84
862.176	11427.3
862.498	11387.53
862.819	11350.69
863.14	11295.78
863.461	11301.88
863.782	11175.55
864.103	11218.94
864.424	11221.2
864.745	11210.35
865.065	11166.51
865.386	11147.08
865.707	11061.66
866.027	11025.95
866.348	11099.4
866.668	11014.43
866.989	10982.34
867.309	10952.73
867.63	11024.82
867.95	10924.94
868.27	10849.01
868.59	10950.7
868.91	10875.45
869.23	10858.27
869.55	10814.89
869.87	10850.36
870.19	10860.76
870.51	10839.74
870.83	10814.89
871.15	10761.78
871.469	10781.89
871.789	10869.35
872.109	10727.43
872.428	10747.77
872.748	10732.4
873.067	10717.94
873.386	10725.85
873.706	10631.39
874.025	10597.04
874.344	10595.68
874.663	10618.05
874.982	10553.88
875.301	10570.82
875.62	10535.8
875.939	10448.79
876.258	10476.36
876.577	10468.68
876.896	10420.32
877.214	10426.65
877.533	10358.17
877.852	10380.55
878.17	10436.36
878.489	10396.59
878.807	10378.74
879.125	10351.85
879.444	10339.87
879.762	10275.01
880.08	10245.18
880.398	10235.01
880.716	10277.95
881.034	10195.24
881.352	10166.54
881.67	10112.08
881.988	10182.59
882.306	10170.16
882.624	10146.65
882.941	10084.51
883.259	10112.3
883.577	10028.01
883.894	10056.71
884.212	9969.48
884.529	10015.36
884.846	9970.84
885.164	9953.44
885.481	9856.49
885.798	9880.9
886.115	9758.42
886.432	9892.88
886.75	9772.2
887.067	9751.18
887.383	9740.79
887.7	9728.81
888.017	9732.43
888.334	9635.26
888.651	9698.76
888.967	9578.53
889.284	9583.51
889.6	9557.52
889.917	9461.47
890.233	9574.01
890.55	9437.75
890.866	9482.94
891.182	9459.67
891.498	9391.87
891.815	9399.56
892.131	9298.54
892.447	9355.94
892.763	9321.82
893.079	9272.33
893.395	9237.07
893.71	9203.18
894.026	9253.57
894.342	9159.34
894.657	9127.92
894.973	9087.92
895.289	9044.54
895.604	9026.01
895.92	8950.53
896.235	8985.33
896.55	8966.8
896.865	8933.13
897.181	8902.39
897.496	8858.55
897.811	8884.54
898.126	8854.94
898.441	8789.18
898.756	8759.8
899.071	8692
899.386	8780.59
899.7	8626.24
900.015	8584.21
900.33	8534.49
900.644	8579.92
900.959	8599.35
901.273	8520.93
901.588	8508.51
901.902	8408.62
902.216	8369.07
902.531	8345.35
902.845	8407.94
903.159	8346.02
903.473	8302.18
903.787	8254.5
904.101	8211.56
904.415	8229.64
904.729	8206.59
905.042	8188.29
905.356	8159.14
905.67	8132.24
905.984	8088.63
906.297	8003.89
906.611	7952.14
906.924	7976.09
907.237	7910.55
907.551	7963.43
907.864	7902.87
908.177	7861.06
908.491	7872.82
908.804	7835.3
909.117	7773.84
909.43	7707.85
909.743	7685.02
910.056	7674.4
910.368	7625.82
910.681	7608.64
910.994	7597.34
911.307	7571.13
911.619	7497.68
911.932	7484.35
912.244	7453.39
912.557	7422.88
912.869	7403.9
913.181	7364.13
913.494	7360.96
913.806	7328.2
914.118	7223.57
914.43	7183.12
914.742	7219.73
915.054	7128.2
915.366	7135.43
915.678	7060.41
915.99	7112.61
916.302	7002.33
916.613	7060.86
916.925	6959.85
917.236	6942.44
917.548	6855.44
917.859	6838.94
918.171	6882.56
918.482	6889.56
918.794	6784.03
919.105	6791.04
919.416	6740.87
919.727	6714.88
920.038	6719.17
920.349	6667.88
920.66	6658.61
920.971	6633.98
921.282	6599.4
921.593	6584.26
921.903	6533.19
922.214	6537.03
922.525	6496.81
922.835	6490.93
923.146	6379.75
923.456	6421.55
923.767	6343.36
924.077	6369.35
924.387	6311.05
924.697	6261.33
925.008	6261.78
925.318	6248.23
925.628	6254.1
925.938	6236.02
926.248	6152.18
926.558	6184.72
926.867	6109.7
927.177	6052.52
927.487	6060.21
927.796	6001.45
928.106	6032.64
928.416	6023.6
928.725	5994.9
929.034	5942.92
929.344	6006.88
929.653	5903.83
929.962	5867.44
930.271	5869.48
930.581	5841
930.89	5791.51
931.199	5748.35
931.508	5750.16
931.817	5737.73
932.125	5718.75
932.434	5656.83
932.743	5634.23
933.051	5623.16
933.36	5582.48
933.669	5589.71
933.977	5496.15
934.286	5548.58
934.594	5500.67
934.902	5481.47
935.21	5411.86
935.519	5460.45
935.827	5441.47
936.135	5357.18
936.443	5328.48
936.751	5345.88
937.059	5342.26
937.367	5264.52
937.674	5223.39
937.982	5208.93
938.29	5230.63
938.597	5184.52
938.905	5133.23
939.213	5162.15
939.52	5125.32
939.827	5112.44
940.135	5060.01
940.442	5056.39
940.749	5072.44
941.056	5067.01
941.363	4987.02
941.67	4966
941.977	4956.96
942.284	4928.71
942.591	4902.27
942.898	4889.84
943.205	4899.33
943.511	4835.38
943.818	4917.87
944.125	4804.2
944.431	4798.09
944.738	4767.36
945.044	4744.76
945.35	4704.99
945.657	4709.73
945.963	4710.64
946.269	4672.45
946.575	4654.37
946.881	4606.46
947.187	4626.57
947.493	4585.44
947.799	4556.97
948.105	4505.45
948.41	4543.86
948.716	4512.68
949.022	4525.11
949.327	4456.41
949.633	4433.58
949.938	4402.62
950.244	4394.94
950.549	4399.91
950.854	4394.71
951.16	4350.87
951.465	4345.22
951.77	4321.95
952.075	4308.16
952.38	4270.88
952.685	4276.75
952.99	4229.97
953.294	4217.09
953.599	4210.76
953.904	4207.15
954.209	4173.25
954.513	4133.93
954.818	4148.62
955.122	4118.34
955.426	4090.32
955.731	4093.71
956.035	4032.24
956.339	3999.47
956.643	4011.22
956.948	4011.22
957.252	4034.05
957.556	3952.24
957.86	3946.37
958.163	3926.7
958.467	3914.5
958.771	3931.45
959.075	3909.3
959.378	3867.95
959.682	3880.15
959.985	3863.43
960.289	3795.63
960.592	3782.3
960.896	3765.8
961.199	3732.36
961.502	3769.65
961.805	3729.87
962.108	3742.08
962.411	3714.51
962.714	3669.31
963.017	3713.83
963.32	3662.53
963.623	3627.73
963.926	3661.17
964.228	3583.44
964.531	3572.59
964.833	3569.88
965.136	3528.3
965.438	3558.8
965.741	3516.09
966.043	3511.35
966.345	3498.92
966.648	3455.53
966.95	3461.63
967.252	3449.2
967.554	3444.46
967.856	3443.55
968.158	3390.67
968.46	3402.2
968.761	3364.23
969.063	3390.67
969.365	3340.96
969.666	3340.28
969.968	3301.18
970.269	3314.29
970.571	3321.3
970.872	3282.65
971.174	3302.54
971.475	3289.43
971.776	3249.66
972.077	3208.76
972.378	3248.3
972.679	3230.45
972.98	3201.53
973.281	3152.49
973.582	3157.46
973.883	3137.12
974.183	3120.62
974.484	3144.35
974.785	3107.07
975.085	3074.52
975.386	3084.92
975.686	3063.9
975.986	3034.75
976.287	3027.29
976.587	3032.72
976.887	3040.4
977.187	3009.67
977.487	2980.74
977.787	2943.23
978.087	2919.95
978.387	2943.68
978.687	2944.36
978.987	2873.17
979.286	2888.77
979.586	2892.61
979.885	2852.83
980.185	2829.56
980.484	2847.64
980.784	2810.12
981.083	2839.73
981.382	2824.59
981.682	2773.29
981.981	2787.53
982.28	2752.72
982.579	2756.57
982.878	2722.44
983.177	2733.06
983.475	2749.56
983.774	2718.6
984.073	2710.01
984.372	2676.57
984.67	2691.71
984.969	2672.05
985.267	2662.78
985.566	2660.52
985.864	2618.49
986.162	2606.29
986.461	2608.77
986.759	2583.46
987.057	2557.93
987.355	2568.77
987.653	2558.83
987.951	2574.88
988.249	2552.96
988.547	2557.48
988.844	2486.29
989.142	2523.35
989.44	2500.3
989.737	2496.91
990.035	2459.85
990.332	2477.03
990.63	2442.45
990.927	2427.31
991.224	2420.08
991.521	2389.57
991.819	2402.45
992.116	2402.22
992.413	2364.03
992.71	2347.09
993.006	2343.7
993.303	2331.04
993.6	2328.55
993.897	2329.23
994.193	2326.52
994.49	2306.18
994.787	2273.87
995.083	2291.49
995.379	2267.99
995.676	2254.66
995.972	2266.41
996.268	2251.95
996.565	2209.46
996.861	2230.25
997.157	2183.25
997.453	2227.31
997.749	2196.13
998.044	2164.49
998.34	2204.72
998.636	2147.54
998.932	2128.11
999.227	2138.05
999.523	2096.92
999.818	2110.26
1000.114	2105.28
1000.409	2091.72
1000.704	2063.25
1001	2071.16
1001.295	2073.42
1001.59	2004.27
1001.885	2026.42
1002.18	2008.79
1002.475	1994.78
1002.77	2007.89
1003.065	1990.94
1003.359	1951.16
1003.654	1966.98
1003.949	1958.62
1004.243	1961.33
1004.538	1952.75
1004.832	1926.76
1005.127	1896.25
1005.421	1922.01
1005.715	1894.89
1006.009	1865.29
1006.304	1878.17
1006.598	1861.9
1006.892	1833.88
1007.186	1820.55
1007.48	1817.61
1007.773	1800.88
1008.067	1795.46
1008.361	1805.63
1008.655	1768.12
1008.948	1799.3
1009.242	1764.5
1009.535	1694.22
1009.829	1753.88
1010.122	1751.62
1010.415	1742.13
1010.708	1735.35
1011.001	1743.49
1011.295	1715.92
1011.588	1660.1
1011.881	1665.97
1012.173	1707.78
1012.466	1661.23
1012.759	1637.05
1013.052	1628.46
1013.344	1630.04
1013.637	1627.33
1013.93	1602.25
1014.222	1579.2
1014.514	1597.05
1014.807	1580.33
1015.099	1583.49
1015.391	1592.53
1015.683	1593.21
1015.976	1560.89
1016.268	1551.85
1016.56	1505.3
1016.851	1555.24
1017.143	1538.07
1017.435	1510.5
1017.727	1486.54
1018.018	1483.15
1018.31	1469.14
1018.602	1472.98
1018.893	1441.57
1019.185	1458.52
1019.476	1417.17
1019.767	1446.32
1020.058	1432.08
1020.35	1435.47
1020.641	1409.93
1020.932	1392.08
1021.223	1404.06
1021.514	1388.24
1021.804	1364.51
1022.095	1354.34
1022.386	1339.65
1022.677	1346.89
1022.967	1330.84
1023.258	1341.69
1023.548	1315.47
1023.839	1312.31
1024.129	1304.4
1024.419	1287.45
1024.709	1281.58
1025	1272.76
1025.29	1269.15
1025.58	1282.48
1025.87	1240
1026.16	1247.23
1026.449	1262.14
1026.739	1236.38
1027.029	1244.06
1027.319	1204.29
1027.608	1208.81
1027.898	1188.25
1028.187	1185.53
1028.477	1166.55
1028.766	1169.94
1029.055	1184.18
1029.344	1172.43
1029.634	1133.78
1029.923	1135.59
1030.212	1136.72
1030.501	1121.58
1030.79	1133.11
1031.078	1142.6
1031.367	1104.18
1031.656	1089.04
1031.945	1087.01
1032.233	1089.94
1032.522	1059.66
1032.81	1065.31
1033.099	1042.26
1033.387	1056.72
1033.675	1078.42
1033.963	1048.14
1034.251	1041.58
1034.54	1033
1034.828	1023.5
1035.116	1028.48
1035.403	997.52
1035.691	1013.79
1035.979	1012.88
1036.267	1030.28
1036.554	983.51
1036.842	975.82
1037.129	988.25
1037.417	951.87
1037.704	982.38
1037.992	953.9
1038.279	961.81
1038.566	939.89
1038.853	939.89
1039.14	939.89
