Data from hue_280_FLMS001491_00084.txt Node
Date: Tue Feb 07 15:55:54 GMT 2017
User: dcchb
Spectrometer: FLMS00149
Trigger mode: 0
Integration Time (sec): 2.000000E-2
Scans to average: 10
Electric dark correction enabled: true
Nonlinearity correction enabled: false
Boxcar width: 0
XAxis mode: Wavelengths
Number of Pixels in Spectrum: 2048
>>>>>Begin Spectral Data<<<<<
341.393	-14.04
341.776	-14.04
342.16	-14.04
342.543	-41.84
342.927	-61.72
343.31	-44.32
343.693	-56.07
344.077	-83.42
344.46	-50.65
344.843	-59.46
345.226	-51.33
345.61	-30.31
345.993	-3.64
346.376	-16.52
346.759	7.2
347.142	23.7
347.525	36.81
347.908	34.77
348.291	81.78
348.674	97.37
349.057	114.09
349.44	112.06
349.823	141.21
350.206	133.75
350.588	182.79
350.971	196.12
351.354	214.88
351.737	216.01
352.119	242.23
352.502	255.11
352.884	268.67
353.267	263.92
353.65	287.2
354.032	297.14
354.414	280.64
354.797	319.74
355.179	307.08
355.562	301.88
355.944	334.65
356.326	314.77
356.709	335.33
357.091	334.2
357.473	329.91
357.855	331.49
358.238	327.42
358.62	345.27
359.002	341.21
359.384	323.58
359.766	322.68
360.148	316.35
360.53	331.94
360.912	318.38
361.294	331.26
361.676	325.16
362.057	317.48
362.439	334.65
362.821	314.77
363.203	323.81
363.584	307.99
363.966	310.25
364.348	316.12
364.729	327.42
365.111	300.75
365.493	321.55
365.874	304.14
366.256	308.66
366.637	317.93
367.019	312.05
367.4	314.99
367.781	300.08
368.163	306.63
368.544	296.24
368.925	329
369.306	324.48
369.688	324.71
370.069	294.43
370.45	280.42
370.831	302.34
371.212	296.24
371.593	302.56
371.974	301.21
372.355	286.29
372.736	304.82
373.117	317.93
373.498	307.53
373.879	313.86
374.26	314.99
374.641	305.5
375.021	308.44
375.402	300.98
375.783	331.49
376.163	310.02
376.544	313.41
376.925	314.99
377.305	337.36
377.686	301.88
378.066	333.75
378.447	313.64
378.827	304.6
379.208	336.23
379.588	341.88
379.968	315.22
380.349	318.16
380.729	336.46
381.109	318.83
381.489	336.01
381.87	341.43
382.25	342.79
382.63	340.3
383.01	369.68
383.39	318.83
383.77	342.34
384.15	339.85
384.53	338.49
384.91	345.73
385.29	352.5
385.67	345.27
386.049	345.73
386.429	317.25
386.809	334.43
387.189	355.89
387.568	336.23
387.948	344.82
388.328	351.6
388.707	367.19
389.087	340.53
389.466	350.47
389.846	358.83
390.225	353.18
390.605	371.26
390.984	372.84
391.363	356.57
391.743	345.95
392.122	347.99
392.501	373.97
392.881	367.42
393.26	364.71
393.639	364.03
394.018	373.52
394.397	398.83
394.776	369.45
395.155	390.7
395.534	378.27
395.913	399.28
396.292	373.07
396.671	377.36
397.05	358.38
397.429	391.83
397.808	389.11
398.186	362
398.565	392.05
398.944	387.53
399.323	374.43
399.701	393.63
400.08	409.68
400.458	382.11
400.837	400.41
401.215	410.36
401.594	397.48
401.972	409.23
402.351	399.06
402.729	431.15
403.107	424.59
403.486	434.99
403.864	423.92
404.242	435.44
404.62	440.41
404.999	409.23
405.377	424.82
405.755	423.01
406.133	431.82
406.511	445.38
406.889	468.66
407.267	448.32
407.645	473.18
408.023	488.55
408.401	464.37
408.779	486.96
409.156	490.13
409.534	486.29
409.912	496.46
410.29	505.72
410.667	493.74
411.045	499.39
411.422	491.94
411.8	508.43
412.178	524.93
412.555	520.86
412.933	521.77
413.31	536.91
413.687	557.25
414.065	559.05
414.442	579.17
414.819	560.41
415.197	562.89
415.574	590.69
415.951	569
416.328	571.93
416.705	600.63
417.082	616
417.46	637.7
417.837	616.45
418.214	631.14
418.591	639.95
418.967	646.28
419.344	610.13
419.721	661.65
420.098	657.58
420.475	667.07
420.852	665.04
421.228	675.21
421.605	670.69
421.982	686.51
422.358	706.85
422.735	720.4
423.111	721.53
423.488	732.61
423.864	730.8
424.241	763.12
424.617	752.72
424.994	769.9
425.37	790.23
425.746	777.8
426.123	803.34
426.499	768.31
426.875	812.38
427.251	798.82
427.627	837.01
428.003	847.18
428.379	844.92
428.756	856.22
429.132	877.69
429.507	848.99
429.883	882.43
430.259	904.81
430.635	908.65
431.011	935.77
431.387	932.38
431.763	922.66
432.138	943
432.514	936.67
432.89	970.34
433.265	1000.17
433.641	1010.79
434.016	1011.47
434.392	1011.24
434.767	1032.26
435.143	1069.77
435.518	1057.35
435.894	1059.15
436.269	1061.41
436.644	1127.85
437.02	1132.15
437.395	1100.96
437.77	1126.04
438.145	1157.68
438.52	1166.27
438.895	1156.33
439.271	1172.6
439.646	1198.36
440.021	1223.67
440.395	1221.86
440.77	1221.63
441.145	1231.58
441.52	1227.96
441.895	1276.1
442.27	1257.57
442.645	1262.76
443.019	1293.5
443.394	1298.69
443.769	1311.35
444.143	1299.82
444.518	1340.5
444.892	1328.52
445.267	1327.85
445.641	1326.49
446.016	1347.96
446.39	1376.21
446.764	1387.05
447.139	1350.67
447.513	1371.91
447.887	1381.86
448.262	1385.92
448.636	1373.27
449.01	1400.16
449.384	1425.92
449.758	1415.98
450.132	1439.93
450.506	1454.85
450.88	1446.04
451.254	1434.96
451.628	1465.02
452.002	1473.83
452.376	1493.49
452.75	1477
453.123	1505.69
453.497	1519.25
453.871	1502.08
454.244	1565.81
454.618	1577.56
454.992	1566.71
455.365	1575.75
455.739	1629.31
456.112	1618.01
456.486	1635.86
456.859	1650.32
457.232	1649.65
457.606	1626.6
457.979	1692.58
458.352	1707.27
458.725	1726.71
459.099	1741.85
459.472	1726.25
459.845	1727.38
460.218	1754.5
460.591	1792.02
460.964	1784.33
461.337	1811.45
461.71	1860.94
462.083	1863.88
462.456	1855.97
462.829	1875.85
463.201	1884.44
463.574	1907.04
463.947	1907.72
464.32	1939.36
464.692	1951.78
465.065	1951.56
465.438	2005.12
465.81	2013.93
466.183	2024.33
466.555	2048.28
466.928	2046.02
467.3	2056.19
467.672	2062.06
468.045	2115.17
468.417	2122.63
468.789	2149.07
469.161	2163.76
469.534	2165.56
469.906	2227.71
470.278	2213.47
470.65	2224.55
471.022	2261.83
471.394	2313.58
471.766	2307.48
472.138	2315.84
472.51	2400.36
472.882	2345.9
473.253	2429.51
473.625	2441.04
473.997	2522.39
474.369	2495.05
474.74	2505.22
475.112	2584.99
475.484	2591.99
475.855	2574.82
476.227	2633.35
476.598	2697.08
476.97	2694.59
477.341	2702.73
477.713	2778.88
478.084	2768.49
478.455	2808.26
478.827	2854.13
479.198	2888.48
479.569	2916.05
479.94	2965.32
480.311	2989.72
480.682	3046.45
481.053	3079.44
481.424	3122.15
481.795	3139.55
482.166	3183.16
482.537	3201.02
482.908	3262.03
483.279	3244.18
483.65	3333.67
484.021	3368.24
484.391	3407.11
484.762	3420.45
485.133	3418.86
485.503	3492.31
485.874	3543.16
486.244	3537.51
486.615	3600.78
486.985	3609.82
487.356	3651.85
487.726	3702.93
488.097	3731.63
488.467	3762.81
488.837	3810.49
489.207	3822.7
489.578	3846.42
489.948	3953.99
490.318	3977.27
490.688	3969.13
491.058	3999.64
491.428	4009.58
491.798	4076.7
492.168	4095.91
492.538	4162.57
492.908	4207.54
493.278	4194.89
493.648	4244.83
494.017	4262.46
494.387	4297.71
494.757	4298.39
495.126	4315.79
495.496	4351.27
495.866	4378.39
496.235	4376.81
496.605	4443.7
496.974	4441.21
497.344	4516.92
497.713	4508.1
498.082	4493.41
498.452	4581.32
498.821	4591.04
499.19	4579.51
499.559	4578.83
499.928	4621.09
500.298	4618.38
500.667	4713.52
501.036	4675.1
501.405	4715.55
501.774	4669
502.143	4713.52
502.512	4776.34
502.88	4817.92
503.249	4773.86
503.618	4758.26
503.987	4789.22
504.356	4773.86
504.724	4851.37
505.093	4815.89
505.462	4849.79
505.83	4887.07
506.199	4899.73
506.567	4937.7
506.936	4930.92
507.304	5002.33
507.672	4996.45
508.041	5075.54
508.409	5012.95
508.777	5016.56
509.145	5116.67
509.514	5117.8
509.882	5103.57
510.25	5098.82
510.618	5149.67
510.986	5110.8
511.354	5118.03
511.722	5199.16
512.09	5234.18
512.458	5168.42
512.826	5230.34
513.193	5227.63
513.561	5229.44
513.929	5278.25
514.297	5311.47
514.664	5341.75
515.032	5321.64
515.4	5349.21
515.767	5337.91
516.135	5371.36
516.502	5295.2
516.869	5414.07
517.237	5394.86
517.604	5369.55
517.972	5478.25
518.339	5438.47
518.706	5428.98
519.073	5436.44
519.44	5412.71
519.808	5475.08
520.175	5525.02
520.542	5548.75
520.909	5542.65
521.276	5565.48
521.643	5582.88
522.009	5577.9
522.376	5555.53
522.743	5578.58
523.11	5647.96
523.477	5680.27
523.843	5696.09
524.21	5734.28
524.577	5765.24
524.943	5772.02
525.31	5781.29
525.676	5796.88
526.043	5801.63
526.409	5871
526.776	5913.94
527.142	5954.62
527.508	5888.86
527.874	5929.53
528.241	5997.33
528.607	5983.77
528.973	6015.18
529.339	5979.02
529.705	6056.31
530.071	6059.25
530.437	6059.7
530.803	6115.97
531.169	6124.33
531.535	6118
531.901	6129.75
532.267	6108.06
532.632	6205.68
532.998	6174.05
533.364	6182.63
533.73	6213.37
534.095	6307.6
534.461	6230.32
534.826	6300.6
535.192	6304.44
535.557	6306.25
535.923	6310.31
536.288	6301.27
536.653	6375.17
537.019	6277.77
537.384	6366.36
537.749	6353.7
538.114	6373.14
538.479	6445
538.845	6418.56
539.21	6401.39
539.575	6418.56
539.94	6459.01
540.305	6461.5
540.67	6462.4
541.034	6495.85
541.399	6499.46
541.764	6525.22
542.129	6491.55
542.494	6570.19
542.858	6574.49
543.223	6593.92
543.587	6560.03
543.952	6558.44
544.316	6610.19
544.681	6574.26
545.045	6640.02
545.41	6593.02
545.774	6714.82
546.138	6595.28
546.503	6625.56
546.867	6661.04
547.231	6703.07
547.595	6716.63
547.959	6751.43
548.324	6720.92
548.688	6741.72
549.052	6764.54
549.416	6752.56
549.779	6776.52
550.143	6742.85
550.507	6821.94
550.871	6859.23
551.235	6764.99
551.599	6892.9
551.962	6891.54
552.326	6926.57
552.689	6908.72
553.053	6896.51
553.417	6908.04
553.78	6938.77
554.143	6906.23
554.507	6895.84
554.87	6949.17
555.234	6977.87
555.597	6981.94
555.96	6955.04
556.323	6997.3
556.686	7004.99
557.05	7081.14
557.413	7022.39
557.776	7091.99
558.139	7096.96
558.502	7127.02
558.865	7110.07
559.228	7143.96
559.59	7164.76
559.953	7168.6
560.316	7286.11
560.679	7181.48
561.041	7258.76
561.404	7285.88
561.767	7343.06
562.129	7361.13
562.492	7402.94
562.854	7379.89
563.217	7417.18
563.579	7456.05
563.941	7419.66
564.304	7507.34
564.666	7475.26
565.028	7491.98
565.39	7590.73
565.753	7607.91
566.115	7609.49
566.477	7617.4
566.839	7618.53
567.201	7715.7
567.563	7741.24
567.925	7777.39
568.287	7735.81
568.648	7803.83
569.01	7757.96
569.372	7787.34
569.734	7836.6
570.095	7873.66
570.457	7873.44
570.819	7981.68
571.18	7933.1
571.542	7982.13
571.903	8054.68
572.265	8072.53
572.626	8033.21
572.987	8088.57
573.349	8100.1
573.71	8143.94
574.071	8182.58
574.432	8234.11
574.794	8259.19
575.155	8283.82
575.516	8277.49
575.877	8345.97
576.238	8382.12
576.599	8426.87
576.96	8470.48
577.32	8427.09
577.681	8467.55
578.042	8556.36
578.403	8513.65
578.763	8596.58
579.124	8637.48
579.485	8605.4
579.845	8705.28
580.206	8770.81
580.566	8810.81
580.927	8832.51
581.287	8934.65
581.648	8950.02
582.008	8973.07
582.368	9020.75
582.728	9081.54
583.089	9105.04
583.449	9140.3
583.809	9235.21
584.169	9284.7
584.529	9252.61
584.889	9432.94
585.249	9460.51
585.609	9437.24
585.969	9481.98
586.329	9580.74
586.688	9625.48
587.048	9615.99
587.408	9689.89
587.768	9771.47
588.127	9888.75
588.487	9816.66
588.846	10001.06
589.206	9996.09
589.565	10047.39
589.925	10243.54
590.284	10235.63
590.643	10265.69
591.003	10350.66
591.362	10470.2
591.721	10466.36
592.08	10506.81
592.44	10606.25
592.799	10670.88
593.158	10753.36
593.517	10737.32
593.876	10827.26
594.235	10860.93
594.593	10925.33
594.952	10974.6
595.311	11043.3
595.67	11095.95
596.029	11255.27
596.387	11309.96
596.746	11373.01
597.104	11363.29
597.463	11447.35
597.822	11551.31
598.18	11500.46
598.538	11646.9
598.897	11650.51
599.255	11630.17
599.613	11882.37
599.972	11834.69
600.33	11912.2
600.688	11845.54
601.046	12005.08
601.404	12109.71
601.762	12088.92
602.12	12123.27
602.478	12214.57
602.836	12205.07
603.194	12231.06
603.552	12264.06
603.91	12328.46
604.268	12297.28
604.625	12480.32
604.983	12492.98
605.341	12403.94
605.698	12549.25
606.056	12534.78
606.413	12609.36
606.771	12717.38
607.128	12771.84
607.485	12673.31
607.843	12673.08
608.2	12893.42
608.557	12881.44
608.914	12817.94
609.272	12940.42
609.629	12911.72
609.986	12987.2
610.343	13006.41
610.7	13081.89
611.057	13116.01
611.414	13151.72
611.771	13139.74
612.127	13196.91
612.484	13164.37
612.841	13324.14
613.198	13271.26
613.554	13309.9
613.911	13452.27
614.267	13429.22
614.624	13401.43
614.98	13395.78
615.337	13563.46
615.693	13501.76
616.05	13496.79
616.406	13596.45
616.762	13551.71
617.118	13581.31
617.475	13590.35
617.831	13655.21
618.187	13710.12
618.543	13750.12
618.899	13809.55
619.255	13703.11
619.611	13755.32
619.967	13840.29
620.323	13814.07
620.678	13849.78
621.034	13813.85
621.39	13895.88
621.746	13807.52
622.101	13976.1
622.457	13872.15
622.812	13913.96
623.168	13993.5
623.523	13955.09
623.879	13947.63
624.234	13959.6
624.589	13925.48
624.945	14051.35
625.3	13974.75
625.655	14038.25
626.01	14021.98
626.365	14010.45
626.72	13945.37
627.075	14022.65
627.43	14028.08
627.785	14032.82
628.14	14051.58
628.495	14035.99
628.85	14044.8
629.205	13907.63
629.559	14043.9
629.914	13940.62
630.269	14021.3
630.623	13947.63
630.978	13940.85
631.332	13977.01
631.687	13950.79
632.041	14021.98
632.396	13978.81
632.75	13871.25
633.104	13949.44
633.459	13940.4
633.813	13875.54
634.167	14002.09
634.521	13967.06
634.875	13943.11
635.229	13916.67
635.583	13814.3
635.937	13779.72
636.291	13846.39
636.645	13882.09
636.999	13736.11
637.352	13778.14
637.706	13772.72
638.06	13792.15
638.413	13753.51
638.767	13679.61
639.121	13724.13
639.474	13615.66
639.828	13657.01
640.181	13805.48
640.534	13698.37
640.888	13630.35
641.241	13614.76
641.594	13687.3
641.947	13746.95
642.301	13650.91
642.654	13699.95
643.007	13703.34
643.36	13609.33
643.713	13522.78
644.066	13710.35
644.419	13620.18
644.771	13524.59
645.124	13382.9
645.477	13307.42
645.83	13298.38
646.182	13125.5
646.535	13177.25
646.888	13210.47
647.24	13136.58
647.593	13207.08
647.945	13251.83
648.298	13158.27
648.65	13116.69
649.002	13187.2
649.355	13108.33
649.707	13120.3
650.059	13247.31
650.411	13427.64
650.763	13403.01
651.115	13560.97
651.467	13547.86
651.819	13454.53
652.171	13542.89
652.523	13455.21
652.875	13536.79
653.227	13437.58
653.578	13547.64
653.93	13440.07
654.282	13488.66
654.633	13451.37
654.985	13456.34
655.337	13503.57
655.688	13485.27
656.039	13556.9
656.391	13489.56
656.742	13401.43
657.094	13540.41
657.445	13528.43
657.796	13484.14
658.147	13475.32
658.498	13507.41
658.849	13560.07
659.2	13501.31
659.551	13462.89
659.902	13607.07
660.253	13440.3
660.604	13510.8
660.955	13506.28
661.306	13492.05
661.656	13552.38
662.007	13532.5
662.358	13633.29
662.708	13558.71
663.059	13586.73
663.409	13443.01
663.76	13581.99
664.11	13560.52
664.461	13566.17
664.811	13669.67
665.161	13578.6
665.511	13503.57
665.862	13548.32
666.212	13602.78
666.562	13637.81
666.912	13506.06
667.262	13546.28
667.612	13554.19
667.962	13572.27
668.312	13589.44
668.662	13585.83
669.011	13620.86
669.361	13627.86
669.711	13532.05
670.06	13544.47
670.41	13533.4
670.76	13495.44
671.109	13553.29
671.459	13601.42
671.808	13571.82
672.157	13487.53
672.507	13379.73
672.856	13465.61
673.205	13543.12
673.554	13437.36
673.904	13479.84
674.253	13533.85
674.602	13493.4
674.951	13349.45
675.3	13209.79
675.649	13456.79
675.998	13390.81
676.346	13438.49
676.695	13457.7
677.044	13384.7
677.393	13433.06
677.741	13395.55
678.09	13317.36
678.438	13320.07
678.787	13332.05
679.135	13318.49
679.484	13250.47
679.832	13370.47
680.181	13157.14
680.529	13267.19
680.877	13187.2
681.225	13223.58
681.573	13267.87
681.922	13215.44
682.27	13135.67
682.618	13144.48
682.966	13094.99
683.314	13084.6
683.661	13025.17
684.009	12978.39
684.357	12974.32
684.705	12946.07
685.053	12910.59
685.4	13001.21
685.748	12876.7
686.095	12914.66
686.443	12810.03
686.79	12922.12
687.138	12862.68
687.485	12770.03
687.832	12739.75
688.18	12717.15
688.527	12618.4
688.874	12629.02
689.221	12556.93
689.568	12588.57
689.915	12429.02
690.262	12470.38
690.609	12488.68
690.956	12419.31
691.303	12417.5
691.65	12375.92
691.997	12389.02
692.344	12213.66
692.69	12204.62
693.037	12209.37
693.383	12102.7
693.73	12178.86
694.077	12018.41
694.423	12067.45
694.769	12027
695.116	12029.03
695.462	11879.89
695.808	11885.53
696.155	11808.02
696.501	11701.58
696.847	11852.32
697.193	11730.06
697.539	11723.05
697.885	11677.86
698.231	11620.68
698.577	11574.81
698.923	11584.07
699.269	11405.77
699.614	11461.14
699.96	11403.29
700.306	11373.46
700.651	11262.5
700.997	11286
701.342	11275.83
701.688	11210.07
702.033	11172.33
702.379	11189.51
702.724	11135.5
703.069	11090.53
703.415	10976.63
703.76	11009.63
704.105	10964.66
704.45	10963.75
704.795	10829.97
705.14	10883.75
705.485	10809.41
705.83	10802.63
706.175	10734.83
706.52	10770.76
706.865	10740.93
707.209	10693.48
707.554	10698.22
707.899	10625.68
708.243	10548.85
708.588	10626.58
708.932	10534.61
709.277	10531.45
709.621	10489.19
709.966	10465.91
710.31	10437.89
710.654	10411.68
710.998	10333.03
711.342	10375.29
711.687	10340.49
712.031	10345.91
712.375	10275.86
712.719	10281.96
713.063	10235.63
713.407	10264.56
713.75	10211.23
714.094	10245.13
714.438	10192.25
714.782	10135.3
715.125	10128.97
715.469	10152.7
715.812	10044.23
716.156	10035.87
716.499	10068.41
716.843	10045.81
717.186	10040.16
717.53	10021.18
717.873	9941.18
718.216	10005.58
718.559	9950.22
718.902	9888.98
719.246	9931.01
719.589	9865.93
719.932	9871.58
720.275	9814.4
720.617	9821.41
720.96	9827.74
721.303	9840.16
721.646	9800.17
721.989	9705.71
722.331	9830.45
722.674	9733.73
723.016	9803.56
723.359	9775.53
723.701	9718.36
724.044	9713.16
724.386	9661.19
724.729	9667.97
725.071	9667.06
725.413	9647.18
725.755	9630
726.097	9580.96
726.439	9631.81
726.782	9612.15
727.124	9705.48
727.465	9632.26
727.807	9640.17
728.149	9581.19
728.491	9596.78
728.833	9684.01
729.175	9571.02
729.516	9599.49
729.858	9601.98
730.199	9534.41
730.541	9577.12
730.882	9602.88
731.224	9619.38
731.565	9535.31
731.906	9550.68
732.248	9535.99
732.589	9497.35
732.93	9555.65
733.271	9489.21
733.612	9608.31
733.953	9497.35
734.294	9486.28
734.635	9495.32
734.976	9472.04
735.317	9490.12
735.658	9543.45
735.999	9599.27
736.339	9518.59
736.68	9582.09
737.021	9557.91
737.361	9515.2
737.702	9656.89
738.042	9504.35
738.383	9597.23
738.723	9664.58
739.063	9631.36
739.404	9592.49
739.744	9608.76
740.084	9607.63
740.424	9617.57
740.764	9632.26
741.104	9691.47
741.444	9581.41
741.784	9582.09
742.124	9684.46
742.464	9669.1
742.804	9694.63
743.143	9709.55
743.483	9701.41
743.823	9742.31
744.162	9808.98
744.502	9827.06
744.841	9829.77
745.181	9925.59
745.52	9911.12
745.86	9970.78
746.199	9985.92
746.538	10053.72
746.877	10043.1
747.216	10155.18
747.556	10145.69
747.895	10301.62
748.234	10186.14
748.573	10313.82
748.911	10327.16
749.25	10402.64
749.589	10430.88
749.928	10527.83
750.267	10607.83
750.605	10706.58
750.944	10754.04
751.283	10890.08
751.621	10890.76
751.96	10913.81
752.298	11036.97
752.636	11162.39
752.975	11152.9
753.313	11327.81
753.651	11436.51
753.989	11488.48
754.327	11701.58
754.666	11753.34
755.004	11858.64
755.342	12043.72
755.679	12132.08
756.017	12211.4
756.355	12381.57
756.693	12418.85
757.031	12543.6
757.368	12678.28
757.706	12817.04
758.044	12913.76
758.381	13099.29
758.719	13164.37
759.056	13383.57
759.394	13439.17
759.731	13546.51
760.068	13686.62
760.405	13857.01
760.743	13944.92
761.08	14208.86
761.417	14297.9
761.754	14444.11
762.091	14572.47
762.428	14646.14
762.765	14748.28
763.102	14911.9
763.438	15084.32
763.775	15161.16
764.112	15295.84
764.449	15563.63
764.785	15706.23
765.122	15710.52
765.458	15841.14
765.795	15983.28
766.131	16143.28
766.467	16170.39
766.804	16276.38
767.14	16347.56
767.476	16439.77
767.812	16507.11
768.148	16828
768.485	16869.13
768.821	16846.08
769.157	16986.19
769.492	17093.76
769.828	17293.53
770.164	17138.73
770.5	17340.31
770.836	17403.81
771.171	17363.58
771.507	17476.12
771.842	17498.72
772.178	17580.3
772.513	17600.41
772.849	17792.72
773.184	17709.56
773.519	17849.45
773.855	17857.13
774.19	17815.55
774.525	17990.69
774.86	17899.39
775.195	17958.82
775.53	18108.65
775.865	18044.92
776.2	18004.7
776.535	17970.35
776.87	17992.04
777.205	17968.54
777.539	18118.37
777.874	18213.28
778.209	18129.89
778.543	18105.26
778.878	18079.5
779.212	18125.37
779.547	18092.6
779.881	18204.46
780.215	18066.39
780.55	18199.04
780.884	18050.34
781.218	18126.95
781.552	18174.86
781.886	18028.88
782.22	17975.09
782.554	17999.27
782.888	17885.38
783.222	17903.91
783.556	17879.28
783.889	17935.55
784.223	17819.39
784.557	17823.91
784.89	17870.24
785.224	17811.48
785.557	17844.7
785.891	17743.01
786.224	17658.04
786.558	17714.99
786.891	17608.32
787.224	17528.1
787.557	17551.6
787.891	17547.98
788.224	17678.83
788.557	17567.65
788.89	17483.35
789.223	17538.04
789.556	17397.25
789.888	17378.95
790.221	17344.15
790.554	17225.28
790.887	17256.02
791.219	17220.54
791.552	17202.46
791.884	17199.07
792.217	17105.51
792.549	17097.38
792.882	16987.77
793.214	16940.54
793.546	17014.21
793.879	16864.84
794.211	16778.06
794.543	16815.8
794.875	16752.07
795.207	16826.2
795.539	16798.63
795.871	16805.86
796.203	16651.51
796.535	16574.9
796.867	16544.4
797.198	16528.58
797.53	16449.03
797.862	16381.91
798.193	16457.62
798.525	16364.74
798.856	16372.42
799.188	16223.05
799.519	16281.58
799.85	16099.44
800.182	16119.77
800.513	16115.03
800.844	16069.83
801.175	16157.06
801.506	16008.59
801.837	16004.75
802.168	15894.7
802.499	15920.91
802.83	15828.03
803.161	15809.95
803.491	15814.7
803.822	15751.65
804.153	15644.76
804.483	15647.7
804.814	15609.05
805.145	15620.35
805.475	15594.36
805.805	15549.39
806.136	15428.49
806.466	15476.85
806.796	15432.56
807.126	15337.65
807.457	15373.58
807.787	15273.24
808.117	15239.35
808.447	15145.79
808.777	15174.71
809.107	15169.52
809.436	15077.99
809.766	15136.97
810.096	15095.39
810.426	14993.93
810.755	14961.16
811.085	14898.34
811.414	14881.39
811.744	14795.97
812.073	14813.14
812.403	14760.49
812.732	14746.93
813.061	14696.31
813.39	14635.52
813.719	14621.28
814.049	14729.08
814.378	14506.48
814.707	14543.77
815.036	14545.13
815.365	14499.48
815.693	14351.01
816.022	14411.12
816.351	14378.35
816.68	14268.75
817.008	14370.22
817.337	14277.79
817.665	14262.42
817.994	14282.31
818.322	14241.63
818.651	14156.21
818.979	14141.97
819.307	14147.85
819.636	14142.88
819.964	14010.45
820.292	14094.52
820.62	14084.57
820.948	14107.4
821.276	14165.47
821.604	14073.73
821.932	14116.66
822.259	14002.99
822.587	14013.61
822.915	14019.04
823.243	14073.27
823.57	13983.56
823.898	14004.35
824.225	13988.3
824.553	13970.68
824.88	14060.39
825.207	14022.2
825.535	14045.03
825.862	14009.77
826.189	14017.23
826.516	14062.43
826.843	14082.77
827.17	14005.25
827.497	14015.2
827.824	13997.12
828.151	14027.63
828.478	14048.64
828.805	14199.15
829.131	14053.84
829.458	13994.63
829.785	13822.21
830.111	14039.15
830.438	13999.6
830.764	13950.34
831.09	14036.66
831.417	13975.42
831.743	13980.62
832.069	14034.63
832.395	13917.12
832.722	13918.7
833.048	13877.8
833.374	13931.58
833.7	13814.75
834.026	13908.76
834.351	13906.95
834.677	13912.37
835.003	13859.04
835.329	13807.52
835.654	13883.67
835.98	13830.34
836.306	13814.07
836.631	13793.96
836.956	13788.31
837.282	13839.16
837.607	13763
837.932	13648.43
838.258	13715.32
838.583	13686.84
838.908	13611.59
839.233	13682.78
839.558	13653.17
839.883	13570.01
840.208	13565.49
840.533	13607.98
840.858	13600.74
841.182	13523.23
841.507	13479.39
841.832	13337.25
842.156	13450.69
842.481	13445.72
842.805	13341.99
843.13	13344.25
843.454	13321.66
843.778	13271.94
844.103	13225.61
844.427	13186.97
844.751	13272.39
845.075	13128.67
845.399	13146.52
845.723	13067.65
846.047	13031.95
846.371	12924.15
846.695	12997.14
847.019	12870.82
847.343	12794.21
847.666	12714.44
847.99	12678.28
848.313	12726.42
848.637	12561.45
848.96	12574.78
849.284	12636.93
849.607	12378.4
849.931	12440.77
850.254	12267.67
850.577	12220.67
850.9	12164.85
851.223	12198.07
851.546	12099.31
851.869	12063.61
852.192	12119.43
852.515	11972.09
852.838	11986.78
853.161	11923.05
853.483	11863.39
853.806	11872.88
854.129	11819.32
854.451	11723.05
854.774	11693.22
855.096	11635.6
855.419	11639.21
855.741	11667.01
856.063	11566.9
856.385	11591.31
856.708	11487.35
857.03	11510.18
857.352	11516.73
857.674	11439.44
857.996	11427.02
858.318	11293.01
858.64	11415.26
858.961	11223.86
859.283	11192.67
859.605	11255.27
859.926	11277.64
860.248	11206.91
860.57	11110.19
860.891	11156.06
861.212	11076.74
861.534	11008.04
861.855	11060.47
862.176	11052.79
862.498	11015.28
862.819	11057.08
863.14	10954.94
863.461	10931.44
863.782	10893.24
864.103	10839.46
864.424	10880.82
864.745	10930.53
865.065	10798.56
865.386	10705.45
865.707	10828.16
866.027	10837.65
866.348	10697.32
866.668	10775.06
866.989	10729.86
867.309	10674.95
867.63	10638.11
867.95	10604.21
868.27	10643.53
868.59	10573.48
868.91	10601.73
869.23	10518.79
869.55	10570.77
869.87	10568.73
870.19	10513.59
870.51	10579.58
870.83	10486.93
871.15	10400.6
871.469	10430.66
871.789	10501.84
872.109	10427.27
872.428	10362.86
872.748	10406.93
873.067	10370.32
873.386	10372.35
873.706	10415.52
874.025	10335.97
874.344	10387.5
874.663	10278.35
874.982	10286.93
875.301	10242.87
875.62	10277.44
875.939	10270.44
876.258	10253.04
876.577	10163.55
876.896	10189.31
877.214	10154.73
877.533	10154.28
877.852	10114.73
878.17	10117.45
878.489	10074.28
878.807	10135.98
879.125	9999.48
879.444	10066.83
879.762	10005.81
880.08	9988.64
880.398	9962.42
880.716	9975.08
881.034	9942.54
881.352	9970.78
881.67	9871.8
881.988	9915.19
882.306	9825.48
882.624	9785.7
882.941	9797.23
883.259	9770.56
883.577	9730.56
883.894	9758.36
884.212	9691.92
884.529	9733.95
884.846	9686.27
885.164	9705.93
885.481	9680.4
885.798	9662.77
886.115	9580.06
886.432	9580.74
886.75	9542.55
887.067	9530.79
887.383	9487.86
887.7	9531.7
888.017	9440.85
888.334	9425.26
888.651	9440.18
888.967	9407.18
889.284	9328.99
889.6	9316.34
889.917	9319.73
890.233	9220.07
890.55	9253.29
890.866	9237.92
891.182	9213.97
891.498	9137.36
891.815	9145.95
892.131	9078.83
892.447	9055.55
892.763	9020.53
893.079	9002.22
893.395	9005.84
893.71	8987.08
894.026	8923.8
894.342	8937.14
894.657	8878.16
894.973	8848.33
895.289	8820.98
895.604	8828.21
895.92	8765.84
896.235	8757.93
896.55	8776.01
896.865	8700.31
897.181	8677.94
897.496	8662.34
897.811	8678.39
898.126	8542.57
898.441	8587.32
898.756	8478.39
899.071	8439.3
899.386	8474.1
899.7	8413.76
900.015	8383.48
900.33	8315.91
900.644	8349.81
900.959	8319.75
901.273	8273.88
901.588	8260.77
901.902	8169.93
902.216	8240.89
902.531	8183.71
902.845	8105.97
903.159	8028.24
903.473	8032.75
903.787	8061.91
904.101	7980.1
904.415	7952.31
904.729	7913.44
905.042	7873.66
905.356	7890.16
905.67	7829.82
905.984	7848.35
906.297	7819.88
906.611	7764.06
906.924	7747.11
907.237	7677.28
907.551	7655.82
907.864	7654.69
908.177	7649.71
908.491	7570.17
908.804	7531.07
909.117	7477.52
909.43	7416.73
909.743	7454.69
910.056	7393.22
910.368	7380.79
910.681	7315.03
910.994	7314.13
911.307	7285.43
911.619	7197.52
911.932	7233.68
912.244	7189.84
912.557	7199.1
912.869	7113.23
913.181	7095.83
913.494	7073.68
913.806	7039.56
914.118	6980.58
914.43	6991.43
914.742	6996.85
915.054	6930.19
915.366	6890.64
915.678	6868.49
915.99	6859.68
916.302	6828.72
916.613	6810.87
916.925	6761.83
917.236	6759.12
917.548	6694.71
917.859	6685.22
918.171	6650.87
918.482	6619.68
918.794	6579.91
919.105	6618.1
919.416	6614.49
919.727	6496.52
920.038	6520.7
920.349	6495.62
920.66	6341.73
920.971	6390.09
921.282	6395.06
921.593	6374.95
921.903	6326.13
922.214	6278.45
922.525	6308.28
922.835	6232.35
923.146	6186.7
923.456	6202.75
923.767	6179.7
924.077	6181.73
924.387	6185.35
924.697	6159.81
925.008	6087.95
925.318	6097.66
925.628	6070.55
925.938	6033.71
926.248	5978.12
926.558	5914.39
926.867	5985.35
927.177	5896.09
927.487	5856.09
927.796	5846.82
928.106	5832.59
928.416	5809.08
928.725	5829.42
929.034	5760.95
929.344	5787.84
929.653	5692.48
929.962	5679.6
930.271	5649.99
930.581	5620.61
930.89	5605.93
931.199	5623.33
931.508	5609.99
931.817	5570.9
932.125	5527.74
932.434	5543.78
932.743	5491.58
933.051	5478.25
933.36	5443.44
933.669	5382.66
933.977	5386.95
934.286	5389.89
934.594	5343.56
934.902	5371.13
935.21	5286.39
935.519	5297.91
935.827	5273.51
936.135	5231.7
936.443	5229.44
936.751	5170.23
937.059	5126.39
937.367	5166.16
937.674	5161.19
937.982	5111.48
938.29	5052.04
938.597	5077.35
938.905	4997.35
939.213	4985.15
939.52	4991.48
939.827	4974.76
940.135	5021.99
940.442	4948.77
940.749	4955.1
941.056	4948.09
941.363	4879.39
941.67	4898.6
941.977	4820.41
942.284	4790.58
942.591	4822.67
942.898	4817.7
943.205	4765.95
943.511	4697.7
943.818	4733.18
944.125	4712.39
944.431	4706.06
944.738	4663.58
945.044	4664.71
945.35	4641.21
945.657	4566.63
945.963	4561.89
946.269	4517.14
946.575	4518.95
946.881	4501.1
947.187	4510.59
947.493	4448.67
947.799	4463.58
948.105	4483.02
948.41	4415.45
948.716	4458.61
949.022	4417.93
949.327	4357.15
949.633	4352.63
949.938	4299.97
950.244	4356.92
950.549	4304.72
950.854	4296.81
951.16	4279.18
951.465	4245.96
951.77	4233.53
952.075	4166.19
952.38	4169.35
952.685	4108.34
952.99	4088
953.294	4130.94
953.599	4088.45
953.904	4082.12
954.209	4081.67
954.513	4074.21
954.818	4064.27
955.122	4040.54
955.426	4020.88
955.731	3964.84
956.035	3999.64
956.339	3919.42
956.643	3928.23
956.948	3867.89
957.252	3856.82
957.556	3928.68
957.86	3878.06
958.163	3844.62
958.467	3852.75
958.771	3791.28
959.075	3768.01
959.378	3784.51
959.682	3768.69
959.985	3746.54
960.289	3709.03
960.592	3693.21
960.896	3707.22
961.199	3685.3
961.502	3679.42
961.805	3662.02
962.108	3631.29
962.411	3638.97
962.714	3605.3
963.017	3583.61
963.32	3544.96
963.623	3583.15
963.926	3543.83
964.228	3506.09
964.531	3522.14
964.833	3512.87
965.136	3436.49
965.438	3489.37
965.741	3461.12
966.043	3437.85
966.345	3442.82
966.648	3377.51
966.95	3396.72
967.252	3389.94
967.554	3392.2
967.856	3350.84
968.158	3350.84
968.46	3359.66
968.761	3335.48
969.063	3265.87
969.365	3230.62
969.666	3245.08
969.968	3260.23
970.269	3251.19
970.571	3244.86
970.872	3228.14
971.174	3233.56
971.475	3190.85
971.776	3135.93
972.077	3132.09
972.378	3131.64
972.679	3121.92
972.98	3113.34
973.281	3075.82
973.582	3076.73
973.883	3039.21
974.183	3079.66
974.484	3051.64
974.785	3018.65
975.085	3017.97
975.386	2989.95
975.686	3025.2
975.986	2996.5
976.287	2980.91
976.587	2946.79
976.887	2935.94
977.187	2926
977.487	2970.52
977.787	2878.77
978.087	2850.07
978.387	2885.09
978.687	2900.23
978.987	2821.37
979.286	2826.79
979.586	2842.38
979.885	2831.54
980.185	2799.22
980.484	2772.55
980.784	2762.84
981.083	2750.63
981.382	2766.9
981.682	2715.38
981.981	2746.11
982.28	2719.45
982.579	2657.08
982.878	2685.78
983.177	2673.8
983.475	2675.83
983.774	2639
984.073	2657.53
984.372	2611.43
984.67	2603.52
984.969	2613.91
985.267	2595.16
985.566	2582.05
985.864	2565.55
986.162	2539.79
986.461	2551.32
986.759	2549.74
987.057	2543.63
987.355	2498.66
987.653	2515.61
987.951	2490.3
988.249	2476.52
988.547	2462.51
988.844	2454.82
989.142	2433.13
989.44	2439.23
989.737	2415.95
990.035	2432
990.332	2416.63
990.63	2369.85
990.927	2347.93
991.224	2385.9
991.521	2370.53
991.819	2359.46
992.116	2368.27
992.413	2323.3
992.71	2323.53
993.006	2276.3
993.303	2294.83
993.6	2264.32
993.897	2248.5
994.193	2260.25
994.49	2258.67
994.787	2238.33
995.083	2225.45
995.379	2197.88
995.676	2199.01
995.972	2184.77
996.268	2216.18
996.565	2151.78
996.861	2146.58
997.157	2153.81
997.453	2150.65
997.749	2134.83
998.044	2135.96
998.34	2097.09
998.636	2108.62
998.932	2081.72
999.227	2063.19
999.523	2038.79
999.818	2054.83
1000.114	2041.73
1000.409	2029.75
1000.704	1983.65
1001	2020.26
1001.295	2008.96
1001.59	1966.25
1001.885	1978.22
1002.18	1966.7
1002.475	1935.06
1002.77	1958.34
1003.065	1924.44
1003.359	1922.18
1003.654	1932.8
1003.949	1917.21
1004.243	1894.39
1004.538	1891
1004.832	1875.18
1005.127	1884.44
1005.421	1858.68
1005.715	1853.71
1006.009	1848.06
1006.304	1834.05
1006.598	1800.15
1006.892	1824.33
1007.186	1796.99
1007.48	1780.72
1007.773	1803.54
1008.067	1740.49
1008.361	1717.21
1008.655	1753.15
1008.948	1743.43
1009.242	1700.04
1009.535	1712.02
1009.829	1704.79
1010.122	1679.48
1010.415	1675.63
1010.708	1663.66
1011.001	1682.64
1011.295	1657.56
1011.588	1648.06
1011.881	1620.27
1012.173	1626.6
1012.466	1621.17
1012.759	1589.99
1013.052	1603.55
1013.344	1613.94
1013.637	1600.61
1013.93	1583.43
1014.222	1563.55
1014.514	1551.34
1014.807	1541.63
1015.099	1514.96
1015.391	1502.31
1015.683	1510.21
1015.976	1484.9
1016.268	1503.66
1016.56	1497.79
1016.851	1475.64
1017.143	1478.12
1017.435	1450.56
1017.727	1455.98
1018.018	1445.36
1018.31	1428.86
1018.602	1437.22
1018.893	1417.79
1019.185	1384.57
1019.476	1371.46
1019.767	1374.62
1020.058	1378.47
1020.35	1374.85
1020.641	1340.95
1020.932	1350.67
1021.223	1347.73
1021.514	1343.67
1021.804	1331.01
1022.095	1325.13
1022.386	1288.07
1022.677	1310.9
1022.967	1306.6
1023.258	1287.62
1023.548	1322.87
1023.839	1283.1
1024.129	1248.75
1024.419	1243.33
1024.709	1237.68
1025	1243.33
1025.29	1219.15
1025.58	1224.57
1025.87	1215.31
1026.16	1209.88
1026.449	1185.48
1026.739	1193.61
1027.029	1190
1027.319	1165.14
1027.608	1189.32
1027.898	1164.91
1028.187	1154.74
1028.477	1149.55
1028.766	1148.64
1029.055	1144.8
1029.344	1104.35
1029.634	1145.93
1029.923	1096.89
1030.212	1086.72
1030.501	1101.19
1030.79	1107.51
1031.078	1080.62
1031.367	1052.37
1031.656	1065.25
1031.945	1063.67
1032.233	1055.54
1032.522	1047.18
1032.81	1047.63
1033.099	1041.07
1033.387	1026.16
1033.675	1047.4
1033.963	1018.7
1034.251	991.13
1034.54	1023.45
1034.828	976.9
1035.116	1002.21
1035.403	993.17
1035.691	996.78
1035.979	978.25
1036.267	969.21
1036.554	964.69
1036.842	941.19
1037.129	932.83
1037.417	956.33
1037.704	943
1037.992	931.47
1038.279	931.02
1038.566	931.25
1038.853	931.25
1039.14	931.25
