Data from hue_32_FLMS001491_00065.txt Node
Date: Tue Feb 07 17:23:44 GMT 2017
User: dcchb
Spectrometer: FLMS00149
Trigger mode: 0
Integration Time (sec): 2.000000E-2
Scans to average: 10
Electric dark correction enabled: true
Nonlinearity correction enabled: false
Boxcar width: 0
XAxis mode: Wavelengths
Number of Pixels in Spectrum: 2048
>>>>>Begin Spectral Data<<<<<
341.393	-22.16
341.776	-22.16
342.16	-22.16
342.543	-60.13
342.927	-75.94
343.31	-70.29
343.693	-77.98
344.077	-69.39
344.46	-48.83
344.843	-49.96
345.226	-49.5
345.61	-24.42
345.993	-30.75
346.376	-11.77
346.759	1.79
347.142	30.95
347.525	47.22
347.908	51.96
348.291	103.03
348.674	82.47
349.057	115.46
349.44	129.7
349.823	134.22
350.206	164.95
350.588	217.61
350.971	236.14
351.354	227.32
351.737	225.97
352.119	244.5
352.502	304.16
352.884	296.93
353.267	292.18
353.65	288.57
354.032	303.48
354.414	307.32
354.797	309.13
355.179	333.76
355.562	324.95
355.944	341.67
356.326	317.94
356.709	343.93
357.091	341.9
357.473	344.38
357.855	353.2
358.238	372.86
358.62	343.03
359.002	356.13
359.384	350.26
359.766	358.62
360.148	345.74
360.53	345.29
360.912	326.98
361.294	350.03
361.676	331.73
362.057	336.25
362.439	329.92
362.821	344.38
363.203	350.71
363.584	346.42
363.966	314.78
364.348	325.63
364.729	336.02
365.111	324.27
365.493	324.5
365.874	329.47
366.256	315.01
366.637	327.21
367.019	330.15
367.4	322.69
367.781	353.65
368.163	331.28
368.544	323.37
368.925	326.98
369.306	321.11
369.688	325.4
370.069	334.21
370.45	309.13
370.831	311.84
371.212	324.27
371.593	343.25
371.974	319.53
372.355	329.92
372.736	339.41
373.117	317.04
373.498	327.43
373.879	300.99
374.26	312.75
374.641	305.51
375.021	322.46
375.402	326.76
375.783	331.05
376.163	342.12
376.544	327.21
376.925	322.69
377.305	339.64
377.686	338.96
378.066	329.92
378.447	335.57
378.827	345.74
379.208	337.83
379.588	357.72
379.968	315.91
380.349	332.41
380.729	349.81
381.109	366.98
381.489	353.42
381.87	329.47
382.25	347.32
382.63	355.68
383.01	371.5
383.39	347.1
383.77	338.73
384.15	352.07
384.53	368.79
384.91	367.66
385.29	368.79
385.67	358.39
386.049	358.17
386.429	365.85
386.809	348.23
387.189	360.88
387.568	367.89
387.948	372.18
388.328	365.4
388.707	359.98
389.087	355.68
389.466	362.69
389.846	362.01
390.225	362.69
390.605	392.74
390.984	380.31
391.363	383.48
391.743	394.55
392.122	379.64
392.501	376.25
392.881	393.42
393.26	378.51
393.639	379.41
394.018	388
394.397	380.31
394.776	412.18
395.155	388.22
395.534	407.88
395.913	392.74
396.292	387.09
396.671	385.29
397.05	395.91
397.429	380.99
397.808	386.64
398.186	414.89
398.565	410.37
398.944	402.69
399.323	399.52
399.701	407.43
400.08	407.43
400.458	408.56
400.837	419.18
401.215	418.96
401.594	433.42
401.972	429.58
402.351	421.44
402.729	402.91
403.107	415.34
403.486	441.1
403.864	411.95
404.242	430.93
404.62	429.81
404.999	424.16
405.377	439.97
405.755	434.32
406.133	441.78
406.511	438.17
406.889	446.3
407.267	435.23
407.645	446.3
408.023	435.23
408.401	451.95
408.779	444.04
409.156	445.85
409.534	464.15
409.912	465.28
410.29	455.34
410.667	459.18
411.045	477.71
411.422	470.48
411.8	460.99
412.178	491.5
412.555	469.13
412.933	496.47
413.31	493.31
413.687	469.8
414.065	476.58
414.442	500.09
414.819	514.55
415.197	509.8
415.574	522.91
415.951	509.58
416.328	525.62
416.705	492.85
417.082	505.06
417.46	526.98
417.837	542.12
418.214	546.19
418.591	538.05
418.967	525.85
419.344	519.75
419.721	548.22
420.098	545.28
420.475	560.42
420.852	529.92
421.228	532.4
421.605	557.49
421.982	554.55
422.358	553.87
422.735	550.71
423.111	557.94
423.488	579.41
423.864	578.05
424.241	579.18
424.617	586.41
424.994	576.24
425.37	556.58
425.746	565.62
426.123	598.61
426.499	596.35
426.875	606.07
427.251	599.52
427.627	616.92
428.003	595.22
428.379	632.51
428.756	636.13
429.132	635.9
429.507	635
429.883	659.86
430.259	643.13
430.635	626.86
431.011	644.71
431.387	641.78
431.763	675.22
432.138	677.03
432.514	666.41
432.89	675.22
433.265	684.94
433.641	679.52
434.016	698.5
434.392	686.52
434.767	738.72
435.143	722.23
435.518	722.45
435.894	751.6
436.269	728.33
436.644	731.49
437.02	730.36
437.395	733.3
437.77	747.54
438.145	787.76
438.52	755.45
438.895	765.84
439.271	777.37
439.646	782.56
440.021	788.44
440.395	776.91
440.77	804.94
441.145	797.48
441.52	815.78
441.895	811.04
442.27	818.5
442.645	804.94
443.019	809.23
443.394	832.96
443.769	838.83
444.143	846.52
444.518	836.12
444.892	833.64
445.267	847.2
445.641	859.4
446.016	856.91
446.39	859.4
446.764	868.44
447.139	879.96
447.513	883.8
447.887	882.9
448.262	892.84
448.636	882.45
449.01	876.35
449.384	895.56
449.758	890.58
450.132	919.74
450.506	915.22
450.88	924.48
451.254	915.44
451.628	926.29
452.002	928.1
452.376	958.15
452.75	956.57
453.123	979.4
453.497	950.92
453.871	1009.68
454.244	989.79
454.618	1025.27
454.992	1036.12
455.365	1002.22
455.739	1024.82
456.112	1049.22
456.486	1055.33
456.859	1063.69
457.232	1059.85
457.606	1077.7
457.979	1110.24
458.352	1079.51
458.725	1140.29
459.099	1109.34
459.472	1142.1
459.845	1166.96
460.218	1174.87
460.591	1156.11
460.964	1207.41
461.337	1191.82
461.71	1194.3
462.083	1220.74
462.456	1218.26
462.829	1239.28
463.201	1269.56
463.574	1265.94
463.947	1291.03
464.32	1298.71
464.692	1287.18
465.065	1316.34
465.438	1348.2
465.81	1367.63
466.183	1382.32
466.555	1409.21
466.928	1421.87
467.3	1417.12
467.672	1438.59
468.045	1470.91
468.417	1454.64
468.789	1505.26
469.161	1498.25
469.534	1536.22
469.906	1540.28
470.278	1586.84
470.65	1585.48
471.022	1633.84
471.394	1637.68
471.766	1698.02
472.138	1712.48
472.51	1740.96
472.882	1785.93
473.253	1819.37
473.625	1844.01
473.997	1885.81
474.369	1909.77
474.74	1933.72
475.112	1969.43
475.484	2000.61
475.855	2054.85
476.227	2063.66
476.598	2145.69
476.97	2155.86
477.341	2206.48
477.713	2274.73
478.084	2295.97
478.455	2387.04
478.827	2416.42
479.198	2514.04
479.569	2502.97
479.94	2595.4
480.311	2612.12
480.682	2693.7
481.053	2769.63
481.424	2813.92
481.795	2852.11
482.166	2921.72
482.537	2963.75
482.908	3051.66
483.279	3111.99
483.65	3196.06
484.021	3312.22
484.391	3350.86
484.762	3424.3
485.133	3491.87
485.503	3574.36
485.874	3666.78
486.244	3721.24
486.615	3788.81
486.985	3882.82
487.356	3991.75
487.726	4045.53
488.097	4161.91
488.467	4226.09
488.837	4299.76
489.207	4429.25
489.578	4492.07
489.948	4577.94
490.318	4705.4
490.688	4759.18
491.058	4792.63
491.428	4901.78
491.798	5018.38
492.168	5127.08
492.538	5199.4
492.908	5276.01
493.278	5381.99
493.648	5414.08
494.017	5523
494.387	5612.04
494.757	5647.75
495.126	5757.8
495.496	5805.48
495.866	5854.97
496.235	5966.83
496.605	6059.04
496.974	6130.45
497.344	6203.21
497.713	6236.66
498.082	6363.66
498.452	6511.23
498.821	6538.35
499.19	6565.91
499.559	6628.51
499.928	6705.35
500.298	6764.78
500.667	6901.95
501.036	6876.42
501.405	7058.11
501.774	7025.11
502.143	7136.97
502.512	7142.17
502.88	7260.59
503.249	7279.34
503.618	7328.38
503.987	7394.14
504.356	7442.05
504.724	7502.39
505.093	7555.49
505.462	7631.65
505.83	7642.95
506.199	7720.69
506.567	7906.67
506.936	7879.55
507.304	8014.69
507.672	8076.61
508.041	8099.66
508.409	8141.01
508.777	8202.93
509.145	8266.44
509.514	8234.57
509.882	8362.7
510.25	8422.82
510.618	8476.83
510.986	8493.55
511.354	8571.74
511.722	8682.02
512.09	8698.97
512.458	8707.78
512.826	8826.19
513.193	8812.18
513.561	8859.87
513.929	9025.96
514.297	8978.73
514.664	9124.27
515.032	9154.1
515.4	9187.99
515.767	9242.91
516.135	9288.1
516.502	9265.28
516.869	9410.81
517.237	9454.88
517.604	9464.37
517.972	9519.28
518.339	9555.21
518.706	9567.42
519.073	9655.33
519.44	9714.08
519.808	9817.35
520.175	9790.91
520.542	9959.27
520.909	9927.18
521.276	9977.58
521.643	10070.68
522.009	10066.39
522.376	10171.47
522.743	10215.08
523.11	10258.25
523.477	10353.84
523.843	10429.54
524.21	10520.39
524.577	10569.88
524.943	10650.55
525.31	10667.05
525.676	10701.17
526.043	10819.81
526.409	10849.19
526.776	10952.69
527.142	10980.26
527.508	11064.55
527.874	11144.78
528.241	11178.67
528.607	11196.53
528.973	11236.53
529.339	11331.44
529.705	11440.14
530.071	11505.45
530.437	11554.26
530.803	11617.76
531.169	11721.26
531.535	11653.92
531.901	11693.24
532.267	11759.9
532.632	11876.96
532.998	11924.87
533.364	12062.04
533.73	12036.28
534.095	12188.59
534.461	12127.8
534.826	12250.96
535.192	12269.72
535.557	12337.29
535.923	12330.74
536.288	12408.02
536.653	12563.95
537.019	12479.43
537.384	12534.12
537.749	12554.01
538.114	12662.93
538.479	12641.24
538.845	12746.54
539.21	12717.39
539.575	12779.76
539.94	12798.52
540.305	12875.58
540.67	12926.2
541.034	13043.71
541.399	13042.35
541.764	13154.89
542.129	13168
542.494	13295.91
542.858	13255.46
543.223	13260.65
543.587	13392.63
543.952	13319.41
544.316	13423.59
544.681	13479.41
545.045	13603.02
545.41	13622.45
545.774	13605.73
546.138	13599.85
546.503	13648.21
546.867	13744.94
547.231	13873.52
547.595	13929.56
547.959	13959.62
548.324	13993.06
548.688	13941.09
549.052	14052.05
549.416	14105.15
549.779	14090.69
550.143	14256.56
550.507	14197.8
550.871	14296.56
551.235	14290.01
551.599	14451.36
551.962	14468.76
552.326	14422.66
552.689	14625.36
553.053	14579.04
553.417	14588.3
553.78	14874.17
554.143	14615.87
554.507	14820.16
554.87	14896.09
555.234	14960.5
555.597	14807.28
555.96	15001.85
556.323	15048.18
556.686	14945.58
557.05	15176.08
557.413	15207.95
557.776	15172.24
558.139	15285.01
558.502	15326.36
558.865	15380.37
559.228	15531.1
559.59	15502.18
559.953	15529.3
560.316	15650.2
560.679	15619.69
561.041	15824.88
561.404	15832.79
561.767	15865.33
562.129	15881.15
562.492	16049.06
562.854	16074.14
563.217	16079.11
563.579	16071.43
563.941	16087.47
564.304	16286.79
564.666	16288.6
565.028	16263.97
565.39	16389.61
565.753	16478.65
566.115	16492.89
566.477	16623.96
566.839	16692.88
567.201	16776.04
567.563	16736.04
567.925	16936.94
568.287	16866.44
568.648	16891.07
569.01	16973.78
569.372	17117.95
569.734	17140.78
570.095	17250.61
570.457	17182.81
570.819	17454.67
571.18	17393.2
571.542	17487.44
571.903	17545.74
572.265	17590.48
572.626	17725.62
572.987	17737.37
573.349	17938.95
573.71	17943.02
574.071	18087.19
574.432	18196.12
574.794	18316.57
575.155	18317.24
575.516	18331.93
575.877	18517.69
576.238	18521.76
576.599	18640.63
576.96	18779.61
577.32	18914.29
577.681	19032.71
578.042	19187.28
578.403	19158.8
578.763	19520.83
579.124	19558.79
579.485	19709.07
579.845	19868.84
580.206	19970.99
580.566	20187.7
580.927	20268.61
581.287	20515.83
581.648	20564.64
582.008	20810.51
582.368	20987.68
582.728	21123.5
583.089	21340.22
583.449	21417.73
583.809	21778.62
584.169	21964.61
584.529	22035.79
584.889	22495.67
585.249	22518.72
585.609	22732.04
585.969	23043.22
586.329	23146.27
586.688	23481.63
587.048	23663.32
587.408	23696.99
587.768	23978.79
588.127	24283.42
588.487	24440.7
588.846	24891.08
589.206	24996.39
589.565	25114.58
589.925	25691.29
590.284	25736.48
590.643	25948.68
591.003	26326.75
591.362	26633.41
591.721	26817.81
592.08	27092.61
592.44	27426.61
592.799	27696.88
593.158	27787.05
593.517	28195.4
593.876	28440.37
594.235	28672.68
594.593	28904.08
594.952	29389.27
595.311	29309.5
595.67	29627.46
596.029	30125.07
596.387	30230.15
596.746	30705.62
597.104	30712.85
597.463	30944.03
597.822	31320.29
598.18	31411.59
598.538	31654.29
598.897	32092.93
599.255	32064.23
599.613	32797.99
599.972	32753.93
600.33	33213.35
600.688	33110.75
601.046	33368.6
601.404	33797.29
601.762	33885.87
602.12	34251.74
602.478	34501.45
602.836	34625.06
603.194	34676.36
603.552	35009.69
603.91	35061.44
604.268	35364.25
604.625	35562.89
604.983	35761.31
605.341	35822.32
605.698	36227.06
606.056	36481.51
606.413	36519.25
606.771	36854.61
607.128	37115.62
607.485	37014.15
607.843	37329.63
608.2	37674.48
608.557	37744.76
608.914	37698.2
609.272	38099.55
609.629	38388.81
609.986	38468.8
610.343	38309.71
610.7	38935.91
611.057	39035.34
611.414	39090.94
611.771	39263.13
612.127	39375.45
612.484	39404.83
612.841	39828.09
613.198	39699.73
613.554	39873.29
613.911	40183.79
614.267	40252.26
614.624	40144.92
614.98	40508.53
615.337	40842.53
615.693	40790.1
616.05	40795.75
616.406	41239.13
616.762	40964.78
617.118	41250.43
617.475	41308.5
617.831	41402.06
618.187	41702.17
618.543	41678.44
618.899	41910.75
619.255	41799.56
619.611	41954.81
619.967	42141.7
620.323	42295.82
620.678	42311.87
621.034	42185.54
621.39	42309.83
621.746	42345.31
622.101	42905.98
622.457	42555.03
622.812	42809.26
623.168	42796.83
623.523	43015.8
623.879	43132.41
624.234	42877.5
624.589	43152.75
624.945	43164.27
625.3	43348
625.655	43253.54
626.01	43418.51
626.365	43384.61
626.72	43457.37
627.075	43372.4
627.43	43407.21
627.785	43429.13
628.14	43449.46
628.495	43511.38
628.85	43639.74
629.205	43411.5
629.559	43788.44
629.914	43505.96
630.269	43567.2
630.623	43626.86
630.978	43611.95
631.332	43762
631.687	43867.08
632.041	43842
632.396	43794.77
632.75	43592.51
633.104	43624.38
633.459	43627.09
633.813	43628.67
634.167	43668.67
634.521	43793.86
634.875	43830.02
635.229	43815.1
635.583	43640.87
635.937	43705.05
636.291	43625.51
636.645	43644.26
636.999	43595
637.352	43749.12
637.706	43599.07
638.06	43638.16
638.413	43518.84
638.767	43513.87
639.121	43532.63
639.474	43364.27
639.828	43365.85
640.181	43458.73
640.534	43440.2
640.888	43295.57
641.241	43158.4
641.594	43201.79
641.947	43451.27
642.301	43382.57
642.654	43291.5
643.007	43352.74
643.36	43301.45
643.713	43220.54
644.066	43452.85
644.419	43075.46
644.771	42923.15
645.124	42570.17
645.477	42605.65
645.83	42218.99
646.182	42164.3
646.535	42058.99
646.888	42294.47
647.24	42014.93
647.593	42057.19
647.945	42185.54
648.298	41831.88
648.65	41756.63
649.002	41792.79
649.355	41999.79
649.707	41981.25
650.059	42080.46
650.411	42408.36
650.763	42400.9
651.115	42922.7
651.467	42725.87
651.819	42764.06
652.171	42699.65
652.523	42658.98
652.875	42567.23
653.227	42486.1
653.578	42722.25
653.93	42663.5
654.282	42611.75
654.633	42469.6
654.985	42593.67
655.337	42524.74
655.688	42618.3
656.039	42680.22
656.391	42362.04
656.742	42353.9
657.094	42444.97
657.445	42663.5
657.796	42597.28
658.147	42367.01
658.498	42502.82
658.849	42549.38
659.2	42388.93
659.551	42239.78
659.902	42382.6
660.253	42305.99
660.604	42386.22
660.955	42183.74
661.306	42440.68
661.656	42299.21
662.007	42171.76
662.358	42218.76
662.708	42321.58
663.059	42236.16
663.409	41953.46
663.76	42347.8
664.11	42211.08
664.461	42418.98
664.811	42435.93
665.161	42246.33
665.511	42196.84
665.862	42283.62
666.212	42346.44
666.562	42258.54
666.912	42048.6
667.262	42067.35
667.612	42150.06
667.962	42235.71
668.312	42090.4
668.662	42251.76
669.011	42188.93
669.361	42060.8
669.711	42178.31
670.06	42047.47
670.41	42060.35
670.76	41985.77
671.109	42068.26
671.459	42029.84
671.808	41874.14
672.157	42050.18
672.507	41689.06
672.856	41736.52
673.205	42105.55
673.554	42043.4
673.904	41833.01
674.253	41983.06
674.602	41916.4
674.951	41326.36
675.3	41067.15
675.649	41746.91
675.998	41656.07
676.346	41694.48
676.695	41826.68
677.044	41486.8
677.393	41802.28
677.741	41883.86
678.09	41615.84
678.438	41487.93
678.787	41765.89
679.135	41484.09
679.484	41374.49
679.832	41479.8
680.181	41314.83
680.529	41368.84
680.877	41313.25
681.225	41280.48
681.573	41497.2
681.922	41045.01
682.27	40968.63
682.618	40978.12
682.966	40943.09
683.314	41136.76
683.661	40939.02
684.009	40750.33
684.357	40713.49
684.705	40700.38
685.053	40747.39
685.4	40606.83
685.748	40330.22
686.095	40446.83
686.443	40425.36
686.79	40252.49
687.138	40431.69
687.485	40346.27
687.832	40129.1
688.18	40187.86
688.527	39768.88
688.874	40065.6
689.221	39901.08
689.568	39899.05
689.915	39741.09
690.262	39715.1
690.609	39566.4
690.956	39517.36
691.303	39367.99
691.65	39286.64
691.997	39198.05
692.344	38922.58
692.69	39039.41
693.037	39005.29
693.383	38659.08
693.73	38850.72
694.077	38536.37
694.423	38616.6
694.769	38488.92
695.116	38469.26
695.462	38499.99
695.808	38160.34
696.155	38295.48
696.501	38057.29
696.847	37919.44
697.193	37698.66
697.539	38027.69
697.885	37620.24
698.231	37563.97
698.577	37630.86
698.923	37518.32
699.269	37319.91
699.614	37173.7
699.96	37191.78
700.306	37093.93
700.651	36866.81
700.997	36867.04
701.342	36807.15
701.688	36594.28
702.033	36690.77
702.379	36517.44
702.724	36555.86
703.069	36609.42
703.415	36056.66
703.76	36107.06
704.105	36127.4
704.45	36007.85
704.795	35792.94
705.14	35796.11
705.485	35798.14
705.83	35597.47
706.175	35651.25
706.52	35454.42
706.865	35432.05
707.209	35506.4
707.554	35196.35
707.899	35285.61
708.243	35114.32
708.588	35081.1
708.932	34905.73
709.277	34923.14
709.621	34822.8
709.966	34581
710.31	34776.7
710.654	34325.19
710.998	34470.94
711.342	34585.52
711.687	34388.69
712.031	34205.41
712.375	34151.18
712.719	34234.79
713.063	34169.71
713.407	34183.04
713.75	33906.89
714.094	33882.03
714.438	34023.27
714.782	33702.6
715.125	33710.06
715.469	33762.49
715.812	33536.28
716.156	33424.42
716.499	33376.74
716.843	33409.05
717.186	33373.12
717.53	33384.42
717.873	33405.89
718.216	33279.34
718.559	33049.96
718.902	33014.03
719.246	33044.99
719.589	32925.67
719.932	32816.52
720.275	32862.4
720.617	32804.77
720.96	32797.32
721.303	32825.79
721.646	32694.72
721.989	32500.37
722.331	32472.13
722.674	32526.59
723.016	32438.68
723.359	32295.86
723.701	32400.72
724.044	32217.9
724.386	31933.16
724.729	32153.26
725.071	31936.55
725.413	32024.68
725.755	32017.22
726.097	31841.63
726.439	31817.68
726.782	31758.7
727.124	31879.6
727.465	31727.29
727.807	31710.11
728.149	31574.75
728.491	31538.59
728.833	31606.61
729.175	31321.65
729.516	31501.76
729.858	31399.39
730.199	31292.5
730.541	31391.25
730.882	31311.48
731.224	31240.29
731.565	31010.7
731.906	31135.89
732.248	31140.41
732.589	30909.46
732.93	30865.61
733.271	30828.33
733.612	30981.09
733.953	30853.19
734.294	30807.09
734.635	30693.19
734.976	30839.17
735.317	30641.44
735.658	30594.89
735.999	30637.37
736.339	30533.19
736.68	30589.69
737.021	30516.25
737.361	30389.24
737.702	30371.62
738.042	30406.87
738.383	30335.46
738.723	30490.94
739.063	30333.43
739.404	30301.11
739.744	30282.81
740.084	30064.96
740.424	30197.84
740.764	30155.13
741.104	30216.59
741.444	30047.56
741.784	29876.49
742.124	29984.06
742.464	29868.35
742.804	29862.25
743.143	29740.67
743.483	29836.49
743.823	29629.94
744.162	29607.34
744.502	29683.05
744.841	29618.19
745.181	29595.59
745.52	29330.97
745.86	29645.08
746.199	29495.48
746.538	29490.74
746.877	29464.75
747.216	29526.89
747.556	29288.03
747.895	29219.1
748.234	29171.65
748.573	29232.66
748.911	29099.79
749.25	29165.77
749.589	29017.53
749.928	29082.61
750.267	29143.63
750.605	28859.79
750.944	28801.04
751.283	28735.73
751.621	28804.88
751.96	28519.91
752.298	28697.76
752.636	28585.22
752.975	28459.12
753.313	28379.8
753.651	28553.81
753.989	28360.37
754.327	28472.23
754.666	28239.7
755.004	28233.82
755.342	28292.12
755.679	28074.95
756.017	28006.03
756.355	28043.32
756.693	28022.53
757.031	27947.95
757.368	27905.47
757.706	27804.23
758.044	27720.61
758.381	27727.84
758.719	27594.74
759.056	27672.48
759.394	27517.23
759.731	27447.17
760.068	27341.87
760.405	27177.12
760.743	27203.79
761.08	27140.06
761.417	27025.26
761.754	27047.86
762.091	26964.93
762.428	26873.18
762.765	26716.12
763.102	26778.04
763.438	26555.45
763.775	26482
764.112	26614.65
764.449	26446.3
764.785	26333.53
765.122	26344.38
765.458	26107.55
765.795	26284.72
766.131	26137.6
766.467	25926.54
766.804	25971.96
767.14	25797.73
767.476	25781
767.812	25736.71
768.148	25662.59
768.485	25474.12
768.821	25355.93
769.157	25469.82
769.492	25198.42
769.828	25237.74
770.164	25004.75
770.5	24954.36
770.836	25017.86
771.171	24824.42
771.507	24772.67
771.842	24523.18
772.178	24581.03
772.513	24457.87
772.849	24370.87
773.184	24277.54
773.519	24264.66
773.855	24216.3
774.19	24091.33
774.525	24035.29
774.86	23965.23
775.195	23894.5
775.53	23788.51
775.865	23633.94
776.2	23543.32
776.535	23428.52
776.87	23303.55
777.205	23179.04
777.539	23189.66
777.874	23181.07
778.209	22918.25
778.543	22929.33
778.878	22826.28
779.212	22832.38
779.547	22602.33
779.881	22746.96
780.215	22525.27
780.55	22560.75
780.884	22406.63
781.218	22321.88
781.552	22358.49
781.886	22177.93
782.22	22099.74
782.554	22036.92
782.888	21810.71
783.222	21784.95
783.556	21793.54
783.889	21635.58
784.223	21580.66
784.557	21502.02
784.89	21527.56
785.224	21372.76
785.557	21196.04
785.891	21256.6
786.224	21173.89
786.558	21153.55
786.891	20860
787.224	20863.62
787.557	20848.7
787.891	20741.36
788.224	20644.19
788.557	20695.26
788.89	20600.12
789.223	20587.69
789.556	20480.35
789.888	20370.52
790.221	20279.68
790.554	20207.82
790.887	20201.04
791.219	20105.22
791.552	20034.94
791.884	19883.53
792.217	19874.04
792.549	19748.85
792.882	19651.67
793.214	19583.2
793.546	19699.13
793.879	19469.98
794.211	19381.17
794.543	19508.17
794.875	19368.52
795.207	19292.59
795.539	19269.54
795.871	19181.85
796.203	19051.69
796.535	19006.27
796.867	18958.13
797.198	18881.52
797.53	18922.88
797.862	18750.45
798.193	18870.22
798.525	18735.54
798.856	18680.62
799.188	18506.17
799.519	18434.76
799.85	18299.84
800.182	18359.96
800.513	18258.04
800.844	18226.63
801.175	18266.4
801.506	18253.74
801.837	18165.38
802.168	18104.82
802.499	18019.63
802.83	17858.73
803.161	17837.03
803.491	17818.05
803.822	17821.44
804.153	17672.06
804.483	17532.18
804.814	17536.25
805.145	17548.9
805.475	17474.55
805.805	17427.32
806.136	17424.16
806.466	17461.22
806.796	17311.17
807.126	17203.15
807.457	17129.93
807.787	17157.73
808.117	17105.75
808.447	17065.53
808.777	17002.02
809.107	16958.18
809.436	16837.96
809.766	16824.63
810.096	16832.09
810.426	16752.54
810.755	16758.19
811.085	16733.11
811.414	16644.29
811.744	16517.97
812.073	16482.49
812.403	16487.69
812.732	16400.46
813.061	16355.49
813.39	16270.52
813.719	16286.56
814.049	16255.15
814.378	16350.97
814.707	16168.83
815.036	16188.49
815.365	16088.6
815.693	15914.14
816.022	16017.19
816.351	15870.76
816.68	15889.29
817.008	15906.46
817.337	15835.28
817.665	15773.81
817.994	15778.78
818.322	15686.13
818.651	15594.6
818.979	15639.35
819.307	15672.34
819.636	15672.79
819.964	15474.61
820.292	15609.29
820.62	15537.2
820.948	15494.95
821.276	15541.05
821.604	15407.72
821.932	15474.83
822.259	15441.84
822.587	15514.15
822.915	15464.44
823.243	15471.44
823.57	15370.66
823.898	15444.33
824.225	15383.31
824.553	15414.27
824.88	15391.67
825.207	15388.51
825.535	15408.62
825.862	15344.67
826.189	15260.15
826.516	15326.14
826.843	15481.84
827.17	15367.27
827.497	15386.7
827.824	15419.92
828.151	15387.83
828.478	15352.58
828.805	15416.08
829.131	15329.3
829.458	15260.15
829.785	15330.66
830.111	15296.53
830.438	15343.31
830.764	15382.63
831.09	15348.73
831.417	15214.28
831.743	15283.65
832.069	15222.64
832.395	15205.91
832.722	15348.28
833.048	15213.82
833.374	15239.59
833.7	15221.28
834.026	15210.43
834.351	15234.16
834.677	15199.36
835.003	15189.87
835.329	15229.42
835.654	15108.29
835.98	15075.75
836.306	15139.02
836.631	15109.65
836.956	14975.19
837.282	15071.23
837.607	14972.93
837.932	14967.05
838.258	14877.79
838.583	14893.15
838.908	14903.32
839.233	14828.75
839.558	14799.14
839.883	14820.16
840.208	14720.5
840.533	14743.55
840.858	14706.27
841.182	14698.36
841.507	14753.72
841.832	14560.51
842.156	14611.58
842.481	14606.61
842.805	14496.33
843.13	14509.89
843.454	14517.34
843.778	14432.83
844.103	14345.82
844.427	14355.09
844.751	14366.61
845.075	14304.92
845.399	14233.51
845.723	14253.62
846.047	14226.73
846.371	14077.36
846.695	14104.7
847.019	13946.51
847.343	13914.2
847.666	13851.6
847.99	13784.26
848.313	13788.32
848.637	13690.02
848.96	13685.95
849.284	13655.9
849.607	13544.04
849.931	13480.99
850.254	13283.93
850.577	13323.48
850.9	13276.92
851.223	13280.31
851.546	13231.05
851.869	13207.32
852.192	13201.45
852.515	13017.72
852.838	12942.7
853.161	12974.79
853.483	12983.6
853.806	12844.85
854.129	12868.57
854.451	12841
854.774	12717.17
855.096	12708.58
855.419	12727.33
855.741	12681.69
856.063	12562.82
856.385	12554.46
856.708	12548.58
857.03	12439.43
857.352	12420.22
857.674	12395.82
857.996	12364.86
858.318	12312.66
858.64	12320.11
858.961	12306.33
859.283	12182.72
859.605	12124.19
859.926	12133.9
860.248	12103.62
860.57	12024.53
860.891	12065.66
861.212	12014.36
861.534	12043.51
861.855	11941.37
862.176	11949.73
862.498	11919.67
862.819	11888.49
863.14	11837.41
863.461	11784.99
863.782	11832.44
864.103	11810.97
864.424	11795.61
864.745	11783.4
865.065	11643.75
865.386	11679
865.707	11687.81
866.027	11724.88
866.348	11632.67
866.668	11698.21
866.989	11644.43
867.309	11570.08
867.63	11445.56
867.95	11597.2
868.27	11499.34
868.59	11504.54
868.91	11503.64
869.23	11476.52
869.55	11375.73
869.87	11455.73
870.19	11433.81
870.51	11374.83
870.83	11470.64
871.15	11375.96
871.469	11418.44
871.789	11375.96
872.109	11340.93
872.428	11181.39
872.748	11349.74
873.067	11273.36
873.386	11237.2
873.706	11224.32
874.025	11076.53
874.344	11123.31
874.663	11189.52
874.982	11157.21
875.301	11091.22
875.62	11091.22
875.939	11068.4
876.258	11074.95
876.577	10963.54
876.896	11025.91
877.214	10997.66
877.533	10986.59
877.852	10971.67
878.17	10926.48
878.489	10937.55
878.807	10958.34
879.125	10866.59
879.444	10881.51
879.762	10794.05
880.08	10853.49
880.398	10784.79
880.716	10757.67
881.034	10678.12
881.352	10765.58
881.67	10653.04
881.988	10732.81
882.306	10674.28
882.624	10664.56
882.941	10649.2
883.259	10632.25
883.577	10604.9
883.894	10502.99
884.212	10474.96
884.529	10514.29
884.846	10478.13
885.164	10415.53
885.481	10424.12
885.798	10433.61
886.115	10356.32
886.432	10348.41
886.75	10289.43
887.067	10325.82
887.383	10245.82
887.7	10331.01
888.017	10153.62
888.334	10235.2
888.651	10180.06
888.967	10172.6
889.284	10062.77
889.6	10148.42
889.917	10050.12
890.233	10005.37
890.55	9979.61
890.866	9971.25
891.182	9952.49
891.498	9927.86
891.815	9881.08
892.131	9882.66
892.447	9815.77
892.763	9860.97
893.079	9755.44
893.395	9714.08
893.71	9712.95
894.026	9682.9
894.342	9635.66
894.657	9551.15
894.973	9550.24
895.289	9577.14
895.604	9548.89
895.92	9502.79
896.235	9448.78
896.55	9486.97
896.865	9348.67
897.181	9399.29
897.496	9348.44
897.811	9328.1
898.126	9257.82
898.441	9236.81
898.756	9183.93
899.071	9084.04
899.386	9148.45
899.7	9130.14
900.015	9076.81
900.33	9028.68
900.644	9062.8
900.959	9076.36
901.273	8998.17
901.588	8981.22
901.902	8891.96
902.216	8850.37
902.531	8866.42
902.845	8864.16
903.159	8813.54
903.473	8764.28
903.787	8689.25
904.101	8668.23
904.415	8652.41
904.729	8643.37
905.042	8512.08
905.356	8509.37
905.67	8577.61
905.984	8484.73
906.297	8452.64
906.611	8343.95
906.924	8452.87
907.237	8340.33
907.551	8409.93
907.864	8301.46
908.177	8290.84
908.491	8266.89
908.804	8229.15
909.117	8204.29
909.43	8173.56
909.743	8063.05
910.056	8072.09
910.368	8060.11
910.681	7977.4
910.994	7964.07
911.307	7951.87
911.619	7856.95
911.932	7912.55
912.244	7796.39
912.557	7834.81
912.869	7772.89
913.181	7717.75
913.494	7750.52
913.806	7720.91
914.118	7645.43
914.43	7551.2
914.742	7603.18
915.054	7557.75
915.366	7538.77
915.678	7508.71
915.99	7442.05
916.302	7375.61
916.613	7394.59
916.925	7433.91
917.236	7402.96
917.548	7272.56
917.859	7334.26
918.171	7268.5
918.482	7257.2
918.794	7164.77
919.105	7160.25
919.416	7090.19
919.727	7082.51
920.038	7077.99
920.349	7021.72
920.66	6973.59
920.971	6996.64
921.282	6975.85
921.593	6946.24
921.903	6833.93
922.214	6831.44
922.525	6842.52
922.835	6830.31
923.146	6781.95
923.456	6769.98
923.767	6669.87
924.077	6689.08
924.387	6679.36
924.697	6633.03
925.008	6591.45
925.318	6526.59
925.628	6557.33
925.938	6572.92
926.248	6423.32
926.558	6473.71
926.867	6433.04
927.177	6346.94
927.487	6335.86
927.796	6313.27
928.106	6368.63
928.416	6290.89
928.725	6273.49
929.034	6202.31
929.344	6258.35
929.653	6199.37
929.962	6162.99
930.271	6055.87
930.581	6118.92
930.89	6010.22
931.199	6021.07
931.508	5958.7
931.817	6010
932.125	5981.52
932.434	5933.84
932.743	5892.49
933.051	5842.54
933.36	5930
933.669	5810
933.977	5803.45
934.286	5788.08
934.594	5755.99
934.902	5770.91
935.21	5734.52
935.519	5687.29
935.827	5666.5
936.135	5539.95
936.443	5594.19
936.751	5574.75
937.059	5602.32
937.367	5534.98
937.674	5554.87
937.982	5519.16
938.29	5459.28
938.597	5459.73
938.905	5397.81
939.213	5388.09
939.52	5372.27
939.827	5364.82
940.135	5337.25
940.442	5325.04
940.749	5353.52
941.056	5313.52
941.363	5182.67
941.67	5235.33
941.977	5207.53
942.284	5187.42
942.591	5182
942.898	5145.16
943.205	5146.29
943.511	5071.26
943.818	5094.77
944.125	5018.84
944.431	5042.79
944.738	4991.27
945.044	5009.57
945.35	4943.13
945.657	4892.06
945.963	4916.01
946.269	4869.01
946.575	4873.3
946.881	4887.54
947.187	4850.48
947.493	4805.06
947.799	4798.5
948.105	4759.41
948.41	4722.12
948.716	4742.01
949.022	4708.56
949.327	4687.55
949.633	4651.84
949.938	4631.05
950.244	4633.76
950.549	4610.49
950.854	4570.04
951.16	4603.48
951.465	4559.19
951.77	4534.56
952.075	4537.27
952.38	4494.78
952.685	4465.18
952.99	4465.63
953.294	4417.04
953.599	4436.71
953.904	4377.05
954.209	4398.74
954.513	4363.49
954.818	4366.88
955.122	4314
955.426	4223.38
955.731	4282.36
956.035	4259.31
956.339	4219.54
956.643	4229.03
956.948	4179.99
957.252	4205.07
957.556	4206.65
957.86	4195.81
958.163	4170.72
958.467	4106.09
958.771	4147.67
959.075	4067.68
959.378	4077.17
959.682	4023.38
959.985	4038.52
960.289	4005.08
960.592	4009.15
960.896	3959.66
961.199	3994.23
961.502	3962.82
961.805	3956.49
962.108	3886.66
962.411	3892.09
962.714	3901.13
963.017	3890.51
963.32	3884.4
963.623	3803.73
963.926	3831.98
964.228	3799.66
964.531	3807.57
964.833	3747.01
965.136	3721.47
965.438	3701.13
965.741	3690.06
966.043	3698.19
966.345	3685.09
966.648	3682.15
966.95	3688.93
967.252	3621.13
967.554	3605.31
967.856	3607.8
968.158	3599.44
968.46	3566.67
968.761	3570.29
969.063	3536.62
969.365	3541.59
969.666	3518.09
969.968	3473.11
970.269	3491.42
970.571	3486.9
970.872	3457.07
971.174	3418.65
971.475	3413.46
971.776	3382.72
972.077	3410.07
972.378	3412.55
972.679	3384.3
972.98	3367.58
973.281	3313.8
973.582	3349.95
973.883	3284.87
974.183	3299.11
974.484	3289.39
974.785	3234.48
975.085	3183.18
975.386	3233.12
975.686	3243.06
975.986	3192.67
976.287	3178.66
976.587	3155.16
976.887	3165.78
977.187	3138.66
977.487	3142.5
977.787	3114.71
978.087	3077.87
978.387	3075.16
978.687	3100.7
978.987	3088.04
979.286	3065.22
979.586	3031.09
979.885	2983.86
980.185	3031.09
980.484	3006.23
980.784	2931.43
981.083	2966.91
981.382	2969.85
981.682	2948.16
981.981	2948.16
982.28	2937.54
982.579	2898.67
982.878	2891.66
983.177	2861.38
983.475	2850.53
983.774	2856.41
984.073	2830.42
984.372	2840.36
984.67	2783.64
984.969	2806.47
985.267	2812.34
985.566	2765.11
985.864	2747.26
986.162	2765.79
986.461	2754.72
986.759	2728.5
987.057	2699.8
987.355	2713.81
987.653	2688.5
987.951	2666.58
988.249	2665
988.547	2663.42
988.844	2575.29
989.142	2599.69
989.44	2587.26
989.737	2598.79
990.035	2590.2
990.332	2597.66
990.63	2568.05
990.927	2540.94
991.224	2572.8
991.521	2515.85
991.819	2511.78
992.116	2523.08
992.413	2517.66
992.71	2464.78
993.006	2461.16
993.303	2457.32
993.6	2471.11
993.897	2453.25
994.193	2455.97
994.49	2413.03
994.787	2420.49
995.083	2414.39
995.379	2388.85
995.676	2385.91
995.972	2362.86
996.268	2382.52
996.565	2314.73
996.861	2333.71
997.157	2296.65
997.453	2264.56
997.749	2274.05
998.044	2259.36
998.34	2236.76
998.636	2251.45
998.932	2261.85
999.227	2223.43
999.523	2218.01
999.818	2213.26
1000.114	2190.89
1000.409	2190.66
1000.704	2152.92
1001	2130.55
1001.295	2154.05
1001.59	2136.2
1001.885	2117.9
1002.18	2107.05
1002.475	2114.96
1002.77	2112.25
1003.065	2056.88
1003.359	2073.6
1003.654	2076.54
1003.949	2063.43
1004.243	2057.11
1004.538	2026.15
1004.832	1996.32
1005.127	1987.5
1005.421	1965.13
1005.715	1983.66
1006.009	1979.37
1006.304	1961.97
1006.598	1952.25
1006.892	1930.78
1007.186	1943.89
1007.48	1896.89
1007.773	1953.15
1008.067	1893.95
1008.361	1892.59
1008.655	1878.58
1008.948	1872.25
1009.242	1870.67
1009.535	1845.59
1009.829	1851.69
1010.122	1823.44
1010.415	1823.67
1010.708	1775.76
1011.001	1785.7
1011.295	1782.54
1011.588	1807.62
1011.881	1767.4
1012.173	1728.53
1012.466	1745.25
1012.759	1737.12
1013.052	1736.89
1013.344	1733.27
1013.637	1699.6
1013.93	1715.2
1014.222	1676.33
1014.514	1658.7
1014.807	1658.7
1015.099	1645.82
1015.391	1635.88
1015.683	1628.42
1015.976	1626.84
1016.268	1628.87
1016.56	1592.26
1016.851	1603.11
1017.143	1583
1017.435	1594.52
1017.727	1562.66
1018.018	1533.05
1018.31	1539.38
1018.602	1531.25
1018.893	1533.73
1019.185	1527.86
1019.476	1504.13
1019.767	1528.53
1020.058	1524.24
1020.35	1468.2
1020.641	1477.69
1020.932	1467.97
1021.223	1460.96
1021.514	1450.8
1021.804	1414.19
1022.095	1418.03
1022.386	1408.54
1022.677	1430.91
1022.967	1401.76
1023.258	1357.24
1023.548	1381.19
1023.839	1389.55
1024.129	1356.79
1024.419	1363.11
1024.709	1319.95
1025	1357.69
1025.29	1341.42
1025.58	1321.99
1025.87	1323.11
1026.16	1304.81
1026.449	1298.26
1026.739	1281.31
1027.029	1278.6
1027.319	1291.7
1027.608	1282.89
1027.898	1269.56
1028.187	1248.09
1028.477	1223.23
1028.766	1208.54
1029.055	1219.61
1029.344	1206.51
1029.634	1202.67
1029.923	1187.53
1030.212	1187.98
1030.501	1162.67
1030.79	1165.83
1031.078	1157.24
1031.367	1172.61
1031.656	1150.46
1031.945	1127.64
1032.233	1147.07
1032.522	1131.03
1032.81	1124.02
1033.099	1116.79
1033.387	1111.14
1033.675	1086.06
1033.963	1091.93
1034.251	1111.6
1034.54	1078.83
1034.828	1075.89
1035.116	1065.95
1035.403	1054.2
1035.691	1063.23
1035.979	1051.94
1036.267	1032.05
1036.554	1038.83
1036.842	1031.37
1037.129	1011.26
1037.417	1007.64
1037.704	1035.21
1037.992	1009
1038.279	994.76
1038.566	996.12
1038.853	996.12
1039.14	996.12
