Data from hue_110_FLMS001491_00007.txt Node
Date: Tue Feb 07 17:00:49 GMT 2017
User: dcchb
Spectrometer: FLMS00149
Trigger mode: 0
Integration Time (sec): 2.000000E-2
Scans to average: 10
Electric dark correction enabled: true
Nonlinearity correction enabled: false
Boxcar width: 0
XAxis mode: Wavelengths
Number of Pixels in Spectrum: 2048
>>>>>Begin Spectral Data<<<<<
341.393	-26.47
341.776	-26.47
342.16	-26.47
342.543	-57.65
342.927	-65.56
343.31	-76.41
343.693	-65.56
344.077	-63.76
344.46	-69.63
344.843	-67.82
345.226	-36.41
345.61	-18.11
345.993	-15.85
346.376	-13.81
346.759	18.05
347.142	14.43
347.525	46.3
347.908	65.05
348.291	69.57
348.674	108.44
349.057	105.51
349.44	138.95
349.823	145.96
350.206	157.26
350.588	187.54
350.971	210.59
351.354	207.65
351.737	247.42
352.119	237.48
352.502	258.04
352.884	284.71
353.267	273.41
353.65	306.18
354.032	309.57
354.414	310.02
354.797	326.74
355.179	317.7
355.562	339.4
355.944	329.91
356.326	305.5
356.709	338.04
357.091	333.3
357.473	331.49
357.855	342.34
358.238	356.57
358.62	329.23
359.002	344.6
359.384	333.52
359.766	331.94
360.148	348.21
360.53	343.24
360.912	326.97
361.294	337.82
361.676	331.04
362.057	335.56
362.439	324.48
362.821	333.07
363.203	316.57
363.584	327.65
363.966	315.9
364.348	339.85
364.729	320.42
365.111	312.73
365.493	336.46
365.874	333.3
366.256	314.77
366.637	302.56
367.019	328.1
367.4	310.47
367.781	322.22
368.163	328.55
368.544	312.28
368.925	324.26
369.306	329.45
369.688	296.01
370.069	296.46
370.45	290.59
370.831	325.61
371.212	297.14
371.593	315.44
371.974	325.39
372.355	313.18
372.736	328.32
373.117	305.5
373.498	335.78
373.879	345.05
374.26	316.12
374.641	313.41
375.021	310.47
375.402	303.01
375.783	327.42
376.163	322
376.544	339.4
376.925	318.61
377.305	329.23
377.686	312.28
378.066	312.28
378.447	333.3
378.827	337.59
379.208	324.26
379.588	326.06
379.968	326.29
380.349	326.06
380.729	345.5
381.109	345.95
381.489	333.97
381.87	348.44
382.25	337.14
382.63	345.95
383.01	350.02
383.39	357.7
383.77	331.26
384.15	360.64
384.53	338.27
384.91	332.84
385.29	367.65
385.67	369.23
386.049	340.3
386.429	358.38
386.809	369.23
387.189	365.61
387.568	365.39
387.948	360.64
388.328	352.5
388.707	356.12
389.087	345.73
389.466	361.32
389.846	372.62
390.225	382.11
390.605	368.1
390.984	364.93
391.363	353.63
391.743	359.96
392.122	367.19
392.501	390.24
392.881	371.04
393.26	368.55
393.639	364.93
394.018	379.85
394.397	380.75
394.776	387.53
395.155	378.72
395.534	387.76
395.913	378.94
396.292	389.11
396.671	377.36
397.05	397.02
397.429	376.01
397.808	398.83
398.186	380.75
398.565	403.35
398.944	401.32
399.323	408.55
399.701	405.84
400.08	397.25
400.458	387.76
400.837	394.09
401.215	388.89
401.594	411.26
401.972	405.84
402.351	399.74
402.729	396.35
403.107	409
403.486	420.53
403.864	428.21
404.242	425.27
404.62	434.31
404.999	431.15
405.377	449.23
405.755	444.25
406.133	430.47
406.511	433.86
406.889	434.08
407.267	442.22
407.645	427.31
408.023	447.64
408.401	457.36
408.779	452.84
409.156	444.25
409.534	450.81
409.912	452.39
410.29	451.94
410.667	459.17
411.045	483.57
411.422	465.95
411.8	474.54
412.178	465.72
412.555	469.11
412.933	485.16
413.31	507.76
413.687	468.21
414.065	475.44
414.442	514.99
414.819	504.37
415.197	498.72
415.574	493.52
415.951	492.84
416.328	493.52
416.705	497.81
417.082	525.38
417.46	514.08
417.837	542.56
418.214	514.76
418.591	513.86
418.967	543.46
419.344	540.07
419.721	536.91
420.098	534.65
420.475	534.42
420.852	521.09
421.228	526.74
421.605	534.65
421.982	564.48
422.358	547.08
422.735	570.35
423.111	593.85
423.488	538.94
423.864	567.41
424.241	541.65
424.617	594.08
424.994	588.2
425.37	608.77
425.746	603.12
426.123	599.73
426.499	605.83
426.875	583.23
427.251	590.69
427.627	605.61
428.003	634.08
428.379	625.72
428.756	620.29
429.132	630.01
429.507	634.76
429.883	646.96
430.259	641.31
430.635	660.29
431.011	675.66
431.387	669.78
431.763	658.49
432.138	661.88
432.514	706.17
432.89	685.6
433.265	679.28
433.641	722.44
434.016	708.65
434.392	729.22
434.767	723.34
435.143	720.86
435.518	727.18
435.894	725.15
436.269	741.87
436.644	735.55
437.02	764.47
437.395	772.38
437.77	763.34
438.145	771.48
438.52	775.54
438.895	781.65
439.271	786.17
439.646	807.18
440.021	788.65
440.395	790.69
440.77	811.93
441.145	836.11
441.52	810.57
441.895	847.41
442.27	843.79
442.645	849.44
443.019	845.15
443.394	853.73
443.769	842.66
444.143	853.28
444.518	862.1
444.892	846.73
445.267	896.67
445.641	880.63
446.016	891.02
446.39	899.61
446.764	881.76
447.139	878.37
447.513	911.81
447.887	900.74
448.262	912.26
448.636	946.39
449.01	937.57
449.384	941.87
449.758	932.83
450.132	943
450.506	960.4
450.88	968.08
451.254	968.08
451.628	974.41
452.002	978.03
452.376	980.74
452.75	999.49
453.123	992.94
453.497	1026.39
453.871	1032.71
454.244	1042.2
454.618	1039.72
454.992	1054.18
455.365	1093.28
455.739	1087.4
456.112	1111.81
456.486	1107.74
456.859	1135.08
457.232	1161.3
457.606	1145.03
457.979	1159.26
458.352	1162.88
458.725	1207.62
459.099	1210.79
459.472	1237.68
459.845	1220.28
460.218	1242.42
460.591	1269.09
460.964	1261.18
461.337	1284.46
461.71	1307.96
462.083	1318.13
462.456	1319.26
462.829	1375.53
463.201	1398.58
463.574	1373.04
463.947	1399.93
464.32	1416.21
464.692	1440.39
465.065	1486.71
465.438	1474.06
465.81	1516.09
466.183	1511.57
466.555	1559.03
466.928	1559.03
467.3	1586.37
467.672	1645.8
468.045	1659.14
468.417	1663.2
468.789	1684.67
469.161	1714.05
469.534	1732.36
469.906	1777.1
470.278	1805.57
470.65	1846.25
471.022	1841.05
471.394	1927.15
471.766	1938
472.138	1970.99
472.51	2012.57
472.882	2051.44
473.253	2081.27
473.625	2148.16
473.997	2166.92
474.369	2234.04
474.74	2246.69
475.112	2303.64
475.484	2363.07
475.855	2408.04
476.227	2468.38
476.598	2554.48
476.97	2582.5
477.341	2683.97
477.713	2741.59
478.084	2740.92
478.455	2870.63
478.827	2954.02
479.198	3062.26
479.569	3070.17
479.94	3187.23
480.311	3245.31
480.682	3335.48
481.053	3403.72
481.424	3552.42
481.795	3624.74
482.166	3699.99
482.537	3771.17
482.908	3895.91
483.279	3935.91
483.65	4085.97
484.021	4251.61
484.391	4330.03
484.762	4450.25
485.133	4471.27
485.503	4592.85
485.874	4731.15
486.244	4798.26
486.615	4997.81
486.985	5075.09
487.356	5200.29
487.726	5327.06
488.097	5503.56
488.467	5632.82
488.837	5725.92
489.207	5865.13
489.578	6043.88
489.948	6108.29
490.318	6284.78
490.688	6381.27
491.058	6500.59
491.428	6672.34
491.798	6824.88
492.168	6995.04
492.538	7077.75
492.908	7257.18
493.278	7345.77
493.648	7475.71
494.017	7649.26
494.387	7787.56
494.757	7867.79
495.126	8005.18
495.496	8083.15
495.866	8270.26
496.235	8379.41
496.605	8551.61
496.974	8587.54
497.344	8736.92
497.713	8846.07
498.082	8996.35
498.452	9110.01
498.821	9210.8
499.19	9314.98
499.559	9443.11
499.928	9553.39
500.298	9626.84
500.667	9757.91
501.036	9871.12
501.405	9955.87
501.774	10010.33
502.143	10209.19
502.512	10251.68
502.88	10362.41
503.249	10393.6
503.618	10548.39
503.987	10577.55
504.356	10755.85
504.724	10766.92
505.093	10837.2
505.462	10950.64
505.83	11076.97
506.199	11210.3
506.567	11241.48
506.936	11335.27
507.304	11464.53
507.672	11486.22
508.041	11683.28
508.409	11683.28
508.777	11766.22
509.145	11853.67
509.514	11938.64
509.882	12038.75
510.25	12049.82
510.618	12097.05
510.986	12172.31
511.354	12238.29
511.722	12281.91
512.09	12405.07
512.458	12380.44
512.826	12532.3
513.193	12649.81
513.561	12634.67
513.929	12715.57
514.297	12689.13
514.664	12826.53
515.032	12907.43
515.4	12951.27
515.767	12930.48
516.135	12996.24
516.502	12881.44
516.869	13218.38
517.237	13224.03
517.604	13177.93
517.972	13289.57
518.339	13299.96
518.706	13316.46
519.073	13401.43
519.44	13437.81
519.808	13402.56
520.175	13468.54
520.542	13634.19
520.909	13732.04
521.276	13568.65
521.643	13741.76
522.009	13821.3
522.376	13840.06
522.743	13814.98
523.11	13928.87
523.477	14114.85
523.843	14036.66
524.21	14114.18
524.577	14201.86
524.943	14218.81
525.31	14320.5
525.676	14361.63
526.043	14341.97
526.409	14405.92
526.776	14517.33
527.142	14425.58
527.508	14526.14
527.874	14553.49
528.241	14515.97
528.607	14634.39
528.973	14579.93
529.339	14599.14
529.705	14656.76
530.071	14659.25
530.437	14727.95
530.803	14762.07
531.169	14764.78
531.535	14637.33
531.901	14665.12
532.267	14788.28
532.632	14732.47
532.998	14743.99
533.364	14760.04
533.73	14767.72
534.095	14812.46
534.461	14745.35
534.826	14841.84
535.192	14799.58
535.557	14852.01
535.923	14760.71
536.288	14803.65
536.653	14745.12
537.019	14665.12
537.384	14739.92
537.749	14691.79
538.114	14712.13
538.479	14674.39
538.845	14682.98
539.21	14576.99
539.575	14630.32
539.94	14463.55
540.305	14542.87
540.67	14555.3
541.034	14486.14
541.399	14596.88
541.764	14487.73
542.129	14457.67
542.494	14491.12
542.858	14421.74
543.223	14435.07
543.587	14384.68
543.952	14300.84
544.316	14325.92
544.681	14233.95
545.045	14384.45
545.41	14192.14
545.774	14254.06
546.138	14292.93
546.503	14121.18
546.867	14148.07
547.231	14275.75
547.595	14157.11
547.959	14170.67
548.324	14119.6
548.688	14101.75
549.052	14039.38
549.416	13992.6
549.779	14020.62
550.143	14003.67
550.507	13895.2
550.871	13967.97
551.235	13821.98
551.599	13964.12
551.962	13934.29
552.326	13813.17
552.689	13807.29
553.053	13832.83
553.417	13776.33
553.78	13951.92
554.143	13748.08
554.507	13821.08
554.87	13761.64
555.234	13828.76
555.597	13742.21
555.96	13728.88
556.323	13758.48
556.686	13682.55
557.05	13734.53
557.413	13767.75
557.776	13743.57
558.139	13831.92
558.502	13683.91
558.865	13725.49
559.228	13686.39
559.59	13749.44
559.953	13747.63
560.316	13714.19
560.679	13729.78
561.041	13803.68
561.404	13751.25
561.767	13927.29
562.129	13739.95
562.492	13845.03
562.854	13790.34
563.217	13788.76
563.579	13746.28
563.941	13874.18
564.304	13855.65
564.666	13921.41
565.028	13932.94
565.39	13995.76
565.753	14018.59
566.115	13900.85
566.477	14086.16
566.839	13935.42
567.201	14061.52
567.563	14037.12
567.925	13999.15
568.287	14069.88
568.648	14038.25
569.01	14102.65
569.372	14160.5
569.734	14041.18
570.095	14112.14
570.457	14164.35
570.819	14214.29
571.18	14144.23
571.542	14162.54
571.903	14161.63
572.265	14277.11
572.626	14235.3
572.987	14237.79
573.349	14225.13
573.71	14304.68
574.071	14347.17
574.432	14268.07
574.794	14376.09
575.155	14334.28
575.516	14267.39
575.877	14322.76
576.238	14293.16
576.599	14349.65
576.96	14320.5
577.32	14373.61
577.681	14432.81
578.042	14539.7
578.403	14366.37
578.763	14437.11
579.124	14497.67
579.485	14450.21
579.845	14432.81
580.206	14418.12
580.566	14440.72
580.927	14464.9
581.287	14461.96
581.648	14377.67
582.008	14409.54
582.368	14374.28
582.728	14352.14
583.089	14374.51
583.449	14365.92
583.809	14416.32
584.169	14411.8
584.529	14387.39
584.889	14461.06
585.249	14333.15
585.609	14255.42
585.969	14329.54
586.329	14258.13
586.688	14361.85
587.048	14297.45
587.408	14288.18
587.768	14274.17
588.127	14226.49
588.487	14197.56
588.846	14402.76
589.206	14225.13
589.565	14247.96
589.925	14296.77
590.284	14283.44
590.643	14296.77
591.003	14195.08
591.362	14250.67
591.721	14205.7
592.08	14209.99
592.44	14161.63
592.799	14219.71
593.158	14203.44
593.517	14145.59
593.876	14173.61
594.235	14100.84
594.593	14126.83
594.952	14191.24
595.311	14110.11
595.67	14075.53
596.029	14189.88
596.387	14109.66
596.746	14195.98
597.104	14066.04
597.463	14204.57
597.822	14142.65
598.18	14081.86
598.538	14074.18
598.897	14221.07
599.255	14139.04
599.613	14226.72
599.972	14200.73
600.33	14114.4
600.688	14032.6
601.046	14226.26
601.404	14190.11
601.762	14267.62
602.12	14276.21
602.478	14226.26
602.836	14201.63
603.194	14099.71
603.552	14127.28
603.91	14122.99
604.268	14180.39
604.625	14131.35
604.983	14114.4
605.341	14067.4
605.698	14176.77
606.056	14231.01
606.413	14108.75
606.771	14171.58
607.128	14253.38
607.485	14094.29
607.843	14151.92
608.2	14267.39
608.557	14249.31
608.914	14211.35
609.272	14247.05
609.629	14259.03
609.986	14256.09
610.343	14271.69
610.7	14355.75
611.057	14388.07
611.414	14233.72
611.771	14357.56
612.127	14347.84
612.484	14297
612.841	14322.76
613.198	14323.21
613.554	14303.1
613.911	14390.1
614.267	14397.11
614.624	14383.1
614.98	14381.74
615.337	14458.35
615.693	14421.97
616.05	14477.78
616.406	14531.12
616.762	14520.04
617.118	14458.8
617.475	14492.02
617.831	14521.17
618.187	14584.22
618.543	14532.02
618.899	14659.93
619.255	14509.42
619.611	14532.47
619.967	14608.4
620.323	14635.97
620.678	14519.82
621.034	14562.07
621.39	14586.03
621.746	14499.93
622.101	14779.92
622.457	14623.77
622.812	14614.95
623.168	14689.08
623.523	14650.89
623.879	14635.29
624.234	14626.93
624.589	14566.37
624.945	14575.41
625.3	14573.37
625.655	14587.84
626.01	14607.27
626.365	14623.99
626.72	14654.05
627.075	14614.5
627.43	14566.37
627.785	14471.91
628.14	14606.14
628.495	14574.96
628.85	14587.84
629.205	14539.48
629.559	14567.72
629.914	14481.85
630.269	14475.75
630.623	14501.06
630.978	14539.7
631.332	14530.66
631.687	14473.72
632.041	14456.77
632.396	14561.4
632.75	14431.46
633.104	14412.02
633.459	14473.04
633.813	14453.15
634.167	14353.04
634.521	14342.87
634.875	14363.89
635.229	14346.49
635.583	14349.42
635.937	14269.65
636.291	14183.1
636.645	14261.07
636.999	14183.78
637.352	14246.38
637.706	14179.26
638.06	14230.56
638.413	14170.67
638.767	14189.88
639.121	14189.2
639.474	14154.4
639.828	14087.51
640.181	14191.24
640.534	14155.76
640.888	14144.23
641.241	14036.44
641.594	14108.08
641.947	14107.4
642.301	14037.12
642.654	14172.03
643.007	14039.6
643.36	14025.14
643.713	13940.17
644.066	14051.35
644.419	14003.9
644.771	13868.53
645.124	13740.63
645.477	13733.4
645.83	13620.18
646.182	13570.91
646.535	13494.98
646.888	13569.11
647.24	13434.19
647.593	13537.02
647.945	13471.48
648.298	13417.02
648.65	13424.03
649.002	13417.25
649.355	13485.49
649.707	13507.19
650.059	13507.19
650.411	13705.15
650.763	13719.84
651.115	13777.01
651.467	13765.03
651.819	13809.33
652.171	13768.2
652.523	13681.65
652.875	13737.69
653.227	13678.93
653.578	13808.2
653.93	13801.87
654.282	13699.27
654.633	13708.99
654.985	13809.1
655.337	13777.24
655.688	13808.87
656.039	13827.4
656.391	13732.49
656.742	13716.67
657.094	13760.29
657.445	13846.39
657.796	13712.15
658.147	13734.3
658.498	13748.08
658.849	13778.14
659.2	13711.02
659.551	13855.43
659.902	13781.08
660.253	13748.54
660.604	13786.5
660.955	13739.05
661.306	13751.47
661.656	13803
662.007	13905.14
662.358	13857.01
662.708	13727.07
663.059	13821.3
663.409	13694.98
663.76	13886.39
664.11	13826.95
664.461	13887.97
664.811	13879.61
665.161	13877.57
665.511	13774.07
665.862	13834.41
666.212	13849.78
666.562	13839.61
666.912	13846.16
667.262	13799.61
667.612	13766.62
667.962	13901.98
668.312	13842.55
668.662	13897.46
669.011	13779.72
669.361	13807.74
669.711	13777.01
670.06	13839.83
670.41	13809.78
670.76	13711.48
671.109	13778.37
671.459	13854.75
671.808	13717.35
672.157	13807.97
672.507	13642.55
672.856	13664.7
673.205	13732.94
673.554	13757.8
673.904	13702.89
674.253	13749.67
674.602	13676.45
674.951	13530.92
675.3	13397.81
675.649	13659.5
675.998	13646.17
676.346	13661.31
676.695	13638.71
677.044	13590.57
677.393	13617.47
677.741	13643
678.09	13586.73
678.438	13516.9
678.787	13586.51
679.135	13452.05
679.484	13466.74
679.832	13541.99
680.181	13422.67
680.529	13433.06
680.877	13460.86
681.225	13371.37
681.573	13494.98
681.922	13386.29
682.27	13254.31
682.618	13380.18
682.966	13294.31
683.314	13252.73
683.661	13296.8
684.009	13214.99
684.357	13182.45
684.705	13161.66
685.053	13189.23
685.4	13107.65
685.748	13076.92
686.095	13063.81
686.443	12952.85
686.79	12919.86
687.138	13006.18
687.485	13017.26
687.832	12974.09
688.18	12930.03
688.527	12822.46
688.874	12851.39
689.221	12801.44
689.568	12777.94
689.915	12753.08
690.262	12711.05
690.609	12624.95
690.956	12642.13
691.303	12529.13
691.65	12524.61
691.997	12574.78
692.344	12384.28
692.69	12441.23
693.037	12327.11
693.383	12246.66
693.73	12359.65
694.077	12267.9
694.423	12332.53
694.769	12213.66
695.116	12118.75
695.462	12135.25
695.808	12079.88
696.155	12123.04
696.501	12033.78
696.847	11969.15
697.193	11838.53
697.539	11836.27
697.885	11831.98
698.231	11776.16
698.577	11714.24
698.923	11745.43
699.269	11678.31
699.614	11571.19
699.96	11540.23
700.306	11600.8
700.651	11514.25
700.997	11464.76
701.342	11518.54
701.688	11372.78
702.033	11318.54
702.379	11375.94
702.724	11241.26
703.069	11263.63
703.415	11100.24
703.76	11134.82
704.105	11156.97
704.45	11060.02
704.795	11060.25
705.14	11045.11
705.485	11046.23
705.83	10988.16
706.175	10945.67
706.52	10926.46
706.865	10905.67
707.209	10808.5
707.554	10829.52
707.899	10804.43
708.243	10767.6
708.588	10659.13
708.932	10641.5
709.277	10641.05
709.621	10606.47
709.966	10592.91
710.31	10555.17
710.654	10484.89
710.998	10492.35
711.342	10546.81
711.687	10439.47
712.031	10383.88
712.375	10358.57
712.719	10346.59
713.063	10390.88
713.407	10388.63
713.75	10323.32
714.094	10283.09
714.438	10206.48
714.782	10261.17
715.125	10211.45
715.469	10243.32
715.812	10135.98
716.156	10155.64
716.499	10133.72
716.843	10134.85
717.186	10057.79
717.53	10090.78
717.873	10121.74
718.216	10100.05
718.559	10059.14
718.902	9993.16
719.246	10042.87
719.589	9937.34
719.932	9914.97
720.275	9946.15
720.617	9935.3
720.96	9887.85
721.303	9856.66
721.646	9893.72
721.989	9858.7
722.331	9973.27
722.674	9817.79
723.016	9828.19
723.359	9787.29
723.701	9861.63
724.044	9826.38
724.386	9766.27
724.729	9811.01
725.071	9793.16
725.413	9791.8
725.755	9782.99
726.097	9658.02
726.439	9705.71
726.782	9725.59
727.124	9773.05
727.465	9672.49
727.807	9679.27
728.149	9766.72
728.491	9662.99
728.833	9674.75
729.175	9719.04
729.516	9643.79
729.858	9659.38
730.199	9652.6
730.541	9612.6
730.882	9608.53
731.224	9673.84
731.565	9587.06
731.906	9749.55
732.248	9706.38
732.589	9638.36
732.93	9581.41
733.271	9598.36
733.612	9643.56
733.953	9602.66
734.294	9586.61
734.635	9540.74
734.976	9615.31
735.317	9620.28
735.658	9555.88
735.999	9637.23
736.339	9559.95
736.68	9586.84
737.021	9579.15
737.361	9564.47
737.702	9605.59
738.042	9611.47
738.383	9599.95
738.723	9592.04
739.063	9661.41
739.404	9646.27
739.744	9657.57
740.084	9618.93
740.424	9621.41
740.764	9607.4
741.104	9776.21
741.444	9687.85
741.784	9646.72
742.124	9718.36
742.464	9700.06
742.804	9754.97
743.143	9810.11
743.483	9770.34
743.823	9843.1
744.162	9766.72
744.502	9858.02
744.841	9860.96
745.181	9977.34
745.52	9995.87
745.86	9914.97
746.199	10010.1
746.538	10014.4
746.877	10140.95
747.216	10113.15
747.556	10229.76
747.895	10260.04
748.234	10175.98
748.573	10339.13
748.911	10406.93
749.25	10394.73
749.589	10448.51
749.928	10598.56
750.267	10627.26
750.605	10712.91
750.944	10753.81
751.283	10829.52
751.621	10974.6
751.96	10976.41
752.298	11060.25
752.636	11197.42
752.975	11253.91
753.313	11303.86
753.651	11410.07
753.989	11538.65
754.327	11595.15
754.666	11725.77
755.004	11852.54
755.342	11976.83
755.679	12198.07
756.017	12273.55
756.355	12404.62
756.693	12501.79
757.031	12670.83
757.368	12675.8
757.706	12865.85
758.044	13040.08
758.381	13183.58
758.719	13326.85
759.056	13528.66
759.394	13635.09
759.731	13729.1
760.068	13941.3
760.405	14013.16
760.743	14088.19
761.08	14358.24
761.417	14437.56
761.754	14560.27
762.091	14715.29
762.428	14950.31
762.765	14979.69
763.102	15240.25
763.438	15317.76
763.775	15474.59
764.112	15558.88
764.449	15881.14
764.785	15991.87
765.122	15943.73
765.458	16071.41
765.795	16265.08
766.131	16397.73
766.467	16591.63
766.804	16568.12
767.14	16866.87
767.476	16904.84
767.812	17052.86
768.148	17170.37
768.485	17262.57
768.821	17311.15
769.157	17388.22
769.492	17504.6
769.828	17668.89
770.164	17665.04
770.5	17747.98
770.836	17857.58
771.171	17825.49
771.507	18084.47
771.842	18034.98
772.178	18259.6
772.513	18260.96
772.849	18302.32
773.184	18330.56
773.519	18365.36
773.855	18459.6
774.19	18462.09
774.525	18466.38
774.86	18650.33
775.195	18660.5
775.53	18679.93
775.865	18685.36
776.2	18664.11
776.535	18663.44
776.87	18759.93
777.205	18702.08
777.539	18647.39
777.874	18820.95
778.209	18756.31
778.543	18794.05
778.878	18806.48
779.212	18786.14
779.547	18740.04
779.881	18906.37
780.215	18845.35
780.55	19003.77
780.884	18827.05
781.218	18861.85
781.552	18927.84
781.886	18815.97
782.22	18799.03
782.554	18720.84
782.888	18663.21
783.222	18620.73
783.556	18638.13
783.889	18627.05
784.223	18578.47
784.557	18626.37
784.89	18648.29
785.224	18636.77
785.557	18519.26
785.891	18497.34
786.224	18492.14
786.558	18491.69
786.891	18400.17
787.224	18343.44
787.557	18393.61
787.891	18441.29
788.224	18367.62
788.557	18346.83
788.89	18295.54
789.223	18352.71
789.556	18181.19
789.888	18144.13
790.221	18186.61
790.554	18046.28
790.887	18104.81
791.219	18031.14
791.552	18088.76
791.884	17851.25
792.217	17941.65
792.549	17927.64
792.882	17838.6
793.214	17698.49
793.546	17797.02
793.879	17778.94
794.211	17594.09
794.543	17752.27
794.875	17680.41
795.207	17658.26
795.539	17635.89
795.871	17567.19
796.203	17413.53
796.535	17309.8
796.867	17413.98
797.198	17312.06
797.53	17314.09
797.862	17196.13
798.193	17317.03
798.525	17098.28
798.856	17152.06
799.188	17077.94
799.519	17006.98
799.85	16932.18
800.182	16930.15
800.513	16950.49
800.844	16759.76
801.175	16888.12
801.506	16838.85
801.837	16762.92
802.168	16789.59
802.499	16626.43
802.83	16637.5
803.161	16543.94
803.491	16519.54
803.822	16534.45
804.153	16456.49
804.483	16421.46
804.814	16350.95
805.145	16272.09
805.475	16307.79
805.805	16181.92
806.136	16275.93
806.466	16222.37
806.796	16154.12
807.126	16058.08
807.457	16042.94
807.787	16074.58
808.117	15944.64
808.447	15927.24
808.777	15986.9
809.107	15939.89
809.436	15825.09
809.766	15807.92
810.096	15773.34
810.426	15706.45
810.755	15771.53
811.085	15683.63
811.414	15624.65
811.744	15599.56
812.073	15613.57
812.403	15571.54
812.732	15543.74
813.061	15520.02
813.39	15349.4
813.719	15383.97
814.049	15498.1
814.378	15461.26
814.707	15292.68
815.036	15389.4
815.365	15249.29
815.693	15209.52
816.022	15170.19
816.351	15131.55
816.68	15041.38
817.008	15150.31
817.337	14931.33
817.665	14909.18
817.994	14951.67
818.322	14860.82
818.651	14870.09
818.979	14821.95
819.307	14881.84
819.636	14789.41
819.964	14833.71
820.292	14890.88
820.62	14847.26
820.948	14773.59
821.276	14778.57
821.604	14769.98
821.932	14743.54
822.259	14809.75
822.587	14728.17
822.915	14704.67
823.243	14767.95
823.57	14673.26
823.898	14751.67
824.225	14648.63
824.553	14678.91
824.88	14711.22
825.207	14773.59
825.535	14679.81
825.862	14772.69
826.189	14663.09
826.516	14676.42
826.843	14785.8
827.17	14748.96
827.497	14745.35
827.824	14774.72
828.151	14794.61
828.478	14699.47
828.805	14780.6
829.131	14774.05
829.458	14747.15
829.785	14700.38
830.111	14687.5
830.438	14715.74
830.764	14718
831.09	14747.15
831.417	14687.95
831.743	14703.09
832.069	14730.66
832.395	14643.88
832.722	14716.42
833.048	14595.29
833.374	14701.73
833.7	14539.93
834.026	14599.36
834.351	14641.39
834.677	14619.02
835.003	14544.9
835.329	14631.9
835.654	14543.09
835.98	14419.93
836.306	14515.52
836.631	14445.02
836.956	14543.09
837.282	14491.57
837.607	14437.33
837.932	14391.01
838.258	14387.84
838.583	14337.9
838.908	14365.7
839.233	14371.8
839.558	14289.54
839.883	14165.7
840.208	14256.09
840.533	14231.91
840.858	14257
841.182	14138.81
841.507	14167.06
841.832	14025.37
842.156	14116.44
842.481	14062.43
842.805	14006.38
843.13	14016.1
843.454	13960.06
843.778	13909.21
844.103	13997.57
844.427	13867.18
844.751	13850.91
845.075	13816.33
845.399	13819.5
845.723	13694.53
846.047	13806.61
846.371	13611.14
846.695	13610.01
847.019	13518.94
847.343	13546.73
847.666	13339.96
847.99	13304.03
848.313	13309.23
848.637	13237.36
848.96	13241.88
849.284	13187.2
849.607	13082.34
849.931	13054.09
850.254	12984.49
850.577	12885.73
850.9	12895
851.223	12867.88
851.546	12794.44
851.869	12617.49
852.192	12729.58
852.515	12553.54
852.838	12601.22
853.161	12528.68
853.483	12539.76
853.806	12422.24
854.129	12445.97
854.451	12329.82
854.774	12302.25
855.096	12285.52
855.419	12248.46
855.741	12189.03
856.063	12205.07
856.385	12074.68
856.708	12160.1
857.03	12104.74
857.352	12085.3
857.674	12010.5
857.996	11934.12
858.318	11877.17
858.64	11819.32
858.961	11902.48
859.283	11779.1
859.605	11745.2
859.926	11822.03
860.248	11785.65
860.57	11703.84
860.891	11715.37
861.212	11582.94
861.534	11599.89
861.855	11567.8
862.176	11563.96
862.498	11549.5
862.819	11610.74
863.14	11514.25
863.461	11485.55
863.782	11407.58
864.103	11442.38
864.424	11340.46
864.745	11473.12
865.065	11345.89
865.386	11357.64
865.707	11327.13
866.027	11260.69
866.348	11314.02
866.668	11275.16
866.989	11219.56
867.309	11117.19
867.63	11192.22
867.95	11246.68
868.27	11081.04
868.59	11156.74
868.91	11137.98
869.23	11112.45
869.55	11038.1
869.87	11097.99
870.19	11019.79
870.51	11090.98
870.83	11088.27
871.15	11014.82
871.469	10995.84
871.789	10994.94
872.109	11038.55
872.428	10894.6
872.748	10948.38
873.067	10927.82
873.386	10863.64
873.706	10853.47
874.025	10865.22
874.344	10731.67
874.663	10814.38
874.982	10739.58
875.301	10774.83
875.62	10655.28
875.939	10740.71
876.258	10689.63
876.577	10741.16
876.896	10704.55
877.214	10590.88
877.533	10677.21
877.852	10557.66
878.17	10637.88
878.489	10615.51
878.807	10614.61
879.125	10617.32
879.444	10506.81
879.762	10534.38
880.08	10546.14
880.398	10511.11
880.716	10496.87
881.034	10410.77
881.352	10418.68
881.67	10337.1
881.988	10405.57
882.306	10352.02
882.624	10396.99
882.941	10336.65
883.259	10268.85
883.577	10322.86
883.894	10235.18
884.212	10192.92
884.529	10191.12
884.846	10214.39
885.164	10141.17
885.481	10106.6
885.798	10108.18
886.115	10070.44
886.432	10020.73
886.75	10016.66
887.067	10065.47
887.383	10004
887.7	9989.77
888.017	9945.25
888.334	9925.81
888.651	9951.57
888.967	9817.79
889.284	9830
889.6	9789.32
889.917	9710.22
890.233	9752.03
890.55	9656.67
890.866	9731.92
891.182	9684.69
891.498	9660.51
891.815	9578.48
892.131	9586.84
892.447	9553.62
892.763	9531.02
893.079	9460.74
893.395	9506.61
893.71	9382.1
894.026	9357.47
894.342	9309.11
894.657	9296.68
894.973	9291.93
895.289	9286.06
895.604	9292.61
895.92	9195.66
896.235	9171.71
896.55	9164.48
896.865	9179.39
897.181	9099.17
897.496	9085.16
897.811	9089.45
898.126	9051.94
898.441	9005.16
898.756	8986.63
899.071	8900.75
899.386	8893.52
899.7	8812.85
900.015	8830.93
900.33	8715.67
900.644	8693.75
900.959	8719.52
901.273	8681.78
901.588	8621.67
901.902	8576.02
902.216	8646.07
902.531	8567.88
902.845	8500.54
903.159	8463.93
903.473	8448.79
903.787	8417.83
904.101	8374.67
904.415	8383.25
904.729	8337.38
905.042	8282.01
905.356	8236.59
905.67	8295.57
905.984	8263.03
906.297	8178.74
906.611	8102.13
906.924	8122.47
907.237	8140.55
907.551	8072.75
907.864	7978.75
908.177	8026.43
908.491	8007.22
908.804	7929.93
909.117	7891.74
909.43	7870.95
909.743	7797.73
910.056	7777.85
910.368	7755.02
910.681	7705.08
910.994	7713.89
911.307	7652.65
911.619	7648.58
911.932	7626.89
912.244	7586.44
912.557	7510.51
912.869	7481.81
913.181	7454.69
913.494	7449.72
913.806	7399.1
914.118	7338.31
914.43	7376.95
914.742	7343.06
915.054	7255.15
915.366	7207.92
915.678	7234.58
915.99	7137.86
916.302	7155.72
916.613	7189.16
916.925	7122.04
917.236	7124.98
917.548	7062.38
917.859	7103.29
918.171	6997.08
918.482	6963.4
918.794	7014.25
919.105	7011.54
919.416	6853.8
919.727	6854.03
920.038	6858.32
920.349	6816.29
920.66	6776.29
920.971	6768.38
921.282	6691.77
921.593	6694.94
921.903	6659.23
922.214	6637.54
922.525	6618.55
922.835	6549.63
923.146	6540.59
923.456	6550.08
923.767	6463.53
924.077	6479.35
924.387	6467.82
924.697	6403.19
925.008	6332.01
925.318	6366.81
925.628	6364.55
925.938	6344.21
926.248	6282.07
926.558	6217.44
926.867	6237.55
927.177	6154.84
927.487	6191
927.796	6138.57
928.106	6188.96
928.416	6127.27
928.725	6094.95
929.034	6054.05
929.344	6026.93
929.653	5993.26
929.962	5952.58
930.271	5929.53
930.581	5926.37
930.89	5892.02
931.199	5838.91
931.508	5848.18
931.817	5852.02
932.125	5788.97
932.434	5818.8
932.743	5745.36
933.051	5709.88
933.36	5718.47
933.669	5676.21
933.977	5694.06
934.286	5670.56
934.594	5611.58
934.902	5548.53
935.21	5562.76
935.519	5544.91
935.827	5547.17
936.135	5465.59
936.443	5455.65
936.751	5456.78
937.059	5429.21
937.367	5450.22
937.674	5448.42
937.982	5415.2
938.29	5382.88
938.597	5383.11
938.905	5290.45
939.213	5277.57
939.52	5279.38
939.827	5262.66
940.135	5212.49
940.442	5226.5
940.749	5212.49
941.056	5206.61
941.363	5147.41
941.67	5081.87
941.977	5048.65
942.284	5076.67
942.591	5061.53
942.898	5043.45
943.205	4991.7
943.511	4949.45
943.818	4994.42
944.125	4951.25
944.431	4897.7
944.738	4940.41
945.044	4893.4
945.35	4840.3
945.657	4795.78
945.963	4785.38
946.269	4793.29
946.575	4806.85
946.881	4768.21
947.187	4729.34
947.493	4715.33
947.799	4677.36
948.105	4671.49
948.41	4628.1
948.716	4634.2
949.022	4599.4
949.327	4572.96
949.633	4558.72
949.938	4563.02
950.244	4533.64
950.549	4522.11
950.854	4492.28
951.16	4467.88
951.465	4416.8
951.77	4441.44
952.075	4410.25
952.38	4421.55
952.685	4393.53
952.99	4334.77
953.294	4299.75
953.599	4312.17
953.904	4245.51
954.209	4261.78
954.513	4251.61
954.818	4232.63
955.122	4196.92
955.426	4208
955.731	4151.5
956.035	4168
956.339	4135.46
956.643	4179.07
956.948	4111.05
957.252	4088.45
957.556	4092.75
957.86	4065.63
958.163	4056.36
958.467	4066.53
958.771	4026.31
959.075	4003.71
959.378	3981.34
959.682	3985.4
959.985	3929.13
960.289	3914.9
960.592	3899.76
960.896	3904.05
961.199	3907.67
961.502	3865.86
961.805	3826.99
962.108	3857.27
962.411	3751.96
962.714	3799.65
963.017	3720.33
963.32	3762.58
963.623	3801.45
963.926	3700.21
964.228	3772.98
964.531	3691.85
964.833	3711.06
965.136	3653.66
965.438	3663.6
965.741	3601.01
966.043	3639.88
966.345	3608.24
966.648	3574.57
966.95	3599.43
967.252	3589.71
967.554	3535.47
967.856	3499.09
968.158	3500.44
968.46	3462.71
968.761	3490.28
969.063	3458.86
969.365	3465.42
969.666	3445.76
969.968	3406.66
970.269	3405.53
970.571	3401.69
970.872	3353.56
971.174	3341.58
971.475	3330.51
971.776	3293.9
972.077	3330.28
972.378	3323.95
972.679	3311.75
972.98	3268.36
973.281	3254.8
973.582	3274.24
973.883	3192.66
974.183	3182.49
974.484	3203.96
974.785	3156.27
975.085	3165.54
975.386	3209.15
975.686	3154.69
975.986	3115.37
976.287	3161.7
976.587	3107.46
976.887	3094.81
977.187	3084.86
977.487	3077.18
977.787	3060.91
978.087	3075.37
978.387	3023.17
978.687	3041.7
978.987	2969.61
979.286	2968.71
979.586	2967.13
979.885	2967.58
980.185	2927.8
980.484	2927.13
980.784	2922.83
981.083	2928.03
981.382	2880.57
981.682	2914.02
981.981	2867.02
982.28	2861.59
982.579	2808.49
982.878	2850.07
983.177	2807.81
983.475	2803.74
983.774	2781.82
984.073	2814.81
984.372	2767.81
984.67	2753.35
984.969	2750.86
985.267	2747.7
985.566	2762.38
985.864	2721.93
986.162	2681.03
986.461	2647.36
986.759	2666.34
987.057	2640.58
987.355	2627.25
987.653	2645.1
987.951	2622.28
988.249	2581.82
988.547	2591.54
988.844	2606
989.142	2575.05
989.44	2568.72
989.737	2559
990.035	2534.37
990.332	2540.47
990.63	2519.91
990.927	2476.52
991.224	2496.63
991.521	2493.69
991.819	2502.73
992.116	2450.98
992.413	2469.96
992.71	2413.24
993.006	2401.49
993.303	2424.31
993.6	2409.17
993.897	2353.13
994.193	2371.89
994.49	2374.82
994.787	2338.67
995.083	2368.05
995.379	2320.36
995.676	2295.96
995.972	2311.1
996.268	2319.91
996.565	2278.78
996.861	2309.29
997.157	2260.93
997.453	2289.63
997.749	2251.66
998.044	2237.2
998.34	2226.81
998.636	2222.29
998.932	2185.45
999.227	2192
999.523	2166.02
999.818	2145
1000.114	2129.18
1000.409	2148.62
1000.704	2114.72
1001	2113.36
1001.295	2088.5
1001.59	2111.33
1001.885	2086.92
1002.18	2080.6
1002.475	2013.03
1002.77	2046.47
1003.065	2054.16
1003.359	2033.36
1003.654	2017.32
1003.949	1980.94
1004.243	1981.61
1004.538	1989.3
1004.832	1971.45
1005.127	1975.51
1005.421	1952.24
1005.715	1922.63
1006.009	1918.34
1006.304	1954.5
1006.598	1877.44
1006.892	1903.42
1007.186	1893.26
1007.48	1891
1007.773	1852.13
1008.067	1881.73
1008.361	1824.78
1008.655	1809.87
1008.948	1819.36
1009.242	1798.57
1009.535	1759.25
1009.829	1805.12
1010.122	1767.38
1010.415	1777.55
1010.708	1744.33
1011.001	1763.09
1011.295	1760.83
1011.588	1706.37
1011.881	1724.67
1012.173	1718.8
1012.466	1705.01
1012.759	1695.29
1013.052	1701.62
1013.344	1668.18
1013.637	1662.53
1013.93	1659.59
1014.222	1647.16
1014.514	1639.48
1014.807	1612.81
1015.099	1601.51
1015.391	1618.01
1015.683	1603.55
1015.976	1593.6
1016.268	1572.13
1016.56	1541.17
1016.851	1552.7
1017.143	1559.93
1017.435	1517.45
1017.727	1514.96
1018.018	1522.19
1018.31	1522.19
1018.602	1517.67
1018.893	1505.47
1019.185	1468.41
1019.476	1470.67
1019.767	1444.68
1020.058	1457.79
1020.35	1417.34
1020.641	1423.44
1020.932	1424.12
1021.223	1401.74
1021.514	1412.82
1021.804	1435.64
1022.095	1384.57
1022.386	1357.9
1022.677	1369.2
1022.967	1355.42
1023.258	1356.09
1023.548	1366.26
1023.839	1365.13
1024.129	1338.92
1024.419	1329.88
1024.709	1314.06
1025	1314.74
1025.29	1299.82
1025.58	1300.28
1025.87	1268.19
1026.16	1260.28
1026.449	1255.76
1026.739	1260.5
1027.029	1264.12
1027.319	1234.52
1027.608	1228.19
1027.898	1251.69
1028.187	1212.37
1028.477	1199.04
1028.766	1190.22
1029.055	1171.47
1029.344	1161.75
1029.634	1189.09
1029.923	1153.61
1030.212	1177.12
1030.501	1152.03
1030.79	1153.61
1031.078	1127.17
1031.367	1147.29
1031.656	1128.3
1031.945	1094.41
1032.233	1127.17
1032.522	1106.16
1032.81	1070.9
1033.099	1061.64
1033.387	1068.19
1033.675	1077.01
1033.963	1041.98
1034.251	1054.18
1034.54	1062.09
1034.828	1053.28
1035.116	1053.05
1035.403	1022.09
1035.691	1020.74
1035.979	1023.9
1036.267	1020.74
1036.554	1002.88
1036.842	979.38
1037.129	1008.31
1037.417	991.36
1037.704	961.08
1037.992	981.19
1038.279	989.55
1038.566	960.17
1038.853	960.17
1039.14	960.17
