Data from hue_260_FLMS001491_00086.txt Node
Date: Tue Feb 07 15:59:43 GMT 2017
User: dcchb
Spectrometer: FLMS00149
Trigger mode: 0
Integration Time (sec): 2.000000E-2
Scans to average: 10
Electric dark correction enabled: true
Nonlinearity correction enabled: false
Boxcar width: 0
XAxis mode: Wavelengths
Number of Pixels in Spectrum: 2048
>>>>>Begin Spectral Data<<<<<
341.393	-9.36
341.776	-9.36
342.16	-9.36
342.543	-19.99
342.927	-68.57
343.31	-38.29
343.693	-73.09
344.077	-63.83
344.46	-64.28
344.843	-31.96
345.226	-25.63
345.61	-23.83
345.993	-22.47
346.376	-4.62
346.759	6.91
347.142	12.33
347.525	30.41
347.908	44.42
348.291	60.01
348.674	89.39
349.057	104.53
349.44	133.91
349.823	135.26
350.206	153.57
350.588	204.87
350.971	180.46
351.354	234.25
351.737	257.75
352.119	237.86
352.502	269.95
352.884	273.57
353.267	270.63
353.65	288.03
354.032	271.76
354.414	267.01
354.797	302.49
355.179	314.02
355.562	298.2
355.944	334.58
356.326	330.74
356.709	347.69
357.091	339.55
357.473	319.89
357.855	329.61
358.238	341.81
358.62	326.45
359.002	329.38
359.384	328.48
359.766	325.99
360.148	333.45
360.53	336.16
360.912	326.22
361.294	311.31
361.676	326.9
362.057	318.08
362.439	320.8
362.821	313.57
363.203	301.36
363.584	316.05
363.966	309.05
364.348	311.76
364.729	318.54
365.111	334.58
365.493	304.07
365.874	286.9
366.256	301.81
366.637	300.46
367.019	304.3
367.4	324.19
367.781	301.14
368.163	325.77
368.544	301.81
368.925	334.36
369.306	291.64
369.688	298.65
370.069	293
370.45	307.69
370.831	312.66
371.212	292.1
371.593	284.19
371.974	324.19
372.355	292.32
372.736	310.85
373.117	314.7
373.498	320.12
373.879	313.57
374.26	321.7
374.641	325.54
375.021	303.17
375.402	321.02
375.783	308.37
376.163	349.04
376.544	303.4
376.925	312.44
377.305	311.98
377.686	311.08
378.066	297.29
378.447	321.47
378.827	319.21
379.208	325.32
379.588	322.15
379.968	320.34
380.349	321.02
380.729	326.45
381.109	336.16
381.489	332.55
381.87	337.29
382.25	342.49
382.63	329.61
383.01	328.03
383.39	338.42
383.77	341.36
384.15	337.07
384.53	348.59
384.91	340.68
385.29	334.81
385.67	342.04
386.049	326.22
386.429	342.27
386.809	348.37
387.189	361.02
387.568	358.76
387.948	348.14
388.328	360.34
388.707	344.98
389.087	345.88
389.466	334.81
389.846	344.98
390.225	349.27
390.605	366.9
390.984	352.21
391.363	386.56
391.743	353.79
392.122	379.55
392.501	368.7
392.881	373.9
393.26	363.51
393.639	371.42
394.018	379.33
394.397	390.4
394.776	391.98
395.155	369.61
395.534	383.62
395.913	363.96
396.292	406.9
396.671	379.78
397.05	405.54
397.429	388.14
397.808	395.6
398.186	394.02
398.565	393.79
398.944	411.19
399.323	423.84
399.701	397.86
400.08	413.9
400.458	414.13
400.837	405.54
401.215	415.48
401.594	440.79
401.972	426.56
402.351	433.79
402.729	434.01
403.107	418.65
403.486	442.15
403.864	400.34
404.242	420.23
404.62	438.53
404.999	430.4
405.377	445.54
405.755	451.64
406.133	442.38
406.511	475.14
406.889	473.79
407.267	448.02
407.645	469.95
408.023	485.76
408.401	474.92
408.779	482.83
409.156	489.83
409.534	501.36
409.912	507.01
410.29	478.76
410.667	514.01
411.045	519.21
411.422	542.49
411.8	532.09
412.178	534.8
412.555	561.92
412.933	551.3
413.31	579.55
413.687	585.2
414.065	569.38
414.442	570.06
414.819	581.35
415.197	591.07
415.574	588.13
415.951	599.89
416.328	599.43
416.705	616.61
417.082	611.18
417.46	620.45
417.837	654.12
418.214	641.92
418.591	637.4
418.967	661.58
419.344	676.49
419.721	659.77
420.098	679.21
420.475	686.21
420.852	703.16
421.228	706.55
421.605	710.84
421.982	727.34
422.358	730.73
422.735	748.81
423.111	747.68
423.488	752.88
423.864	785.42
424.241	795.36
424.617	781.58
424.994	797.62
425.37	832.42
425.746	815.92
426.123	873.55
426.499	857.73
426.875	898.63
427.251	875.13
427.627	891.4
428.003	908.58
428.379	890.73
428.756	896.83
429.132	930.05
429.507	920.78
429.883	952.42
430.259	978.63
430.635	970.95
431.011	966.66
431.387	975.24
431.763	1024.51
432.138	1028.57
432.514	1039.2
432.89	1062.25
433.265	1067.44
433.641	1080.1
434.016	1103.6
434.392	1106.31
434.767	1145.18
435.143	1161.45
435.518	1110.15
435.894	1161.68
436.269	1195.8
436.644	1207.78
437.02	1229.7
437.395	1231.28
437.77	1257.04
438.145	1291.17
438.52	1303.6
438.895	1299.75
439.271	1317.61
439.646	1360.09
440.021	1361.9
440.395	1344.95
440.77	1389.92
441.145	1391.28
441.52	1454.33
441.895	1404.84
442.27	1453.65
442.645	1453.87
443.019	1483.7
443.394	1454.78
443.769	1468.56
444.143	1502.91
444.518	1504.49
444.892	1505.4
445.267	1548.11
445.641	1543.14
446.016	1553.76
446.39	1577.26
446.764	1554.21
447.139	1573.87
447.513	1599.63
447.887	1593.53
448.262	1579.75
448.636	1616.36
449.01	1630.59
449.384	1652.74
449.758	1650.93
450.132	1688.44
450.506	1707.43
450.88	1736.35
451.254	1707.65
451.628	1746.07
452.002	1766.86
452.376	1746.52
452.75	1796.01
453.123	1803.92
453.497	1815.45
453.871	1825.16
454.244	1865.16
454.618	1887.99
454.992	1890.7
455.365	1894.77
455.739	1931.38
456.112	2004.37
456.486	1991.71
456.859	1965.05
457.232	2006.63
457.606	2024.03
457.979	2029.45
458.352	2084.37
458.725	2102.9
459.099	2128.21
459.472	2161.43
459.845	2163.23
460.218	2174.99
460.591	2219.5
460.964	2211.59
461.337	2261.99
461.71	2292.95
462.083	2339.95
462.456	2305.6
462.829	2315.09
463.201	2382.66
463.574	2351.25
463.947	2417.46
464.32	2478.25
464.692	2471.93
465.065	2459.72
465.438	2493.39
465.81	2532.49
466.183	2566.39
466.555	2633.96
466.928	2656.33
467.3	2624.69
467.672	2684.35
468.045	2765.7
468.417	2745.82
468.789	2731.35
469.161	2774.52
469.534	2800.96
469.906	2855.19
470.278	2892.93
470.65	2890.9
471.022	2935.87
471.394	3037.79
471.766	3021.29
472.138	3070.33
472.51	3115.07
472.882	3146.94
473.253	3151.68
473.625	3213.6
473.997	3298.8
474.369	3280.72
474.74	3327.72
475.112	3343.09
475.484	3423.99
475.855	3460.38
476.227	3523.42
476.598	3598.45
476.97	3581.73
477.341	3685.45
477.713	3729.97
478.084	3734.94
478.455	3825.34
478.827	3827.15
479.198	3936.75
479.569	3930.87
479.94	4033.47
480.311	4077.31
480.682	4164.31
481.053	4230.3
481.424	4290.86
481.795	4270.98
482.166	4359.11
482.537	4411.31
482.908	4483.17
483.279	4444.98
483.65	4576.05
484.021	4654.47
484.391	4710.29
484.762	4777.18
485.133	4782.83
485.503	4875.93
485.874	4919.09
486.244	4926.78
486.615	5016.94
486.985	5083.61
487.356	5132.2
487.726	5210.84
488.097	5323.38
488.467	5301
488.837	5348.24
489.207	5400.21
489.578	5509.59
489.948	5548.23
490.318	5619.64
490.688	5591.84
491.058	5702.12
491.428	5755.68
491.798	5822.8
492.168	5916.13
492.538	5893.53
492.908	5934.66
493.278	5994.77
493.648	6021.66
494.017	6147.99
494.387	6114.77
494.757	6176.91
495.126	6219.85
495.496	6205.61
495.866	6256.01
496.235	6358.38
496.605	6390.47
496.974	6385.72
497.344	6484.7
497.713	6445.16
498.082	6526.06
498.452	6568.54
498.821	6627.98
499.19	6558.6
499.559	6624.36
499.928	6661.42
500.298	6713.17
500.667	6726.96
501.036	6702.32
501.405	6758.59
501.774	6802.66
502.143	6822.77
502.512	6856.44
502.88	6914.75
503.249	6930.79
503.618	6937.12
503.987	6933.05
504.356	7006.04
504.724	7036.1
505.093	6989.1
505.462	7010.11
505.83	7072.71
506.199	7166.49
506.567	7205.81
506.936	7135.31
507.304	7256.21
507.672	7187.73
508.041	7272.48
508.409	7309.09
508.777	7281.07
509.145	7289.43
509.514	7334.17
509.882	7395.64
510.25	7395.64
510.618	7402.42
510.986	7451.91
511.354	7483.09
511.722	7527.16
512.09	7529.42
512.458	7547.95
512.826	7566.71
513.193	7589.76
513.561	7609.64
513.929	7666.59
514.297	7688.06
514.664	7735.74
515.032	7670.89
515.4	7684.44
515.767	7767.38
516.135	7756.31
516.502	7685.57
516.869	7817.77
517.237	7862.07
517.604	7768.06
517.972	7883.31
518.339	7857.77
518.706	7822.97
519.073	7871.56
519.44	7900.03
519.808	7894.38
520.175	7922.18
520.542	8004.89
520.909	7978.22
521.276	7950.65
521.643	7980.48
522.009	8023.64
522.376	8097.99
522.743	8104.09
523.11	8169.4
523.477	8131.21
523.843	8164.66
524.21	8198.1
524.577	8239.01
524.943	8236.29
525.31	8262.73
525.676	8278.78
526.043	8321.94
526.409	8379.57
526.776	8387.7
527.142	8306.58
527.508	8385.9
527.874	8344.09
528.241	8443.07
528.607	8490.07
528.973	8510.19
529.339	8475.16
529.705	8500.47
530.071	8534.14
530.437	8519.45
530.803	8530.07
531.169	8508.83
531.535	8499.79
531.901	8582.73
532.267	8550.86
532.632	8570.3
532.998	8511.54
533.364	8552.44
533.73	8582.27
534.095	8636.28
534.461	8603.74
534.826	8603.52
535.192	8637.41
535.557	8667.7
535.923	8668.37
536.288	8632.89
536.653	8645.32
537.019	8587.47
537.384	8622.95
537.749	8655.94
538.114	8708.37
538.479	8604.87
538.845	8643.52
539.21	8615.27
539.575	8632.67
539.94	8608.71
540.305	8668.15
540.67	8684.87
541.034	8595.16
541.399	8629.5
541.764	8636.74
542.129	8678.54
542.494	8611.88
542.858	8628.37
543.223	8628.6
543.587	8620.01
543.952	8634.93
544.316	8578.66
544.681	8629.5
545.045	8599
545.41	8638.77
545.774	8600.58
546.138	8562.16
546.503	8625.66
546.867	8580.69
547.231	8618.88
547.595	8571.2
547.959	8625.66
548.324	8571.43
548.688	8580.24
549.052	8568.72
549.416	8596.06
549.779	8578.43
550.143	8498.89
550.507	8588.15
550.871	8563.97
551.235	8565.33
551.599	8618.43
551.962	8537.3
552.326	8584.31
552.689	8610.3
553.053	8495.72
553.417	8556.96
553.78	8620.69
554.143	8547.25
554.507	8566.91
554.87	8555.16
555.234	8625.89
555.597	8516.97
555.96	8597.42
556.323	8631.99
556.686	8612.1
557.05	8657.3
557.413	8600.58
557.776	8614.82
558.139	8635.38
558.502	8641.71
558.865	8708.82
559.228	8712.89
559.59	8697.98
559.953	8736.85
560.316	8724.19
560.679	8767.13
561.041	8800.57
561.404	8788.14
561.767	8766.22
562.129	8831.76
562.492	8867.46
562.854	8832.66
563.217	8893.23
563.579	8818.88
563.941	8890.74
564.304	8937.75
564.666	8950.85
565.028	8925.09
565.39	9024.97
565.753	9044.64
566.115	9046.67
566.477	9025.2
566.839	9061.36
567.201	9071.53
567.563	9116.27
567.925	9161.24
568.287	9186.1
568.648	9152.65
569.01	9248.92
569.372	9292.09
569.734	9178.87
570.095	9336.6
570.457	9291.63
570.819	9311.29
571.18	9305.87
571.542	9322.37
571.903	9320.56
572.265	9366.21
572.626	9400.78
572.987	9376.38
573.349	9436.94
573.71	9424.51
574.071	9443.72
574.432	9479.2
574.794	9559.42
575.155	9618.18
575.516	9555.58
575.877	9582.93
576.238	9637.39
576.599	9683.94
576.96	9699.08
577.32	9660.89
577.681	9721.23
578.042	9693.66
578.403	9749.25
578.763	9744.28
579.124	9700.44
579.485	9828.34
579.845	9856.14
580.206	9882.35
580.566	9823.6
580.927	9832.18
581.287	9826.76
581.648	9908.12
582.008	9917.83
582.368	9886.87
582.728	9986.76
583.089	10000.99
583.449	9968.9
583.809	10026.76
584.169	9990.82
584.529	10070.14
584.889	10128.9
585.249	10069.24
585.609	10026.08
585.969	10179.52
586.329	10012.97
586.688	10124.83
587.048	10113.08
587.408	10155.11
587.768	10124.15
588.127	10104.72
588.487	10157.15
588.846	10216.58
589.206	10086.87
589.565	10128.45
589.925	10233.53
590.284	10220.65
590.643	10223.81
591.003	10180.42
591.362	10401.66
591.721	10258.84
592.08	10225.39
592.44	10361.21
592.799	10259.07
593.158	10295.9
593.517	10333.87
593.876	10363.02
594.235	10307.65
594.593	10328.9
594.952	10342.68
595.311	10413.41
595.67	10397.59
596.029	10435.56
596.387	10401.21
596.746	10423.81
597.104	10384.03
597.463	10402.57
597.822	10425.62
598.18	10397.37
598.538	10407.76
598.897	10494.31
599.255	10337.48
599.613	10482.11
599.972	10446.86
600.33	10473.07
600.688	10457.25
601.046	10504.48
601.404	10565.27
601.762	10549.68
602.12	10582.67
602.478	10564.6
602.836	10577.7
603.194	10498.16
603.552	10533.41
603.91	10534.09
604.268	10570.02
604.625	10568.21
604.983	10604.37
605.341	10613.41
605.698	10586.29
606.056	10591.49
606.413	10597.81
606.771	10608.89
607.128	10586.97
607.485	10568.89
607.843	10579.96
608.2	10690.24
608.557	10748.55
608.914	10581.54
609.272	10674.87
609.629	10708.55
609.986	10850.69
610.343	10677.36
610.7	10736.34
611.057	10702.9
611.414	10778.83
611.771	10721.65
612.127	10796.45
612.484	10830.8
612.841	10834.19
613.198	10740.86
613.554	10740.41
613.911	10855.89
614.267	10831.03
614.624	10805.04
614.98	10815.44
615.337	10890.91
615.693	10857.02
616.05	10817.02
616.406	10861.76
616.762	10899.73
617.118	10946.51
617.475	10930.91
617.831	10931.82
618.187	10936.34
618.543	10923.68
618.899	10975.43
619.255	10910.12
619.611	10920.07
619.967	10941.08
620.323	10940.18
620.678	10928.88
621.034	10979.5
621.39	10979.05
621.746	11000.74
622.101	11024.47
622.457	10908.09
622.812	10982.89
623.168	11028.54
623.523	10980.86
623.879	11064.24
624.234	11018.14
624.589	10993.74
624.945	11034.41
625.3	10953.29
625.655	11045.94
626.01	10991.02
626.365	10997.58
626.72	10989.22
627.075	10925.26
627.43	10993.06
627.785	10883.68
628.14	11004.13
628.495	10939.5
628.85	10952.83
629.205	10843.91
629.559	10952.83
629.914	10867.64
630.269	10871.93
630.623	10860.41
630.978	10857.47
631.332	10879.62
631.687	10932.5
632.041	10825.83
632.396	10889.78
632.75	10749.9
633.104	10809.33
633.459	10785.38
633.813	10739.05
634.167	10808.66
634.521	10763.23
634.875	10765.95
635.229	10756.68
635.583	10648.43
635.937	10656.12
636.291	10698.15
636.645	10649.56
636.999	10647.53
637.352	10701.77
637.706	10638.94
638.06	10625.61
638.413	10575.67
638.767	10592.84
639.121	10596.23
639.474	10488.89
639.828	10556.01
640.181	10547.19
640.534	10599.4
640.888	10501.09
641.241	10459.29
641.594	10441.66
641.947	10556.23
642.301	10528.89
642.654	10526.4
643.007	10523.01
643.36	10467.87
643.713	10446.63
644.066	10483.92
644.419	10369.12
644.771	10358.05
645.124	10292.51
645.477	10287.31
645.83	10238.95
646.182	10205.73
646.535	10094.55
646.888	10171.84
647.24	10072.86
647.593	10176.13
647.945	10109.69
648.298	10081.67
648.65	9965.51
649.002	10058.17
649.355	10128.9
649.707	10019.07
650.059	10137.49
650.411	10284.6
650.763	10221.78
651.115	10288.44
651.467	10285.96
651.819	10278.73
652.171	10290.93
652.523	10234.66
652.875	10257.94
653.227	10280.76
653.578	10296.81
653.93	10298.39
654.282	10264.72
654.633	10210.93
654.985	10266.3
655.337	10252.51
655.688	10217.71
656.039	10302.23
656.391	10211.16
656.742	10266.3
657.094	10277.82
657.445	10259.29
657.796	10259.74
658.147	10209.58
658.498	10160.31
658.849	10299.29
659.2	10243.25
659.551	10174.1
659.902	10225.39
660.253	10215.45
660.604	10240.08
660.955	10206.86
661.306	10266.98
661.656	10205.96
662.007	10285.51
662.358	10262.23
662.708	10244.6
663.059	10221.55
663.409	10101.78
663.76	10269.69
664.11	10292.74
664.461	10339.29
664.811	10275.34
665.161	10294.55
665.511	10219.52
665.862	10246.41
666.212	10246.41
666.562	10305.39
666.912	10244.38
667.262	10266.07
667.612	10237.6
667.962	10280.99
668.312	10203.93
668.662	10184.49
669.011	10237.37
669.361	10215.9
669.711	10139.3
670.06	10147.2
670.41	10172.06
670.76	10150.82
671.109	10254.09
671.459	10154.44
671.808	10186.53
672.157	10249.35
672.507	10080.31
672.856	10043.93
673.205	10053.42
673.554	10156.47
673.904	10121.44
674.253	10084.16
674.602	10106.08
674.951	9954.22
675.3	9933.2
675.649	10099.52
675.998	10052.74
676.346	10087.09
676.695	10089.35
677.044	10024.72
677.393	10055.68
677.741	10021.56
678.09	10003.25
678.438	9971.84
678.787	9981.33
679.135	9998.73
679.484	9887.1
679.832	9968.23
680.181	9881.22
680.529	10023.82
680.877	9934.33
681.225	9872.86
681.573	9937.04
681.922	9781.79
682.27	9815.91
682.618	9822.02
682.966	9828.8
683.314	9809.59
683.661	9805.74
684.009	9798.74
684.357	9705.63
684.705	9693.21
685.053	9650.04
685.4	9707.22
685.748	9645.52
686.095	9661.34
686.443	9619.99
686.79	9520.1
687.138	9637.39
687.485	9541.8
687.832	9539.54
688.18	9575.47
688.527	9481.23
688.874	9401.01
689.221	9441.46
689.568	9368.47
689.915	9357.85
690.262	9396.94
690.609	9339.77
690.956	9336.6
691.303	9279.21
691.65	9219.77
691.997	9262.48
692.344	9186.1
692.69	9140
693.037	9158.76
693.383	9132.09
693.73	9083.96
694.077	9036.5
694.423	8971.19
694.769	9058.19
695.116	8967.8
695.462	8967.8
695.808	8931.19
696.155	8914.47
696.501	8869.5
696.847	8827.47
697.193	8785.43
697.539	8827.01
697.885	8755.15
698.231	8676.96
698.577	8706.11
698.923	8683.29
699.269	8670.18
699.614	8604.87
699.96	8531.65
700.306	8526.46
700.651	8528.26
700.997	8537.3
701.342	8439.91
701.688	8449.62
702.033	8415.05
702.379	8405.1
702.724	8344.09
703.069	8359.23
703.415	8301.6
703.76	8293.02
704.105	8287.37
704.45	8293.24
704.795	8202.4
705.14	8193.13
705.485	8167.37
705.83	8090.54
706.175	8114.72
706.52	8018.67
706.865	8070.2
707.209	8015.96
707.554	8070.42
707.899	8039.92
708.243	8027.03
708.588	7983.19
708.932	7886.47
709.277	7936.42
709.621	7874.27
709.966	7825.23
710.31	7879.69
710.654	7763.09
710.998	7803.54
711.342	7792.69
711.687	7816.64
712.031	7795.18
712.375	7683.09
712.719	7740.04
713.063	7709.75
713.407	7701.62
713.75	7694.39
714.094	7686.03
714.438	7607.38
714.782	7695.74
715.125	7627.05
715.469	7604.22
715.812	7554.73
716.156	7537.33
716.499	7561.06
716.843	7574.17
717.186	7513.83
717.53	7481.06
717.873	7575.52
718.216	7472.7
718.559	7477.22
718.902	7407.39
719.246	7439.93
719.589	7486.48
719.932	7387.96
720.275	7427.28
720.617	7390.89
720.96	7371.01
721.303	7361.97
721.646	7367.17
721.989	7326.94
722.331	7317.67
722.674	7397.9
723.016	7392.7
723.359	7274.74
723.701	7318.35
724.044	7238.35
724.386	7243.55
724.729	7341.18
725.071	7294.62
725.413	7247.62
725.755	7228.19
726.097	7254.17
726.439	7174.85
726.782	7201.75
727.124	7224.34
727.465	7227.28
727.807	7163.1
728.149	7207.17
728.491	7204.91
728.833	7154.29
729.175	7150.67
729.516	7185.02
729.858	7190.22
730.199	7174.85
730.541	7138.47
730.882	7143.67
731.224	7205.14
731.565	7109.54
731.906	7150.9
732.248	7127.62
732.589	7134.4
732.93	7147.28
733.271	7134.63
733.612	7154.74
733.953	7062.77
734.294	7096.44
734.635	7099.83
734.976	7056.44
735.317	7108.19
735.658	7115.65
735.999	7119.49
736.339	7100.51
736.68	7153.61
737.021	7067.74
737.361	7118.13
737.702	7125.36
738.042	7190.67
738.383	7096.21
738.723	7165.81
739.063	7118.36
739.404	7154.97
739.744	7129.88
740.084	7146.83
740.424	7156.78
740.764	7172.37
741.104	7168.98
741.444	7175.76
741.784	7192.71
742.124	7234.29
742.464	7173.05
742.804	7192.48
743.143	7231.8
743.483	7237.9
743.823	7161.75
744.162	7236.77
744.502	7251.01
744.841	7283.33
745.181	7351.35
745.52	7285.59
745.86	7345.47
746.199	7381.18
746.538	7406.26
746.877	7465.02
747.216	7497.33
747.556	7488.52
747.895	7508.4
748.234	7613.26
748.573	7601.96
748.911	7655.75
749.25	7665.69
749.589	7670.43
749.928	7748.85
750.267	7786.14
750.605	7890.54
750.944	7944.33
751.283	7935.51
751.621	8057.54
751.96	8082.85
752.298	8207.14
752.636	8268.38
752.975	8258.44
753.313	8319
753.651	8401.94
753.989	8464.31
754.327	8554.48
754.666	8623.4
755.004	8718.77
755.342	8860.23
755.679	8931.87
756.017	8989.04
756.355	9088.48
756.693	9220.9
757.031	9385.64
757.368	9373.67
757.706	9523.94
758.044	9656.6
758.381	9714.22
758.719	9889.58
759.056	10011.62
759.394	10104.72
759.731	10191.27
760.068	10254.32
760.405	10436.91
760.743	10566.18
761.08	10719.39
761.417	10800.75
761.754	10933.85
762.091	11065.82
762.428	11208.19
762.765	11303.78
763.102	11427.17
763.438	11525.47
763.775	11554.85
764.112	11737.22
764.449	11916.65
764.785	11979.7
765.122	12049.08
765.458	12212.24
765.795	12276.87
766.131	12447.03
766.467	12582.4
766.804	12658.55
767.14	12698.1
767.476	12894.03
767.812	12962.27
768.148	13065.09
768.485	13129.5
768.821	13099.67
769.157	13279.33
769.492	13386.44
769.828	13431.19
770.164	13437.06
770.5	13639.09
770.836	13689.03
771.171	13737.17
771.507	13877.05
771.842	13823.94
772.178	13938.07
772.513	14046.54
772.849	14076.37
773.184	14115.01
773.519	14172.41
773.855	14209.25
774.19	14274.1
774.525	14305.74
774.86	14379.41
775.195	14399.52
775.53	14497.15
775.865	14473.19
776.2	14418.96
776.535	14486.3
776.87	14535.79
777.205	14567.43
777.539	14506.64
777.874	14743.47
778.209	14553.42
778.543	14579.86
778.878	14572.4
779.212	14578.73
779.547	14579.18
779.881	14671.15
780.215	14579.63
780.55	14754.54
780.884	14655.56
781.218	14655.33
781.552	14734.43
781.886	14677.93
782.22	14689.91
782.554	14583.7
782.888	14540.31
783.222	14659.63
783.556	14562.23
783.889	14620.99
784.223	14449.01
784.557	14593.19
784.89	14585.28
785.224	14551.16
785.557	14531.5
785.891	14481.33
786.224	14549.8
786.558	14443.36
786.891	14421.44
787.224	14341.9
787.557	14410.37
787.891	14399.97
788.224	14408.79
788.557	14451.27
788.89	14472.06
789.223	14446.3
789.556	14329.69
789.888	14301.67
790.221	14309.81
790.554	14145.52
790.887	14237.94
791.219	14224.39
791.552	14101.23
791.884	14111.85
792.217	14096.25
792.549	14086.76
792.882	14013.32
793.214	14046.09
793.546	14025.75
793.879	13993.66
794.211	13865.53
794.543	13942.13
794.875	13854.9
795.207	13927.9
795.539	13790.72
795.871	13804.06
796.203	13786.43
796.535	13759.54
796.867	13653.78
797.198	13704.4
797.53	13664.17
797.862	13630.96
798.193	13659.65
798.525	13593.22
798.856	13623.05
799.188	13421.92
799.519	13434.35
799.85	13270.96
800.182	13348.25
800.513	13448.59
800.844	13278.65
801.175	13388.25
801.506	13315.48
801.837	13231.64
802.168	13253.34
802.499	13222.6
802.83	13210.85
803.161	13146
803.491	13087.92
803.822	13200.91
804.153	13061.48
804.483	13011.76
804.814	12949.62
805.145	12932.22
805.475	12940.58
805.805	12823.97
806.136	12871.65
806.466	12837.98
806.796	12785.78
807.126	12719.11
807.457	12700.58
807.787	12760.47
808.117	12651.77
808.447	12696.74
808.777	12656.07
809.107	12653.13
809.436	12570.19
809.766	12617.2
810.096	12499.91
810.426	12514.6
810.755	12547.82
811.085	12494.04
811.414	12534.26
811.744	12376.3
812.073	12328.16
812.403	12394.6
812.732	12267.83
813.061	12344.89
813.39	12239.13
813.719	12209.3
814.049	12331.55
814.378	12194.16
814.707	12151.45
815.036	12164.55
815.365	12092.69
815.693	12026.03
816.022	12056.08
816.351	12010.43
816.68	11928.63
817.008	11992.35
817.337	11896.99
817.665	11890.66
817.994	11913.03
818.322	11901.06
818.651	11827.61
818.979	11777.9
819.307	11918.23
819.636	11807.95
819.964	11753.26
820.292	11755.98
820.62	11751.91
820.948	11718.24
821.276	11823.09
821.604	11684.34
821.932	11765.02
822.259	11707.84
822.587	11682.08
822.915	11703.77
823.243	11690.44
823.57	11743.77
823.898	11742.64
824.225	11711.68
824.553	11689.09
824.88	11717.56
825.207	11728.63
825.535	11738.35
825.862	11767.05
826.189	11661.97
826.516	11741.06
826.843	11781.51
827.17	11794.17
827.497	11789.87
827.824	11807.05
828.151	11763.89
828.478	11737.67
828.805	11814.51
829.131	11729.54
829.458	11765.47
829.785	11731.57
830.111	11677.56
830.438	11781.06
830.764	11757.11
831.09	11713.49
831.417	11662.87
831.743	11736.99
832.069	11718.69
832.395	11715.07
832.722	11675.53
833.048	11652.25
833.374	11711.46
833.7	11621.74
834.026	11621.74
834.351	11668.07
834.677	11613.61
835.003	11669.42
835.329	11696.32
835.654	11656.77
835.98	11588.97
836.306	11570.67
836.631	11503.55
836.956	11539.26
837.282	11552.14
837.607	11512.14
837.932	11484.57
838.258	11476.44
838.583	11451.13
838.908	11415.87
839.233	11475.53
839.558	11490.9
839.883	11374.97
840.208	11312.6
840.533	11317.57
840.858	11298.14
841.182	11362.09
841.507	11357.34
841.832	11249.32
842.156	11253.16
842.481	11342.2
842.805	11170
843.13	11216.78
843.454	11166.16
843.778	11116.44
844.103	11116.44
844.427	11135.88
844.751	11048.2
845.075	11037.8
845.399	10976.11
845.723	10971.82
846.047	10989.44
846.371	10854.3
846.695	10829.9
847.019	10741.99
847.343	10726.17
847.666	10697.7
847.99	10706.06
848.313	10678.72
848.637	10516.23
848.96	10509
849.284	10497.7
849.607	10447.76
849.931	10414.77
850.254	10400.76
850.577	10304.49
850.9	10237.6
851.223	10236.02
851.546	10224.27
851.869	10106.75
852.192	10159.18
852.515	10120.54
852.838	10048
853.161	10074.21
853.483	9992.18
853.806	10023.59
854.129	9993.08
854.451	9864.27
854.774	9860.66
855.096	9863.82
855.419	9837.83
855.741	9808.23
856.063	9794.45
856.385	9753.09
856.708	9672.19
857.03	9636.94
857.352	9652.75
857.674	9617.73
857.996	9592.42
858.318	9587.67
858.64	9559.2
858.961	9551.97
859.283	9500.22
859.605	9432.2
859.926	9479.43
860.248	9435.13
860.57	9361.91
860.891	9447.79
861.212	9319.66
861.534	9341.58
861.855	9308.36
862.176	9305.87
862.498	9372.54
862.819	9319.88
863.14	9291.63
863.461	9219.77
863.782	9186.55
864.103	9163.73
864.424	9220.45
864.745	9215.25
865.065	9220.22
865.386	9123.28
865.707	9129.83
866.027	9077.85
866.348	9070.17
866.668	9140.45
866.989	9116.72
867.309	8976.84
867.63	9056.61
867.95	9049.61
868.27	8935.94
868.59	8939.78
868.91	8921.02
869.23	8883.51
869.55	8870.4
869.87	8965.77
870.19	8869.95
870.51	8935.71
870.83	8892.77
871.15	8844.41
871.469	8854.13
871.789	8813.45
872.109	8835.83
872.428	8748.15
872.748	8785.66
873.067	8768.48
873.386	8839.67
873.706	8784.08
874.025	8726.45
874.344	8724.87
874.663	8763.74
874.982	8682.38
875.301	8651.2
875.62	8606
875.939	8622.27
876.258	8633.35
876.577	8627.24
876.896	8600.35
877.214	8602.61
877.533	8535.95
877.852	8590.18
878.17	8573.01
878.489	8570.3
878.807	8531.43
879.125	8456.18
879.444	8564.87
879.762	8501.15
880.08	8508.6
880.398	8439.68
880.716	8434.71
881.034	8386.57
881.352	8432.22
881.67	8395.16
881.988	8336.18
882.306	8406.01
882.624	8345.9
882.941	8310.19
883.259	8206.92
883.577	8275.39
883.894	8229.97
884.212	8253.24
884.529	8237.88
884.846	8192
885.164	8195.17
885.481	8109.97
885.798	8174.6
886.115	8118.33
886.432	8093.7
886.75	8127.6
887.067	8086.92
887.383	7982.97
887.7	8036.75
888.017	8010.99
888.334	7978.22
888.651	7977.32
888.967	7977.32
889.284	7895.74
889.6	7870.43
889.917	7855.29
890.233	7884.21
890.55	7815.29
890.866	7825.46
891.182	7819.13
891.498	7753.82
891.815	7727.61
892.131	7719.25
892.447	7705.91
892.763	7682.19
893.079	7626.37
893.395	7627.72
893.71	7601.51
894.026	7638.8
894.342	7531.91
894.657	7444.23
894.973	7441.06
895.289	7415.53
895.604	7464.34
895.92	7375.75
896.235	7353.15
896.55	7409.2
896.865	7384.11
897.181	7307.96
897.496	7295.53
897.811	7332.14
898.126	7282.87
898.441	7192.03
898.756	7158.36
899.071	7186.6
899.386	7171.69
899.7	7134.85
900.015	7091.92
900.33	7051.92
900.644	7039.94
900.959	6978.47
901.273	7009.43
901.588	6980.51
901.902	6974.41
902.216	6937.8
902.531	6940.51
902.845	6837.01
903.159	6879.72
903.473	6812.83
903.787	6800.4
904.101	6768.99
904.415	6733.96
904.729	6679.05
905.042	6701.87
905.356	6677.69
905.67	6682.44
905.984	6675.43
906.297	6623.46
906.611	6533.06
906.924	6558.6
907.237	6530.35
907.551	6532.61
907.864	6447.64
908.177	6431.82
908.491	6438.83
908.804	6465.72
909.117	6386.4
909.43	6363.35
909.743	6344.14
910.056	6338.49
910.368	6305.5
910.681	6259.62
910.994	6221.66
911.307	6209.23
911.619	6184.82
911.932	6175.33
912.244	6150.47
912.557	6080.87
912.869	6089.91
913.181	6062.57
913.494	6071.83
913.806	5970.14
914.118	5967.65
914.43	5915.68
914.742	5934.89
915.054	5941.89
915.366	5885.62
915.678	5871.84
915.99	5867.09
916.302	5812.18
916.613	5777.83
916.925	5802.69
917.236	5760.2
917.548	5710.49
917.859	5720.65
918.171	5644.05
918.482	5676.36
918.794	5633.88
919.105	5588.45
919.416	5555.01
919.727	5547.33
920.038	5502.81
920.349	5478.18
920.66	5489.47
920.971	5479.08
921.282	5491.51
921.593	5418.97
921.903	5407.67
922.214	5388.01
922.525	5379.87
922.835	5364.05
923.146	5314.34
923.456	5274.79
923.767	5285.86
924.077	5232.76
924.387	5220.1
924.697	5238.86
925.008	5149.6
925.318	5181.01
925.628	5146.43
925.938	5122.03
926.248	5088.35
926.558	5034.57
926.867	5106.43
927.177	5014.01
927.487	5073.21
927.796	5015.59
928.106	5011.07
928.416	4947.57
928.725	4938.53
929.034	4931.75
929.344	4918.42
929.653	4909.83
929.962	4894.24
930.271	4855.59
930.581	4795.71
930.89	4791.87
931.199	4735.6
931.508	4759.1
931.817	4797.97
932.125	4692.43
932.434	4701.92
932.743	4673.68
933.051	4666.9
933.36	4673
933.669	4637.29
933.977	4643.17
934.286	4613.79
934.594	4630.29
934.902	4517.52
935.21	4592.32
935.519	4503.51
935.827	4503.51
936.135	4458.31
936.443	4443.4
936.751	4461.7
937.059	4443.17
937.367	4382.84
937.674	4442.5
937.982	4435.72
938.29	4345.55
938.597	4362.5
938.905	4298.32
939.213	4309.17
939.52	4283.63
939.827	4296.51
940.135	4252.9
940.442	4265.78
940.749	4250.41
941.056	4244.76
941.363	4175.84
941.67	4144.88
941.977	4158.21
942.284	4134.71
942.591	4129.96
942.898	4113.47
943.205	4049.06
943.511	4037.08
943.818	4053.81
944.125	4012.9
944.431	3955.28
944.738	4014.48
945.044	3929.06
945.35	3967.71
945.657	3911.66
945.963	3917.76
946.269	3911.44
946.575	3936.07
946.881	3812.91
947.187	3847.71
947.493	3843.87
947.799	3806.35
948.105	3798.22
948.41	3784.43
948.716	3807.94
949.022	3783.76
949.327	3731.78
949.633	3714.15
949.938	3740.14
950.244	3732.01
950.549	3669.41
950.854	3649.97
951.16	3626.47
951.465	3595.74
951.77	3617.66
952.075	3634.38
952.38	3559.36
952.685	3575.4
952.99	3555.74
953.294	3543.76
953.599	3513.03
953.904	3468.74
954.209	3506.25
954.513	3487.49
954.818	3507.38
955.122	3473.03
955.426	3419.25
955.731	3413.6
956.035	3431.9
956.339	3419.7
956.643	3357.33
956.948	3389.42
957.252	3362.07
957.556	3386.7
957.86	3332.92
958.163	3347.61
958.467	3315.29
958.771	3271
959.075	3276.88
959.378	3278.68
959.682	3257.22
959.985	3234.84
960.289	3234.62
960.592	3181.96
960.896	3206.6
961.199	3176.99
961.502	3167.05
961.805	3145.36
962.108	3134.28
962.411	3138.12
962.714	3122.98
963.017	3122.98
963.32	3079.37
963.623	3081.85
963.926	3069.88
964.228	2996.43
964.531	3057.45
964.833	3059.26
965.136	3056.09
965.438	3004.12
965.741	3013.38
966.043	2998.24
966.345	2979.48
966.648	2911.91
966.95	2941.97
967.252	2914.85
967.554	2923.44
967.856	2908.53
968.158	2863.1
968.46	2894.06
968.761	2880.05
969.063	2872.14
969.365	2834.4
969.666	2841.41
969.968	2817.45
970.269	2821.97
970.571	2753.05
970.872	2781.97
971.174	2778.59
971.475	2768.87
971.776	2755.99
972.077	2737.91
972.378	2759.38
972.679	2706.72
972.98	2666.72
973.281	2697.01
973.582	2715.54
973.883	2636.67
974.183	2647.29
974.484	2625.37
974.785	2652.26
975.085	2584.69
975.386	2654.29
975.686	2598.7
975.986	2581.08
976.287	2579.95
976.587	2542.21
976.887	2563.22
977.187	2550.57
977.487	2511.7
977.787	2497.46
978.087	2497.46
978.387	2498.14
978.687	2487.97
978.987	2479.84
979.286	2450.01
979.586	2477.35
979.885	2451.36
980.185	2408.2
980.484	2416.79
980.784	2405.71
981.083	2420.85
981.382	2387.86
981.682	2365.71
981.981	2384.02
982.28	2400.06
982.579	2317.13
982.878	2353.06
983.177	2314.87
983.475	2325.94
983.774	2306.73
984.073	2298.37
984.372	2286.17
984.67	2219.73
984.969	2249.33
985.267	2266.96
985.566	2281.88
985.864	2259.05
986.162	2251.37
986.461	2193.29
986.759	2214.76
987.057	2205.49
987.355	2175.66
987.653	2183.8
987.951	2199.62
988.249	2161.88
988.547	2143.35
988.844	2171.6
989.142	2141.09
989.44	2113.97
989.737	2113.07
990.035	2117.59
990.332	2102.22
990.63	2111.71
990.927	2073.07
991.224	2066.06
991.521	2068.77
991.819	2051.15
992.116	2060.64
992.413	2014.09
992.71	1993.75
993.006	2009.79
993.303	1993.97
993.6	2001.43
993.897	1982.67
994.193	1962.11
994.49	1982.22
994.787	1953.52
995.083	1914.2
995.379	1904.94
995.676	1898.61
995.972	1899.96
996.268	1895.67
996.565	1887.31
996.861	1879.17
997.157	1883.24
997.453	1878.04
997.749	1853.86
998.044	1836.24
998.34	1853.19
998.636	1821.32
998.932	1834.88
999.227	1826.29
999.523	1836.01
999.818	1796.24
1000.114	1804.6
1000.409	1785.62
1000.704	1786.75
1001	1763.24
1001.295	1760.53
1001.59	1742.68
1001.885	1748.1
1002.18	1727.54
1002.475	1705.39
1002.77	1710.36
1003.065	1663.13
1003.359	1733.64
1003.654	1689.12
1003.949	1695.9
1004.243	1636.47
1004.538	1689.35
1004.832	1654.55
1005.127	1665.85
1005.421	1627.88
1005.715	1616.36
1006.009	1619.07
1006.304	1627.65
1006.598	1617.49
1006.892	1598.28
1007.186	1571.39
1007.48	1590.14
1007.773	1547.21
1008.067	1581.55
1008.361	1540.88
1008.655	1523.93
1008.948	1541.33
1009.242	1507.88
1009.535	1525.51
1009.829	1510.14
1010.122	1501.33
1010.415	1486.19
1010.708	1477.38
1011.001	1492.52
1011.295	1445.96
1011.588	1461.56
1011.881	1444.38
1012.173	1441.9
1012.466	1441.9
1012.759	1428.79
1013.052	1440.54
1013.344	1406.42
1013.637	1405.74
1013.93	1378.62
1014.222	1397.38
1014.514	1378.62
1014.807	1366.19
1015.099	1372.75
1015.391	1339.53
1015.683	1342.69
1015.976	1339.75
1016.268	1321
1016.56	1338.85
1016.851	1322.8
1017.143	1334.33
1017.435	1300.88
1017.727	1303.37
1018.018	1280.77
1018.31	1283.71
1018.602	1287.1
1018.893	1266.08
1019.185	1275.57
1019.476	1250.49
1019.767	1218.63
1020.058	1199.42
1020.35	1237.38
1020.641	1224.28
1020.932	1224.28
1021.223	1179.31
1021.514	1197.38
1021.804	1180.21
1022.095	1159.19
1022.386	1169.14
1022.677	1170.04
1022.967	1169.81
1023.258	1171.62
1023.548	1155.35
1023.839	1128.46
1024.129	1132.07
1024.419	1111.96
1024.709	1133.43
1025	1124.39
1025.29	1113.77
1025.58	1096.37
1025.87	1095.92
1026.16	1099.08
1026.449	1100.66
1026.739	1082.36
1027.029	1067.67
1027.319	1051.17
1027.608	1047.33
1027.898	1028.8
1028.187	1039.2
1028.477	1030.61
1028.766	1036.48
1029.055	1027.44
1029.344	1014.34
1029.634	1021.57
1029.923	994
1030.212	977.73
1030.501	1012.08
1030.79	972.98
1031.078	984.73
1031.367	961.23
1031.656	968.46
1031.945	953.55
1032.233	963.04
1032.522	951.06
1032.81	950.16
1033.099	967.11
1033.387	927.11
1033.675	928.92
1033.963	925.3
1034.251	914.68
1034.54	915.36
1034.828	909.26
1035.116	875.81
1035.403	912.42
1035.691	892.98
1035.979	878.07
1036.267	875.81
1036.554	845.53
1036.842	869.93
1037.129	857.96
1037.417	855.25
1037.704	858.41
1037.992	825.64
1038.279	823.83
1038.566	824.74
1038.853	824.74
1039.14	824.74
