Data from hue_190_FLMS001491_00092.txt Node
Date: Tue Feb 07 16:46:02 GMT 2017
User: dcchb
Spectrometer: FLMS00149
Trigger mode: 0
Integration Time (sec): 2.000000E-2
Scans to average: 10
Electric dark correction enabled: true
Nonlinearity correction enabled: false
Boxcar width: 0
XAxis mode: Wavelengths
Number of Pixels in Spectrum: 2048
>>>>>Begin Spectral Data<<<<<
341.393	-20.38
341.776	-20.38
342.16	-20.38
342.543	-71
342.927	-57.44
343.31	-68.29
343.693	-65.8
344.077	-56.31
344.46	-54.73
344.843	-41.85
345.226	-49.31
345.61	-45.92
345.993	-9.53
346.376	-35.07
346.759	12.16
347.142	6.96
347.525	57.13
347.908	68.88
348.291	81.54
348.674	90.35
349.057	109.79
349.44	136.45
349.823	138.49
350.206	165.83
350.588	193.62
350.971	204.92
351.354	216.9
351.737	220.52
352.119	261.19
352.502	234.98
352.884	268.2
353.267	285.37
353.65	307.29
354.032	305.03
354.414	288.76
354.797	302.32
355.179	314.98
355.562	326.73
355.944	345.03
356.326	320.4
356.709	331.47
357.091	333.96
357.473	334.41
357.855	331.25
358.238	355.2
358.62	314.75
359.002	352.49
359.384	358.14
359.766	331.93
360.148	327.18
360.53	319.95
360.912	319.72
361.294	320.85
361.676	317.69
362.057	332.38
362.439	331.25
362.821	319.05
363.203	317.01
363.584	305.71
363.966	332.38
364.348	319.95
364.729	305.71
365.111	327.18
365.493	308.2
365.874	304.36
366.256	323.11
366.637	297.58
367.019	299.16
367.4	312.04
367.781	311.81
368.163	325.15
368.544	285.83
368.925	304.58
369.306	317.92
369.688	323.79
370.069	309.78
370.45	324.24
370.831	299.84
371.212	293.06
371.593	301.64
371.974	307.75
372.355	305.49
372.736	299.61
373.117	313.85
373.498	299.61
373.879	293.96
374.26	306.62
374.641	308.42
375.021	314.07
375.402	305.03
375.783	325.82
376.163	321.76
376.544	305.03
376.925	305.26
377.305	331.47
377.686	328.31
378.066	320.63
378.447	335.32
378.827	333.28
379.208	324.69
379.588	315.66
379.968	321.98
380.349	339.84
380.729	345.26
381.109	325.82
381.489	317.24
381.87	335.54
382.25	322.21
382.63	338.71
383.01	319.95
383.39	328.99
383.77	341.19
384.15	326.73
384.53	321.08
384.91	354.07
385.29	322.21
385.67	334.86
386.049	354.3
386.429	334.19
386.809	344.81
387.189	338.71
387.568	336.45
387.948	333.96
388.328	344.58
388.707	346.16
389.087	340.74
389.466	347.97
389.846	358.59
390.225	371.02
390.605	359.04
390.984	373.28
391.363	372.83
391.743	355.88
392.122	346.16
392.501	362.66
392.881	376.44
393.26	371.47
393.639	384.35
394.018	375.99
394.397	378.7
394.776	374.64
395.155	378.93
395.534	386.39
395.913	377.57
396.292	374.86
396.671	397.91
397.05	385.94
397.429	368.54
397.808	373.28
398.186	394.52
398.565	395.65
398.944	377.8
399.323	380.06
399.701	372.15
400.08	401.98
400.458	407.86
400.837	384.58
401.215	420.74
401.594	410.12
401.972	427.29
402.351	423.68
402.729	395.2
403.107	423.9
403.486	414.41
403.864	414.64
404.242	409.89
404.62	428.65
404.999	438.36
405.377	402.21
405.755	455.76
406.133	437.46
406.511	463.45
406.889	463.45
407.267	458.48
407.645	444.01
408.023	444.92
408.401	449.66
408.779	478.59
409.156	487.63
409.534	475.43
409.912	483.33
410.29	496.22
410.667	501.19
411.045	515.88
411.422	524.24
411.8	537.34
412.178	544.35
412.555	552.49
412.933	554.97
413.31	553.62
413.687	550.23
414.065	571.47
414.442	580.51
414.819	597.46
415.197	592.71
415.574	632.71
415.951	619.83
416.328	618.02
416.705	639.04
417.082	643.56
417.46	634.07
417.837	662.31
418.214	648.08
418.591	665.93
418.967	694.4
419.344	691.24
419.721	680.39
420.098	699.37
420.475	692.59
420.852	717.68
421.228	722.42
421.605	729.43
421.982	743.21
422.358	749.77
422.735	785.93
423.111	804
423.488	775.3
423.864	816.21
424.241	832.48
424.617	841.74
424.994	844
425.37	879.93
425.746	859.14
426.123	869.09
426.499	906.37
426.875	919.71
427.251	933.04
427.627	938.69
428.003	948.41
428.379	944.79
428.756	962.87
429.132	985.24
429.507	994.96
429.883	990.67
430.259	1006.48
430.635	1016.88
431.011	1032.02
431.387	1077.44
431.763	1069.76
432.138	1063.66
432.514	1093.49
432.89	1125.58
433.265	1133.49
433.641	1172.13
434.016	1163.77
434.392	1197.21
434.767	1232.92
435.143	1234.5
435.518	1287.61
435.894	1263.2
436.269	1312.01
436.644	1315.86
437.02	1352.69
437.395	1346.36
437.77	1359.24
438.145	1429.07
438.52	1426.59
438.895	1454.83
439.271	1457.55
439.646	1487.15
440.021	1524.21
440.395	1543.19
440.77	1531.67
441.145	1583.19
441.52	1598.11
441.895	1605.11
442.27	1629.75
442.645	1625.45
443.019	1663.64
443.394	1654.15
443.769	1702.29
444.143	1688.27
444.518	1722.85
444.892	1733.25
445.267	1757.43
445.641	1772.79
446.016	1791.77
446.39	1807.14
446.764	1813.24
447.139	1806.46
447.513	1842.4
447.887	1871.32
448.262	1889.17
448.636	1902.28
449.01	1904.09
449.384	1917.65
449.758	1951.54
450.132	1964.65
450.506	1953.58
450.88	2005.78
451.254	1967.82
451.628	2048.94
452.002	2039.9
452.376	2083.97
452.75	2064.76
453.123	2093.91
453.497	2137.98
453.871	2154.03
454.244	2194.7
454.618	2222.05
454.992	2245.77
455.365	2269.73
455.739	2289.84
456.112	2366.9
456.486	2358.99
456.859	2338.43
457.232	2390.4
457.606	2426.33
457.979	2453.9
458.352	2493.68
458.725	2526.44
459.099	2568.25
459.472	2595.37
459.845	2614.35
460.218	2605.09
460.591	2655.48
460.964	2702.94
461.337	2728.93
461.71	2808.47
462.083	2844.18
462.456	2831.3
462.829	2826.32
463.201	2900.45
463.574	2909.94
463.947	2916.72
464.32	3041.91
464.692	3043.95
465.065	3106.32
465.438	3102.47
465.81	3149.03
466.183	3197.16
466.555	3252.75
466.928	3287.1
467.3	3292.3
467.672	3337.05
468.045	3428.12
468.417	3452.52
468.789	3480.32
469.161	3554.44
469.534	3568.9
469.906	3641.9
470.278	3707.43
470.65	3741.78
471.022	3807.32
471.394	3865.17
471.766	3869.01
472.138	3955.33
472.51	4026.74
472.882	4088.44
473.253	4145.39
473.625	4210.69
473.997	4285.49
474.369	4288.43
474.74	4375.89
475.112	4444.13
475.484	4473.51
475.855	4617.24
476.227	4657.24
476.598	4798.93
476.97	4850.23
477.341	4906.5
477.713	5010.45
478.084	5037.57
478.455	5144.23
478.827	5175.41
479.198	5388.97
479.569	5392.13
479.94	5553.26
480.311	5580.83
480.682	5686.14
481.053	5772.91
481.424	5826.7
481.795	5945.34
482.166	6064.2
482.537	6178.78
482.908	6270.08
483.279	6361.15
483.65	6405.66
484.021	6585.32
484.391	6659.67
484.762	6748.93
485.133	6750.51
485.503	6844.98
485.874	7062.6
486.244	7105.76
486.615	7191.86
486.985	7291.29
487.356	7400.89
487.726	7453.77
488.097	7605.41
488.467	7647.67
488.837	7855.57
489.207	7922.24
489.578	8045.17
489.948	8146.18
490.318	8181.89
490.688	8242.23
491.058	8401.54
491.428	8488.1
491.798	8509.34
492.168	8662.33
492.538	8727.41
492.908	8836.79
493.278	8938.93
493.648	8836.56
494.017	9022.77
494.387	9070.68
494.757	9175.31
495.126	9234.29
495.496	9239.71
495.866	9371.91
496.235	9451.69
496.605	9514.51
496.974	9524
497.344	9646.94
497.713	9660.27
498.082	9716.09
498.452	9836.08
498.821	9843.54
499.19	9859.81
499.559	9878.57
499.928	9965.57
500.298	9979.58
500.667	10113.59
501.036	10059.35
501.405	10135.06
501.774	10100.48
502.143	10183.19
502.512	10251.44
502.88	10319.23
503.249	10272.91
503.618	10366.01
503.987	10326.24
504.356	10384.54
504.724	10426.58
505.093	10432.23
505.462	10577.08
505.83	10498.66
506.199	10597.42
506.567	10664.99
506.936	10646.91
507.304	10747.92
507.672	10715.83
508.041	10754.7
508.409	10846.9
508.777	10848.26
509.145	10859.33
509.514	10945.88
509.882	11018.65
510.25	10908.82
510.618	10893.23
510.986	10914.25
511.354	10994.02
511.722	11022.49
512.09	11116.5
512.458	11072.89
512.826	11100.46
513.193	11077.18
513.561	11149.72
513.929	11141.36
514.297	11269.27
514.664	11325.31
515.032	11277.18
515.4	11283.05
515.767	11301.81
516.135	11234.92
516.502	11191.3
516.869	11364.4
517.237	11306.33
517.604	11213.9
517.972	11400.56
518.339	11303.16
518.706	11348.36
519.073	11332.32
519.44	11264.29
519.808	11447.11
520.175	11347.46
520.542	11401.69
520.909	11445.98
521.276	11438.98
521.643	11500.9
522.009	11446.44
522.376	11487.34
522.743	11489.37
523.11	11525.08
523.477	11548.58
523.843	11568.24
524.21	11637.62
524.577	11582.25
524.943	11579.31
525.31	11565.08
525.676	11612.08
526.043	11587.22
526.409	11567.79
526.776	11641.23
527.142	11556.94
527.508	11566.89
527.874	11549.03
528.241	11577.96
528.607	11548.35
528.973	11531.86
529.339	11570.27
529.705	11602.82
530.071	11565.98
530.437	11524.4
530.803	11538.19
531.169	11521.24
531.535	11407.12
531.901	11375.48
532.267	11420.45
532.632	11360.11
532.998	11298.19
533.364	11300
533.73	11322.37
534.095	11338.42
534.461	11321.92
534.826	11268.36
535.192	11134.35
535.557	11189.49
535.923	11097.74
536.288	11086.67
536.653	11037.63
537.019	10921.48
537.384	10917.86
537.749	10947.01
538.114	10951.53
538.479	10815.49
538.845	10729.84
539.21	10699.11
539.575	10688.04
539.94	10596.06
540.305	10548.15
540.67	10519.68
541.034	10443.75
541.399	10451.66
541.764	10429.06
542.129	10419.34
542.494	10316.52
542.858	10291.21
543.223	10170.54
543.587	10186.13
543.952	10125.34
544.316	10060.26
544.681	9953.37
545.045	9995.4
545.41	10039.02
545.774	9910.21
546.138	9869.98
546.503	9801.73
546.867	9796.76
547.231	9731.68
547.595	9727.84
547.959	9582.76
548.324	9645.58
548.688	9534.17
549.052	9429.54
549.416	9448.75
549.779	9407.17
550.143	9271.8
550.507	9316.55
550.871	9265.02
551.235	9244.91
551.599	9199.72
551.962	9206.27
552.326	9148.42
552.689	9143.45
553.053	9015.31
553.417	8975.31
553.78	8975.54
554.143	8901.42
554.507	8920.18
554.87	8911.14
555.234	8847.41
555.597	8773.51
555.96	8754.08
556.323	8757.24
556.686	8681.76
557.05	8678.37
557.413	8696.23
557.776	8657.13
558.139	8582.1
558.502	8572.39
558.865	8573.74
559.228	8575.55
559.59	8506.85
559.953	8460.53
560.316	8483.8
560.679	8430.02
561.041	8530.35
561.404	8446.52
561.767	8445.84
562.129	8352.51
562.492	8400.87
562.854	8390.7
563.217	8343.24
563.579	8326.52
563.941	8299.4
564.304	8274.54
564.666	8302.34
565.028	8269.57
565.39	8274.77
565.753	8260.98
566.115	8304.6
566.477	8246.75
566.839	8211.72
567.201	8313.41
567.563	8262.57
567.925	8311.6
568.287	8275.22
568.648	8198.84
569.01	8292.17
569.372	8270.47
569.734	8223.24
570.095	8256.46
570.457	8258.05
570.819	8315.9
571.18	8241.1
571.542	8339.63
571.903	8250.81
572.265	8244.94
572.626	8215.33
572.987	8269.34
573.349	8254.2
573.71	8239.74
574.071	8251.49
574.432	8260.31
574.794	8285.62
575.155	8229.8
575.516	8236.35
575.877	8245.84
576.238	8221.66
576.599	8295.11
576.96	8258.95
577.32	8199.06
577.681	8231.38
578.042	8200.19
578.403	8242
578.763	8208.33
579.124	8164.49
579.485	8228.89
579.845	8184.38
580.206	8199.06
580.566	8187.54
580.927	8175.34
581.287	8195
581.648	8162.68
582.008	8179.18
582.368	8191.83
582.728	8089.24
583.089	8107.09
583.449	8142.79
583.809	8126.98
584.169	8118.84
584.529	8095.34
584.889	8161.78
585.249	8114.77
585.609	8066.41
585.969	8142.34
586.329	8034.32
586.688	8123.36
587.048	8043.36
587.408	8011.27
587.768	8033.42
588.127	7986.19
588.487	7981.67
588.846	8031.61
589.206	7975.57
589.565	7975.57
589.925	7965.85
590.284	7958.39
590.643	7920.65
591.003	7948.68
591.362	7978.96
591.721	7949.58
592.08	7912.74
592.44	7932.18
592.799	7946.19
593.158	7962.46
593.517	7865.74
593.876	7885.17
594.235	7870.71
594.593	7900.54
594.952	7890.15
595.311	7876.13
595.67	7830.49
596.029	7831.62
596.387	7910.71
596.746	7851.28
597.104	7844.27
597.463	7849.24
597.822	7849.24
598.18	7823.25
598.538	7739.42
598.897	7814.67
599.255	7743.48
599.613	7900.54
599.972	7813.09
600.33	7832.52
600.688	7714.11
601.046	7793.88
601.404	7818.28
601.762	7769.92
602.12	7831.39
602.478	7846.76
602.836	7844.05
603.194	7749.13
603.552	7731.96
603.91	7739.42
604.268	7767.89
604.625	7856.7
604.983	7846.3
605.341	7691.28
605.698	7792.3
606.056	7735.35
606.413	7731.05
606.771	7755.23
607.128	7750.71
607.485	7766.99
607.843	7705.97
608.2	7766.76
608.557	7765.18
608.914	7754.78
609.272	7760.66
609.629	7756.14
609.986	7852.18
610.343	7782.58
610.7	7772.63
611.057	7766.31
611.414	7842.69
611.771	7766.53
612.127	7828.9
612.484	7819.19
612.841	7851.95
613.198	7802.24
613.554	7817.61
613.911	7804.5
614.267	7849.02
614.624	7853.99
614.98	7824.61
615.337	7848.34
615.693	7790.71
616.05	7811.28
616.406	7882.01
616.762	7765.4
617.118	7850.15
617.475	7850.82
617.831	7899.86
618.187	7859.64
618.543	7894.44
618.899	7973.76
619.255	7853.99
619.611	7822.12
619.967	7948.22
620.323	7915
620.678	7924.5
621.034	7815.12
621.39	7854.21
621.746	7913.2
622.101	7931.05
622.457	7922.91
622.812	7926.53
623.168	7936.02
623.523	7864.38
623.879	7938.28
624.234	7869.13
624.589	7830.03
624.945	7893.31
625.3	7910.48
625.655	7804.5
626.01	7913.65
626.365	7879.07
626.72	7892.18
627.075	7851.05
627.43	7904.61
627.785	7898.96
628.14	7903.7
628.495	7876.81
628.85	7859.19
629.205	7849.24
629.559	7915
629.914	7782.35
630.269	7754.56
630.623	7805.85
630.978	7764.05
631.332	7723.6
631.687	7816.48
632.041	7804.72
632.396	7829.13
632.75	7752.07
633.104	7756.14
633.459	7742.58
633.813	7717.49
634.167	7713.2
634.521	7697.16
634.875	7652.64
635.229	7670.72
635.583	7630.72
635.937	7592.98
636.291	7684.28
636.645	7693.09
636.999	7621.9
637.352	7656.71
637.706	7614.45
638.06	7670.26
638.413	7639.08
638.767	7531.96
639.121	7567.67
639.474	7496.71
639.828	7584.16
640.181	7546.43
640.534	7565.86
640.888	7512.98
641.241	7442.93
641.594	7518.4
641.947	7553.88
642.301	7521.57
642.654	7494.45
643.007	7528.57
643.36	7485.64
643.713	7491.96
644.066	7530.38
644.419	7434.11
644.771	7430.95
645.124	7378.07
645.477	7367.22
645.83	7290.39
646.182	7248.81
646.535	7261.24
646.888	7297.62
647.24	7239.32
647.593	7230.05
647.945	7275.02
648.298	7156.61
648.65	7161.8
649.002	7203.61
649.355	7207.68
649.707	7254.91
650.059	7330.16
650.411	7292.2
650.763	7336.49
651.115	7439.76
651.467	7413.55
651.819	7395.24
652.171	7435.92
652.523	7346.43
652.875	7427.33
653.227	7378.07
653.578	7382.59
653.93	7345.08
654.282	7353.44
654.633	7345.53
654.985	7401.57
655.337	7468.91
655.688	7416.03
656.039	7438.63
656.391	7448.58
656.742	7399.31
657.094	7337.39
657.445	7452.19
657.796	7423.27
658.147	7403.83
658.498	7433.89
658.849	7508.01
659.2	7421.68
659.551	7436.82
659.902	7461
660.253	7459.2
660.604	7456.71
660.955	7366.32
661.306	7446.77
661.656	7403.83
662.007	7503.49
662.358	7442.25
662.708	7533.09
663.059	7471.4
663.409	7391.18
663.76	7484.73
664.11	7480.66
664.461	7476.15
664.811	7505.52
665.161	7441.8
665.511	7492.87
665.862	7467.11
666.212	7490.83
666.562	7475.02
666.912	7488.57
667.262	7462.36
667.612	7474.34
667.962	7511.4
668.312	7482.02
668.662	7502.13
669.011	7453.32
669.361	7475.24
669.711	7486.31
670.06	7448.58
670.41	7456.26
670.76	7458.97
671.109	7480.66
671.459	7521.34
671.808	7433.43
672.157	7422.36
672.507	7374.9
672.856	7390.27
673.205	7403.38
673.554	7464.39
673.904	7383.72
674.253	7413.55
674.602	7434.34
674.951	7330.61
675.3	7264.4
675.649	7392.76
675.998	7351.63
676.346	7379.2
676.695	7432.53
677.044	7394.34
677.393	7382.59
677.741	7377.84
678.09	7301.23
678.438	7309.6
678.787	7299.43
679.135	7322.93
679.484	7236.83
679.832	7312.08
680.181	7243.38
680.529	7233.21
680.877	7237.06
681.225	7254.23
681.573	7224.63
681.922	7219.65
682.27	7173.55
682.618	7160
682.966	7215.36
683.314	7134.91
683.661	7096.72
684.009	7147.57
684.357	7105.99
684.705	7097.17
685.053	7061.01
685.4	7102.82
685.748	7063.5
686.095	7064.63
686.443	6959.77
686.79	7033.22
687.138	7038.19
687.485	6941.92
687.832	6984.41
688.18	6976.27
688.527	6929.27
688.874	6925.2
689.221	6908.93
689.568	6850.4
689.915	6802.04
690.262	6787.35
690.609	6842.72
690.956	6754.58
691.303	6761.59
691.65	6787.35
691.997	6753.9
692.344	6729.05
692.69	6688.6
693.037	6652.21
693.383	6604.98
693.73	6597.52
694.077	6642.95
694.423	6574.47
694.769	6513.23
695.116	6539.45
695.462	6550.52
695.808	6487.7
696.155	6418.55
696.501	6464.19
696.847	6410.86
697.193	6369.06
697.539	6393.46
697.885	6353.46
698.231	6341.26
698.577	6300.13
698.923	6293.8
699.269	6289.06
699.614	6237.53
699.96	6232.79
700.306	6173.35
700.651	6108.05
700.997	6132.68
701.342	6121.83
701.688	6111.44
702.033	6064.43
702.379	6037.76
702.724	6036.18
703.069	6078.22
703.415	5947.37
703.76	5993.92
704.105	5990.53
704.45	5950.76
704.795	5920.25
705.14	5873.7
705.485	5878
705.83	5884.1
706.175	5828.5
706.52	5802.06
706.865	5801.84
707.209	5806.36
707.554	5803.87
707.899	5735.17
708.243	5769.75
708.588	5725.91
708.932	5675.97
709.277	5659.02
709.621	5679.13
709.966	5636.65
710.31	5674.38
710.654	5584.9
710.998	5638.91
711.342	5638.23
711.687	5588.74
712.031	5601.17
712.375	5552.58
712.719	5565.46
713.063	5522.75
713.407	5559.36
713.75	5520.49
714.094	5485.24
714.438	5490.21
714.782	5460.38
715.125	5443.66
715.469	5447.95
715.812	5474.84
716.156	5440.72
716.499	5378.12
716.843	5425.58
717.186	5396.88
717.53	5394.84
717.873	5430.1
718.216	5374.28
718.559	5345.58
718.902	5341.51
719.246	5344
719.589	5319.14
719.932	5266.26
720.275	5335.41
720.617	5334.05
720.96	5322.53
721.303	5276.66
721.646	5347.84
721.989	5296.77
722.331	5338.35
722.674	5316.65
723.016	5320.95
723.359	5288.63
723.701	5313.72
724.044	5235.53
724.386	5259.71
724.729	5266.94
725.071	5251.57
725.413	5191.91
725.755	5225.81
726.097	5213.61
726.439	5259.71
726.782	5282.3
727.124	5260.38
727.465	5229.65
727.807	5204.11
728.149	5221.29
728.491	5195.3
728.833	5214.06
729.175	5198.47
729.516	5210.44
729.858	5222.87
730.199	5203.21
730.541	5192.59
730.882	5191.46
731.224	5204.79
731.565	5214.96
731.906	5241.63
732.248	5206.6
732.589	5220.61
732.93	5197.34
733.271	5211.8
733.612	5242.98
733.953	5222.65
734.294	5215.87
734.635	5213.38
734.976	5257.67
735.317	5264.23
735.658	5217.9
735.999	5264.68
736.339	5266.94
736.68	5246.83
737.021	5296.99
737.361	5262.64
737.702	5301.06
738.042	5304.22
738.383	5271.23
738.723	5275.75
739.063	5295.19
739.404	5355.07
739.744	5273.72
740.084	5329.08
740.424	5367.27
740.764	5325.92
741.104	5373.38
741.444	5369.08
741.784	5360.49
742.124	5394.17
742.464	5403.21
742.804	5459.93
743.143	5452.24
743.483	5462.41
743.823	5502.86
744.162	5531.34
744.502	5501.28
744.841	5554.61
745.181	5616.76
745.52	5630.77
745.86	5621.73
746.199	5653.37
746.538	5697.66
746.877	5755.74
747.216	5785.57
747.556	5818.79
747.895	5864.44
748.234	5905.79
748.573	5939.01
748.911	5977.43
749.25	6059.01
749.589	6089.52
749.928	6171.09
750.267	6271.21
750.605	6325.67
750.944	6363.86
751.283	6386
751.621	6529.73
751.96	6612.89
752.298	6651.53
752.636	6756.16
752.975	6838.2
753.313	6899.21
753.651	7059.88
753.989	7137.17
754.327	7228.24
754.666	7292.42
755.004	7474.79
755.342	7668
755.679	7760.88
756.017	7861.67
756.355	8002.69
756.693	8131.5
757.031	8332.62
757.368	8391.15
757.706	8520.41
758.044	8669.56
758.381	8823.23
758.719	8985.71
759.056	9178.47
759.394	9326.94
759.731	9441.07
760.068	9580.95
760.405	9739.81
760.743	9932.13
761.08	10102.97
761.417	10303.87
761.754	10420.25
762.091	10608.49
762.428	10770.52
762.765	10939.56
763.102	11152.21
763.438	11268.59
763.775	11370.51
764.112	11590.84
764.449	11775.24
764.785	11880.32
765.122	12043.93
765.458	12188.56
765.795	12407.99
766.131	12518.05
766.467	12701.32
766.804	12916.23
767.14	12930.24
767.476	13142.66
767.812	13362.77
768.148	13439.6
768.485	13568.19
768.821	13635.98
769.157	13763.89
769.492	13987.39
769.828	14122.07
770.164	14188.74
770.5	14405.68
770.836	14449.52
771.171	14631.44
771.507	14689.74
771.842	14748.72
772.178	14830.53
772.513	14856.97
772.849	15033.69
773.184	15141.71
773.519	15212.89
773.855	15249.73
774.19	15367.69
774.525	15444.75
774.86	15594.12
775.195	15615.59
775.53	15709.6
775.865	15655.14
776.2	15727
776.535	15735.14
776.87	15833.67
777.205	15926.77
777.539	15920.67
777.874	16098.07
778.209	16072.76
778.543	16069.14
778.878	16057.39
779.212	16213.09
779.547	16181.68
779.881	16287.66
780.215	16295.57
780.55	16290.15
780.884	16328.12
781.218	16318.85
781.552	16426.42
781.886	16394.78
782.22	16366.76
782.554	16354.33
782.888	16301.22
783.222	16264.16
783.556	16285.63
783.889	16350.71
784.223	16280.43
784.557	16240.21
784.89	16365.18
785.224	16293.54
785.557	16272.75
785.891	16211.96
786.224	16365.85
786.558	16371.96
786.891	16238.4
787.224	16311.39
787.557	16285.18
787.891	16303.94
788.224	16279.3
788.557	16302.81
788.89	16254.9
789.223	16310.49
789.556	16112.3
789.888	16117.95
790.221	16119.99
790.554	16075.69
790.887	16135.35
791.219	16054.22
791.552	16117.73
791.884	15977.84
792.217	16026.43
792.549	16005.19
792.882	15898.07
793.214	15852.87
793.546	15899.88
793.879	15878.86
794.211	15772.2
794.543	15866.21
794.875	15806.77
795.207	15968.13
795.539	15782.82
795.871	15822.59
796.203	15624.41
796.535	15662.6
796.867	15586.89
797.198	15495.82
797.53	15672.77
797.862	15558.64
798.193	15562.49
798.525	15428.7
798.856	15555.03
799.188	15414.69
799.519	15352.77
799.85	15224.19
800.182	15350.51
800.513	15284.75
800.844	15273.91
801.175	15239.78
801.506	15293.57
801.837	15217.64
802.168	15197.75
802.499	15125.89
802.83	15017.87
803.161	15029.39
803.491	15000.24
803.822	15072.33
804.153	14870.53
804.483	14876.85
804.814	14879.11
805.145	14811.77
805.475	14873.69
805.805	14783.98
806.136	14809.74
806.466	14844.09
806.796	14733.36
807.126	14620.82
807.457	14535.39
807.787	14647.26
808.117	14548.95
808.447	14574.72
808.777	14510.76
809.107	14529.75
809.436	14453.59
809.766	14488.39
810.096	14400.26
810.426	14295.63
810.755	14340.15
811.085	14431.67
811.414	14254.05
811.744	14249.3
812.073	14257.66
812.403	14209.08
812.732	14196.87
813.061	14098.12
813.39	14044.33
813.719	14067.84
814.049	14126.82
814.378	14116.87
814.707	14010.21
815.036	13974.73
815.365	13911.68
815.693	13898.58
816.022	13819.93
816.351	13814.28
816.68	13800.95
817.008	13804.34
817.337	13771.35
817.665	13675.98
817.994	13682.54
818.322	13649.32
818.651	13676.21
818.979	13608.41
819.307	13764.79
819.636	13636.21
819.964	13537.45
820.292	13578.58
820.62	13548.08
820.948	13557.12
821.276	13672.82
821.604	13554.86
821.932	13531.81
822.259	13592.82
822.587	13516.66
822.915	13516.21
823.243	13595.08
823.57	13603.22
823.898	13545.14
824.225	13534.97
824.553	13489.09
824.88	13558.02
825.207	13614.51
825.535	13504.91
825.862	13521.86
826.189	13496.78
826.516	13560.73
826.843	13591.46
827.17	13677.11
827.497	13555.99
827.824	13570.9
828.151	13552.14
828.478	13554.86
828.805	13634.63
829.131	13529.32
829.458	13639.6
829.785	13525.03
830.111	13512.82
830.438	13621.97
830.764	13610
831.09	13602.54
831.417	13562.76
831.743	13567.51
832.069	13565.25
832.395	13527.51
832.722	13543.78
833.048	13576.32
833.374	13527.29
833.7	13477.12
834.026	13467.85
834.351	13502.2
834.677	13445.48
835.003	13523.67
835.329	13541.75
835.654	13419.72
835.98	13520.73
836.306	13464.01
836.631	13350.57
836.956	13430.11
837.282	13393.5
837.607	13312.38
837.932	13313.73
838.258	13316.22
838.583	13358.02
838.908	13302.88
839.233	13262.89
839.558	13211.14
839.883	13182.89
840.208	13164.36
840.533	13183.79
840.858	13155.32
841.182	13055.66
841.507	13103.34
841.832	13024.93
842.156	13070.8
842.481	13044.59
842.805	13040.74
843.13	12971.82
843.454	12970.24
843.778	12862.22
844.103	12896.79
844.427	12899.73
844.751	12884.59
845.075	12760.75
845.399	12706.29
845.723	12751.03
846.047	12693.18
846.371	12630.36
846.695	12556.24
847.019	12513.07
847.343	12464.04
847.666	12348.11
847.99	12458.61
848.313	12389.24
848.637	12309.01
848.96	12257.26
849.284	12223.37
849.607	12120.09
849.931	12126.87
850.254	12007.55
850.577	11890.27
850.9	11893.2
851.223	11860.21
851.546	11835.8
851.869	11782.25
852.192	11880.55
852.515	11608.47
852.838	11637.62
853.161	11670.61
853.483	11575.92
853.806	11564.17
854.129	11516.49
854.451	11454.8
854.774	11431.52
855.096	11395.82
855.419	11417.06
855.741	11356.95
856.063	11284.63
856.385	11275.82
856.708	11181.81
857.03	11214.13
857.352	11173.45
857.674	11206.89
857.996	11161.47
858.318	10999.67
858.64	11047.8
858.961	10985.43
859.283	10999.22
859.605	10862.27
859.926	11001.93
860.248	10845.77
860.57	10879.45
860.891	10870.63
861.212	10773.69
861.534	10804.42
861.855	10734.14
862.176	10719.9
862.498	10763.52
862.819	10709.05
863.14	10715.83
863.461	10654.59
863.782	10628.38
864.103	10648.49
864.424	10580.02
864.745	10654.59
865.065	10535.27
865.386	10506.8
865.707	10521.04
866.027	10463.86
866.348	10528.72
866.668	10531.66
866.989	10408.72
867.309	10354.49
867.63	10426.12
867.95	10440.81
868.27	10360.82
868.59	10340.25
868.91	10390.42
869.23	10263.42
869.55	10284.88
869.87	10332.79
870.19	10327.14
870.51	10272
870.83	10240.59
871.15	10142.74
871.469	10250.76
871.789	10247.15
872.109	10239.69
872.428	10162.18
872.748	10142.06
873.067	10125.12
873.386	10123.99
873.706	10105.91
874.025	10042.86
874.344	10059.35
874.663	10120.37
874.982	10048.73
875.301	10049.18
875.62	9987.27
875.939	9917.89
876.258	10025
876.577	10012.35
876.896	10022.74
877.214	9943.88
877.533	9845.57
877.852	9876.08
878.17	9891.45
878.489	9802.41
878.807	9834.73
879.125	9867.27
879.444	9825.46
879.762	9746.59
880.08	9808.97
880.398	9684.67
880.716	9772.13
881.034	9727.39
881.352	9716.09
881.67	9656.88
881.988	9680.38
882.306	9596.99
882.624	9636.77
882.941	9612.81
883.259	9563.55
883.577	9562.64
883.894	9533.49
884.212	9533.27
884.529	9495.98
884.846	9471.8
885.164	9444.46
885.481	9424.34
885.798	9444.68
886.115	9370.56
886.432	9352.71
886.75	9316.55
887.067	9354.51
887.383	9298.7
887.7	9306.83
888.017	9217.79
888.334	9302.31
888.651	9185.03
888.967	9284.01
889.284	9210.11
889.6	9131.02
889.917	9095.76
890.233	9110.45
890.55	9105.03
890.866	9073.17
891.182	9053.05
891.498	9024.35
891.815	8922.21
892.131	8930.34
892.447	8851.25
892.763	8824.36
893.079	8906.39
893.395	8790.69
893.71	8833.17
894.026	8770.8
894.342	8773.51
894.657	8658.71
894.973	8662.78
895.289	8656.68
895.604	8642.89
895.92	8569.68
896.235	8546.4
896.55	8519.96
896.865	8488.32
897.181	8457.14
897.496	8478.83
897.811	8379.17
898.126	8448.78
898.441	8349.12
898.756	8337.14
899.071	8279.97
899.386	8278.84
899.7	8242.45
900.015	8213.3
900.33	8129.69
900.644	8112.29
900.959	8142.79
901.273	8094.43
901.588	8046.98
901.902	7947.55
902.216	8003.81
902.531	7971.95
902.845	7879.75
903.159	7903.25
903.473	7896.93
903.787	7849.47
904.101	7827.1
904.415	7837.27
904.729	7710.04
905.042	7709.59
905.356	7716.14
905.67	7665.97
905.984	7663.94
906.297	7663.48
906.611	7557.27
906.924	7554.11
907.237	7525.86
907.551	7481.57
907.864	7420.1
908.177	7430.04
908.491	7395.02
908.804	7366.77
909.117	7298.3
909.43	7243.38
909.743	7280.9
910.056	7238.19
910.368	7225.76
910.681	7187.79
910.994	7145.98
911.307	7178.3
911.619	7122.03
911.932	7088.36
912.244	7022.37
912.557	7044.29
912.869	6945.09
913.181	6901.02
913.494	6984.18
913.806	6893.56
914.118	6916.84
914.43	6847.24
914.742	6798.87
915.054	6806.33
915.366	6767.24
915.678	6744.87
915.99	6723.85
916.302	6656.96
916.613	6685.21
916.925	6610.18
917.236	6620.12
917.548	6569.05
917.859	6620.57
918.171	6467.36
918.482	6454.93
918.794	6492.44
919.105	6465.1
919.416	6400.47
919.727	6402.28
920.038	6376.74
920.349	6276.18
920.66	6359.34
920.971	6306.91
921.282	6265.33
921.593	6233.92
921.903	6181.04
922.214	6173.58
922.525	6177.87
922.835	6127.25
923.146	6095.84
923.456	6039.35
923.767	6053.58
924.077	6047.26
924.387	6008.61
924.697	5946.24
925.008	5981.95
925.318	5922.97
925.628	5907.6
925.938	5886.58
926.248	5867.83
926.558	5857.43
926.867	5793.7
927.177	5847.71
927.487	5809.3
927.796	5720.94
928.106	5734.72
928.416	5701.95
928.725	5741.28
929.034	5672.8
929.344	5633.48
929.653	5629.87
929.962	5570.66
930.271	5541.51
930.581	5554.84
930.89	5532.92
931.199	5508.29
931.508	5458.35
931.817	5524.78
932.125	5452.47
932.434	5455.63
932.743	5402.53
933.051	5374.51
933.36	5354.17
933.669	5371.12
933.977	5283.89
934.286	5277.11
934.594	5280.5
934.902	5211.8
935.21	5149.65
935.519	5181.97
935.827	5204.11
936.135	5174.06
936.443	5110.78
936.751	5088.86
937.059	5123.89
937.367	5094.29
937.674	5062.88
937.982	5044.8
938.29	5036.66
938.597	5021.97
938.905	4950.79
939.213	4922.99
939.52	4901.07
939.827	4896.55
940.135	4884.8
940.442	4845.03
940.749	4845.03
941.056	4841.86
941.363	4803
941.67	4735.2
941.977	4762.54
942.284	4717.8
942.591	4724.13
942.898	4718.25
943.205	4702.66
943.511	4687.52
943.818	4686.61
944.125	4579.27
944.431	4587.86
944.738	4580.4
945.044	4591.48
945.35	4529.1
945.657	4486.85
945.963	4489.78
946.269	4473.06
946.575	4500.86
946.881	4414.76
947.187	4429.9
947.493	4429.45
947.799	4370.69
948.105	4387.86
948.41	4332.73
948.716	4325.27
949.022	4293.18
949.327	4275.1
949.633	4252.28
949.938	4244.82
950.244	4247.76
950.549	4211.15
950.854	4201.2
951.16	4207.76
951.465	4168.21
951.77	4186.74
952.075	4165.05
952.38	4129.34
952.685	4129.79
952.99	4076.46
953.294	4053.86
953.599	4063.81
953.904	4020.64
954.209	4019.96
954.513	4021.55
954.818	3999.17
955.122	3963.92
955.426	3948.33
955.731	3912.62
956.035	3919.85
956.339	3879.18
956.643	3909.69
956.948	3864.71
957.252	3865.84
957.556	3799.63
957.86	3772.51
958.163	3763.7
958.467	3793.53
958.771	3756.7
959.075	3745.62
959.378	3705.85
959.682	3684.15
959.985	3699.97
960.289	3684.61
960.592	3657.26
960.896	3664.72
961.199	3646.42
961.502	3612.07
961.805	3594.21
962.108	3568.9
962.411	3607.55
962.714	3594.89
963.017	3540.88
963.32	3547.89
963.623	3482.13
963.926	3505.4
964.228	3485.52
964.531	3431.05
964.833	3464.5
965.136	3407.33
965.438	3416.14
965.741	3409.81
966.043	3373.2
966.345	3375.24
966.648	3369.59
966.95	3356.48
967.252	3362.13
967.554	3363.26
967.856	3317.84
968.158	3304.05
968.46	3279.19
968.761	3263.6
969.063	3233.09
969.365	3242.81
969.666	3205.52
969.968	3203.26
970.269	3196.71
970.571	3177.28
970.872	3171.63
971.174	3178.41
971.475	3136.15
971.776	3148.58
972.077	3109.25
972.378	3137.28
972.679	3089.14
972.98	3095.92
973.281	3077.62
973.582	3079.42
973.883	3052.76
974.183	3049.59
974.484	3021.8
974.785	3001.01
975.085	2990.84
975.386	3007.56
975.686	2988.58
975.986	2950.84
976.287	2955.36
976.587	2918.52
976.887	2951.97
977.187	2907
977.487	2883.27
977.787	2880.33
978.087	2861.13
978.387	2807.79
978.687	2862.48
978.987	2818.41
979.286	2821.13
979.586	2815.7
979.885	2786.55
980.185	2749.72
980.484	2734.35
980.784	2773.44
981.083	2749.72
981.382	2724.41
981.682	2722.37
981.981	2739.32
982.28	2699.55
982.579	2636.27
982.878	2644.41
983.177	2650.96
983.475	2659.77
983.774	2617.06
984.073	2638.76
984.372	2645.76
984.67	2596.5
984.969	2592.66
985.267	2602.38
985.566	2561.7
985.864	2547.69
986.162	2524.19
986.461	2529.16
986.759	2498.65
987.057	2499.55
987.355	2482.38
987.653	2498.2
987.951	2490.97
988.249	2455.26
988.547	2453.45
988.844	2430.85
989.142	2422.04
989.44	2377.52
989.737	2386.34
990.035	2392.44
990.332	2398.54
990.63	2413.68
990.927	2371.65
991.224	2344.75
991.521	2324.64
991.819	2334.13
992.116	2321.48
992.413	2290.52
992.71	2304.76
993.006	2295.26
993.303	2295.94
993.6	2284.19
993.897	2224.53
994.193	2241.03
994.49	2224.31
994.787	2211.2
995.083	2194.02
995.379	2180.01
995.676	2199.67
995.972	2174.14
996.268	2184.76
996.565	2191.54
996.861	2168.94
997.157	2150.86
997.453	2133.46
997.749	2106.34
998.044	2083.74
998.34	2076.97
998.636	2113.8
998.932	2074.93
999.227	2055.27
999.523	2067.02
999.818	2059.79
1000.114	2050.53
1000.409	2002.16
1000.704	1993.13
1001	2001.26
1001.295	2003.52
1001.59	2000.13
1001.885	1960.81
1002.18	1970.08
1002.475	1948.61
1002.77	1957.87
1003.065	1935.05
1003.359	1939.79
1003.654	1900.7
1003.949	1902.73
1004.243	1868.84
1004.538	1878.78
1004.832	1854.15
1005.127	1863.41
1005.421	1845.33
1005.715	1855.5
1006.009	1845.78
1006.304	1796.97
1006.598	1772.57
1006.892	1800.14
1007.186	1762.62
1007.48	1782.28
1007.773	1756.07
1008.067	1741.38
1008.361	1735.05
1008.655	1742.51
1008.948	1721.72
1009.242	1729.63
1009.535	1685.79
1009.829	1689.4
1010.122	1700.7
1010.415	1692.57
1010.708	1658.45
1011.001	1675.39
1011.295	1622.06
1011.588	1619.58
1011.881	1607.82
1012.173	1654.83
1012.466	1568.5
1012.759	1585.23
1013.052	1608.5
1013.344	1584.77
1013.637	1579.8
1013.93	1559.69
1014.222	1570.54
1014.514	1577.09
1014.807	1536.19
1015.099	1513.82
1015.391	1519.47
1015.683	1512.91
1015.976	1520.37
1016.268	1490.99
1016.56	1483.08
1016.851	1460.03
1017.143	1453.93
1017.435	1450.54
1017.727	1408.06
1018.018	1442.41
1018.31	1420.94
1018.602	1415.51
1018.893	1417.1
1019.185	1392.24
1019.476	1396.08
1019.767	1386.36
1020.058	1379.58
1020.35	1390.88
1020.641	1349.07
1020.932	1375.51
1021.223	1356.98
1021.514	1324.67
1021.804	1294.39
1022.095	1295.29
1022.386	1309.75
1022.677	1272.01
1022.967	1290.55
1023.258	1273.14
1023.548	1250.77
1023.839	1271.56
1024.129	1269.75
1024.419	1260.49
1024.709	1237.44
1025	1245.12
1025.29	1206.93
1025.58	1214.39
1025.87	1206.48
1026.16	1180.27
1026.449	1187.95
1026.739	1183.2
1027.029	1156.54
1027.319	1201.51
1027.608	1167.16
1027.898	1132.81
1028.187	1146.14
1028.477	1139.36
1028.766	1135.52
1029.055	1118.57
1029.344	1138.46
1029.634	1132.36
1029.923	1127.84
1030.212	1098.91
1030.501	1101.85
1030.79	1076.09
1031.078	1076.99
1031.367	1068.86
1031.656	1080.61
1031.945	1060.04
1032.233	1076.54
1032.522	1062.75
1032.81	1046.26
1033.099	1017.33
1033.387	1013.26
1033.675	1020.27
1033.963	1015.98
1034.251	1015.52
1034.54	1004.23
1034.828	985.24
1035.116	996.77
1035.403	978.24
1035.691	973.27
1035.979	980.04
1036.267	996.09
1036.554	939.14
1036.842	955.41
1037.129	926.49
1037.417	957.22
1037.704	942.98
1037.992	938.92
1038.279	918.8
1038.566	905.47
1038.853	905.47
1039.14	905.47
