Data from hue_170_FLMS001491_00037.txt Node
Date: Tue Feb 07 16:48:37 GMT 2017
User: dcchb
Spectrometer: FLMS00149
Trigger mode: 0
Integration Time (sec): 2.000000E-2
Scans to average: 10
Electric dark correction enabled: true
Nonlinearity correction enabled: false
Boxcar width: 0
XAxis mode: Wavelengths
Number of Pixels in Spectrum: 2048
>>>>>Begin Spectral Data<<<<<
341.393	-24.69
341.776	-24.69
342.16	-24.69
342.543	-62.65
342.927	-62.2
343.31	-70.56
343.693	-84.35
344.077	-70.34
344.46	-56.55
344.843	-64.24
345.226	-47.96
345.61	-43.67
345.993	-19.72
346.376	-2.54
346.759	7.63
347.142	36.78
347.525	45.82
347.908	71.13
348.291	85.82
348.674	86.49
349.057	126.27
349.44	111.13
349.823	115.65
350.206	163.33
350.588	168.75
350.971	190.67
351.354	208.75
351.737	244.23
352.119	241.29
352.502	243.1
352.884	275.64
353.267	266.38
353.65	264.57
354.032	280.84
354.414	298.92
354.797	325.13
355.179	327.84
355.562	352.02
355.944	313.61
356.326	312.93
356.709	318.35
357.091	331.69
357.473	337.11
357.855	329.43
358.238	336.43
358.62	325.36
359.002	317.45
359.384	316.32
359.766	347.73
360.148	333.95
360.53	328.07
360.912	323.55
361.294	335.98
361.676	341.86
362.057	302.53
362.439	330.56
362.821	312.7
363.203	333.49
363.584	309.54
363.966	313.38
364.348	321.97
364.729	310.44
365.111	326.04
365.493	314.96
365.874	302.08
366.256	307.51
366.637	283.1
367.019	319.48
367.4	287.62
367.781	311.57
368.163	304.79
368.544	316.55
368.925	310.9
369.306	326.49
369.688	302.08
370.069	323.32
370.45	318.35
370.831	316.32
371.212	319.71
371.593	306.6
371.974	294.85
372.355	295.75
372.736	317.45
373.117	314.51
373.498	323.1
373.879	315.19
374.26	304.34
374.641	317.68
375.021	290.33
375.402	310.22
375.783	316.77
376.163	319.94
376.544	312.93
376.925	328.07
377.305	312.93
377.686	302.31
378.066	326.71
378.447	333.72
378.827	327.62
379.208	307.51
379.588	320.39
379.968	341.63
380.349	348.63
380.729	334.85
381.109	327.17
381.489	320.61
381.87	333.27
382.25	344.79
382.63	338.24
383.01	342.99
383.39	333.04
383.77	340.27
384.15	328.97
384.53	334.62
384.91	361.52
385.29	358.8
385.67	349.09
386.049	321.97
386.429	338.92
386.809	364.23
387.189	359.26
387.568	357.67
387.948	332.82
388.328	359.26
388.707	352.93
389.087	355.19
389.466	358.35
389.846	349.31
390.225	339.14
390.605	372.36
390.984	358.35
391.363	368.97
391.743	368.75
392.122	359.93
392.501	349.31
392.881	388.86
393.26	383.66
393.639	374.17
394.018	365.58
394.397	365.36
394.776	377.33
395.155	364
395.534	359.48
395.913	373.04
396.292	387.05
396.671	376.88
397.05	388.41
397.429	373.49
397.808	377.79
398.186	377.79
398.565	383.44
398.944	388.63
399.323	383.66
399.701	407.62
400.08	423.44
400.458	392.93
400.837	393.38
401.215	411.01
401.594	410.55
401.972	404
402.351	397
402.729	423.21
403.107	426.15
403.486	429.99
403.864	394.51
404.242	414.62
404.62	417.56
404.999	420.5
405.377	423.44
405.755	427.95
406.133	441.51
406.511	423.66
406.889	423.44
407.267	426.15
407.645	427.5
408.023	476.09
408.401	455.07
408.779	444
409.156	471.57
409.534	454.85
409.912	474.06
410.29	458.46
410.667	487.61
411.045	498.91
411.422	489.87
411.8	483.55
412.178	505.47
412.555	497.33
412.933	515.86
413.31	495.52
413.687	532.13
414.065	518.35
414.442	507.27
414.819	545.69
415.197	517.44
415.574	532.81
415.951	526.26
416.328	546.6
416.705	545.47
417.082	560.15
417.46	579.36
417.837	575.07
418.214	545.69
418.591	568.97
418.967	577.33
419.344	585.69
419.721	601.28
420.098	618.68
420.475	618.46
420.852	587.27
421.228	613.49
421.605	637.21
421.982	629.98
422.358	616.65
422.735	641.28
423.111	629.08
423.488	643.54
423.864	660.49
424.241	669.3
424.617	699.36
424.994	666.59
425.37	687.84
425.746	684.45
426.123	711.11
426.499	698.23
426.875	724.44
427.251	724.44
427.627	724.67
428.003	757.21
428.379	763.99
428.756	744.56
429.132	753.37
429.507	766.7
429.883	770.77
430.259	781.62
430.635	790.43
431.011	807.61
431.387	814.39
431.763	826.81
432.138	833.14
432.514	833.82
432.89	818.23
433.265	841.28
433.641	861.39
434.016	892.58
434.392	876.98
434.767	914.27
435.143	914.5
435.518	923.08
435.894	907.72
436.269	938
436.644	931.67
437.02	918.34
437.395	972.8
437.77	979.35
438.145	990.65
438.52	985.91
438.895	1018
439.271	1027.94
439.646	1039.69
440.021	1046.02
440.395	1054.15
440.77	1079.69
441.145	1086.47
441.52	1101.84
441.895	1088.28
442.27	1134.6
442.645	1094.15
443.019	1112.68
443.394	1150.87
443.769	1126.69
444.143	1165.79
444.518	1175.05
444.892	1171.44
445.267	1178.9
445.641	1201.72
446.016	1183.42
446.39	1195.39
446.764	1231.1
447.139	1170.76
447.513	1243.53
447.887	1237.43
448.262	1246.46
448.636	1258.22
449.01	1281.49
449.384	1295.95
449.758	1303.64
450.132	1309.74
450.506	1312.68
450.88	1293.47
451.254	1312.45
451.628	1363.98
452.002	1365.33
452.376	1367.37
452.75	1381.83
453.123	1413.69
453.497	1436.74
453.871	1412.79
454.244	1462.28
454.618	1447.82
454.992	1501.37
455.365	1486.46
455.739	1513.35
456.112	1551.09
456.486	1553.12
456.859	1575.27
457.232	1614.14
457.606	1582.95
457.979	1621.82
458.352	1680.58
458.725	1666.79
459.099	1670.18
459.472	1715.6
459.845	1719.45
460.218	1750.86
460.591	1779.56
460.964	1761.03
461.337	1801.48
461.71	1845.54
462.083	1887.13
462.456	1893
462.829	1875.83
463.201	1932.55
463.574	1943.62
463.947	1976.84
464.32	1995.82
464.692	2051.64
465.065	2048.25
465.438	2090.96
465.81	2123.28
466.183	2164.86
466.555	2203.73
466.928	2242.82
467.3	2235.82
467.672	2259.09
468.045	2360.33
468.417	2360.33
468.789	2356.72
469.161	2410.73
469.534	2442.37
469.906	2543.15
470.278	2537.73
470.65	2619.76
471.022	2624.06
471.394	2679.42
471.766	2734.33
472.138	2787.44
472.51	2856.82
472.882	2896.14
473.253	2935.01
473.625	2989.47
473.997	3056.36
474.369	3111.73
474.74	3178.84
475.112	3236.24
475.484	3313.75
475.855	3395.33
476.227	3421.77
476.598	3544.94
476.97	3605.72
477.341	3682.33
477.713	3762.33
478.084	3765.49
478.455	3912.61
478.827	3981.08
479.198	4085.26
479.569	4134.75
479.94	4291.13
480.311	4321.86
480.682	4452.48
481.053	4561.18
481.424	4687.05
481.795	4760.72
482.166	4845.69
482.537	4931.79
482.908	5074.16
483.279	5170.88
483.65	5289.75
484.021	5400.93
484.391	5500.59
484.762	5598.21
485.133	5662.85
485.503	5816.97
485.874	6014.25
486.244	6083.63
486.615	6193
486.985	6358.65
487.356	6503.95
487.726	6576.72
488.097	6712.99
488.467	6811.74
488.837	7028.91
489.207	7084.28
489.578	7278.4
489.948	7381.44
490.318	7490.14
490.688	7541.67
491.058	7774.43
491.428	7874.31
491.798	7995.21
492.168	8154.31
492.538	8237.24
492.908	8340.74
493.278	8540.06
493.648	8571.47
494.017	8729.88
494.387	8820.95
494.757	8897.34
495.126	9012.59
495.496	9093.94
495.866	9211
496.235	9273.82
496.605	9519.69
496.974	9499.13
497.344	9587.26
497.713	9678.56
498.082	9801.27
498.452	9924.65
498.821	9973.69
499.19	10028.83
499.559	10137.53
499.928	10191.54
500.298	10240.35
500.667	10368.94
501.036	10342.5
501.405	10480.35
501.774	10490.29
502.143	10589.95
502.512	10622.26
502.88	10762.6
503.249	10764.63
503.618	10812.31
503.987	10836.27
504.356	10906.32
504.724	11050.05
505.093	11104.96
505.462	11131.63
505.83	11199.88
506.199	11283.94
506.567	11415.01
506.936	11335.24
507.304	11509.92
507.672	11519.64
508.041	11629.47
508.409	11685.06
508.777	11769.58
509.145	11813.87
509.514	11741.1
509.882	11879.63
510.25	11880.08
510.618	11873.08
510.986	11865.17
511.354	12010.25
511.722	12056.35
512.09	12207.53
512.458	12014.77
512.826	12244.59
513.193	12231.71
513.561	12232.62
513.929	12310.81
514.297	12381.54
514.664	12459.73
515.032	12431.93
515.4	12540.63
515.767	12477.58
516.135	12579.05
516.502	12554.87
516.869	12676.67
517.237	12643.23
517.604	12525.26
517.972	12673.73
518.339	12738.37
518.706	12748.53
519.073	12715.54
519.44	12738.59
519.808	12887.06
520.175	12846.84
520.542	12945.59
520.909	12995.08
521.276	12900.17
521.643	12948.76
522.009	13018.58
522.376	13055.19
522.743	13026.27
523.11	13079.37
523.477	13107.85
523.843	13152.37
524.21	13235.98
524.577	13240.5
524.943	13306.03
525.31	13272.36
525.676	13310.1
526.043	13405.92
526.409	13429.87
526.776	13503.32
527.142	13431.23
527.508	13400.95
527.874	13512.13
528.241	13467.39
528.607	13468.52
528.973	13479.36
529.339	13460.83
529.705	13462.64
530.071	13599.59
530.437	13533.15
530.803	13611.11
531.169	13577.67
531.535	13438.91
531.901	13440.04
532.267	13455.18
532.632	13511.23
532.998	13417.44
533.364	13513.03
533.73	13488.4
534.095	13431.91
534.461	13516.65
534.826	13440.27
535.192	13349.2
535.557	13470.78
535.923	13438.91
536.288	13385.35
536.653	13337.22
537.019	13289.76
537.384	13327.28
537.749	13242.53
538.114	13259.26
538.479	13137.23
538.845	13128.86
539.21	13118.47
539.575	13010.45
539.94	13070.56
540.305	13025.14
540.67	13018.81
541.034	12984.46
541.399	12954.63
541.764	12971.58
542.129	13013.84
542.494	12885.03
542.858	12845.48
543.223	12772.49
543.587	12821.98
543.952	12724.13
544.316	12726.84
544.681	12540.86
545.045	12658.14
545.41	12647.07
545.774	12518.26
546.138	12586.05
546.503	12525.94
546.867	12393.06
547.231	12496.56
547.595	12367.75
547.959	12326.85
548.324	12334.76
548.688	12273.29
549.052	12284.14
549.416	12261.77
549.779	12218.61
550.143	12141.09
550.507	12145.61
550.871	12201.2
551.235	12042.11
551.599	12120.98
551.962	12090.7
552.326	12017.25
552.689	12056.58
553.053	11860.87
553.417	11865.62
553.78	11977.48
554.143	11841.21
554.507	11888.44
554.87	11839.18
555.234	11888.44
555.597	11825.17
555.96	11867.43
556.323	11783.59
556.686	11785.4
557.05	11802.8
557.413	11745.4
557.776	11638.51
558.139	11765.28
558.502	11716.7
558.865	11593.99
559.228	11733.87
559.59	11683.93
559.953	11708.79
560.316	11779.52
560.679	11640.09
561.041	11709.24
561.404	11694.78
561.767	11701.78
562.129	11647.77
562.492	11726.41
562.854	11738.39
563.217	11666.3
563.579	11671.95
563.941	11640.09
564.304	11696.36
564.666	11723.03
565.028	11727.54
565.39	11710.14
565.753	11715.34
566.115	11742.01
566.477	11716.92
566.839	11682.12
567.201	11793.31
567.563	11717.38
567.925	11828.79
568.287	11801.67
568.648	11800.31
569.01	11813.42
569.372	11823.59
569.734	11777.49
570.095	11908.33
570.457	11857.71
570.819	11859.97
571.18	11790.82
571.542	11823.59
571.903	11825.85
572.265	11854.32
572.626	11877.6
572.987	11888.67
573.349	11892.74
573.71	11845.06
574.071	11922.79
574.432	12004.15
574.794	12000.76
575.155	11900.42
575.516	11891.16
575.877	11919.4
576.238	11979.97
576.599	12020.64
576.96	11903.81
577.32	11914.43
577.681	11975.45
578.042	12043.92
578.403	11919.4
578.763	11939.74
579.124	11980.19
579.485	12023.81
579.845	11979.97
580.206	11910.82
580.566	11918.95
580.927	11995.56
581.287	11970.25
581.648	11881.21
582.008	11916.24
582.368	11858.39
582.728	11969.57
583.089	11913.08
583.449	11928.67
583.809	11916.01
584.169	11858.61
584.529	11828.11
584.889	11949.23
585.249	11873.08
585.609	11787.2
585.969	11866.3
586.329	11872.17
586.688	11802.57
587.048	11833.3
587.408	11752.4
587.768	11765.06
588.127	11749.01
588.487	11807.09
588.846	11849.35
589.206	11726.41
589.565	11739.07
589.925	11810.93
590.284	11760.31
590.643	11797.83
591.003	11766.41
591.362	11677.6
591.721	11695.68
592.08	11708.79
592.44	11711.05
592.799	11724.16
593.158	11647.09
593.517	11583.14
593.876	11673.99
594.235	11665.63
594.593	11615.01
594.952	11620.88
595.311	11606.42
595.67	11637.15
596.029	11716.47
596.387	11727.54
596.746	11725.96
597.104	11668.79
597.463	11557.38
597.822	11625.85
598.18	11586.53
598.538	11600.99
598.897	11586.76
599.255	11507.44
599.613	11695.91
599.972	11644.16
600.33	11589.24
600.688	11519.19
601.046	11593.54
601.404	11644.84
601.762	11556.7
602.12	11616.81
602.478	11652.74
602.836	11620.2
603.194	11549.47
603.552	11559.41
603.91	11508.57
604.268	11588.34
604.625	11515.8
604.983	11557.83
605.341	11519.41
605.698	11583.14
606.056	11549.47
606.413	11557.38
606.771	11536.59
607.128	11585.63
607.485	11516.02
607.843	11601.45
608.2	11586.98
608.557	11729.8
608.914	11606.42
609.272	11646.19
609.629	11624.04
609.986	11713.76
610.343	11677.15
610.7	11681.67
611.057	11728
611.414	11635.12
611.771	11647.09
612.127	11701.33
612.484	11681.67
612.841	11741.1
613.198	11666.76
613.554	11657.94
613.911	11774.78
614.267	11744.72
614.624	11740.2
614.98	11774.1
615.337	11787.88
615.693	11871.04
616.05	11730.71
616.406	11835.56
616.762	11861.78
617.118	11761.44
617.475	11764.61
617.831	11800.54
618.187	11828.56
618.543	11766.64
618.899	11855.68
619.255	11907.43
619.611	11844.38
619.967	11889.8
620.323	11855.45
620.678	11913.75
621.034	11876.02
621.39	11817.71
621.746	11768
622.101	11932.51
622.457	11792.63
622.812	11904.49
623.168	11863.81
623.523	11840.76
623.879	11912.85
624.234	11835.79
624.589	11823.59
624.945	11886.18
625.3	11886.18
625.655	11885.96
626.01	11861.55
626.365	11853.42
626.72	11864.49
627.075	11857.48
627.43	11864.49
627.785	11803.25
628.14	11815.23
628.495	11871.95
628.85	11839.86
629.205	11829.46
629.559	11902.68
629.914	11809.35
630.269	11792.4
630.623	11771.39
630.978	11704.95
631.332	11861.55
631.687	11800.54
632.041	11748.34
632.396	11707.66
632.75	11716.7
633.104	11740.43
633.459	11669.24
633.813	11612.52
634.167	11741.33
634.521	11596.7
634.875	11582.01
635.229	11601.67
635.583	11542.92
635.937	11613.88
636.291	11580.43
636.645	11503.82
636.999	11565.97
637.352	11562.58
637.706	11451.62
638.06	11538.62
638.413	11549.24
638.767	11533.2
639.121	11507.89
639.474	11397.84
639.828	11445.97
640.181	11457.04
640.534	11483.71
640.888	11410.94
641.241	11310.83
641.594	11386.54
641.947	11414.33
642.301	11401
642.654	11338.63
643.007	11413.88
643.36	11376.37
643.713	11361.23
644.066	11418.85
644.419	11302.47
644.771	11324.84
645.124	11217.5
645.477	11200.33
645.83	11112.19
646.182	11081.91
646.535	11101.35
646.888	11047.34
647.24	10883.27
647.593	11033.78
647.945	11039.43
648.298	10948.81
648.65	10912.42
649.002	10936.83
649.355	11033.78
649.707	10974.8
650.059	11043.95
650.411	11153.55
650.763	11148.58
651.115	11258.63
651.467	11136.83
651.819	11201.91
652.171	11201.68
652.523	11137.05
652.875	11215.24
653.227	11122.81
653.578	11192.19
653.93	11235.35
654.282	11123.27
654.633	11156.49
654.985	11230.16
655.337	11181.8
655.688	11177.28
656.039	11280.55
656.391	11147
656.742	11189.71
657.094	11201.91
657.445	11224.96
657.796	11218.63
658.147	11196.94
658.498	11137.05
658.849	11258.4
659.2	11227.22
659.551	11181.57
659.902	11232.64
660.253	11273.55
660.604	11250.5
660.955	11217.05
661.306	11235.35
661.656	11271.74
662.007	11179.76
662.358	11283.26
662.708	11257.73
663.059	11265.41
663.409	11166.66
663.76	11346.31
664.11	11264.28
664.461	11275.35
664.811	11239.87
665.161	11359.87
665.511	11252.53
665.862	11329.82
666.212	11316.48
666.562	11276.48
666.912	11247.56
667.262	11328.23
667.612	11337.5
667.962	11283.94
668.312	11282.13
668.662	11343.15
669.011	11289.82
669.361	11273.77
669.711	11271.29
670.06	11252.08
670.41	11262.02
670.76	11191.29
671.109	11256.14
671.459	11228.57
671.808	11259.53
672.157	11207.11
672.507	11112.65
672.856	11132.53
673.205	11171.85
673.554	11173.44
673.904	11185.64
674.253	11140.44
674.602	11150.84
674.951	11030.61
675.3	10953.78
675.649	11127.11
675.998	11120.56
676.346	11076.49
676.695	11086.21
677.044	11112.19
677.393	11145.41
677.741	11195.81
678.09	10962.37
678.438	11011.63
678.787	11077.62
679.135	10988.58
679.484	10968.24
679.832	11030.39
680.181	10936.38
680.529	10979.99
680.877	10842.14
681.225	10882.6
681.573	10886.66
681.922	10878.08
682.27	10815.48
682.618	10825.87
682.966	10854.35
683.314	10855.93
683.661	10649.16
684.009	10704.07
684.357	10719.89
684.705	10720.79
685.053	10695.03
685.4	10654.35
685.748	10564.41
686.095	10580.46
686.443	10563.51
686.79	10570.06
687.138	10594.92
687.485	10527.8
687.832	10496.62
688.18	10547.01
688.527	10415.26
688.874	10409.61
689.221	10363.74
689.568	10358.32
689.915	10326.68
690.262	10311.76
690.609	10235.83
690.956	10274.7
691.303	10218.43
691.65	10179.34
691.997	10167.36
692.344	10092.11
692.69	10082.39
693.037	10073.35
693.383	9954.94
693.73	10004.88
694.077	9933.69
694.423	9938.89
694.769	9926.46
695.116	9823.87
695.462	9845.79
695.808	9791.78
696.155	9872.68
696.501	9704.32
696.847	9740.93
697.193	9639.46
697.539	9616.19
697.885	9533.25
698.231	9557.21
698.577	9521.05
698.923	9492.8
699.269	9478.56
699.614	9421.84
699.96	9331.9
700.306	9376.65
700.651	9362.86
700.997	9213.94
701.342	9276.76
701.688	9227.27
702.033	9201.74
702.379	9180.49
702.724	9189.76
703.069	9112.92
703.415	9076.77
703.76	9065.92
704.105	9031.57
704.45	8966.26
704.795	8976.43
705.14	8899.6
705.485	8972.59
705.83	8819.6
706.175	8851.46
706.52	8887.17
706.865	8763.55
707.209	8784.12
707.554	8654.63
707.899	8747.06
708.243	8700.96
708.588	8646.5
708.932	8609.89
709.277	8601.3
709.621	8637.46
709.966	8525.82
710.31	8542.54
710.654	8465.94
710.998	8527.85
711.342	8447.18
711.687	8481.98
712.031	8422.55
712.375	8394.3
712.719	8393.4
713.063	8431.81
713.407	8417.35
713.75	8343.9
714.094	8330.57
714.438	8296.67
714.782	8280.86
715.125	8231.37
715.469	8304.13
715.812	8196.79
716.156	8112.27
716.499	8105.72
716.843	8225.49
717.186	8125.38
717.53	8178.26
717.873	8212.16
718.216	8142.78
718.559	8106.17
718.902	8096.91
719.246	8107.07
719.589	8059.39
719.932	8007.42
720.275	8114.53
720.617	8048.77
720.96	8039.05
721.303	8060.97
721.646	7995.21
721.989	8034.53
722.331	7966.97
722.674	8027.08
723.016	8013.97
723.359	7950.02
723.701	7923.58
724.044	8001.54
724.386	7950.24
724.729	7930.58
725.071	7900.98
725.413	7954.31
725.755	7944.37
726.097	7889.68
726.439	7904.37
726.782	7906.18
727.124	7897.36
727.465	7889.45
727.807	7848.55
728.149	7850.81
728.491	7859.17
728.833	7855.33
729.175	7832.28
729.516	7818.95
729.858	7815.33
730.199	7866.63
730.541	7826.4
730.882	7856.69
731.224	7836.57
731.565	7810.59
731.906	7838.16
732.248	7812.85
732.589	7864.82
732.93	7770.13
733.271	7830.47
733.612	7804.03
733.953	7758.61
734.294	7803.35
734.635	7772.85
734.976	7797.7
735.317	7810.59
735.658	7792.28
735.999	7805.39
736.339	7816.24
736.68	7854.2
737.021	7837.93
737.361	7862.56
737.702	7859.62
738.042	7923.13
738.383	7818.72
738.723	7881.54
739.063	7865.5
739.404	7906.63
739.744	7884.26
740.084	7895.78
740.424	7900.07
740.764	7997.93
741.104	7953.41
741.444	7986.85
741.784	7868.21
742.124	7901.2
742.464	8039.28
742.804	8013.74
743.143	7988.43
743.483	7994.31
743.823	8046.51
744.162	8073.4
744.502	8100.52
744.841	8110.69
745.181	8176
745.52	8218.71
745.86	8239.27
746.199	8274.75
746.538	8278.82
746.877	8320.4
747.216	8427.74
747.556	8432.26
747.895	8525.14
748.234	8545.93
748.573	8552.26
748.911	8623.45
749.25	8730.11
749.589	8698.7
749.928	8812.82
750.267	8861.18
750.605	8971.01
750.944	9080.61
751.283	9015.07
751.621	9258.91
751.96	9273.37
752.298	9322.64
752.636	9400.83
752.975	9592.23
753.313	9575.06
753.651	9794.26
753.989	9743.42
754.327	9884.2
754.666	10030.19
755.004	10101.6
755.342	10304.31
755.679	10412.1
756.017	10514.7
756.355	10676.95
756.693	10732.54
757.031	10929.37
757.368	11017.51
757.706	11148.12
758.044	11313.77
758.381	11516.7
758.719	11588.57
759.056	11682.8
759.394	11913.53
759.731	11966.86
760.068	12248.21
760.405	12293.18
760.743	12445.49
761.08	12654.3
761.417	12736.11
761.754	13055.42
762.091	13172.03
762.428	13308.29
762.765	13442.08
763.102	13662.86
763.438	13735.63
763.775	13851.1
764.112	14152.34
764.449	14292.68
764.785	14421.94
765.122	14498.77
765.458	14670.07
765.795	14793.9
766.131	14971.08
766.467	15084.52
766.804	15216.27
767.14	15418.75
767.476	15575.13
767.812	15599.53
768.148	15901.45
768.485	15830.26
768.821	16047.88
769.157	16122.23
769.492	16191.83
769.828	16409.46
770.164	16444.48
770.5	16425.73
770.836	16748.66
771.171	16710.01
771.507	16776.9
771.842	16836.34
772.178	16945.94
772.513	17074.97
772.849	17186.38
773.184	17224.35
773.519	17350.9
773.855	17386.15
774.19	17425.7
774.525	17496.21
774.86	17597.45
775.195	17638.8
775.53	17684.45
775.865	17721.29
776.2	17647.39
776.535	17760.61
776.87	17796.09
777.205	17782.53
777.539	17882.41
777.874	17892.13
778.209	17885.35
778.543	17992.01
778.878	17990.88
779.212	17999.02
779.547	17952.01
779.881	18041.28
780.215	18061.62
780.55	18114.72
780.884	18079.24
781.218	18076.76
781.552	18123.08
781.886	18105
782.22	18097.32
782.554	18097.32
782.888	17981.62
783.222	17959.7
783.556	17984.1
783.889	18003.31
784.223	17930.55
784.557	17974.16
784.89	17997.89
785.224	18046.7
785.557	17945.46
785.891	17973.93
786.224	17959.02
786.558	17963.09
786.891	17884.9
787.224	17842.86
787.557	17806.71
787.891	17787.5
788.224	17896.87
788.557	17893.94
788.89	17841.96
789.223	17857.1
789.556	17679.25
789.888	17737.33
790.221	17679.48
790.554	17593.83
790.887	17560.39
791.219	17468.86
791.552	17535.08
791.884	17465.25
792.217	17414.63
792.549	17549.76
792.882	17335.76
793.214	17270.45
793.546	17284.91
793.879	17309.77
794.211	17154.29
794.543	17253.28
794.875	17183.22
795.207	17316.32
795.539	17178.47
795.871	17151.13
796.203	17080.85
796.535	16955.88
796.867	16931.02
797.198	16953.85
797.53	16937.35
797.862	16772.38
798.193	16877.01
798.525	16810.8
798.856	16869.56
799.188	16586.85
799.519	16563.58
799.85	16576.91
800.182	16490.58
800.513	16559.96
800.844	16476.8
801.175	16585.95
801.506	16506.63
801.837	16435.22
802.168	16362.45
802.499	16276.35
802.83	16348.21
803.161	16194.32
803.491	16316.8
803.822	16248.78
804.153	16153.64
804.483	16086.3
804.814	15990.94
805.145	16027.09
805.475	15939.86
805.805	16001.33
806.136	15901.45
806.466	15921.78
806.796	15819.19
807.126	15766.08
807.457	15778.06
807.787	15809.7
808.117	15728.57
808.447	15646.54
808.777	15720.21
809.107	15653.77
809.436	15593.43
809.766	15612.41
810.096	15494.45
810.426	15417.84
810.755	15453.32
811.085	15430.95
811.414	15444.06
811.744	15286.32
812.073	15271.63
812.403	15310.28
812.732	15174.69
813.061	15234.8
813.39	15169.71
813.719	15124.07
814.049	15169.71
814.378	15163.16
814.707	15047.23
815.036	15057.17
815.365	14971.3
815.693	14844.3
816.022	14895.82
816.351	14816.05
816.68	14796.62
817.008	14891.08
817.337	14708.03
817.665	14746
817.994	14744.87
818.322	14675.49
818.651	14553.23
818.979	14640.24
819.307	14734.25
819.636	14579.45
819.964	14679.33
820.292	14595.04
820.62	14631.42
820.948	14535.61
821.276	14629.62
821.604	14525.44
821.932	14519.79
822.259	14648.15
822.587	14610.41
822.915	14548.26
823.243	14643.17
823.57	14512.78
823.898	14557.53
824.225	14564.31
824.553	14456.51
824.88	14535.15
825.207	14591.88
825.535	14534.7
825.862	14501.94
826.189	14572.44
826.516	14549.17
826.843	14611.99
827.17	14519.56
827.497	14589.39
827.824	14522.95
828.151	14593.46
828.478	14539
828.805	14653.34
829.131	14537.87
829.458	14564.98
829.785	14501.71
830.111	14553.23
830.438	14587.58
830.764	14602.05
831.09	14533.12
831.417	14418.32
831.743	14503.74
832.069	14501.94
832.395	14442.95
832.722	14578.09
833.048	14488.38
833.374	14506.23
833.7	14460.13
834.026	14376.29
834.351	14468.72
834.677	14534.7
835.003	14518.43
835.329	14431.88
835.654	14439.56
835.98	14324.76
836.306	14456.06
836.631	14312.11
836.956	14375.38
837.282	14299.23
837.607	14241.83
837.932	14206.12
838.258	14206.8
838.583	14253.81
838.908	14173.81
839.233	14164.99
839.558	14026.47
839.883	13979.01
840.208	13989.18
840.533	14005.9
840.858	14028.05
841.182	13999.58
841.507	14003.64
841.832	13955.28
842.156	13923.87
842.481	13974.04
842.805	13802.74
843.13	13809.52
843.454	13916.64
843.778	13831.44
844.103	13783.99
844.427	13613.14
844.751	13720.94
845.075	13664.44
845.399	13651.79
845.723	13554.62
846.047	13657.66
846.371	13450.21
846.695	13475.75
847.019	13360.95
847.343	13339.71
847.666	13268.97
847.99	13220.61
848.313	13197.79
848.637	13149.43
848.96	13072.59
849.284	13109.88
849.607	12931.81
849.931	13034.86
850.254	12814.52
850.577	12725.94
850.9	12648.88
851.223	12681.87
851.546	12619.05
851.869	12553.06
852.192	12652.49
852.515	12463.12
852.838	12489.11
853.161	12451.59
853.483	12488.65
853.806	12374.99
854.129	12259.73
854.451	12243.01
854.774	12209.11
855.096	12199.17
855.419	12234.2
855.741	12007.09
856.063	12023.36
856.385	11999.4
856.708	12061.77
857.03	11847.99
857.352	11976.35
857.674	11948.33
857.996	11872.17
858.318	11781.1
858.64	11807.32
858.961	11774.1
859.283	11725.74
859.605	11666.08
859.926	11654.55
860.248	11643.25
860.57	11584.5
860.891	11614.33
861.212	11471.96
861.534	11432.64
861.855	11513.31
862.176	11541.33
862.498	11407.78
862.819	11502.01
863.14	11353.77
863.461	11354
863.782	11297.27
864.103	11324.84
864.424	11357.38
864.745	11276.94
865.065	11263.6
865.386	11194.68
865.707	11139.09
866.027	11200.1
866.348	11220.21
866.668	11159.65
866.989	11043.95
867.309	11050.73
867.63	11094.12
867.95	11093.44
868.27	10969.6
868.59	11047.79
868.91	10967.56
869.23	11000.56
869.55	11029.71
869.87	11020.22
870.19	10922.14
870.51	10920.33
870.83	10975.93
871.15	10852.54
871.469	10886.21
871.789	10860.67
872.109	10850.05
872.428	10775.71
872.748	10777.06
873.067	10793.11
873.386	10807.57
873.706	10727.12
874.025	10696.39
874.344	10675.37
874.663	10669.95
874.982	10661.58
875.301	10710.4
875.62	10688.7
875.939	10671.08
876.258	10588.37
876.577	10584.52
876.896	10595.6
877.214	10570.29
877.533	10540.68
877.852	10564.19
878.17	10529.38
878.489	10527.35
878.807	10444.41
879.125	10460.46
879.444	10469.95
879.762	10379.33
880.08	10469.27
880.398	10392.21
880.716	10452.78
881.034	10330.07
881.352	10320.8
881.67	10348.82
881.988	10344.53
882.306	10259.33
882.624	10227.7
882.941	10181.82
883.259	10166
883.577	10136.4
883.894	10170.07
884.212	10134.37
884.529	10172.33
884.846	10101.15
885.164	10074.03
885.481	10013.92
885.798	10039.91
886.115	9946.12
886.432	9942.28
886.75	9947.25
887.067	9978.21
887.383	9777.77
887.7	9966.46
888.017	9829.29
888.334	9833.36
888.651	9805.79
888.967	9807.14
889.284	9747.03
889.6	9744.32
889.917	9595.17
890.233	9649.18
890.55	9591.1
890.866	9645.79
891.182	9579.35
891.498	9564.21
891.815	9501.39
892.131	9473.82
892.447	9409.19
892.763	9402.41
893.079	9349.75
893.395	9363.54
893.71	9332.58
894.026	9337.1
894.342	9298.68
894.657	9261.39
894.973	9214.84
895.289	9153.6
895.604	9182.3
895.92	9130.1
896.235	9086.26
896.55	9091.23
896.865	9068.63
897.181	9008.75
897.496	9013.04
897.811	8933.49
898.126	8908.86
898.441	8863.21
898.756	8881.74
899.071	8807.62
899.386	8776.21
899.7	8713.39
900.015	8775.98
900.33	8642.43
900.644	8668.87
900.959	8724.69
901.273	8613.28
901.588	8581.64
901.902	8543.67
902.216	8508.65
902.531	8472.49
902.845	8441.98
903.159	8376.67
903.473	8339.84
903.787	8365.83
904.101	8320.4
904.415	8320.18
904.729	8292.15
905.042	8277.24
905.356	8195.66
905.67	8219.16
905.984	8173.74
906.297	8103.01
906.611	8083.57
906.924	8034.08
907.237	7997.02
907.551	7962.45
907.864	7909.57
908.177	7906.85
908.491	7888.55
908.804	7872.5
909.117	7815.11
909.43	7817.37
909.743	7693.75
910.056	7789.12
910.368	7717.93
910.681	7638.84
910.994	7622.12
911.307	7620.31
911.619	7574.43
911.932	7589.12
912.244	7467.54
912.557	7502.8
912.869	7435.68
913.181	7366.08
913.494	7419.86
913.806	7390.03
914.118	7339.19
914.43	7263.03
914.742	7275.01
915.054	7230.71
915.366	7179.64
915.678	7190.26
915.99	7156.82
916.302	7095.58
916.613	7091.51
916.925	7062.58
917.236	7080.89
917.548	6995.69
917.859	7020.1
918.171	6943.94
918.482	6942.81
918.794	6887.9
919.105	6887.45
919.416	6827.56
919.727	6818.97
920.038	6729.94
920.349	6697.85
920.66	6764.06
920.971	6722.25
921.282	6654.68
921.593	6608.81
921.903	6575.59
922.214	6608.81
922.525	6557.74
922.835	6514.35
923.146	6442.26
923.456	6500.79
923.767	6437.06
924.077	6453.33
924.387	6435.93
924.697	6390.28
925.008	6384.86
925.318	6328.82
925.628	6334.01
925.938	6236.62
926.248	6234.81
926.558	6231.42
926.867	6178.99
927.177	6203.17
927.487	6158.2
927.796	6115.49
928.106	6053.8
928.416	6033.91
928.725	6013.57
929.034	5994.59
929.344	5985.32
929.653	5986.9
929.962	5933.57
930.271	5932.44
930.581	5866
930.89	5854.03
931.199	5779.9
931.508	5820.13
931.817	5809.73
932.125	5774.25
932.434	5739.68
932.743	5707.36
933.051	5669.85
933.36	5686.57
933.669	5617.2
933.977	5607.93
934.286	5641.38
934.594	5578.33
934.902	5568.38
935.21	5539.23
935.519	5504.66
935.827	5496.3
936.135	5521.38
936.443	5446.58
936.751	5424.89
937.059	5414.49
937.367	5393.93
937.674	5319.13
937.982	5332.91
938.29	5263.76
938.597	5337.2
938.905	5220.82
939.213	5246.81
939.52	5194.16
939.827	5157.77
940.135	5176.08
940.442	5155.29
940.749	5164.55
941.056	5115.74
941.363	5070.54
941.67	5050.88
941.977	5037.55
942.284	5018.12
942.591	5024.22
942.898	5023.31
943.205	4993.03
943.511	4953.03
943.818	4890.89
944.125	4868.74
944.431	4895.63
944.738	4843.43
945.044	4836.88
945.35	4773.15
945.657	4742.87
945.963	4750.78
946.269	4759.82
946.575	4706.03
946.881	4725.47
947.187	4709.88
947.493	4638.92
947.799	4654.06
948.105	4600.73
948.41	4634.62
948.716	4607.28
949.022	4576.55
949.327	4567.06
949.633	4513.5
949.938	4532.48
950.244	4525.25
950.549	4486.15
950.854	4442.76
951.16	4443.67
951.465	4412.48
951.77	4394.18
952.075	4374.07
952.38	4348.53
952.685	4340.85
952.99	4310.56
953.294	4307.4
953.599	4264.69
953.904	4301.53
954.209	4226.05
954.513	4222.66
954.818	4158.25
955.122	4173.17
955.426	4200.29
955.731	4109.89
956.035	4134.75
956.339	4144.24
956.643	4125.26
956.948	4000.06
957.252	4071.93
957.556	4040.29
957.86	4037.13
958.163	4005.71
958.467	3999.61
958.771	3989.9
959.075	3953.51
959.378	3936.56
959.682	3915.55
959.985	3920.74
960.289	3885.72
960.592	3915.32
960.896	3875.1
961.199	3847.98
961.502	3822.67
961.805	3815.44
962.108	3805.72
962.411	3795.1
962.714	3769.34
963.017	3746.74
963.32	3739.96
963.623	3712.84
963.926	3692.95
964.228	3680.75
964.531	3687.53
964.833	3664.25
965.136	3647.76
965.438	3659.28
965.741	3591.94
966.043	3600.98
966.345	3568.89
966.648	3546.29
966.95	3552.17
967.252	3516.01
967.554	3544.71
967.856	3493.86
968.158	3452.06
968.46	3445.73
968.761	3476.24
969.063	3443.02
969.365	3415.45
969.666	3418.38
969.968	3395.11
970.269	3355.79
970.571	3378.84
970.872	3359.86
971.174	3353.08
971.475	3327.54
971.776	3310.14
972.077	3313.08
972.378	3296.58
972.679	3278.28
972.98	3252.29
973.281	3250.03
973.582	3207.99
973.883	3222.46
974.183	3165.28
974.484	3186.75
974.785	3178.84
975.085	3147.88
975.386	3165.06
975.686	3156.47
975.986	3109.01
976.287	3110.37
976.587	3094.1
976.887	3065.63
977.187	3065.4
977.487	3067.89
977.787	3011.39
978.087	2990.83
978.387	2977.94
978.687	2956.93
978.987	2944.27
979.286	2958.74
979.586	2941.11
979.885	2939.98
980.185	2948.79
980.484	2917.38
980.784	2904.05
981.083	2869.47
981.382	2898.62
981.682	2846.65
981.981	2846.42
982.28	2835.35
982.579	2797.16
982.878	2787.67
983.177	2803.03
983.475	2790.38
983.774	2777.05
984.073	2766.42
984.372	2718.52
984.67	2718.97
984.969	2717.61
985.267	2710.15
985.566	2723.04
985.864	2729.59
986.162	2705.41
986.461	2651.85
986.759	2684.62
987.057	2606.65
987.355	2626.09
987.653	2621.57
987.951	2626.54
988.249	2579.76
988.547	2593.77
988.844	2612.76
989.142	2566.43
989.44	2549.93
989.737	2528.92
990.035	2541.8
990.332	2550.61
990.63	2507.45
990.927	2482.14
991.224	2443.95
991.521	2483.95
991.819	2448.01
992.116	2425.19
992.413	2406.43
992.71	2472.42
993.006	2404.63
993.303	2399.2
993.6	2399.2
993.897	2380.9
994.193	2312.43
994.49	2359.66
994.787	2350.39
995.083	2312.43
995.379	2314.23
995.676	2323.27
995.972	2271.97
996.268	2287.12
996.565	2250.51
996.861	2242.82
997.157	2232.43
997.453	2230.39
997.749	2199.66
998.044	2211.41
998.34	2205.31
998.636	2188.59
998.932	2164.18
999.227	2175.71
999.523	2178.19
999.818	2108.81
1000.114	2144.52
1000.409	2132.09
1000.704	2130.96
1001	2085.54
1001.295	2070.62
1001.59	2058.19
1001.885	2059.32
1002.18	2061.81
1002.475	2035.82
1002.77	2020.23
1003.065	2011.64
1003.359	2022.72
1003.654	2013
1003.949	2010.96
1004.243	1976.61
1004.538	1987.01
1004.832	1928.25
1005.127	1952.21
1005.421	1910.63
1005.715	1913.34
1006.009	1912.66
1006.304	1903.85
1006.598	1851.19
1006.892	1861.59
1007.186	1831.31
1007.48	1839.67
1007.773	1853.91
1008.067	1820.91
1008.361	1819.56
1008.655	1803.96
1008.948	1820.69
1009.242	1812.55
1009.535	1793.34
1009.829	1785.66
1010.122	1755.83
1010.415	1715.38
1010.708	1725.1
1011.001	1728.49
1011.295	1712.89
1011.588	1703.4
1011.881	1687.13
1012.173	1692.1
1012.466	1680.58
1012.759	1655.04
1013.052	1644.87
1013.344	1624.31
1013.637	1648.94
1013.93	1633.12
1014.222	1608.04
1014.514	1653.69
1014.807	1600.58
1015.099	1579.79
1015.391	1595.61
1015.683	1554.48
1015.976	1594.7
1016.268	1550.86
1016.56	1527.81
1016.851	1527.81
1017.143	1547.02
1017.435	1505.21
1017.727	1532.78
1018.018	1499.57
1018.31	1482.62
1018.602	1481.03
1018.893	1464.54
1019.185	1459.79
1019.476	1457.31
1019.767	1442.39
1020.058	1469.51
1020.35	1429.06
1020.641	1428.61
1020.932	1410.75
1021.223	1397.87
1021.514	1403.97
1021.804	1380.92
1022.095	1378.89
1022.386	1350.42
1022.677	1368.95
1022.967	1360.81
1023.258	1318.78
1023.548	1342.06
1023.839	1318.33
1024.129	1311.1
1024.419	1306.58
1024.709	1284.43
1025	1286.01
1025.29	1301.38
1025.58	1289.63
1025.87	1286.01
1026.16	1246.92
1026.449	1252.11
1026.739	1252.11
1027.029	1246.69
1027.319	1234.71
1027.608	1220.25
1027.898	1185.68
1028.187	1198.56
1028.477	1200.36
1028.766	1191.55
1029.055	1151.78
1029.344	1159.24
1029.634	1151.55
1029.923	1147.26
1030.212	1147.48
1030.501	1155.17
1030.79	1142.74
1031.078	1124.89
1031.367	1108.84
1031.656	1123.3
1031.945	1116.98
1032.233	1108.61
1032.522	1078.56
1032.81	1070.2
1033.099	1086.92
1033.387	1056.86
1033.675	1057.77
1033.963	1047.83
1034.251	1039.92
1034.54	1049.86
1034.828	1052.12
1035.116	1018.22
1035.403	1028.84
1035.691	1019.13
1035.979	1012.12
1036.267	1010.09
1036.554	993.36
1036.842	1002.4
1037.129	973.93
1037.417	979.35
1037.704	988.17
1037.992	965.79
1038.279	964.66
1038.566	955.17
1038.853	955.17
1039.14	955.17
