Data from hue_320_FLMS001491_96.txt Node
Date: Mon Feb 06 15:47:59 GMT 2017
User: dcchb
Spectrometer: FLMS00149
Trigger mode: 0
Integration Time (sec): 2.000000E-2
Scans to average: 10
Electric dark correction enabled: true
Nonlinearity correction enabled: false
Boxcar width: 0
XAxis mode: Wavelengths
Number of Pixels in Spectrum: 2048
>>>>>Begin Spectral Data<<<<<
341.393	-29.69
341.776	-29.69
342.16	-29.69
342.543	-85.05
342.927	-52.74
343.31	-69.46
343.693	-62.68
344.077	-74.89
344.46	-44.83
344.843	-68.11
345.226	-47.99
345.61	-48.67
345.993	-26.07
346.376	11.21
346.759	0.59
347.142	29.29
347.525	42.17
347.908	70.87
348.291	74.04
348.674	97.99
349.057	116.52
349.44	119.23
349.823	130.53
350.206	165.79
350.588	192.68
350.971	205.11
351.354	212.34
351.737	215.5
352.119	248.04
352.502	257.76
352.884	248.5
353.267	289.85
353.65	291.88
354.032	309.51
354.414	309.74
354.797	293.01
355.179	323.3
355.562	318.55
355.944	329.85
356.326	326.23
356.709	328.72
357.091	344.76
357.473	334.6
357.855	335.05
358.238	344.54
358.62	320.58
359.002	347.02
359.384	346.8
359.766	332.34
360.148	331.21
360.53	345.89
360.912	329.85
361.294	334.6
361.676	353.8
362.057	325.33
362.439	313.35
362.821	333.69
363.203	319.91
363.584	316.74
363.966	327.59
364.348	335.27
364.729	321.26
365.111	332.56
365.493	313.35
365.874	320.36
366.256	323.3
366.637	314.48
367.019	314.26
367.4	310.87
367.781	296.63
368.163	335.95
368.544	304.31
368.925	302.51
369.306	311.32
369.688	307.7
370.069	323.52
370.45	301.6
370.831	314.71
371.212	291.43
371.593	327.82
371.974	322.17
372.355	300.02
372.736	327.36
373.117	317.87
373.498	299.79
373.879	315.39
374.26	333.24
374.641	316.74
375.021	333.47
375.402	315.84
375.783	331.21
376.163	317.2
376.544	324.65
376.925	342.96
377.305	307.93
377.686	310.42
378.066	304.54
378.447	301.38
378.827	331.21
379.208	333.47
379.588	326.46
379.968	337.31
380.349	328.04
380.729	327.36
381.109	348.15
381.489	353.8
381.87	346.12
382.25	328.95
382.63	344.09
383.01	331.66
383.39	341.83
383.77	339.34
384.15	335.5
384.53	331.88
384.91	322.17
385.29	322.84
385.67	328.49
386.049	331.66
386.429	326.91
386.809	339.34
387.189	363.52
387.568	347.25
387.948	353.8
388.328	352.9
388.707	360.36
389.087	373.92
389.466	377.08
389.846	361.26
390.225	363.3
390.605	338.89
390.984	370.98
391.363	360.36
391.743	367.36
392.122	342.05
392.501	375.5
392.881	369.85
393.26	382.05
393.639	353.58
394.018	371.88
394.397	371.66
394.776	366.23
395.155	382.96
395.534	370.98
395.913	363.97
396.292	382.96
396.671	391.32
397.05	375.72
397.429	384.54
397.808	394.48
398.186	386.57
398.565	386.8
398.944	384.09
399.323	394.03
399.701	400.81
400.08	380.7
400.458	383.41
400.837	408.49
401.215	394.48
401.594	413.01
401.972	403.52
402.351	431.54
402.729	381.6
403.107	411.88
403.486	416.63
403.864	408.04
404.242	422.28
404.62	425.89
404.999	413.69
405.377	426.8
405.755	415.27
406.133	424.54
406.511	448.94
406.889	427.7
407.267	439.45
407.645	443.29
408.023	431.77
408.401	447.81
408.779	443.29
409.156	456.63
409.534	456.85
409.912	474.48
410.29	462.95
410.667	480.13
411.045	461.37
411.422	500.24
411.8	463.41
412.178	494.82
412.555	497.76
412.933	511.09
413.31	511.54
413.687	522.61
414.065	538.21
414.442	554.7
414.819	529.39
415.197	568.49
415.574	552.44
415.951	566.68
416.328	542.5
416.705	544.99
417.082	570.97
417.46	585.44
417.837	596.28
418.214	590.86
418.591	597.64
418.967	599.67
419.344	611.2
419.721	604.65
420.098	623.85
420.475	606.23
420.852	637.64
421.228	644.87
421.605	640.12
421.982	646.9
422.358	665.89
422.735	665.21
423.111	650.52
423.488	652.33
423.864	659.11
424.241	675.6
424.617	684.64
424.994	679.67
425.37	670.18
425.746	693
426.123	713.12
426.499	714.25
426.875	732.78
427.251	723.96
427.627	745.88
428.003	745.21
428.379	745.21
428.756	764.87
429.132	766.67
429.507	768.71
429.883	797.41
430.259	798.09
430.635	813.45
431.011	807.58
431.387	806.45
431.763	820.91
432.138	837.86
432.514	856.39
432.89	847.8
433.265	858.65
433.641	882.83
434.016	865.43
434.392	887.35
434.767	907.01
435.143	909.04
435.518	888.71
435.894	921.7
436.269	910.63
436.644	947.46
437.02	937.07
437.395	956.73
437.77	974.13
438.145	983.17
438.52	972.09
438.895	990.85
439.271	1008.7
439.646	1029.94
440.021	1014.58
440.395	1007.57
440.77	1010.51
441.145	1020.45
441.52	1038.76
441.895	1039.89
442.27	1055.03
442.645	1076.05
443.019	1068.36
443.394	1040.79
443.769	1063.16
444.143	1081.47
444.518	1088.25
444.892	1055.03
445.267	1092.99
445.641	1083.5
446.016	1070.4
446.39	1121.02
446.764	1061.81
447.139	1126.89
447.513	1120.79
447.887	1080.34
448.262	1122.15
448.636	1089.15
449.01	1137.74
449.384	1120.56
449.758	1147.23
450.132	1149.04
450.506	1174.57
450.88	1140.22
451.254	1173.44
451.628	1166.44
452.002	1155.59
452.376	1182.93
452.75	1198.75
453.123	1179.32
453.497	1225.65
453.871	1213.89
454.244	1223.61
454.618	1211.86
454.992	1221.35
455.365	1259.77
455.739	1264.51
456.112	1296.38
456.486	1259.54
456.859	1279.66
457.232	1296.38
457.606	1297.96
457.979	1281.24
458.352	1301.8
458.725	1337.73
459.099	1334.12
459.472	1355.13
459.845	1375.02
460.218	1353.78
460.591	1357.85
460.964	1354.91
461.337	1387
461.71	1382.48
462.083	1402.82
462.456	1456.83
462.829	1431.29
463.201	1455.24
463.574	1423.38
463.947	1463.38
464.32	1506.09
464.692	1490.05
465.065	1490.95
465.438	1516.49
465.81	1512.42
466.183	1539.76
466.555	1562.59
466.928	1572.53
467.3	1577.95
467.672	1587.9
468.045	1612.53
468.417	1617.95
468.789	1591.96
469.161	1634.67
469.534	1650.95
469.906	1675.8
470.278	1668.8
470.65	1701.11
471.022	1736.14
471.394	1737.5
471.766	1751.51
472.138	1756.48
472.51	1798.29
472.882	1796.93
473.253	1822.47
473.625	1830.6
473.997	1885.97
474.369	1861.34
474.74	1867.21
475.112	1916.93
475.484	1913.99
475.855	1938.62
476.227	1965.06
476.598	2032.4
476.97	2016.36
477.341	2095.45
477.713	2074.66
478.084	2089.8
478.455	2140.42
478.827	2090.93
479.198	2229.01
479.569	2185.85
479.94	2219.07
480.311	2245.96
480.682	2322.57
481.053	2325.28
481.424	2354.43
481.795	2343.81
482.166	2382.9
482.537	2418.61
482.908	2447.08
483.279	2445.95
483.65	2511.94
484.021	2534.76
484.391	2566.18
484.762	2540.64
485.133	2595.33
485.503	2574.31
485.874	2646.63
486.244	2678.71
486.615	2711.71
486.985	2728.21
487.356	2757.58
487.726	2781.31
488.097	2871.7
488.467	2823.34
488.837	2861.76
489.207	2916.67
489.578	2923.91
489.948	2971.36
490.318	2959.84
490.688	3019.27
491.058	3004.58
491.428	3087.74
491.798	3070.57
492.168	3164.35
492.538	3109.66
492.908	3155.54
493.278	3183.79
493.648	3194.18
494.017	3240.96
494.387	3253.16
494.757	3290.9
495.126	3297.46
495.496	3306.95
495.866	3328.42
496.235	3380.17
496.605	3332.71
496.974	3391.24
497.344	3395.53
497.713	3455.19
498.082	3461.97
498.452	3463.33
498.821	3502.87
499.19	3499.48
499.559	3526.38
499.928	3552.36
500.298	3560.05
500.667	3581.74
501.036	3552.59
501.405	3583.78
501.774	3617.22
502.143	3658.35
502.512	3661.74
502.88	3652.47
503.249	3678.69
503.618	3679.14
503.987	3682.3
504.356	3720.72
504.724	3736.09
505.093	3708.97
505.462	3748.74
505.83	3770.44
506.199	3805.01
506.567	3802.08
506.936	3798.69
507.304	3874.39
507.672	3873.71
508.041	3874.62
508.409	3841.4
508.777	3913.94
509.145	3897.21
509.514	3935.63
509.882	3932.47
510.25	3924.11
510.618	3935.63
510.986	3948.06
511.354	3997.32
511.722	4010.21
512.09	4036.19
512.458	3990.54
512.826	4009.08
513.193	4026.7
513.561	4019.92
513.929	4042.52
514.297	4125.46
514.664	4080.49
515.032	4125
515.4	4151.67
515.767	4120.03
516.135	4163.2
516.502	4113.03
516.869	4167.72
517.237	4191.67
517.604	4160.71
517.972	4177.21
518.339	4214.49
518.706	4207.94
519.073	4211.78
519.44	4270.31
519.808	4261.72
520.175	4292.01
520.542	4281.61
520.909	4328.84
521.276	4296.98
521.643	4326.81
522.009	4331.78
522.376	4376.3
522.743	4416.3
523.11	4405.22
523.477	4467.37
523.843	4454.04
524.21	4488.38
524.577	4488.84
524.943	4519.12
525.31	4501.72
525.676	4559.8
526.043	4570.42
526.409	4594.14
526.776	4618.1
527.142	4633.92
527.508	4616.74
527.874	4696.06
528.241	4711.66
528.607	4693.8
528.973	4807.47
529.339	4744.42
529.705	4795.04
530.071	4832.78
530.437	4852.67
530.803	4805.89
531.169	4904.65
531.535	4892.44
531.901	4846.79
532.267	4853.8
532.632	4944.42
532.998	4933.8
533.364	4935.38
533.73	4996.17
534.095	5021.25
534.461	5008.6
534.826	5016.05
535.192	5091.31
535.557	5152.1
535.923	5122.04
536.288	5127.69
536.653	5183.06
537.019	5155.49
537.384	5189.38
537.749	5179.21
538.114	5206.78
538.479	5313.67
538.845	5282.26
539.21	5265.99
539.575	5291.75
539.94	5315.03
540.305	5367.01
540.67	5336.5
541.034	5418.98
541.399	5392.32
541.764	5442.94
542.129	5473.67
542.494	5433.22
542.858	5441.81
543.223	5501.47
543.587	5555.93
543.952	5546.89
544.316	5556.38
544.681	5556.38
545.045	5638.41
545.41	5637.28
545.774	5683.38
546.138	5723.15
546.503	5692.65
546.867	5686.77
547.231	5795.7
547.595	5743.04
547.959	5781.01
548.324	5843.38
548.688	5848.58
549.052	5888.35
549.416	5863.49
549.779	5894.45
550.143	5851.29
550.507	5931.06
550.871	5955.46
551.235	5964.5
551.599	5992.53
551.962	5975.35
552.326	5992.98
552.689	6061
553.053	6034.56
553.417	6023.94
553.78	6108.91
554.143	6119.08
554.507	6129.02
554.87	6118.62
555.234	6170.15
555.597	6170.15
555.96	6216.25
556.323	6180.09
556.686	6218.06
557.05	6285.4
557.413	6273.2
557.776	6283.14
558.139	6383.25
558.502	6347.77
558.865	6331.73
559.228	6384.38
559.59	6387.77
559.953	6422.57
560.316	6560.87
560.679	6465.73
561.041	6489.01
561.404	6505.51
561.767	6553.19
562.129	6550.48
562.492	6543.02
562.854	6598.61
563.217	6598.39
563.579	6592.06
563.941	6614.2
564.304	6667.99
564.666	6671.15
565.028	6737.59
565.39	6796.35
565.753	6808.55
566.115	6788.44
566.477	6821.66
566.839	6806.06
567.201	6883.8
567.563	6870.24
567.925	6913.41
568.287	6937.13
568.648	6881.54
569.01	6974.87
569.372	7008.09
569.734	6989.56
570.095	7015.1
570.457	7044.02
570.819	7060.97
571.18	7109.56
571.542	7208.31
571.903	7258.03
572.265	7194.08
572.626	7306.16
572.987	7286.73
573.349	7378.93
573.71	7392.49
574.071	7480.4
574.432	7503.67
574.794	7605.14
575.155	7586.38
575.516	7598.36
575.877	7740.28
576.238	7758.13
576.599	7889.65
576.96	7923.1
577.32	8009.42
577.681	7978.69
578.042	8085.35
578.403	8190.89
578.763	8283.77
579.124	8350.2
579.485	8455.74
579.845	8547.71
580.206	8659.8
580.566	8696.18
580.927	8902.73
581.287	9057.98
581.648	9043.97
582.008	9257.52
582.368	9266.34
582.728	9517.41
583.089	9642.15
583.449	9751.07
583.809	9949.26
584.169	10133.66
584.529	10329.59
584.889	10533.88
585.249	10644.83
585.609	10790.82
585.969	11081.88
586.329	11237.59
586.688	11443
587.048	11621.53
587.408	11802.77
587.768	11998.92
588.127	12272.81
588.487	12425.13
588.846	12792.35
589.206	13030.31
589.565	13148.95
589.925	13474.14
590.284	13654.47
590.643	13933.56
591.003	14251.52
591.362	14543.26
591.721	14691.96
592.08	15049.01
592.44	15331.26
592.799	15589.11
593.158	15835.66
593.517	15999.04
593.876	16395.42
594.235	16687.84
594.593	17005.8
594.952	17326.69
595.311	17519.91
595.67	17847.36
596.029	18112.66
596.387	18509.03
596.746	18853.2
597.104	18918.97
597.463	19238.73
597.822	19635.11
598.18	19807.98
598.538	20087.3
598.897	20428.08
599.255	20601.86
599.613	21200.49
599.972	21361.16
600.33	21656.29
600.688	21853.58
601.046	22114.14
601.404	22504.18
601.762	22686.55
602.12	23121.12
602.478	23256.25
602.836	23512.07
603.194	23682.68
603.552	24102.56
603.91	24094.42
604.268	24479.27
604.625	24686.27
604.983	24998.81
605.341	25046.04
605.698	25509.08
606.056	25722.4
606.413	26011.89
606.771	26247.36
607.128	26651.87
607.485	26619.1
607.843	26846.22
608.2	27179.54
608.557	27490.94
608.914	27546.54
609.272	27975.9
609.629	28033.75
609.986	28383.58
610.343	28467.19
610.7	28860.17
611.057	28854.75
611.414	29157.57
611.771	29286.38
612.127	29514.62
612.484	29717.55
612.841	29894.5
613.198	30133.13
613.554	30206.13
613.911	30409.29
614.267	30767.24
614.624	30735.83
614.98	30924.3
615.337	31280
615.693	31309.6
616.05	31473.44
616.406	31764.28
616.762	31709.82
617.118	31917.95
617.475	32158.39
617.831	32248.78
618.187	32445.39
618.543	32517.48
618.899	32831.59
619.255	32796.34
619.611	32934.42
619.967	33144.13
620.323	33267.06
620.678	33255.99
621.034	33359.04
621.39	33456.44
621.746	33498.92
622.101	33945.46
622.457	33839.25
622.812	33931.68
623.168	34178
623.523	34122.41
623.879	34296.64
624.234	34187.49
624.589	34393.59
624.945	34395.4
625.3	34596.29
625.655	34554.94
626.01	34722.84
626.365	34748.38
626.72	34886.23
627.075	34885.78
627.43	34895.27
627.785	35076.51
628.14	35055.26
628.495	35208.48
628.85	35259.55
629.205	35119.22
629.559	35495.93
629.914	35301.13
630.269	35314.92
630.623	35225.2
630.978	35360.34
631.332	35438.53
631.687	35530.28
632.041	35380.45
632.396	35643.95
632.75	35494.58
633.104	35510.85
633.459	35525.99
633.813	35653.22
634.167	35523.5
634.521	35535.03
634.875	35569.15
635.229	35559.88
635.583	35552.2
635.937	35550.39
636.291	35580.22
636.645	35540.45
636.999	35612.99
637.352	35682.37
637.706	35460.45
638.06	35771.4
638.413	35663.38
638.767	35648.47
639.121	35677.62
639.474	35430.17
639.828	35402.83
640.181	35589.04
640.534	35436.5
640.888	35357.18
641.241	35446.44
641.594	35447.34
641.947	35516.95
642.301	35422.03
642.654	35550.84
643.007	35565.99
643.36	35508.36
643.713	35420.9
644.066	35542.71
644.419	35289.61
644.771	35142.49
645.124	34823.18
645.477	34806.01
645.83	34758.78
646.182	34425
646.535	34342.29
646.888	34493.02
647.24	34254.16
647.593	34507.03
647.945	34425.45
648.298	34270.88
648.65	34236.98
649.002	34163.54
649.355	34367.6
649.707	34200.15
650.059	34467.03
650.411	34806.91
650.763	34941.82
651.115	35216.39
651.467	35104.98
651.819	35173.23
652.171	35083.51
652.523	35139.56
652.875	34940.69
653.227	34953.8
653.578	35086.68
653.93	35064.98
654.282	34837.19
654.633	34893.69
654.985	34880.58
655.337	34933.69
655.688	34837.87
656.039	34894.59
656.391	34726.23
656.742	34700.47
657.094	34916.29
657.445	34935.04
657.796	34836.97
658.147	34875.61
658.498	34718.78
658.849	34959.22
659.2	34858.21
659.551	34816.4
659.902	34856.17
660.253	34895.72
660.604	34812.11
660.955	34575.05
661.306	34910.86
661.656	34871.09
662.007	34834.03
662.358	34676.29
662.708	34739.11
663.059	34671.09
663.409	34543.19
663.76	34658.66
664.11	34826.34
664.461	34763.52
664.811	34762.17
665.161	34741.37
665.511	34695.27
665.862	34711.09
666.212	34735.73
666.562	34789.96
666.912	34643.07
667.262	34552
667.612	34633.35
667.962	34673.13
668.312	34639.46
668.662	34735.95
669.011	34595.62
669.361	34512
669.711	34545.22
670.06	34430.42
670.41	34463.42
670.76	34318.11
671.109	34502.06
671.459	34412.8
671.808	34503.41
672.157	34616.86
672.507	34429.52
672.856	34454.83
673.205	34363.53
673.554	34512.23
673.904	34321.27
674.253	34585.67
674.602	34404.89
674.951	33797.9
675.3	33770.78
675.649	34196.08
675.998	34276.53
676.346	34235.63
676.695	34421.16
677.044	34074.73
677.393	34317.88
677.741	34376.41
678.09	34175.74
678.438	34191.56
678.787	34183.42
679.135	34168.73
679.484	33941.85
679.832	34005.12
680.181	34017.33
680.529	34034.73
680.877	33820.95
681.225	33822.98
681.573	34031.56
681.922	33859.82
682.27	33768.97
682.618	33800.38
682.966	33646.71
683.314	33673.38
683.661	33580.28
684.009	33425.48
684.357	33372.82
684.705	33449.43
685.053	33488.07
685.4	33305.48
685.748	33202.21
686.095	33284.01
686.443	33154.52
686.79	33043.11
687.138	33159.27
687.485	33036.79
687.832	33023
688.18	32875.89
688.527	32829.33
688.874	32816.45
689.221	32762.67
689.568	32657.36
689.915	32602.9
690.262	32591.15
690.609	32512.05
690.956	32311.83
691.303	32380.31
691.65	32145.51
691.997	32189.13
692.344	32014.44
692.69	31865.74
693.037	32068.45
693.383	31793.2
693.73	31967.89
694.077	31667.11
694.423	31618.29
694.769	31601.12
695.116	31582.36
695.462	31473.44
695.808	31420.78
696.155	31385.98
696.501	31188.02
696.847	31185.99
697.193	30866
697.539	31083.39
697.885	30826.68
698.231	30764.76
698.577	30851.31
698.923	30628.26
699.269	30487.48
699.614	30420.36
699.96	30393.69
700.306	30382.17
700.651	30336.07
700.997	30107.15
701.342	30174.72
701.688	30018.79
702.033	29973.59
702.379	29973.36
702.724	29972.01
703.069	30052.46
703.415	29557.33
703.76	29561.62
704.105	29678.68
704.45	29542.64
704.795	29459.93
705.14	29324.79
705.485	29356.21
705.83	29180.84
706.175	29243.89
706.52	29150.56
706.865	29070.79
707.209	28942.88
707.554	28911.02
707.899	28933.62
708.243	28753.51
708.588	28805.71
708.932	28660.63
709.277	28552.61
709.621	28704.7
709.966	28373.41
710.31	28510.8
710.654	28170.47
710.998	28251.83
711.342	28253.86
711.687	28256.57
712.031	27982.91
712.375	27959.63
712.719	27942.91
713.063	27917.37
713.407	28023.59
713.75	27899.52
714.094	27800.54
714.438	27669.24
714.782	27767.55
715.125	27475.13
715.469	27521.45
715.812	27419.53
716.156	27436.26
716.499	27453.43
716.843	27278.75
717.186	27280.55
717.53	27330.72
717.873	27386.77
718.216	27236.49
718.559	27114.91
718.902	27105.64
719.246	27081.24
719.589	27046.66
719.932	26919.21
720.275	26872.65
720.617	26780
720.96	26778.87
721.303	26750.17
721.646	26695.71
721.989	26615.03
722.331	26739.33
722.674	26425.21
723.016	26570.29
723.359	26490.74
723.701	26544.53
724.044	26341.82
724.386	26296.17
724.729	26387.92
725.071	26284.42
725.413	26321.26
725.755	26160.58
726.097	26194.93
726.439	26060.02
726.782	26006.01
727.124	26100.25
727.465	25968.05
727.807	25960.81
728.149	25885.56
728.491	25868.61
728.833	25972.79
729.175	25727.15
729.516	25666.59
729.858	25716.98
730.199	25649.86
730.541	25543.88
730.882	25586.36
731.224	25683.08
731.565	25458.23
731.906	25546.81
732.248	25568.06
732.589	25304.33
732.93	25271.12
733.271	25307.95
733.612	25338.68
733.953	25427.72
734.294	25243.32
734.635	25254.84
734.976	25134.17
735.317	24993.38
735.658	25148.86
735.999	25072.93
736.339	25036.55
736.68	25101.63
737.021	24917
737.361	24876.78
737.702	25020.95
738.042	24870.22
738.383	24785.03
738.723	24861.63
739.063	24599.95
739.404	24745.03
739.744	24686.72
740.084	24531.25
740.424	24633.62
740.764	24542.09
741.104	24608.31
741.444	24397.92
741.784	24363.79
742.124	24574.64
742.464	24307.98
742.804	24324.02
743.143	24247.87
743.483	24405.15
743.823	24223.46
744.162	24218.04
744.502	24272.05
744.841	24094.65
745.181	24222.56
745.52	24126.29
745.86	24139.17
746.199	24007.42
746.538	23935.78
746.877	24046.74
747.216	24058.27
747.556	23994.99
747.895	23948.66
748.234	23792.51
748.573	23789.12
748.911	23799.97
749.25	23803.58
749.589	23673.87
749.928	23670.93
750.267	23675.9
750.605	23579.18
750.944	23642.01
751.283	23404.05
751.621	23549.35
751.96	23420.32
752.298	23289.02
752.636	23326.53
752.975	23197.5
753.313	23109.36
753.651	23213.99
753.989	23155.46
754.327	23131.96
754.666	22946.2
755.004	22965.41
755.342	23023.26
755.679	22898.97
756.017	22782.14
756.355	22776.94
756.693	22736.49
757.031	22736.72
757.368	22626.66
757.706	22652.43
758.044	22533.56
758.381	22460.57
758.719	22327.46
759.056	22398.2
759.394	22327.01
759.731	22252.44
760.068	22147.81
760.405	22134.7
760.743	22028.71
761.08	21959.79
761.417	21963.86
761.754	21880.24
762.091	21869.62
762.428	21774.71
762.765	21726.8
763.102	21699.23
763.438	21491.33
763.775	21454.49
764.112	21412.23
764.449	21490.42
764.785	21337.21
765.122	21269.19
765.458	21181.73
765.795	21036.2
766.131	21073.03
766.467	20959.82
766.804	20892.02
767.14	20833.94
767.476	20761.63
767.812	20735.64
768.148	20639.15
768.485	20612.48
768.821	20562.31
769.157	20447.29
769.492	20364.13
769.828	20353.28
770.164	20248.42
770.5	20215.2
770.836	20128.43
771.171	20087.07
771.507	20101.31
771.842	19876.23
772.178	19846.63
772.513	19823.12
772.849	19790.36
773.184	19611.38
773.519	19683.24
773.855	19546.29
774.19	19472.62
774.525	19320.31
774.86	19432.17
775.195	19377.71
775.53	19170.26
775.865	19189.24
776.2	19024.05
776.535	18855.46
776.87	18842.36
777.205	18864.05
777.539	18766.65
777.874	18747.9
778.209	18562.59
778.543	18607.11
778.878	18407.34
779.212	18456.61
779.547	18348.59
779.881	18327.12
780.215	18164.64
780.55	18258.87
780.884	18151.75
781.218	18081.47
781.552	18141.13
781.886	17917.41
782.22	17937.97
782.554	17771.88
782.888	17703.63
783.222	17564.2
783.556	17505.9
783.889	17514.93
784.223	17391.1
784.557	17343.41
784.89	17436.29
785.224	17264.32
785.557	17208.28
785.891	17086.25
786.224	17081.5
786.558	17078.79
786.891	16975.06
787.224	16878.57
787.557	16799.7
787.891	16825.24
788.224	16699.82
788.557	16813.71
788.89	16675.18
789.223	16652.58
789.556	16544.11
789.888	16406.49
790.221	16432.7
790.554	16287.62
790.887	16255.76
791.219	16187.96
791.552	16197.68
791.884	16178.02
792.217	16116.33
792.549	16003.11
792.882	15953.62
793.214	15808.77
793.546	15806.96
793.879	15818.26
794.211	15596.57
794.543	15792.72
794.875	15716.11
795.207	15609
795.539	15515.89
795.871	15494.88
796.203	15410.36
796.535	15298.04
796.867	15310.25
797.198	15247.42
797.53	15241.1
797.862	15063.02
798.193	15152.06
798.525	15001.55
798.856	15078.61
799.188	14945.74
799.519	14908
799.85	14775.12
800.182	14788.23
800.513	14836.14
800.844	14639.3
801.175	14691.51
801.506	14733.54
801.837	14625.52
802.168	14652.86
802.499	14491.74
802.83	14483.6
803.161	14391.4
803.491	14403.6
803.822	14415.58
804.153	14334
804.483	14216.94
804.814	14181.01
805.145	14232.54
805.475	14230.73
805.805	14078.87
806.136	14044.74
806.466	14089.94
806.796	14067.57
807.126	13931.75
807.457	13876.16
807.787	13845.2
808.117	13841.36
808.447	13727.24
808.777	13734.92
809.107	13824.18
809.436	13606.79
809.766	13696.05
810.096	13674.81
810.426	13521.37
810.755	13584.42
811.085	13462.61
811.414	13448.83
811.744	13383.29
812.073	13351.65
812.403	13359.56
812.732	13214.03
813.061	13332.67
813.39	13173.35
813.719	13149.4
814.049	13259
814.378	13146.46
814.707	13116.18
815.036	13121.15
815.365	13013.13
815.693	12940.59
816.022	12995.05
816.351	12903.76
816.68	12815.4
817.008	12879.35
817.337	12713.25
817.665	12754.16
817.994	12759.13
818.322	12805.45
818.651	12613.82
818.979	12614.05
819.307	12729.52
819.636	12592.58
819.964	12682.97
820.292	12538.12
820.62	12588.28
820.948	12627.15
821.276	12539.02
821.604	12532.92
821.932	12527.5
822.259	12493.82
822.587	12511
822.915	12405.01
823.243	12488.4
823.57	12532.69
823.898	12510.09
824.225	12440.94
824.553	12382.41
824.88	12417.67
825.207	12449.98
825.535	12385.8
825.862	12434.39
826.189	12318.91
826.516	12483.43
826.843	12479.81
827.17	12429.87
827.497	12436.65
827.824	12405.46
828.151	12441.62
828.478	12380.83
828.805	12458.8
829.131	12383.32
829.458	12343.32
829.785	12364.79
830.111	12407.95
830.438	12420.15
830.764	12353.71
831.09	12373.83
831.417	12351.91
831.743	12364.34
832.069	12399.14
832.395	12305.81
832.722	12358.46
833.048	12286.82
833.374	12339.25
833.7	12280.5
834.026	12232.36
834.351	12275.75
834.677	12273.94
835.003	12242.31
835.329	12223.1
835.654	12204.79
835.98	12113.72
836.306	12209.54
836.631	12170.67
836.956	12182.87
837.282	12187.17
837.607	12026.04
837.932	12074.17
838.258	12029.88
838.583	12114.17
838.908	12004.57
839.233	11949.66
839.558	11942.43
839.883	11881.86
840.208	11864.91
840.533	11901.75
840.858	11908.75
841.182	11845.03
841.507	11854.52
841.832	11814.29
842.156	11756.22
842.481	11798.02
842.805	11773.39
843.13	11744.24
843.454	11736.33
843.778	11654.75
844.103	11556.45
844.427	11557.13
844.751	11575.43
845.075	11555.32
845.399	11546.05
845.723	11465.15
846.047	11507.18
846.371	11375.89
846.695	11448.88
847.019	11349.67
847.343	11234.87
847.666	11266.29
847.99	11151.71
848.313	11108.55
848.637	11047.76
848.96	11062
849.284	11020.64
849.607	10994.65
849.931	10931.61
850.254	10874.66
850.577	10776.58
850.9	10768.9
851.223	10778.84
851.546	10666.3
851.869	10556.47
852.192	10670.82
852.515	10558.73
852.838	10438.74
853.161	10495.46
853.483	10370.26
853.806	10408
854.129	10418.62
854.451	10359.64
854.774	10262.47
855.096	10261.57
855.419	10256.37
855.741	10245.07
856.063	10159.2
856.385	10123.04
856.708	10130.72
857.03	10093.21
857.352	10081.68
857.674	10037.17
857.996	10013.44
858.318	9927.11
858.64	9945.64
858.961	9866.1
859.283	9863.38
859.605	9816.38
859.926	9838.3
860.248	9768.47
860.57	9755.82
860.891	9725.08
861.212	9729.15
861.534	9725.31
861.855	9717.85
862.176	9679.21
862.498	9539.55
862.819	9687.8
863.14	9636.27
863.461	9541.59
863.782	9629.72
864.103	9511.76
864.424	9529.16
864.745	9608.48
865.065	9497.52
865.386	9477.41
865.707	9440.57
866.027	9456.62
866.348	9424.53
866.668	9390.63
866.989	9425.2
867.309	9348.14
867.63	9379.78
867.95	9313.12
868.27	9271.31
868.59	9253.46
868.91	9293
869.23	9300.91
869.55	9199
869.87	9254.36
870.19	9252.33
870.51	9214.59
870.83	9226.34
871.15	9101.14
871.469	9150.86
871.789	9235.6
872.109	9165.78
872.428	9093.46
872.748	9151.31
873.067	9135.49
873.386	9130.75
873.706	9086.68
874.025	9014.37
874.344	9041.26
874.663	8991.09
874.982	9077.42
875.301	8992
875.62	8966.91
875.939	8965.1
876.258	8982.28
876.577	8973.69
876.896	8921.71
877.214	8878.78
877.533	8883.3
877.852	8872.22
878.17	8824.54
878.489	8883.98
878.807	8916.74
879.125	8816.18
879.444	8835.62
879.762	8821.38
880.08	8819.8
880.398	8800.14
880.716	8744.32
881.034	8727.14
881.352	8700.03
881.67	8680.36
881.988	8703.42
882.306	8614.15
882.624	8675.85
882.941	8602.17
883.259	8543.42
883.577	8522.85
883.894	8527.37
884.212	8532.8
884.529	8519.69
884.846	8524.89
885.164	8462.74
885.481	8475.17
885.798	8545.23
886.115	8370.32
886.432	8400.82
886.75	8386.81
887.067	8368.28
887.383	8356.31
887.7	8349.98
888.017	8293.71
888.334	8310.21
888.651	8268.62
888.967	8219.36
889.284	8232.24
889.6	8154.05
889.917	8217.78
890.233	8188.17
890.55	8135.29
890.866	8074.28
891.182	8063.88
891.498	8043.32
891.815	8014.17
892.131	8076.77
892.447	8050.78
892.763	7940.72
893.079	7994.28
893.395	7959.93
893.71	7886.71
894.026	7838.35
894.342	7882.19
894.657	7799.48
894.973	7821.86
895.289	7846.26
895.604	7795.19
895.92	7648.53
896.235	7717.68
896.55	7667.06
896.865	7674.74
897.181	7694.63
897.496	7571.69
897.811	7561.3
898.126	7518.14
898.441	7542.32
898.756	7502.32
899.071	7435.65
899.386	7470.45
899.7	7362.43
900.015	7330.8
900.33	7403.34
900.644	7321.76
900.959	7318.82
901.273	7284.92
901.588	7211.7
901.902	7222.78
902.216	7132.38
902.531	7168.09
902.845	7120.63
903.159	7145.49
903.473	7017.13
903.787	7044.48
904.101	6993.4
904.415	7065.27
904.729	7003.8
905.042	6948.43
905.356	6944.14
905.67	6919.51
905.984	6953.86
906.297	6940.52
906.611	6837.7
906.924	6813.52
907.237	6791.6
907.551	6808.55
907.864	6757.7
908.177	6710.02
908.491	6680.87
908.804	6667.76
909.117	6634.77
909.43	6575.56
909.743	6540.08
910.056	6504.83
910.368	6539.63
910.681	6474.77
910.994	6464.83
911.307	6442.68
911.619	6427.09
911.932	6456.24
912.244	6379.18
912.557	6376.24
912.869	6303.25
913.181	6253.54
913.494	6310.03
913.806	6267.77
914.118	6236.14
914.43	6185.97
914.742	6192.29
915.054	6168.34
915.366	6123.6
915.678	6089.92
915.99	6048.57
916.302	6005.86
916.613	5999.31
916.925	5993.88
917.236	6017.38
917.548	5959.08
917.859	5938.74
918.171	5936.03
918.482	5920.66
918.794	5877.05
919.105	5851.96
919.416	5819.88
919.727	5798.18
920.038	5766.77
920.349	5748.01
920.66	5713.21
920.971	5678.86
921.282	5640.44
921.593	5605.42
921.903	5620.33
922.214	5597.28
922.525	5598.41
922.835	5556.15
923.146	5515.7
923.456	5541.46
923.767	5482.03
924.077	5473.67
924.387	5438.64
924.697	5413.33
925.008	5415.14
925.318	5360.9
925.628	5362.94
925.938	5355.93
926.248	5248.36
926.558	5287.46
926.867	5282.49
927.177	5211.3
927.487	5223.51
927.796	5133.34
928.106	5154.36
928.416	5180.34
928.725	5152.32
929.034	5153.23
929.344	5116.16
929.653	5068.93
929.962	5021.7
930.271	5059.9
930.581	4983.51
930.89	4982.16
931.199	4952.1
931.508	4909.84
931.817	4917.75
932.125	4962.72
932.434	4896.51
932.743	4839.34
933.051	4840.24
933.36	4822.61
933.669	4807.47
933.977	4799.11
934.286	4724.31
934.594	4706.46
934.902	4719.11
935.21	4688.15
935.519	4695.61
935.827	4644.76
936.135	4644.99
936.443	4583.75
936.751	4593.47
937.059	4572.45
937.367	4536.97
937.674	4542.62
937.982	4502.85
938.29	4518.44
938.597	4460.81
938.905	4463.98
939.213	4442.74
939.52	4441.83
939.827	4432.12
940.135	4370.87
940.442	4317.09
940.749	4351.21
941.056	4310.31
941.363	4308.05
941.67	4275.28
941.977	4321.84
942.284	4228.73
942.591	4218.11
942.898	4247.04
943.205	4200.03
943.511	4207.26
943.818	4135.85
944.125	4131.78
944.431	4117.77
944.738	4086.81
945.044	4103.08
945.35	4038
945.657	4041.62
945.963	4015.18
946.269	4026.7
946.575	4057.66
946.881	3981.05
947.187	3983.77
947.493	3968.4
947.799	3944.44
948.105	3939.92
948.41	3859.93
948.716	3917.55
949.022	3905.35
949.327	3865.58
949.633	3842.53
949.938	3832.13
950.244	3811.11
950.549	3786.71
950.854	3749.2
951.16	3790.32
951.465	3758.01
951.77	3718.69
952.075	3717.78
952.38	3708.97
952.685	3716.43
952.99	3622.64
953.294	3627.39
953.599	3608.41
953.904	3620.39
954.209	3591.23
954.513	3609.09
954.818	3557.56
955.122	3567.05
955.426	3528.41
955.731	3542.87
956.035	3512.14
956.339	3471.69
956.643	3502.42
956.948	3488.19
957.252	3432.14
957.556	3420.84
957.86	3377.23
958.163	3413.61
958.467	3370.67
958.771	3370.67
959.075	3425.81
959.378	3338.81
959.682	3351.69
959.985	3345.82
960.289	3327.96
960.592	3316.21
960.896	3301.75
961.199	3282.09
961.502	3265.59
961.805	3231.92
962.108	3217.46
962.411	3210.23
962.714	3202.99
963.017	3232.82
963.32	3176.33
963.623	3148.08
963.926	3167.74
964.228	3193.05
964.531	3129.78
964.833	3130.91
965.136	3098.36
965.438	3066.95
965.741	3048.2
966.043	3025.82
966.345	3039.61
966.648	3042.77
966.95	2993.06
967.252	2980.63
967.554	2979.72
967.856	3004.13
968.158	2960.06
968.46	2972.49
968.761	2938.37
969.063	2924.13
969.365	2950.57
969.666	2916.22
969.968	2862.89
970.269	2868.09
970.571	2851.14
970.872	2873.29
971.174	2832.38
971.475	2815.21
971.776	2817.02
972.077	2771.14
972.378	2784.7
972.679	2749.67
972.98	2777.7
973.281	2736.79
973.582	2738.37
973.883	2770.01
974.183	2730.69
974.484	2702.22
974.785	2695.44
975.085	2669.9
975.386	2663.35
975.686	2637.59
975.986	2658.83
976.287	2624.25
976.587	2608.66
976.887	2621.32
977.187	2613.86
977.487	2576.34
977.787	2587.19
978.087	2571.6
978.387	2553.52
978.687	2545.39
978.987	2543.58
979.286	2536.57
979.586	2502.45
979.885	2497.25
980.185	2471.94
980.484	2472.39
980.784	2477.14
981.083	2488.21
981.382	2455.67
981.682	2450.47
981.981	2454.77
982.28	2447.99
982.579	2409.34
982.878	2435.11
983.177	2379.74
983.475	2366.18
983.774	2373.86
984.073	2361.44
984.372	2349.23
984.67	2332.06
984.969	2326.18
985.267	2333.41
985.566	2321.44
985.864	2288.67
986.162	2280.31
986.461	2271.04
986.759	2252.29
987.057	2226.75
987.355	2233.53
987.653	2264.94
987.951	2237.37
988.249	2223.81
988.547	2195.34
988.844	2171.38
989.142	2227.88
989.44	2140.88
989.737	2186.3
990.035	2146.3
990.332	2131.38
990.63	2140.88
990.927	2145.4
991.224	2127.32
991.521	2092.29
991.819	2113.53
992.116	2102.91
992.413	2068.79
992.71	2077.15
993.006	2083.93
993.303	2045.51
993.6	2055.45
993.897	2024.49
994.193	2049.8
994.49	2017.94
994.787	2003.03
995.083	1982.46
995.379	1984.72
995.676	1965.29
995.972	1961.9
996.268	1984.27
996.565	1975.91
996.861	1953.08
997.157	1930.71
997.453	1909.7
997.749	1901.11
998.044	1916.7
998.34	1880.09
998.636	1876.25
998.932	1886.65
999.227	1861.56
999.523	1889.81
999.818	1838.51
1000.114	1833.77
1000.409	1803.26
1000.704	1852.97
1001	1826.08
1001.295	1788.34
1001.59	1778.17
1001.885	1781.11
1002.18	1764.39
1002.475	1780.66
1002.77	1773.65
1003.065	1730.49
1003.359	1768.46
1003.654	1758.97
1003.949	1722.81
1004.243	1736.59
1004.538	1686.88
1004.832	1716.03
1005.127	1714.45
1005.421	1681.68
1005.715	1664.73
1006.009	1657.5
1006.304	1652.3
1006.598	1647.33
1006.892	1620.21
1007.186	1616.82
1007.48	1600.1
1007.773	1606.43
1008.067	1568.24
1008.361	1602.58
1008.655	1557.16
1008.948	1557.39
1009.242	1546.54
1009.535	1568.46
1009.829	1532.3
1010.122	1561
1010.415	1497.5
1010.708	1494.57
1011.001	1509.03
1011.295	1494.79
1011.588	1511.51
1011.881	1499.08
1012.173	1469.71
1012.466	1489.37
1012.759	1448.24
1013.052	1455.7
1013.344	1448.01
1013.637	1425.87
1013.93	1434.45
1014.222	1413.21
1014.514	1421.35
1014.807	1396.94
1015.099	1392.2
1015.391	1394.45
1015.683	1389.94
1015.976	1370.05
1016.268	1384.29
1016.56	1372.76
1016.851	1335.7
1017.143	1347.22
1017.435	1327.56
1017.727	1289.6
1018.018	1311.97
1018.31	1320.78
1018.602	1301.12
1018.893	1312.65
1019.185	1262.71
1019.476	1304.97
1019.767	1263.61
1020.058	1265.42
1020.35	1265.19
1020.641	1257.06
1020.932	1248.47
1021.223	1262.03
1021.514	1216.61
1021.804	1215.25
1022.095	1198.98
1022.386	1211.41
1022.677	1198.53
1022.967	1193.78
1023.258	1202.82
1023.548	1158.53
1023.839	1155.37
1024.129	1165.31
1024.419	1141.35
1024.709	1162.6
1025	1119.43
1025.29	1122.15
1025.58	1100.9
1025.87	1095.93
1026.16	1102.71
1026.449	1093.9
1026.739	1086.67
1027.029	1096.84
1027.319	1083.73
1027.608	1067.23
1027.898	1052.09
1028.187	1085.08
1028.477	1084.63
1028.766	1057.51
1029.055	1053.67
1029.344	1010.96
1029.634	988.14
1029.923	1034.46
1030.212	1010.28
1030.501	1013.45
1030.79	1005.76
1031.078	1038.31
1031.367	1001.47
1031.656	987.46
1031.945	991.08
1032.233	986.78
1032.522	984.97
1032.81	957.63
1033.099	936.84
1033.387	951.98
1033.675	951.75
1033.963	937.07
1034.251	942.04
1034.54	909.5
1034.828	915.6
1035.116	932.55
1035.403	902.04
1035.691	891.87
1035.979	881.7
1036.267	889.38
1036.554	897.52
1036.842	884.64
1037.129	873.11
1037.417	854.81
1037.704	868.59
1037.992	844.19
1038.279	872.21
1038.566	843.73
1038.853	843.73
1039.14	843.73
