Data from hue_160_FLMS001491_00096.txt Node
Date: Tue Feb 07 16:51:57 GMT 2017
User: dcchb
Spectrometer: FLMS00149
Trigger mode: 0
Integration Time (sec): 2.000000E-2
Scans to average: 10
Electric dark correction enabled: true
Nonlinearity correction enabled: false
Boxcar width: 0
XAxis mode: Wavelengths
Number of Pixels in Spectrum: 2048
>>>>>Begin Spectral Data<<<<<
341.393	4.48
341.776	4.48
342.16	4.48
342.543	-64.45
342.927	-43.66
343.31	-73.71
343.693	-57.22
344.077	-67.39
344.46	-66.71
344.843	-56.09
345.226	-31.91
345.61	-27.84
345.993	-15.64
346.376	-12.25
346.759	14.42
347.142	9.67
347.525	21.88
347.908	75.21
348.291	93.51
348.674	85.15
349.057	108.88
349.44	115.89
349.823	136.23
350.206	166.96
350.588	201.31
350.971	214.64
351.354	222.55
351.737	222.32
352.119	260.06
352.502	278.82
352.884	281.98
353.267	259.84
353.65	298.25
354.032	312.49
354.414	283.79
354.797	307.29
355.179	315.43
355.562	318.37
355.944	324.02
356.326	338.03
356.709	328.54
357.091	342.77
357.473	347.07
357.855	327.63
358.238	347.75
358.62	356.11
359.002	347.29
359.384	331.25
359.766	352.26
360.148	315.43
360.53	352.04
360.912	316.79
361.294	324.24
361.676	332.15
362.057	365.82
362.439	332.15
362.821	329.67
363.203	337.35
363.584	324.02
363.966	304.58
364.348	324.24
364.729	333.28
365.111	310.46
365.493	305.49
365.874	319.27
366.256	307.07
366.637	324.69
367.019	313.85
367.4	298.71
367.781	309.1
368.163	320.85
368.544	328.99
368.925	302.1
369.306	323.56
369.688	305.49
370.069	316.11
370.45	314.98
370.831	331.7
371.212	300.51
371.593	317.92
371.974	321.53
372.355	313.17
372.736	308.42
373.117	326.73
373.498	324.69
373.879	321.76
374.26	328.76
374.641	321.31
375.021	300.51
375.402	324.69
375.783	324.47
376.163	314.53
376.544	324.92
376.925	322.89
377.305	328.08
377.686	339.61
378.066	317.46
378.447	324.69
378.827	327.41
379.208	336.9
379.588	325.82
379.968	332.6
380.349	330.34
380.729	326.05
381.109	331.93
381.489	348.42
381.87	333.96
382.25	349.78
382.63	334.41
383.01	366.05
383.39	345.03
383.77	354.07
384.15	338.25
384.53	323.34
384.91	343.45
385.29	367.86
385.67	341.42
386.049	341.64
386.429	370.34
386.809	346.16
387.189	365.37
387.568	348.2
387.948	351.13
388.328	359.27
388.707	350.23
389.087	344.81
389.466	357.01
389.846	347.29
390.225	374.19
390.605	382.77
390.984	355.43
391.363	362.21
391.743	384.13
392.122	368.76
392.501	363.34
392.881	356.33
393.26	389.55
393.639	376.9
394.018	403.79
394.397	368.54
394.776	387.29
395.155	366.5
395.534	381.42
395.913	391.59
396.292	380.29
396.671	388.2
397.05	386.84
397.429	380.74
397.808	373.96
398.186	394.52
398.565	404.69
398.944	381.19
399.323	383.45
399.701	392.72
400.08	391.59
400.458	399.04
400.837	389.55
401.215	391.81
401.594	385.26
401.972	386.61
402.351	396.11
402.729	410.34
403.107	385.26
403.486	411.7
403.864	424.35
404.242	402.66
404.62	418.03
404.999	430.45
405.377	410.79
405.755	424.13
406.133	413.05
406.511	411.02
406.889	427.29
407.267	447.63
407.645	420.29
408.023	421.64
408.401	434.07
408.779	432.49
409.156	456.67
409.534	447.86
409.912	474.07
410.29	459.15
410.667	471.81
411.045	457.8
411.422	471.58
411.8	465.03
412.178	464.35
412.555	464.58
412.933	472.49
413.31	494.41
413.687	491.47
414.065	503.45
414.442	496.67
414.819	512.03
415.197	491.47
415.574	491.7
415.951	506.61
416.328	513.39
416.705	500.96
417.082	513.16
417.46	506.16
417.837	515.65
418.214	508.19
418.591	514.75
418.967	533.95
419.344	526.72
419.721	526.05
420.098	539.83
420.475	541.86
420.852	543.67
421.228	531.47
421.605	543.67
421.982	552.26
422.358	555.88
422.735	564.69
423.111	559.94
423.488	557.68
423.864	575.54
424.241	555.2
424.617	576.67
424.994	609.66
425.37	587.96
425.746	586.38
426.123	606.95
426.499	610.34
426.875	617.12
427.251	602.88
427.627	620.73
428.003	620.28
428.379	616.21
428.756	642.65
429.132	629.77
429.507	628.19
429.883	641.97
430.259	641.07
430.635	651.92
431.011	647.17
431.387	671.35
431.763	687.17
432.138	665.93
432.514	685.14
432.89	690.33
433.265	706.83
433.641	728.53
434.016	706.38
434.392	707.51
434.767	721.75
435.143	734.18
435.518	738.7
435.894	746.83
436.269	739.6
436.644	750.67
437.02	762.88
437.395	758.58
437.77	789.99
438.145	804.46
438.52	811.91
438.895	791.8
439.271	802.65
439.646	821.86
440.021	816.89
440.395	831.57
440.77	822.08
441.145	846.72
441.52	847.39
441.895	862.08
442.27	856.43
442.645	857.79
443.019	869.77
443.394	850.56
443.769	889.65
444.143	878.58
444.518	903.66
444.892	875.41
445.267	916.09
445.641	897.79
446.016	901.85
446.39	891.91
446.764	923.55
447.139	934.85
447.513	936.66
447.887	935.75
448.262	950.89
448.636	932.14
449.01	964
449.384	986.82
449.758	985.02
450.132	1006.03
450.506	971.68
450.88	998.12
451.254	995.86
451.628	989.54
452.002	1021.85
452.376	1025.47
452.75	1039.03
453.123	1048.52
453.497	1054.17
453.871	1098.46
454.244	1087.39
454.618	1092.81
454.992	1120.61
455.365	1080.38
455.739	1131.91
456.112	1148.63
456.486	1159.25
456.859	1163.09
457.232	1193.6
457.606	1183.2
457.979	1202.41
458.352	1206.48
458.725	1223.88
459.099	1259.36
459.472	1278.57
459.845	1291.22
460.218	1288.96
460.591	1289.87
460.964	1321.05
461.337	1348.4
461.71	1358.57
462.083	1377.55
462.456	1371.45
462.829	1413.25
463.201	1440.6
463.574	1396.98
463.947	1441.73
464.32	1468.17
464.692	1478.34
465.065	1509.3
465.438	1492.8
465.81	1532.35
466.183	1556.75
466.555	1589.97
466.928	1623.64
467.3	1591.55
467.672	1640.59
468.045	1709.52
468.417	1722.4
468.789	1716.75
469.161	1741.15
469.534	1782.51
469.906	1836.97
470.278	1825.22
470.65	1888.04
471.022	1953.13
471.394	1984.54
471.766	2000.36
472.138	1991.54
472.51	2055.72
472.882	2103.18
473.253	2157.64
473.625	2180.24
473.997	2236.73
474.369	2299.33
474.74	2326.9
475.112	2371.65
475.484	2445.32
475.855	2457.07
476.227	2527.12
476.598	2587.91
476.97	2638.08
477.341	2743.16
477.713	2800.11
478.084	2830.39
478.455	2944.29
478.827	2959.43
479.198	3116.49
479.569	3150.16
479.94	3270.38
480.311	3298.63
480.682	3429.02
481.053	3483.71
481.424	3572.29
481.795	3691.16
482.166	3759.86
482.537	3870.14
482.908	3939.74
483.279	4043.24
483.65	4178.15
484.021	4313.74
484.391	4373.4
484.762	4478.94
485.133	4520.97
485.503	4649.1
485.874	4817.91
486.244	4897.91
486.615	5021.52
486.985	5134.74
487.356	5235.3
487.726	5311.46
488.097	5557.55
488.467	5622.63
488.837	5791.22
489.207	5853.14
489.578	6030.08
489.948	6150.53
490.318	6304.65
490.688	6359.34
491.058	6520.69
491.428	6673
491.798	6774.02
492.168	6944.41
492.538	6979.21
492.908	7126.1
493.278	7263.04
493.648	7355.47
494.017	7564.28
494.387	7621.68
494.757	7742.8
495.126	7860.77
495.496	7929.24
495.866	8035
496.235	8158.39
496.605	8317.25
496.974	8425.05
497.344	8494.88
497.713	8617.13
498.082	8768.77
498.452	8834.75
498.821	8943.45
499.19	9001.08
499.559	9158.81
499.928	9225.03
500.298	9291.92
500.667	9437.45
501.036	9464.79
501.405	9617.56
501.774	9655.75
502.143	9682.41
502.512	9803.09
502.88	9941.62
503.249	9978.68
503.618	10016.42
503.987	10124.89
504.356	10206.69
504.724	10226.58
505.093	10303.64
505.462	10377.54
505.83	10422.73
506.199	10557.42
506.567	10658.89
506.936	10565.78
507.304	10776.85
507.672	10858.2
508.041	10864.53
508.409	10941.59
508.777	11108.82
509.145	11189.72
509.514	11121.93
509.882	11164.18
510.25	11188.36
510.618	11259.32
510.986	11307.23
511.354	11384.97
511.722	11441.69
512.09	11599.65
512.458	11470.84
512.826	11585.87
513.193	11685.98
513.561	11656.83
513.929	11702.93
514.297	11852.75
514.664	11870.38
515.032	11886.2
515.4	11991.51
515.767	11905.41
516.135	12023.37
516.502	11852.3
516.869	12120.77
517.237	12130.26
517.604	12084.39
517.972	12164.16
518.339	12230.82
518.706	12229.92
519.073	12194.89
519.44	12315.79
519.808	12375.68
520.175	12240.77
520.542	12393.08
520.909	12458.16
521.276	12369.58
521.643	12504.04
522.009	12507.88
522.376	12574.77
522.743	12588.55
523.11	12583.13
523.477	12722.56
523.843	12666.74
524.21	12757.14
524.577	12831.48
524.943	12899.05
525.31	12857.02
525.676	12940.63
526.043	12876.68
526.409	12948.77
526.776	13046.62
527.142	12992.38
527.508	12964.81
527.874	13001.2
528.241	13064.02
528.607	13026.28
528.973	13088.43
529.339	13003.68
529.705	13117.8
530.071	13184.92
530.437	13142.89
530.803	13130.69
531.169	13112.38
531.535	13007.75
531.901	13018.6
532.267	13041.2
532.632	13071.93
532.998	13080.52
533.364	13005.94
533.73	13018.82
534.095	13123.23
534.461	12928.21
534.826	13084.81
535.192	13029.9
535.557	12975.89
535.923	12943.8
536.288	13011.59
536.653	12958.03
537.019	12977.02
537.384	12890.01
537.749	12891.82
538.114	12890.47
538.479	12840.07
538.845	12863.8
539.21	12777.93
539.575	12771.83
539.94	12718.95
540.305	12735.44
540.67	12716.69
541.034	12675.56
541.399	12676.46
541.764	12634.2
542.129	12620.64
542.494	12507.88
542.858	12566.18
543.223	12512.17
543.587	12532.96
543.952	12370.93
544.316	12445.73
544.681	12384.26
545.045	12365.28
545.41	12366.86
545.774	12367.99
546.138	12251.39
546.503	12291.16
546.867	12157.15
547.231	12296.81
547.595	12216.81
547.959	12154.67
548.324	12165.29
548.688	12059.53
549.052	12070.83
549.416	12016.36
549.779	12032.64
550.143	11911.51
550.507	11961.9
550.871	11935.01
551.235	11935.24
551.599	11873.09
551.962	11864.28
552.326	11849.36
552.689	11799.65
553.053	11737.5
553.417	11745.19
553.78	11926.2
554.143	11800.55
554.507	11714.45
554.87	11823.83
555.234	11828.35
555.597	11663.38
555.96	11688.69
556.323	11688.92
556.686	11664.51
557.05	11644.4
557.413	11662.48
557.776	11716.71
558.139	11709.48
558.502	11686.43
558.865	11613.44
559.228	11624.06
559.59	11637.17
559.953	11611.4
560.316	11704.28
560.679	11613.21
561.041	11687.79
561.404	11673.32
561.767	11723.27
562.129	11573.44
562.492	11721.01
562.854	11736.6
563.217	11600.1
563.579	11627.45
563.941	11726.43
564.304	11677.39
564.666	11784.05
565.028	11755.35
565.39	11754.68
565.753	11752.42
566.115	11745.86
566.477	11754.9
566.839	11772.76
567.201	11850.27
567.563	11741.34
567.925	11851.4
568.287	11851.4
568.648	11810.95
569.01	11891.85
569.372	11897.05
569.734	11836.93
570.095	11835.35
570.457	11950.38
570.819	11868.57
571.18	11874.22
571.542	11917.16
571.903	11870.83
572.265	11944.28
572.626	11996.93
572.987	12014.33
573.349	11995.35
573.71	11946.99
574.071	11984.5
574.432	12074.22
574.794	11993.09
575.155	12031.51
575.516	11961
575.877	12066.31
576.238	12068.34
576.599	12101.56
576.96	12041.22
577.32	12026.08
577.681	12092.3
578.042	12081.67
578.403	12073.54
578.763	12091.17
579.124	12108.79
579.485	12222.01
579.845	12087.1
580.206	12184.72
580.566	12172.74
580.927	12095.01
581.287	12082.13
581.648	12022.24
582.008	12084.39
582.368	12103.14
582.728	12135.46
583.089	12087.55
583.449	12069.7
583.809	12032.41
584.169	11997.83
584.529	11957.84
584.889	12151.95
585.249	12029.02
585.609	11934.11
585.969	11981.56
586.329	11990.38
586.688	12005.07
587.048	11976.37
587.408	11983.37
587.768	11968.68
588.127	11931.62
588.487	11998.06
588.846	11988.79
589.206	11947.89
589.565	11929.36
589.925	12034.44
590.284	12009.59
590.643	11976.59
591.003	11910.83
591.362	11958.29
591.721	11967.33
592.08	11906.54
592.44	11953.09
592.799	11876.26
593.158	11844.39
593.517	11892.07
593.876	11924.84
594.235	11890.27
594.593	11840.78
594.952	11824.28
595.311	11773.66
595.67	11841.45
596.029	11937.5
596.387	11926.88
596.746	11908.8
597.104	11797.39
597.463	11817.27
597.822	11908.12
598.18	11799.42
598.538	11831.51
598.897	11897.05
599.255	11739.76
599.613	11874.45
599.972	11814.34
600.33	11833.77
600.688	11797.16
601.046	11881.23
601.404	11882.36
601.762	11867.22
602.12	11838.74
602.478	11773.21
602.836	11804.84
603.194	11751.29
603.552	11808.01
603.91	11825.18
604.268	11832.64
604.625	11833.54
604.983	11816.37
605.341	11714.9
605.698	11814.34
606.056	11862.7
606.413	11824.28
606.771	12011.39
607.128	11881
607.485	11855.69
607.843	11880.1
608.2	11901.79
608.557	11888.23
608.914	11925.29
609.272	11899.76
609.629	11967.33
609.986	11995.35
610.343	11872.64
610.7	12039.19
611.057	11973.43
611.414	11962.81
611.771	11942.02
612.127	12018.4
612.484	12008.68
612.841	12100.88
613.198	11944.5
613.554	11976.59
613.911	12086.42
614.267	12064.05
614.624	11974.56
614.98	12015.46
615.337	12057.95
615.693	12025.86
616.05	12067.66
616.406	12087.1
616.762	12045.52
617.118	12079.19
617.475	12095.68
617.831	12199.18
618.187	12164.38
618.543	12102.92
618.899	12283.93
619.255	12233.31
619.611	12192.86
619.967	12269.47
620.323	12232.86
620.678	12203.48
621.034	12223.82
621.39	12169.81
621.746	12230.37
622.101	12268.56
622.457	12203.03
622.812	12212.29
623.168	12200.31
623.523	12187.66
623.879	12255.91
624.234	12147.89
624.589	12183.59
624.945	12183.59
625.3	12199.64
625.655	12185.17
626.01	12190.82
626.365	12215
626.72	12182.69
627.075	12136.14
627.43	12174.33
627.785	12150.82
628.14	12197.83
628.495	12142.01
628.85	12066.31
629.205	12124.84
629.559	12174.55
629.914	12092.52
630.269	12110.37
630.623	12089.81
630.978	12050.04
631.332	12167.1
631.687	12090.04
632.041	12064.05
632.396	12089.81
632.75	12015.69
633.104	11991.51
633.459	11894.79
633.813	11962.81
634.167	11962.35
634.521	11966.2
634.875	12044.16
635.229	11981.34
635.583	11921.45
635.937	11872.19
636.291	11795.81
636.645	11864.73
636.999	11912.86
637.352	11867.44
637.706	11763.04
638.06	11853.43
638.413	11836.03
638.767	11780.21
639.121	11777.73
639.474	11784.05
639.828	11779.31
640.181	11829.03
640.534	11716.71
640.888	11746.99
641.241	11762.36
641.594	11721.01
641.947	11649.82
642.301	11596.26
642.654	11657.28
643.007	11700.67
643.36	11684.4
643.713	11598.75
644.066	11681.91
644.419	11543.61
644.771	11516.72
645.124	11476.72
645.477	11387
645.83	11317.17
646.182	11273.79
646.535	11288.93
646.888	11313.56
647.24	11180.45
647.593	11289.38
647.945	11283.28
648.298	11258.64
648.65	11206.89
649.002	11226.33
649.355	11326.21
649.707	11226.56
650.059	11335.7
650.411	11394.69
650.763	11495.7
651.115	11518.98
651.467	11478.53
651.819	11468.13
652.171	11530.05
652.523	11409.38
652.875	11532.99
653.227	11410.73
653.578	11520.56
653.93	11476.94
654.282	11420
654.633	11449.83
654.985	11426.55
655.337	11499.99
655.688	11525.3
656.039	11468.36
656.391	11437.85
656.742	11427.23
657.094	11503.84
657.445	11509.71
657.796	11509.49
658.147	11525.08
658.498	11447.79
658.849	11500.22
659.2	11509.71
659.551	11435.82
659.902	11489.83
660.253	11486.44
660.604	11562.14
660.955	11463.84
661.306	11493.67
661.656	11575.47
662.007	11543.16
662.358	11482.59
662.708	11569.37
663.059	11589.48
663.409	11492.76
663.76	11535.47
664.11	11520.56
664.461	11487.34
664.811	11546.77
665.161	11455.25
665.511	11405.53
665.862	11497.73
666.212	11495.93
666.562	11528.24
666.912	11497.73
667.262	11562.59
667.612	11530.28
667.962	11536.83
668.312	11451.86
668.662	11469.94
669.011	11548.35
669.361	11485.76
669.711	11511.52
670.06	11542.25
670.41	11558.98
670.76	11520.11
671.109	11458.19
671.459	11463.39
671.808	11479.43
672.157	11522.14
672.507	11408.7
672.856	11491.63
673.205	11432.65
673.554	11497.96
673.904	11362.6
674.253	11514.68
674.602	11446.21
674.951	11292.77
675.3	11137.74
675.649	11398.98
675.998	11358.98
676.346	11474.46
676.695	11458.64
677.044	11323.73
677.393	11347.23
677.741	11363.27
678.09	11238.31
678.438	11238.76
678.787	11276.27
679.135	11305.88
679.484	11252.77
679.832	11304.52
680.181	11228.36
680.529	11184.52
680.877	11198.08
681.225	11137.29
681.573	11214.13
681.922	11111.08
682.27	11061.36
682.618	11100.68
682.966	11001.02
683.314	11051.42
683.661	11032.89
684.009	10992.44
684.357	10961.7
684.705	10973.91
685.053	10925.77
685.4	10951.76
685.748	10851.88
686.095	10834.7
686.443	10823.18
686.79	10885.1
687.138	10898.88
687.485	10850.75
687.832	10772.1
688.18	10721.71
688.527	10648.72
688.874	10663.18
689.221	10641.94
689.568	10628.38
689.915	10573.46
690.262	10564.88
690.609	10474.71
690.956	10523.75
691.303	10510.19
691.65	10445.11
691.997	10436.75
692.344	10325.56
692.69	10304.77
693.037	10326.24
693.383	10218.22
693.73	10234.72
694.077	10185
694.423	10173.25
694.769	10194.27
695.116	10128.73
695.462	10103.42
695.808	10089.41
696.155	10038.34
696.501	9933.03
696.847	9983.42
697.193	9921.28
697.539	9920.15
697.885	9889.87
698.231	9807.38
698.577	9815.97
698.923	9762.19
699.269	9725.8
699.614	9695.52
699.96	9684.67
700.306	9608.29
700.651	9549.99
700.997	9514.28
701.342	9546.15
701.688	9504.34
702.033	9437.9
702.379	9449.2
702.724	9486.71
703.069	9462.76
703.415	9262.76
703.76	9345.93
704.105	9262.76
704.45	9246.72
704.795	9240.62
705.14	9211.47
705.485	9149.32
705.83	9145.71
706.175	9148.64
706.52	9060.51
706.865	9041.08
707.209	9025.71
707.554	8953.39
707.899	9034.97
708.243	8953.62
708.588	8953.62
708.932	8886.96
709.277	8846.96
709.621	8834.3
709.966	8812.38
710.31	8791.82
710.654	8729.9
710.998	8747.3
711.342	8731.03
711.687	8728.32
712.031	8641.99
712.375	8658.94
712.719	8666.4
713.063	8624.82
713.407	8689.67
713.75	8638.15
714.094	8601.77
714.438	8583.23
714.782	8531.03
715.125	8519.28
715.469	8494.2
715.812	8484.25
716.156	8484.71
716.499	8476.12
716.843	8465.05
717.186	8407.19
717.53	8434.76
717.873	8455.1
718.216	8478.15
718.559	8324.48
718.902	8355.9
719.246	8361.32
719.589	8379.17
719.932	8358.16
720.275	8325.39
720.617	8341.21
720.96	8314.54
721.303	8269.12
721.646	8274.32
721.989	8166.97
722.331	8220.98
722.674	8226.63
723.016	8254.43
723.359	8220.31
723.701	8279.06
724.044	8198.84
724.386	8147.99
724.729	8173.3
725.071	8228.89
725.413	8194.32
725.755	8162.23
726.097	8191.61
726.439	8153.87
726.782	8162.45
727.124	8192.06
727.465	8154.09
727.807	8129.01
728.149	8155
728.491	8129.01
728.833	8174.66
729.175	8117.48
729.516	8151.16
729.858	8098.73
730.199	8133.98
730.541	8100.99
730.882	8080.2
731.224	8146.86
731.565	8052.85
731.906	8112.51
732.248	8049.24
732.589	8043.59
732.93	8082.91
733.271	8054.89
733.612	8045.4
733.953	8086.98
734.294	8090.14
734.635	8013.98
734.976	8031.38
735.317	8029.35
735.658	8075.45
735.999	8079.29
736.339	8040.65
736.68	8067.32
737.021	8092.63
737.361	8017.6
737.702	8119.07
738.042	8085.39
738.383	8032.97
738.723	8164.71
739.063	8109.12
739.404	8110.48
739.744	8129.69
740.084	8106.41
740.424	8151.16
740.764	8086.07
741.104	8172.17
741.444	8104.38
741.784	8173.08
742.124	8198.61
742.464	8220.98
742.804	8303.47
743.143	8253.98
743.483	8249.91
743.823	8241.77
744.162	8249.01
744.502	8312.96
744.841	8324.48
745.181	8418.27
745.52	8434.31
745.86	8399.06
746.199	8521.09
746.538	8511.37
746.877	8535.78
747.216	8605.38
747.556	8625.49
747.895	8623.69
748.234	8669.11
748.573	8733.74
748.911	8780.29
749.25	8852.61
749.589	8868.43
749.928	8917.92
750.267	9031.13
750.605	9017.12
750.944	9155.2
751.283	9221.86
751.621	9207.17
751.96	9341.63
752.298	9467.05
752.636	9559.03
752.975	9582.53
753.313	9727.39
753.651	9822.98
753.989	9907.04
754.327	9982.52
754.666	10033.59
755.004	10131.22
755.342	10307.48
755.679	10405.79
756.017	10466.12
756.355	10702.95
756.693	10748.38
757.031	10910.18
757.368	11030.63
757.706	11170.06
758.044	11295.71
758.381	11439.43
758.719	11547
759.056	11757.84
759.394	11904.28
759.731	11977.95
760.068	12146.53
760.405	12330.71
760.743	12415.68
761.08	12643.47
761.417	12714.43
761.754	12856.12
762.091	13093.62
762.428	13163.23
762.765	13311.02
763.102	13527.29
763.438	13570.9
763.775	13733.61
764.112	14036.88
764.449	14141.51
764.785	14277.77
765.122	14362.29
765.458	14432.8
765.795	14677.54
766.131	14751.89
766.467	14919.34
766.804	15014.25
767.14	15196.85
767.476	15299.67
767.812	15444.98
768.148	15562.03
768.485	15624.86
768.821	15611.07
769.157	15901.46
769.492	15931.97
769.828	16114.56
770.164	16130.15
770.5	16266.65
770.836	16474.33
771.171	16442.24
771.507	16492.18
771.842	16588.45
772.178	16716.58
772.513	16900.98
772.849	16985.27
773.184	16952.73
773.519	16997.7
773.855	17092.39
774.19	17145.04
774.525	17259.62
774.86	17361.76
775.195	17407.18
775.53	17352.95
775.865	17464.81
776.2	17425.49
776.535	17451.02
776.87	17575.99
777.205	17622.32
777.539	17654.41
777.874	17717.01
778.209	17657.12
778.543	17637.01
778.878	17606.05
779.212	17748.64
779.547	17691.02
779.881	17721.98
780.215	17627.74
780.55	17846.27
780.884	17785.03
781.218	17781.86
781.552	17876.55
781.886	17819.6
782.22	17884.91
782.554	17848.75
782.888	17620.29
783.222	17745.71
783.556	17669.55
783.889	17658.02
784.223	17648.99
784.557	17646.5
784.89	17691.92
785.224	17622.32
785.557	17656.22
785.891	17582.77
786.224	17587.74
786.558	17649.21
786.891	17543
787.224	17431.36
787.557	17498.71
787.891	17489.67
788.224	17454.41
788.557	17498.48
788.89	17410.8
789.223	17550.23
789.556	17399.5
789.888	17373.06
790.221	17395.88
790.554	17252.61
790.887	17273.63
791.219	17236.57
791.552	17196.12
791.884	17205.61
792.217	17131.94
792.549	17170.81
792.882	17081.99
793.214	17004.71
793.546	17055.78
793.879	16980.75
794.211	16918.61
794.543	16954.31
794.875	16897.37
795.207	17010.36
795.539	16871.15
795.871	16950.92
796.203	16752.06
796.535	16659.63
796.867	16627.99
797.198	16642.68
797.53	16607.88
797.862	16608.11
798.193	16614.44
798.525	16482.69
798.856	16576.92
799.188	16390.94
799.519	16287.89
799.85	16225.29
800.182	16334.9
800.513	16304.61
800.844	16128.8
801.175	16273.2
801.506	16221.9
801.837	16150.95
802.168	16112.53
802.499	16100.1
802.83	16017.39
803.161	15956.15
803.491	16049.25
803.822	15971.74
804.153	15874.79
804.483	15792.31
804.814	15784.85
805.145	15784.18
805.475	15810.62
805.805	15707.79
806.136	15710.5
806.466	15627.57
806.796	15657.17
807.126	15517.06
807.457	15495.82
807.787	15516.61
808.117	15430.96
808.447	15383.51
808.777	15487.23
809.107	15309.61
809.436	15223.06
809.766	15258.77
810.096	15324.75
810.426	15177.64
810.755	15222.16
811.085	15212.44
811.414	15075.49
811.744	14988.94
812.073	15033.23
812.403	15011.09
812.732	14930.64
813.061	14998.89
813.39	14757.76
813.719	14854.93
814.049	14920.92
814.378	14918.21
814.707	14849.74
815.036	14798.44
815.365	14709.18
815.693	14700.14
816.022	14749.17
816.351	14610.19
816.68	14609.97
817.008	14647.71
817.337	14460.59
817.665	14505.34
817.994	14560.7
818.322	14468.28
818.651	14432.35
818.979	14419.24
819.307	14535.62
819.636	14398.22
819.964	14324.33
820.292	14398.9
820.62	14344.89
820.948	14292.01
821.276	14353.93
821.604	14344.67
821.932	14398.22
822.259	14340.15
822.587	14294.27
822.915	14264.67
823.243	14395.74
823.57	14267.38
823.898	14289.75
824.225	14208.4
824.553	14226.7
824.88	14382.86
825.207	14284.33
825.535	14289.07
825.862	14261.73
826.189	14315.29
826.516	14297.21
826.843	14287.94
827.17	14357.32
827.497	14330.88
827.824	14354.16
828.151	14353.48
828.478	14360.26
828.805	14432.57
829.131	14242.52
829.458	14247.72
829.785	14287.04
830.111	14232.8
830.438	14343.31
830.764	14321.39
831.09	14320.49
831.417	14281.62
831.743	14284.55
832.069	14272.35
832.395	14246.59
832.722	14309.41
833.048	14297.21
833.374	14254.5
833.7	14271.9
834.026	14164.33
834.351	14221.73
834.677	14161.39
835.003	14236.87
835.329	14147.83
835.654	14207.72
835.98	14078.68
836.306	14129.76
836.631	14010.21
836.956	14144.44
837.282	14030.32
837.607	13964.34
837.932	13977.22
838.258	14021.06
838.583	13996.88
838.908	13984.22
839.233	13926.82
839.558	13877.11
839.883	13831.23
840.208	13875.07
840.533	13820.16
840.858	13851.57
841.182	13754.85
841.507	13855.41
841.832	13679.15
842.156	13732.93
842.481	13705.81
842.805	13734.29
843.13	13618.36
843.454	13673.95
843.778	13645.02
844.103	13503.33
844.427	13456.55
844.751	13494.74
845.075	13395.99
845.399	13403.9
845.723	13332.26
846.047	13333.39
846.371	13193.28
846.695	13270.8
847.019	13090.69
847.343	13099.73
847.666	12993.74
847.99	13051.59
848.313	12932.72
848.637	12911.48
848.96	12820.86
849.284	12816.34
849.607	12762.79
849.931	12740.64
850.254	12658.61
850.577	12612.51
850.9	12553.75
851.223	12504.94
851.546	12468.56
851.869	12356.69
852.192	12372.97
852.515	12334.55
852.838	12203.93
853.161	12266.3
853.483	12088.91
853.806	12094.78
854.129	12114.22
854.451	11992.64
854.774	12022.47
855.096	11995.12
855.419	11937.27
855.741	11885.52
856.063	11871.74
856.385	11778.63
856.708	11777.05
857.03	11740.21
857.352	11760.33
857.674	11698.18
857.996	11573.44
858.318	11527.11
858.64	11570.27
858.961	11536.6
859.283	11552.87
859.605	11477.62
859.926	11455.25
860.248	11428.13
860.57	11358.3
860.891	11354.69
861.212	11271.07
861.534	11335.93
861.855	11215.26
862.176	11285.54
862.498	11304.97
862.819	11245.54
863.14	11161.47
863.461	11173.22
863.782	11134.35
864.103	11118.54
864.424	11168.03
864.745	11117.86
865.065	11035.83
865.386	11057.07
865.707	11005.09
866.027	10969.16
866.348	11002.38
866.668	10945.43
866.989	10934.13
867.309	10850.07
867.63	10929.61
867.95	10944.75
868.27	10889.16
868.59	10769.84
868.91	10876.06
869.23	10838.32
869.55	10681.71
869.87	10810.75
870.19	10758.54
870.51	10812.78
870.83	10780.47
871.15	10630.86
871.469	10736.4
871.789	10746.79
872.109	10723.07
872.428	10631.09
872.748	10693.91
873.067	10599
873.386	10656.17
873.706	10545.44
874.025	10566.46
874.344	10549.96
874.663	10515.16
874.982	10496.4
875.301	10497.31
875.62	10480.13
875.939	10412.57
876.258	10454.82
876.577	10363.3
876.896	10349.52
877.214	10319.23
877.533	10301.83
877.852	10365.56
878.17	10294.38
878.489	10364.2
878.807	10368.5
879.125	10306.81
879.444	10366.92
879.762	10281.04
880.08	10292.12
880.398	10168.28
880.716	10192.68
881.034	10131.44
881.352	10209.63
881.67	10130.54
881.988	10176.64
882.306	10142.97
882.624	10111.33
882.941	9968.51
883.259	9966.93
883.577	10004.67
883.894	10011.9
884.212	10015.29
884.529	9913.14
884.846	9895.74
885.164	9902.75
885.481	9844.44
885.798	9837.89
886.115	9784.56
886.432	9754.96
886.75	9802.19
887.067	9759.7
887.383	9784.56
887.7	9740.72
888.017	9689.19
888.334	9789.53
888.651	9606.94
888.967	9655.07
889.284	9627.28
889.6	9538.69
889.917	9489.43
890.233	9541.85
890.55	9405.13
890.866	9473.38
891.182	9448.07
891.498	9387.28
891.815	9310.22
892.131	9350.45
892.447	9370.78
892.763	9256.89
893.079	9259.83
893.395	9236.1
893.71	9270.45
894.026	9200.39
894.342	9172.15
894.657	9131.69
894.973	9110.45
895.289	9048.53
895.604	9053.05
895.92	8978.25
896.235	8841.08
896.55	8898.48
896.865	8899.61
897.181	8885.83
897.496	8870.68
897.811	8794.75
898.126	8810.57
898.441	8718.82
898.756	8741.2
899.071	8680.18
899.386	8663.23
899.7	8493.07
900.015	8538.94
900.33	8517.02
900.644	8479.96
900.959	8501.88
901.273	8485.16
901.588	8440.19
901.902	8339.4
902.216	8379.85
902.531	8443.8
902.845	8284.03
903.159	8260.76
903.473	8268.89
903.787	8223.7
904.101	8185.73
904.415	8202.68
904.729	8199.74
905.042	8054.44
905.356	8094.89
905.67	8024.61
905.984	8094.21
906.297	8003.59
906.611	7956.13
906.924	7960.88
907.237	7959.97
907.551	7849.92
907.864	7808.34
908.177	7795.91
908.491	7797.49
908.804	7720.88
909.117	7699.87
909.43	7625.29
909.743	7578.52
910.056	7565.86
910.368	7539.87
910.681	7512.53
910.994	7498.74
911.307	7463.72
911.619	7405.64
911.932	7435.69
912.244	7396.37
912.557	7369.71
912.869	7267.79
913.181	7280.44
913.494	7244.96
913.806	7198.64
914.118	7216.49
914.43	7129.94
914.742	7086.78
915.054	7104.63
915.366	7133.56
915.678	7050.17
915.99	7046.1
916.302	7020.11
916.613	6981.24
916.925	6914.58
917.236	6926.56
917.548	6858.31
917.859	6842.26
918.171	6833.22
918.482	6764.53
918.794	6750.06
919.105	6757.07
919.416	6703.96
919.727	6701.25
920.038	6667.35
920.349	6593.91
920.66	6604.3
920.971	6597.3
921.282	6575.6
921.593	6534.93
921.903	6450.41
922.214	6477.75
922.525	6449.73
922.835	6385.33
923.146	6348.49
923.456	6357.76
923.767	6355.72
924.077	6372.9
924.387	6265.33
924.697	6244.54
925.008	6211.77
925.318	6206.8
925.628	6243.18
925.938	6207.7
926.248	6175.39
926.558	6102.62
926.867	6091.55
927.177	6071.21
927.487	6037.76
927.796	6006.35
928.106	6033.25
928.416	5927.94
928.725	5990.99
929.034	5930.2
929.344	5963.19
929.653	5888.84
929.962	5826.47
930.271	5849.3
930.581	5780.6
930.89	5736.53
931.199	5788.28
931.508	5787.15
931.817	5760.71
932.125	5698.79
932.434	5659.7
932.743	5602.75
933.051	5640.49
933.36	5643.43
933.669	5605.91
933.977	5557.33
934.286	5507.61
934.594	5493.6
934.902	5432.36
935.21	5464.45
935.519	5476.2
935.827	5416.09
936.135	5374.05
936.443	5303.55
936.751	5356.2
937.059	5315.3
937.367	5245.47
937.674	5213.15
937.982	5263.77
938.29	5241.4
938.597	5264.45
938.905	5189.2
939.213	5187.84
939.52	5125.7
939.827	5136.32
940.135	5073.95
940.442	5075.3
940.749	5075.3
941.056	5053.84
941.363	4979.26
941.67	4999.6
941.977	4951.24
942.284	4919.6
942.591	4908.08
942.898	4893.16
943.205	4920.73
943.511	4867.17
943.818	4870.11
944.125	4831.02
944.431	4789.89
944.738	4772.49
945.044	4758.93
945.35	4743.79
945.657	4673.51
945.963	4716.22
946.269	4682.55
946.575	4671.25
946.881	4627.86
947.187	4624.02
947.493	4569.55
947.799	4565.71
948.105	4551.7
948.41	4552.61
948.716	4508.09
949.022	4490.01
949.327	4466.28
949.633	4436.9
949.938	4431.48
950.244	4437.36
950.549	4394.19
950.854	4384.48
951.16	4414.53
951.465	4376.57
951.77	4327.08
952.075	4256.79
952.38	4250.47
952.685	4281.43
952.99	4224.93
953.294	4235.55
953.599	4214.08
953.904	4238.49
954.209	4165.5
954.513	4196.01
954.818	4146.97
955.122	4118.72
955.426	4133.63
955.731	4083.01
956.035	4038.04
956.339	4078.49
956.643	4020.19
956.948	4001.43
957.252	4037.37
957.556	3958.95
957.86	3984.94
958.163	3939.52
958.467	3954.43
958.771	3968.89
959.075	3918.72
959.378	3895.22
959.682	3925.28
959.985	3864.49
960.289	3835.11
960.592	3846.41
960.896	3832.4
961.199	3827.43
961.502	3813.64
961.805	3756.7
962.108	3723.93
962.411	3721.89
962.714	3712.4
963.017	3704.49
963.32	3669.24
963.623	3666.08
963.926	3695.45
964.228	3647.32
964.531	3619.3
964.833	3619.75
965.136	3548.56
965.438	3584.04
965.741	3556.7
966.043	3525.97
966.345	3539.3
966.648	3518.28
966.95	3485.74
967.252	3518.06
967.554	3490.26
967.856	3441.45
968.158	3425.4
968.46	3399.64
968.761	3427.89
969.063	3383.6
969.365	3378.63
969.666	3335.69
969.968	3345.86
970.269	3332.75
970.571	3322.13
970.872	3311.96
971.174	3322.36
971.475	3286.65
971.776	3284.39
972.077	3277.39
972.378	3248.23
972.679	3229.93
972.98	3217.27
973.281	3213.21
973.582	3182.47
973.883	3194.22
974.183	3148.58
974.484	3133.66
974.785	3098.41
975.085	3103.15
975.386	3121.01
975.686	3113.1
975.986	3110.38
976.287	3074.45
976.587	3040.33
976.887	3041.23
977.187	2986.32
977.487	3006.21
977.787	2991.29
978.087	2980.67
978.387	2974.12
978.687	3006.88
978.987	2965.08
979.286	2916.49
979.586	2916.72
979.885	2906.1
980.185	2887.79
980.484	2886.44
980.784	2860.67
981.083	2826.78
981.382	2845.31
981.682	2842.37
981.981	2801.47
982.28	2791.3
982.579	2773.44
982.878	2782.48
983.177	2766.21
983.475	2787
983.774	2760.34
984.073	2714.01
984.372	2725.31
984.67	2718.08
984.969	2716.04
985.267	2700.9
985.566	2667.46
985.864	2636.27
986.162	2635.82
986.461	2615.03
986.759	2615.93
987.057	2601.25
987.355	2568.48
987.653	2598.08
987.951	2535.26
988.249	2567.12
988.547	2489.61
988.844	2516.95
989.142	2521.02
989.44	2515.37
989.737	2511.53
990.035	2451.64
990.332	2485.09
990.63	2441.93
990.927	2464.98
991.224	2453.68
991.521	2438.31
991.819	2449.84
992.116	2417.75
992.413	2393.12
992.71	2384.75
993.006	2375.71
993.303	2359.9
993.6	2374.13
993.897	2369.39
994.193	2337.07
994.49	2332.78
994.787	2279.45
995.083	2296.17
995.379	2332.55
995.676	2280.35
995.972	2288.03
996.268	2257.75
996.565	2226.34
996.861	2204.42
997.157	2225.66
997.453	2209.17
997.749	2223.63
998.044	2203.06
998.34	2189.28
998.636	2168.04
998.932	2143.86
999.227	2190.41
999.523	2122.61
999.818	2090.3
1000.114	2102.95
1000.409	2090.07
1000.704	2069.51
1001	2079.9
1001.295	2077.42
1001.59	2056.4
1001.885	2021.6
1002.18	2055.27
1002.475	2047.59
1002.77	2008.94
1003.065	2007.59
1003.359	1999.23
1003.654	1968.95
1003.949	1967.59
1004.243	1972.34
1004.538	1963.97
1004.832	1909.74
1005.127	1908.38
1005.421	1919.23
1005.715	1882.39
1006.009	1890.53
1006.304	1899.57
1006.598	1872.9
1006.892	1832.9
1007.186	1868.61
1007.48	1812.11
1007.773	1825.22
1008.067	1816.18
1008.361	1802.17
1008.655	1790.87
1008.948	1773.02
1009.242	1793.13
1009.535	1785.67
1009.829	1767.37
1010.122	1745.45
1010.415	1750.42
1010.708	1743.64
1011.001	1733.02
1011.295	1712.68
1011.588	1707.94
1011.881	1690.99
1012.173	1690.31
1012.466	1682.63
1012.759	1669.07
1013.052	1664.77
1013.344	1642.4
1013.637	1638.78
1013.93	1619.8
1014.222	1612.8
1014.514	1639.01
1014.807	1607.82
1015.099	1571.67
1015.391	1545.23
1015.683	1591.55
1015.976	1589.07
1016.268	1533.48
1016.56	1557.43
1016.851	1549.97
1017.143	1519.01
1017.435	1505.91
1017.727	1503.65
1018.018	1486.7
1018.31	1481.27
1018.602	1486.92
1018.893	1463.65
1019.185	1442.18
1019.476	1472.01
1019.767	1425.23
1020.058	1399.92
1020.35	1438.11
1020.641	1396.53
1020.932	1372.58
1021.223	1401.05
1021.514	1361.96
1021.804	1355.85
1022.095	1349.75
1022.386	1368.96
1022.677	1343.88
1022.967	1341.39
1023.258	1324.67
1023.548	1319.02
1023.839	1311.34
1024.129	1298.45
1024.419	1313.37
1024.709	1295.29
1025	1261.17
1025.29	1283.77
1025.58	1255.07
1025.87	1247.16
1026.16	1261.17
1026.449	1241.05
1026.739	1228.63
1027.029	1239.7
1027.319	1223.88
1027.608	1205.58
1027.898	1218
1028.187	1193.82
1028.477	1193.15
1028.766	1166.48
1029.055	1185.46
1029.344	1173.26
1029.634	1175.75
1029.923	1154.96
1030.212	1133.49
1030.501	1173.94
1030.79	1122.64
1031.078	1132.58
1031.367	1114.96
1031.656	1097.33
1031.945	1081.74
1032.233	1085.8
1032.522	1111.11
1032.81	1058.69
1033.099	1078.12
1033.387	1081.06
1033.675	1039.7
1033.963	1059.14
1034.251	1057.33
1034.54	1040.38
1034.828	1030.89
1035.116	1007.61
1035.403	1005.13
1035.691	1025.24
1035.979	1016.88
1036.267	1010.1
1036.554	998.12
1036.842	951.57
1037.129	970.33
1037.417	971.91
1037.704	953.6
1037.992	980.5
1038.279	936.88
1038.566	934.62
1038.853	934.62
1039.14	934.62
