Data from hue_250_FLMS001491_00097.txt Node
Date: Tue Feb 07 16:01:46 GMT 2017
User: dcchb
Spectrometer: FLMS00149
Trigger mode: 0
Integration Time (sec): 2.000000E-2
Scans to average: 10
Electric dark correction enabled: true
Nonlinearity correction enabled: false
Boxcar width: 0
XAxis mode: Wavelengths
Number of Pixels in Spectrum: 2048
>>>>>Begin Spectral Data<<<<<
341.393	-6.64
341.776	-6.64
342.16	-6.64
342.543	-57.26
342.927	-77.82
343.31	-84.6
343.693	-55
344.077	-74.89
344.46	-60.65
344.843	-47.77
345.226	-44.38
345.61	-25.39
345.993	-16.36
346.376	-29.91
346.759	14.6
347.142	33.59
347.525	49.18
347.908	46.24
348.291	78.78
348.674	109.97
349.057	106.58
349.44	132.34
349.823	133.47
350.206	130.99
350.588	160.14
350.971	207.82
351.354	204.43
351.737	217.99
352.119	235.39
352.502	240.59
352.884	248.5
353.267	282.39
353.65	276.74
354.032	279.23
354.414	280.36
354.797	287.82
355.179	299.79
355.562	302.51
355.944	288.72
356.326	329.85
356.709	329.4
357.091	309.74
357.473	319.68
357.855	326.46
358.238	314.03
358.62	318.1
359.002	301.6
359.384	323.75
359.766	319.68
360.148	315.39
360.53	319
360.912	305.9
361.294	302.51
361.676	304.99
362.057	309.06
362.439	300.92
362.821	311.55
363.203	317.87
363.584	330.98
363.966	295.5
364.348	312.22
364.729	282.62
365.111	297.08
365.493	310.19
365.874	302.96
366.256	302.96
366.637	302.05
367.019	295.73
367.4	288.27
367.781	296.63
368.163	293.01
368.544	288.95
368.925	296.18
369.306	300.25
369.688	307.93
370.069	296.4
370.45	286.46
370.831	305.67
371.212	293.47
371.593	304.31
371.974	302.05
372.355	299.79
372.736	290.3
373.117	314.48
373.498	320.13
373.879	295.73
374.26	287.82
374.641	306.35
375.021	300.02
375.402	313.58
375.783	302.05
376.163	309.51
376.544	295.5
376.925	332.34
377.305	313.58
377.686	303.18
378.066	314.48
378.447	339.57
378.827	329.17
379.208	310.87
379.588	326.91
379.968	314.26
380.349	331.66
380.729	310.42
381.109	310.87
381.489	316.52
381.87	326.23
382.25	327.14
382.63	345.22
383.01	331.88
383.39	335.95
383.77	329.4
384.15	343.64
384.53	309.96
384.91	323.07
385.29	350.64
385.67	336.18
386.049	326.23
386.429	345.44
386.809	330.98
387.189	343.64
387.568	337.08
387.948	343.41
388.328	350.19
388.707	342.96
389.087	342.28
389.466	351.77
389.846	349.51
390.225	351.09
390.605	369.62
390.984	364.88
391.363	351.77
391.743	377.53
392.122	359.68
392.501	356.97
392.881	382.96
393.26	377.31
393.639	361.71
394.018	365.1
394.397	355.16
394.776	377.98
395.155	384.31
395.534	360.81
395.913	387.48
396.292	379.79
396.671	348.61
397.05	365.1
397.429	373.46
397.808	368.95
398.186	395.61
398.565	403.29
398.944	371.66
399.323	371.43
399.701	385.22
400.08	371.66
400.458	391.54
400.837	410.53
401.215	387.7
401.594	394.48
401.972	414.59
402.351	394.26
402.729	433.35
403.107	421.15
403.486	414.59
403.864	419.11
404.242	423.41
404.62	417.53
404.999	421.15
405.377	426.8
405.755	419.79
406.133	431.54
406.511	423.18
406.889	443.29
407.267	457.76
407.645	442.62
408.023	427.47
408.401	464.08
408.779	464.31
409.156	469.96
409.534	468.83
409.912	462.95
410.29	480.81
410.667	464.76
411.045	481.71
411.422	503.18
411.8	490.75
412.178	510.86
412.555	497.98
412.933	530.3
413.31	533.46
413.687	546.12
414.065	552.22
414.442	529.17
414.819	551.77
415.197	557.64
415.574	558.54
415.951	576.62
416.328	575.27
416.705	587.47
417.082	573.91
417.46	594.25
417.837	595.83
418.214	593.35
418.591	585.66
418.967	614.59
419.344	620.24
419.721	645.55
420.098	636.06
420.475	647.36
420.852	641.93
421.228	624.76
421.605	664.76
421.982	667.69
422.358	659.56
422.735	688.03
423.111	712.44
423.488	714.92
423.864	700.46
424.241	716.28
424.617	747.47
424.994	732.55
425.37	748.37
425.746	748.82
426.123	773.45
426.499	759.67
426.875	774.58
427.251	790.18
427.627	789.27
428.003	827.24
428.379	834.02
428.756	842.83
429.132	840.12
429.507	870.4
429.883	847.58
430.259	902.49
430.635	878.08
431.011	891.87
431.387	894.81
431.763	908.14
432.138	938.87
432.514	947.46
432.89	959.89
433.265	953.11
433.641	986.1
434.016	1026.33
434.392	998.53
434.767	1034.92
435.143	1055.71
435.518	1065.2
435.894	1055.03
436.269	1073.56
436.644	1096.84
437.02	1107
437.395	1133.67
437.77	1135.48
438.145	1152.2
438.52	1156.04
438.895	1208.02
439.271	1192.2
439.646	1205.31
440.021	1224.97
440.395	1256.38
440.77	1264.74
441.145	1262.93
441.52	1266.1
441.895	1295.47
442.27	1288.47
442.645	1328.92
443.019	1333.67
443.394	1336.38
443.769	1368.24
444.143	1329.37
444.518	1357.85
444.892	1367.56
445.267	1359.88
445.641	1434
446.016	1432.87
446.39	1438.97
446.764	1425.19
447.139	1445.53
447.513	1411.18
447.887	1457.05
448.262	1485.3
448.636	1461.57
449.01	1501.12
449.384	1510.38
449.758	1506.09
450.132	1518.97
450.506	1548.12
450.88	1564.62
451.254	1521.46
451.628	1550.16
452.002	1599.87
452.376	1596.94
452.75	1619.99
453.123	1625.41
453.497	1639.87
453.871	1652.08
454.244	1672.41
454.618	1702.47
454.992	1713.99
455.365	1695.69
455.739	1754.22
456.112	1749.25
456.486	1784.28
456.859	1784.5
457.232	1815.69
457.606	1822.01
457.979	1836.93
458.352	1919.64
458.725	1896.59
459.099	1888
459.472	1938.17
459.845	1940.43
460.218	1959.64
460.591	1969.13
460.964	1997.38
461.337	2047.09
461.71	2065.85
462.083	2069.01
462.456	2082.57
462.829	2071.95
463.201	2135
463.574	2150.14
463.947	2181.33
464.32	2201.89
464.692	2215.45
465.065	2235.79
465.438	2260.65
465.81	2297.48
466.183	2309.91
466.555	2319.4
466.928	2359.63
467.3	2358.72
467.672	2407.54
468.045	2434.2
468.417	2451.6
468.789	2486.86
469.161	2511.94
469.534	2542
469.906	2581.09
470.278	2550.13
470.65	2610.69
471.022	2662.22
471.394	2670.58
471.766	2749
472.138	2773.63
472.51	2781.76
472.882	2855.66
473.253	2876.45
473.625	2895.66
473.997	2956.45
474.369	2958.93
474.74	3008.65
475.112	3062.66
475.484	3037.12
475.855	3170
476.227	3163.22
476.598	3222.2
476.97	3270.11
477.341	3327.29
477.713	3344.46
478.084	3386.27
478.455	3468.07
478.827	3479.15
479.198	3601.85
479.569	3568.41
479.94	3691.57
480.311	3673.72
480.682	3718.69
481.053	3791.45
481.424	3854.96
481.795	3900.38
482.166	3930.66
482.537	3983.77
482.908	4041.84
483.279	4115.06
483.65	4153.03
484.021	4190.54
484.391	4267.15
484.762	4296.53
485.133	4315.96
485.503	4379.01
485.874	4478.22
486.244	4455.84
486.615	4551.43
486.985	4590.53
487.356	4626.69
487.726	4695.39
488.097	4814.7
488.467	4825.1
488.837	4916.62
489.207	4903.74
489.578	4997.3
489.948	5005.43
490.318	5084.98
490.688	5106.67
491.058	5155.49
491.428	5204.75
491.798	5274.58
492.168	5290.62
492.538	5345.54
492.908	5364.52
493.278	5390.28
493.648	5485.65
494.017	5568.13
494.387	5565.19
494.757	5649.71
495.126	5678.18
495.496	5671.63
495.866	5684.06
496.235	5731.74
496.605	5718.63
496.974	5802.47
497.344	5772.42
497.713	5872.76
498.082	5929.93
498.452	5941.45
498.821	5956.37
499.19	6008.34
499.559	6023.26
499.928	6044.28
500.298	6060.77
500.667	6128.34
501.036	6101.9
501.405	6138.28
501.774	6115.46
502.143	6159.98
502.512	6196.36
502.88	6261.45
503.249	6236.81
503.618	6274.33
503.987	6300.31
504.356	6315.46
504.724	6328.34
505.093	6340.09
505.462	6427.32
505.83	6416.92
506.199	6487.88
506.567	6516.35
506.936	6507.31
507.304	6512.51
507.672	6607.2
508.041	6566.3
508.409	6611.72
508.777	6624.15
509.145	6649.91
509.514	6700.08
509.882	6696.46
510.25	6688.33
510.618	6696.01
510.986	6736.46
511.354	6737.82
511.722	6798.61
512.09	6850.36
512.458	6838.61
512.826	6844.71
513.193	6890.58
513.561	6903.91
513.929	6914.08
514.297	6947.98
514.664	6942.56
515.032	6966.96
515.4	6972.16
515.767	7024.36
516.135	7011.48
516.502	6945.5
516.869	7047.19
517.237	7093.97
517.604	7046.28
517.972	7115.21
518.339	7105.72
518.706	7112.04
519.073	7091.03
519.44	7111.82
519.808	7194.75
520.175	7195.21
520.542	7249.44
520.909	7236.79
521.276	7265.26
521.643	7303.45
522.009	7226.17
522.376	7319.95
522.743	7317.46
523.11	7342.1
523.477	7396.56
523.843	7310.91
524.21	7426.84
524.577	7456.44
524.943	7441.75
525.31	7426.84
525.676	7485.37
526.043	7542.09
526.409	7479.49
526.776	7613.95
527.142	7533.95
527.508	7566.95
527.874	7608.75
528.241	7573.28
528.607	7592.26
528.973	7632.71
529.339	7625.93
529.705	7688.98
530.071	7702.54
530.437	7674.29
530.803	7653.95
531.169	7739.6
531.535	7684.46
531.901	7721.52
532.267	7710.22
532.632	7747.28
532.998	7787.96
533.364	7756.55
533.73	7756.55
534.095	7781.41
534.461	7716.55
534.826	7726.49
535.192	7780.05
535.557	7741.41
535.923	7763.55
536.288	7737.11
536.653	7762.87
537.019	7710.9
537.384	7716.1
537.749	7774.17
538.114	7740.5
538.479	7732.59
538.845	7746.38
539.21	7745.7
539.575	7722.42
539.94	7664.12
540.305	7659.37
540.67	7663.44
541.034	7740.28
541.399	7667.74
541.764	7675.87
542.129	7672.26
542.494	7666.38
542.858	7659.15
543.223	7615.08
543.587	7691.46
543.952	7620.51
544.316	7676.55
544.681	7627.51
545.045	7649.21
545.41	7650.56
545.774	7632.26
546.138	7636.1
546.503	7590.9
546.867	7625.25
547.231	7608.08
547.595	7630.22
547.959	7567.63
548.324	7573.95
548.688	7573.28
549.052	7566.95
549.416	7571.92
549.779	7521.3
550.143	7591.81
550.507	7569.43
550.871	7491.7
551.235	7517.68
551.599	7534.41
551.962	7485.59
552.326	7498.02
552.689	7502.32
553.053	7470.68
553.417	7496.44
553.78	7551.58
554.143	7463.67
554.507	7479.49
554.87	7505.93
555.234	7554.07
555.597	7502.54
555.96	7543.45
556.323	7528.08
556.686	7512.49
557.05	7526.72
557.413	7520.4
557.776	7528.3
558.139	7594.74
558.502	7549.77
558.865	7591.81
559.228	7561.75
559.59	7607.62
559.953	7586.83
560.316	7553.84
560.679	7591.58
561.041	7637.23
561.404	7650.56
561.767	7666.15
562.129	7614.86
562.492	7656.89
562.854	7638.13
563.217	7703.67
563.579	7737.56
563.941	7716.32
564.304	7716.55
564.666	7737.11
565.028	7766.49
565.39	7798.13
565.753	7841.97
566.115	7788.86
566.477	7774.63
566.839	7825.02
567.201	7862.76
567.563	7872.7
567.925	7887.62
568.287	7874.74
568.648	7900.95
569.01	7901.85
569.372	7957.22
569.734	7967.62
570.095	7976.43
570.457	7986.6
570.819	8042.64
571.18	7994.51
571.542	8107.05
571.903	8128.06
572.265	8069.53
572.626	8136.65
572.987	8090.55
573.349	8185.24
573.71	8117.22
574.071	8173.03
574.432	8212.13
574.794	8248.96
575.155	8255.74
575.516	8170.55
575.877	8239.47
576.238	8262.52
576.599	8309.08
576.96	8270.21
577.32	8276.99
577.681	8325.8
578.042	8398.79
578.403	8375.74
578.763	8401.95
579.124	8381.62
579.485	8454.16
579.845	8458
580.206	8434.5
580.566	8397.21
580.927	8445.34
581.287	8481.95
581.648	8463.42
582.008	8540.48
582.368	8480.82
582.728	8569.86
583.089	8526.24
583.449	8571.44
583.809	8586.36
584.169	8569.18
584.529	8629.52
584.889	8674.04
585.249	8602.17
585.609	8614.83
585.969	8718.56
586.329	8594.27
586.688	8673.36
587.048	8645.56
587.408	8668.84
587.768	8677.65
588.127	8693.47
588.487	8632.91
588.846	8757.2
589.206	8688.95
589.565	8683.3
589.925	8834.71
590.284	8722.62
590.643	8729.86
591.003	8841.49
591.362	8840.13
591.721	8796.29
592.08	8843.52
592.44	8866.35
592.799	8890.53
593.158	8818.21
593.517	8888.95
593.876	8831.55
594.235	8882.17
594.593	8824.77
594.952	8879.91
595.311	8833.58
595.67	8888.95
596.029	8926.23
596.387	8875.84
596.746	8934.37
597.104	8861.15
597.463	8868.61
597.822	8942.28
598.18	8869.06
598.538	8897.31
598.897	8921.71
599.255	8827.25
599.613	9044.2
599.972	8932.79
600.33	9034.71
600.688	8930.53
601.046	8924.43
601.404	8995.84
601.762	9008.72
602.12	8984.76
602.478	9009.85
602.836	9018.89
603.194	9010.53
603.552	8952.45
603.91	9018.66
604.268	8968.04
604.625	8969.85
604.983	9046.91
605.341	8984.99
605.698	9051.65
606.056	9035.38
606.413	9082.39
606.771	9050.3
607.128	8996.51
607.485	9034.71
607.843	9051.2
608.2	9086.23
608.557	9135.72
608.914	9046.68
609.272	9156.74
609.629	9098.43
609.986	9140.24
610.343	9146.34
610.7	9137.53
611.057	9141.82
611.414	9206
611.771	9235.15
612.127	9213.68
612.484	9248.26
612.841	9187.7
613.198	9183.18
613.554	9186.57
613.911	9197.19
614.267	9221.59
614.624	9257.98
614.98	9280.12
615.337	9326.45
615.693	9296.85
616.05	9278.54
616.406	9291.2
616.762	9271.54
617.118	9279.22
617.475	9291.65
617.831	9267.47
618.187	9293.68
618.543	9358.09
618.899	9398.76
619.255	9324.87
619.611	9333.91
619.967	9415.71
620.323	9382.04
620.678	9375.94
621.034	9263.63
621.39	9351.31
621.746	9351.99
622.101	9476.28
622.457	9307.69
622.812	9384.75
623.168	9444.64
623.523	9388.14
623.879	9366.67
624.234	9383.62
624.589	9402.15
624.945	9390.18
625.3	9429.72
625.655	9379.1
626.01	9416.62
626.365	9377.75
626.72	9414.13
627.075	9387.24
627.43	9329.61
627.785	9355.83
628.14	9415.49
628.495	9383.62
628.85	9318.77
629.205	9351.08
629.559	9384.08
629.914	9317.41
630.269	9322.83
630.623	9280.35
630.978	9312.21
631.332	9345.21
631.687	9308.6
632.041	9281.03
632.396	9274.7
632.75	9197.87
633.104	9261.59
633.459	9207.81
633.813	9177.3
634.167	9213.68
634.521	9150.18
634.875	9221.37
635.229	9191.76
635.583	9079.9
635.937	9179.56
636.291	9194.48
636.645	9090.3
636.999	9090.98
637.352	9103.86
637.706	9066.8
638.06	9092.33
638.413	9100.47
638.767	8992.45
639.121	9060.69
639.474	9020.02
639.828	9076.29
640.181	9010.75
640.534	8980.92
640.888	8958.78
641.241	8922.62
641.594	8962.62
641.947	8981.37
642.301	8936.4
642.654	8942.73
643.007	9040.36
643.36	8955.84
643.713	8849.63
644.066	8890.53
644.419	8807.37
644.771	8838.55
645.124	8768.27
645.477	8730.08
645.83	8703.42
646.182	8641.72
646.535	8642.17
646.888	8609.41
647.24	8672.23
647.593	8640.37
647.945	8662.96
648.298	8543.65
648.65	8613.02
649.002	8569.18
649.355	8576.19
649.707	8548.39
650.059	8642.17
650.411	8787.48
650.763	8762.85
651.115	8843.07
651.467	8800.59
651.819	8822.96
652.171	8793.58
652.523	8748.84
652.875	8795.39
653.227	8727.37
653.578	8832.23
653.93	8779.8
654.282	8822.96
654.633	8694.83
654.985	8742.51
655.337	8780.25
655.688	8790.87
656.039	8826.58
656.391	8699.57
656.742	8735.73
657.094	8690.76
657.445	8801.94
657.796	8757.43
658.147	8744.77
658.498	8756.97
658.849	8729.4
659.2	8767.59
659.551	8739.57
659.902	8756.07
660.253	8752
660.604	8782.51
660.955	8754.26
661.306	8750.65
661.656	8742.96
662.007	8743.41
662.358	8766.24
662.708	8756.97
663.059	8787.25
663.409	8693.25
663.76	8816.41
664.11	8784.09
664.461	8781.15
664.811	8818.89
665.161	8810.76
665.511	8739.12
665.862	8751.1
666.212	8821.6
666.562	8783.87
666.912	8822.51
667.262	8779.12
667.612	8786.58
667.962	8813.47
668.312	8750.87
668.662	8852.11
669.011	8792.9
669.361	8745.22
669.711	8740.48
670.06	8758.78
670.41	8743.19
670.76	8706.58
671.109	8733.02
671.459	8677.88
671.808	8630.2
672.157	8707.26
672.507	8678.78
672.856	8603.53
673.205	8653.25
673.554	8710.19
673.904	8655.05
674.253	8673.59
674.602	8667.26
674.951	8570.09
675.3	8517.66
675.649	8639.69
675.998	8664.32
676.346	8654.6
676.695	8634.04
677.044	8573.48
677.393	8544.78
677.741	8623.64
678.09	8536.87
678.438	8542.97
678.787	8514.95
679.135	8484.89
679.484	8528.05
679.832	8514.95
680.181	8514.95
680.529	8539.8
680.877	8432.91
681.225	8514.72
681.573	8480.14
681.922	8435.4
682.27	8448.51
682.618	8417.32
682.966	8448.05
683.314	8448.05
683.661	8403.08
684.009	8331
684.357	8334.39
684.705	8257.78
685.053	8335.97
685.4	8307.95
685.748	8266.82
686.095	8238.34
686.443	8244.9
686.79	8216.65
687.138	8233.37
687.485	8213.48
687.832	8136.42
688.18	8159.7
688.527	8070.89
688.874	8109.31
689.221	8009.65
689.568	8097.56
689.915	8060.49
690.262	8044
690.609	8080.61
690.956	7941.85
691.303	7966.94
691.65	7905.7
691.997	7921.74
692.344	7936.66
692.69	7847.84
693.037	7918.13
693.383	7780.5
693.73	7826.6
694.077	7750.9
694.423	7727.17
694.769	7762.87
695.116	7686.72
695.462	7690.79
695.808	7620.05
696.155	7672.71
696.501	7626.38
696.847	7572.15
697.193	7496.67
697.539	7504.35
697.885	7496.22
698.231	7469.78
698.577	7415.54
698.923	7349.1
699.269	7390
699.614	7298.03
699.96	7323.56
700.306	7338.93
700.651	7277.46
700.997	7226.17
701.342	7278.82
701.688	7271.14
702.033	7204.25
702.379	7274.75
702.724	7181.65
703.069	7130.8
703.415	7131.48
703.76	7068.66
704.105	7094.64
704.45	7047.87
704.795	7000.18
705.14	6999.05
705.485	6982.78
705.83	6979.84
706.175	6919.28
706.52	6915.21
706.865	6921.09
707.209	6911.37
707.554	6881.32
707.899	6872.95
708.243	6837.93
708.588	6793.18
708.932	6739.17
709.277	6741.43
709.621	6768.78
709.966	6688.55
710.31	6763.13
710.654	6669.8
710.998	6676.8
711.342	6694.43
711.687	6633.87
712.031	6593.19
712.375	6624.6
712.719	6602.45
713.063	6620.76
713.407	6608.56
713.75	6562.23
714.094	6592.06
714.438	6568.78
714.782	6552.29
715.125	6552.96
715.469	6527.88
715.812	6503.93
716.156	6417.37
716.499	6449.46
716.843	6455.11
717.186	6439.52
717.53	6444.49
717.873	6518.61
718.216	6466.64
718.559	6404.27
718.902	6372.63
719.246	6354.32
719.589	6343.25
719.932	6314.55
720.275	6338.96
720.617	6306.64
720.96	6357.94
721.303	6373.98
721.646	6363.82
721.989	6292.63
722.331	6298.05
722.674	6268.45
723.016	6287.43
723.359	6274.1
723.701	6231.16
724.044	6238.17
724.386	6231.62
724.729	6214.44
725.071	6199.07
725.413	6225.06
725.755	6232.52
726.097	6195.46
726.439	6190.94
726.782	6204.72
727.124	6174.22
727.465	6155.46
727.807	6165.63
728.149	6145.29
728.491	6139.41
728.833	6143.71
729.175	6163.59
729.516	6145.52
729.858	6190.03
730.199	6180.09
730.541	6111.62
730.882	6147.1
731.224	6187.55
731.565	6089.7
731.906	6110.49
732.248	6129.47
732.589	6096.25
732.93	6093.54
733.271	6112.3
733.612	6114.1
733.953	6121.11
734.294	6116.59
734.635	6122.69
734.976	6104.84
735.317	6103.48
735.658	6068.91
735.999	6103.48
736.339	6049.7
736.68	6132.41
737.021	6054.67
737.361	6102.13
737.702	6119.3
738.042	6101
738.383	6110.04
738.723	6188.91
739.063	6135.12
739.404	6107.33
739.744	6119.75
740.084	6114.78
740.424	6164.05
740.764	6145.74
741.104	6174.89
741.444	6123.14
741.784	6100.32
742.124	6176.02
742.464	6187.78
742.804	6174.22
743.143	6193.2
743.483	6197.72
743.823	6199.07
744.162	6236.36
744.502	6218.51
744.841	6200.88
745.181	6289.47
745.52	6249.92
745.86	6318.17
746.199	6278.17
746.538	6371.95
746.877	6416.92
747.216	6412.4
747.556	6446.3
747.895	6475.9
748.234	6473.64
748.573	6531.72
748.911	6539.63
749.25	6639.97
749.589	6633.19
749.928	6720.19
750.267	6742.11
750.605	6753.64
750.944	6823.69
751.283	6853.97
751.621	6897.59
751.96	6970.13
752.298	7001.31
752.636	7052.16
752.975	7121.31
753.313	7130.8
753.651	7258.48
753.989	7260.74
754.327	7408.76
754.666	7414.86
755.004	7486.05
755.342	7643.33
755.679	7664.12
756.017	7727.62
756.355	7874.51
756.693	7970.33
757.031	7989.54
757.368	8062.75
757.706	8135.75
758.044	8250.32
758.381	8367.6
758.719	8464.55
759.056	8568.5
759.394	8627.94
759.731	8736.86
760.068	8851.66
760.405	8920.58
760.743	8991.54
761.08	9110.41
761.417	9239.22
761.754	9274.25
762.091	9455.94
762.428	9535.26
762.765	9606.89
763.102	9742.71
763.438	9734.12
763.775	9839.88
764.112	10058.18
764.449	10060.44
764.785	10206.88
765.122	10190.83
765.458	10374.78
765.795	10414.33
766.131	10545.85
766.467	10609.81
766.804	10692.06
767.14	10759.63
767.476	10915.56
767.812	10939.06
768.148	11075.56
768.485	11034.43
768.821	11146.74
769.157	11178.6
769.492	11240.07
769.828	11395.32
770.164	11299.05
770.5	11503.57
770.836	11479.39
771.171	11495.88
771.507	11576.56
771.842	11595.99
772.178	11665.6
772.513	11717.8
772.849	11796.44
773.184	11793.96
773.519	11785.14
773.855	11864.91
774.19	11910.34
774.525	11912.37
774.86	11900.85
775.195	11992.59
775.53	12019.03
775.865	11964.35
776.2	11987.62
776.535	11915.53
776.87	12016.32
777.205	12055.64
777.539	12042.31
777.874	12097.22
778.209	12022.2
778.543	12070.33
778.878	11976.78
779.212	12148.75
779.547	11991.24
779.881	12172.02
780.215	12055.42
780.55	12117.56
780.884	12135.19
781.218	12096.55
781.552	12133.61
781.886	12157.11
782.22	12123.21
782.554	12059.26
782.888	11986.94
783.222	11919.38
783.556	12002.31
783.889	11944.01
784.223	11978.81
784.557	11906.72
784.89	11955.53
785.224	11877.57
785.557	11875.31
785.891	11896.55
786.224	11914.86
786.558	11953.05
786.891	11798.93
787.224	11808.42
787.557	11751.7
787.891	11821.75
788.224	11763.45
788.557	11917.34
788.89	11741.3
789.223	11793.73
789.556	11722.09
789.888	11720.51
790.221	11694.3
790.554	11694.52
790.887	11606.39
791.219	11603.68
791.552	11596.22
791.884	11597.58
792.217	11556.45
792.549	11517.8
792.882	11476.45
793.214	11476
793.546	11490.01
793.879	11472.16
794.211	11361.88
794.543	11396.9
794.875	11407.3
795.207	11392.84
795.539	11316.45
795.871	11388.77
796.203	11257.92
796.535	11257.02
796.867	11162.56
797.198	11192.39
797.53	11117.36
797.862	11058.61
798.193	11100.87
798.525	11015.9
798.856	11128.89
799.188	10986.97
799.519	10934.09
799.85	10875.79
800.182	10971.83
800.513	10934.32
800.844	10819.74
801.175	10966.63
801.506	10907.43
801.837	10822.23
802.168	10840.08
802.499	10773.64
802.83	10722.35
803.161	10706.53
803.491	10655.23
803.822	10634.44
804.153	10625.85
804.483	10537.49
804.814	10503.14
805.145	10565.51
805.475	10520.54
805.805	10453.65
806.136	10464.5
806.466	10466.08
806.796	10474.22
807.126	10374.33
807.457	10407.55
807.787	10348.34
808.117	10339.08
808.447	10245.75
808.777	10317.16
809.107	10280.55
809.436	10259.08
809.766	10360.77
810.096	10190.38
810.426	10110.61
810.755	10214.34
811.085	10145.41
811.414	10177.5
811.744	10078.07
812.073	10029.26
812.403	10045.98
812.732	10027.9
813.061	9998.97
813.39	10001.23
813.719	9939.31
814.049	9974.57
814.378	9978.64
814.707	9891.41
815.036	9902.25
815.365	9878.53
815.693	9731.18
816.022	9858.19
816.351	9753.56
816.68	9742.26
817.008	9837.62
817.337	9693.9
817.665	9623.39
817.994	9718.08
818.322	9666.78
818.651	9658.42
818.979	9566.9
819.307	9639.89
819.636	9604.63
819.964	9610.51
820.292	9572.54
820.62	9534.58
820.948	9497.07
821.276	9619.1
821.604	9530.51
821.932	9561.25
822.259	9599.66
822.587	9518.08
822.915	9537.07
823.243	9560.57
823.57	9521.7
823.898	9544.75
824.225	9504.07
824.553	9549.95
824.88	9530.06
825.207	9589.49
825.535	9501.13
825.862	9519.44
826.189	9569.61
826.516	9605.76
826.843	9524.18
827.17	9589.04
827.497	9558.08
827.824	9599.21
828.151	9573.9
828.478	9652.54
828.805	9647.12
829.131	9531.42
829.458	9546.78
829.785	9475.15
830.111	9498.65
830.438	9632.88
830.764	9549.95
831.09	9584.3
831.417	9568.03
831.743	9561.92
832.069	9596.73
832.395	9445.09
832.722	9554.01
833.048	9414.58
833.374	9506.11
833.7	9453.9
834.026	9425.88
834.351	9540.91
834.677	9498.65
835.003	9538.2
835.329	9492.32
835.654	9413.91
835.98	9415.26
836.306	9441.47
836.631	9418.42
836.956	9397.86
837.282	9436.73
837.607	9392.89
837.932	9349.05
838.258	9389.72
838.583	9340.91
838.908	9328.26
839.233	9312.89
839.558	9295.04
839.883	9240.58
840.208	9242.61
840.533	9291.42
840.858	9270.41
841.182	9219.11
841.507	9286.9
841.832	9135.04
842.156	9179.56
842.481	9201.71
842.805	9150.18
843.13	9107.02
843.454	9127.13
843.778	9038.32
844.103	9069.28
844.427	9033.12
844.751	8995.61
845.075	8994.48
845.399	8958.32
845.723	8853.02
846.047	8994.93
846.371	8883.75
846.695	8854.15
847.019	8833.58
847.343	8719.01
847.666	8743.19
847.99	8681.27
848.313	8719.69
848.637	8626.13
848.96	8621.38
849.284	8567.15
849.607	8542.74
849.931	8539.58
850.254	8458.68
850.577	8393.37
850.9	8359.7
851.223	8409.41
851.546	8353.59
851.869	8258.91
852.192	8300.49
852.515	8224.11
852.838	8191.11
853.161	8258.23
853.483	8112.24
853.806	8145.92
854.129	8139.81
854.451	8055.52
854.774	8050.55
855.096	8008.29
855.419	8043.32
855.741	8011.46
856.063	7972.36
856.385	7951.12
856.708	7939.37
857.03	7881.74
857.352	7841.52
857.674	7848.97
857.996	7804.91
858.318	7777.34
858.64	7733.5
858.961	7763.78
859.283	7742.54
859.605	7707.06
859.926	7722.2
860.248	7669.54
860.57	7604.46
860.891	7684.68
861.212	7589.32
861.534	7602.2
861.855	7566.72
862.176	7592.03
862.498	7547.74
862.819	7536.21
863.14	7559.26
863.461	7531.02
863.782	7544.35
864.103	7465.26
864.424	7457.57
864.745	7398.59
865.065	7407.63
865.386	7487.18
865.707	7380.29
866.027	7424.35
866.348	7433.84
866.668	7368.54
866.989	7418.03
867.309	7361.76
867.63	7329.44
867.95	7370.57
868.27	7311.59
868.59	7314.98
868.91	7283.34
869.23	7295.54
869.55	7279.95
869.87	7277.69
870.19	7282.21
870.51	7283.79
870.83	7251.7
871.15	7204.25
871.469	7219.39
871.789	7210.8
872.109	7190.91
872.428	7161.99
872.748	7125.83
873.067	7177.58
873.386	7164.92
873.706	7181.65
874.025	7126.06
874.344	7136.68
874.663	7103.23
874.982	7105.72
875.301	7067.75
875.62	7073.63
875.939	7093.06
876.258	7046.74
876.577	7001.99
876.896	7042.22
877.214	7030.46
877.533	7064.36
877.852	6965.38
878.17	7017.36
878.489	6973.07
878.807	6977.13
879.125	6931.94
879.444	6900.07
879.762	6938.04
880.08	6929.68
880.398	6909.79
880.716	6860.98
881.034	6865.72
881.352	6880.41
881.67	6823.01
881.988	6815.56
882.306	6790.02
882.624	6800.87
882.941	6808.32
883.259	6721.32
883.577	6768.78
883.894	6740.75
884.212	6741.43
884.529	6721.55
884.846	6645.16
885.164	6651.94
885.481	6664.15
885.798	6627.54
886.115	6615.33
886.432	6593.87
886.75	6589.8
887.067	6609.01
887.383	6564.49
887.7	6569.91
888.017	6563.58
888.334	6572.4
888.651	6538.5
888.967	6520.42
889.284	6483.36
889.6	6494.21
889.917	6399.75
890.233	6453.53
890.55	6351.39
890.866	6346.19
891.182	6409.92
891.498	6374.66
891.815	6302.8
892.131	6279.52
892.447	6285.4
892.763	6290.37
893.079	6221.67
893.395	6256.25
893.71	6197.04
894.026	6220.32
894.342	6201.33
894.657	6105.52
894.973	6166.76
895.289	6102.13
895.604	6143.26
895.92	6059.64
896.235	6051.73
896.55	5997.95
896.865	6013.77
897.181	6046.31
897.496	5991.62
897.811	5985.07
898.126	5927.22
898.441	5967.89
898.756	5909.36
899.071	5893.77
899.386	5896.03
899.7	5833.66
900.015	5868.24
900.33	5793.89
900.644	5771.29
900.959	5804.51
901.273	5760.89
901.588	5779.88
901.902	5706.21
902.216	5698.97
902.531	5689.48
902.845	5637.28
903.159	5631.63
903.473	5585.98
903.787	5581.92
904.101	5599.77
904.415	5525.65
904.729	5522.71
905.042	5501.01
905.356	5516.83
905.67	5557.96
905.984	5503.05
906.297	5416.27
906.611	5445.42
906.924	5444.97
907.237	5335.82
907.551	5362.94
907.864	5334.46
908.177	5329.49
908.491	5309.61
908.804	5233.45
909.117	5250.85
909.43	5174.92
909.743	5191.42
910.056	5252.66
910.368	5188.93
910.681	5100.57
910.994	5137.18
911.307	5128.59
911.619	5096.28
911.932	5118.2
912.244	5047.69
912.557	5030.29
912.869	4993.46
913.181	4948.26
913.494	4955.27
913.806	4933.34
914.118	4930.41
914.43	4920.24
914.742	4862.84
915.054	4841.37
915.366	4809.28
915.678	4814.93
915.99	4828.71
916.302	4812.44
916.613	4786.23
916.925	4743.75
917.236	4761.37
917.548	4712.11
917.859	4694.26
918.171	4704.65
918.482	4660.81
918.794	4652.45
919.105	4628.49
919.416	4605.44
919.727	4561.6
920.038	4546.69
920.349	4573.35
920.66	4564.77
920.971	4550.08
921.282	4521.15
921.593	4484.32
921.903	4438.22
922.214	4400.03
922.525	4451.78
922.835	4411.1
923.146	4376.3
923.456	4393.25
923.767	4385.34
924.077	4379.91
924.387	4360.93
924.697	4332.23
925.008	4297.43
925.318	4273.48
925.628	4290.65
925.938	4264.44
926.248	4185.79
926.558	4214.95
926.867	4194.61
927.177	4185.12
927.487	4117.32
927.796	4152.8
928.106	4154.61
928.416	4081.16
928.725	4155.96
929.034	4091.11
929.344	4056.76
929.653	4056.76
929.962	4057.89
930.271	4014.05
930.581	3991.22
930.89	4015.63
931.199	4009.98
931.508	3939.47
931.817	3957.1
932.125	3894.73
932.434	3873.71
932.743	3910.77
933.051	3911.22
933.36	3880.27
933.669	3857.21
933.977	3857.67
934.286	3837.55
934.594	3810.66
934.902	3806.59
935.21	3756.2
935.519	3759.36
935.827	3709.87
936.135	3716.88
936.443	3704.45
936.751	3696.77
937.059	3676.88
937.367	3649.08
937.674	3611.35
937.982	3601.18
938.29	3613.61
938.597	3622.64
938.905	3561.86
939.213	3571.57
939.52	3546.26
939.827	3526.38
940.135	3524.57
940.442	3510.56
940.749	3478.47
941.056	3509.2
941.363	3472.37
941.67	3463.33
941.977	3425.81
942.284	3416.1
942.591	3407.28
942.898	3369.32
943.205	3351.01
943.511	3358.92
943.818	3333.39
944.125	3332.93
944.431	3357.57
944.738	3348.75
945.044	3304.01
945.35	3274.41
945.657	3274.86
945.963	3262.65
946.269	3249.1
946.575	3318.92
946.881	3221.07
947.187	3197.57
947.493	3206.61
947.799	3231.92
948.105	3159.83
948.41	3154.41
948.716	3142.66
949.022	3124.13
949.327	3173.17
949.633	3086.39
949.938	3053.85
950.244	3083.68
950.549	3083.45
950.854	3052.49
951.16	3059.27
951.465	3047.07
951.77	3066.95
952.075	3026.73
952.38	3018.82
952.685	2988.54
952.99	2946.73
953.294	2942.89
953.599	2928.2
953.904	2906.51
954.209	2886.39
954.513	2890.23
954.818	2871.03
955.122	2874.19
955.426	2880.52
955.731	2880.29
956.035	2871.03
956.339	2837.58
956.643	2829.9
956.948	2787.64
957.252	2806.85
957.556	2796.23
957.86	2809.33
958.163	2775.21
958.467	2779.96
958.771	2777.24
959.075	2764.81
959.378	2684.36
959.682	2703.12
959.985	2708.09
960.289	2657.7
960.592	2697.7
960.896	2692.73
961.199	2682.78
961.502	2659.51
961.805	2658.83
962.108	2624.25
962.411	2615.67
962.714	2585.16
963.017	2593.75
963.32	2611.6
963.623	2566.4
963.926	2573.86
964.228	2582.67
964.531	2580.64
964.833	2516.46
965.136	2527.31
965.438	2514.2
965.741	2514.65
966.043	2480.53
966.345	2490.7
966.648	2467.42
966.95	2462.22
967.252	2443.24
967.554	2411.15
967.856	2418.61
968.158	2433.52
968.46	2379.06
968.761	2406.86
969.063	2359.63
969.365	2388.1
969.666	2383.36
969.968	2368.67
970.269	2348.1
970.571	2349.23
970.872	2346.07
971.174	2346.29
971.475	2324.37
971.776	2299.74
972.077	2272.85
972.378	2288.67
972.679	2268.56
972.98	2277.82
973.281	2258.61
973.582	2244.15
973.883	2267.88
974.183	2234.66
974.484	2202.12
974.785	2225.62
975.085	2191.5
975.386	2214.09
975.686	2172.29
975.986	2175.68
976.287	2177.94
976.587	2159.41
976.887	2137.94
977.187	2176.36
977.487	2130.48
977.787	2115.11
978.087	2105.62
978.387	2095
978.687	2075.57
978.987	2078.05
979.286	2053.19
979.586	2059.07
979.885	2030.82
980.185	2038.73
980.484	2055.45
980.784	2016.13
981.083	2019.75
981.382	2021.78
981.682	2009.13
981.981	2011.84
982.28	1974.55
982.579	1953.31
982.878	1944.27
983.177	1940.88
983.475	1959.86
983.774	1924.16
984.073	1955.57
984.372	1897.49
984.67	1954.89
984.969	1915.57
985.267	1920.99
985.566	1919.41
985.864	1896.59
986.162	1918.73
986.461	1857.72
986.759	1849.81
987.057	1852.52
987.355	1850.94
987.653	1896.81
987.951	1864.5
988.249	1825.63
988.547	1822.92
988.844	1803.94
989.142	1776.37
989.44	1778.17
989.737	1776.82
990.035	1742.02
990.332	1772.75
990.63	1766.42
990.927	1755.8
991.224	1775.24
991.521	1753.77
991.819	1753.54
992.116	1729.81
992.413	1719.19
992.71	1724.62
993.006	1702.7
993.303	1677.84
993.6	1650.72
993.897	1692.53
994.193	1651.4
994.49	1673.77
994.787	1671.74
995.083	1627.22
995.379	1651.85
995.676	1658.63
995.972	1591.29
996.268	1640.55
996.565	1612.08
996.861	1608.46
997.157	1611.17
997.453	1564.85
997.749	1621.79
998.044	1553.77
998.34	1592.19
998.636	1569.82
998.932	1539.54
999.227	1583.15
999.523	1527.11
999.818	1534.56
1000.114	1541.8
1000.409	1514.23
1000.704	1486.2
1001	1510.38
1001.295	1508.58
1001.59	1498.86
1001.885	1494.34
1002.18	1461.12
1002.475	1476.26
1002.77	1452.08
1003.065	1449.82
1003.359	1449.82
1003.654	1457.5
1003.949	1429.71
1004.243	1422.48
1004.538	1399.2
1004.832	1404.85
1005.127	1414.12
1005.421	1398.97
1005.715	1411.4
1006.009	1431.52
1006.304	1343.61
1006.598	1374.12
1006.892	1341.12
1007.186	1325.53
1007.48	1331.18
1007.773	1336.15
1008.067	1319.65
1008.361	1322.59
1008.655	1337.28
1008.948	1306.1
1009.242	1302.25
1009.535	1278.98
1009.829	1262.93
1010.122	1279.88
1010.415	1257.51
1010.708	1281.92
1011.001	1258.64
1011.295	1246.44
1011.588	1245.76
1011.881	1252.54
1012.173	1241.24
1012.466	1230.39
1012.759	1228.13
1013.052	1187.91
1013.344	1223.84
1013.637	1195.36
1013.93	1202.14
1014.222	1193.1
1014.514	1169.15
1014.807	1171.41
1015.099	1180.68
1015.391	1157.4
1015.683	1158.3
1015.976	1152.43
1016.268	1155.37
1016.56	1126.89
1016.851	1118.76
1017.143	1130.28
1017.435	1127.12
1017.727	1092.09
1018.018	1080.11
1018.31	1086.21
1018.602	1116.04
1018.893	1090.06
1019.185	1106.33
1019.476	1100.45
1019.767	1078.98
1020.058	1062.26
1020.35	1036.05
1020.641	1054.35
1020.932	1048.02
1021.223	1047.12
1021.514	1040.57
1021.804	1013.67
1022.095	1037.18
1022.386	1005.76
1022.677	1003.5
1022.967	995.82
1023.258	1016.61
1023.548	1002.6
1023.839	962.83
1024.129	979.78
1024.419	975.26
1024.709	963.28
1025	958.99
1025.29	949.95
1025.58	925.77
1025.87	957.86
1026.16	923.96
1026.449	951.98
1026.739	918.08
1027.029	919.89
1027.319	897.29
1027.608	908.14
1027.898	891.87
1028.187	923.28
1028.477	878.54
1028.766	906.56
1029.055	866.11
1029.344	874.69
1029.634	877.18
1029.923	875.37
1030.212	863.62
1030.501	857.07
1030.79	854.81
1031.078	845.54
1031.367	851.42
1031.656	846.45
1031.945	847.8
1032.233	841.25
1032.522	816.84
1032.81	826.11
1033.099	841.93
1033.387	803.06
1033.675	844.64
1033.963	802.15
1034.251	801.25
1034.54	801.93
1034.828	784.75
1035.116	790.18
1035.403	807.35
1035.691	799.22
1035.979	775.04
1036.267	763.51
1036.554	770.29
1036.842	765.32
1037.129	774.36
1037.417	743.4
1037.704	733.68
1037.992	745.43
1038.279	742.49
1038.566	727.35
1038.853	727.35
1039.14	727.35
