Data from hue_260_FLMS001491_00050.txt Node
Date: Tue Feb 07 15:59:04 GMT 2017
User: dcchb
Spectrometer: FLMS00149
Trigger mode: 0
Integration Time (sec): 2.000000E-2
Scans to average: 10
Electric dark correction enabled: true
Nonlinearity correction enabled: false
Boxcar width: 0
XAxis mode: Wavelengths
Number of Pixels in Spectrum: 2048
>>>>>Begin Spectral Data<<<<<
341.393	-11.16
341.776	-11.16
342.16	-11.16
342.543	-60.2
342.927	-55.68
343.31	-67.43
343.693	-71.27
344.077	-49.57
344.46	-56.13
344.843	-57.26
345.226	-40.76
345.61	-23.13
345.993	0.14
346.376	-7.77
346.759	5.79
347.142	19.58
347.525	32.23
347.908	79.24
348.291	63.87
348.674	78.78
349.057	93.7
349.44	152.45
349.823	181.38
350.206	175.05
350.588	200.59
350.971	181.38
351.354	219.57
351.737	239.01
352.119	245.11
352.502	264.09
352.884	256.18
353.267	264.32
353.65	283.07
354.032	284.65
354.414	284.65
354.797	293.69
355.179	308.16
355.562	307.7
355.944	317.87
356.326	324.2
356.709	334.37
357.091	342.96
357.473	333.01
357.855	325.78
358.238	337.99
358.62	323.07
359.002	327.82
359.384	337.08
359.766	352.67
360.148	334.37
360.53	327.59
360.912	335.05
361.294	319.91
361.676	334.14
362.057	312.68
362.439	319.91
362.821	325.78
363.203	323.3
363.584	340.7
363.966	314.94
364.348	317.87
364.729	326.46
365.111	290.53
365.493	305.67
365.874	315.61
366.256	317.65
366.637	314.03
367.019	309.51
367.4	295.73
367.781	309.96
368.163	315.61
368.544	316.52
368.925	310.42
369.306	322.17
369.688	308.61
370.069	309.74
370.45	304.31
370.831	302.73
371.212	319.68
371.593	279.91
371.974	286.46
372.355	304.99
372.736	301.38
373.117	308.38
373.498	301.83
373.879	287.82
374.26	308.61
374.641	299.57
375.021	318.78
375.402	319.23
375.783	321.94
376.163	330.3
376.544	307.48
376.925	317.65
377.305	307.7
377.686	308.38
378.066	339.57
378.447	334.14
378.827	326.46
379.208	338.89
379.588	325.78
379.968	297.76
380.349	315.39
380.729	317.42
381.109	334.14
381.489	330.98
381.87	325.33
382.25	328.49
382.63	336.86
383.01	329.85
383.39	343.64
383.77	333.69
384.15	333.24
384.53	366.69
384.91	347.02
385.29	338.66
385.67	342.96
386.049	359.23
386.429	340.92
386.809	341.83
387.189	314.03
387.568	327.82
387.948	343.64
388.328	341.83
388.707	370.08
389.087	352.22
389.466	344.99
389.846	354.03
390.225	345.44
390.605	340.02
390.984	357.87
391.363	362.39
391.743	349.51
392.122	375.05
392.501	362.17
392.881	377.76
393.26	373.46
393.639	386.35
394.018	358.55
394.397	383.63
394.776	376.4
395.155	397.87
395.534	361.04
395.913	393.58
396.292	417.98
396.671	383.41
397.05	397.87
397.429	386.35
397.808	415.27
398.186	386.57
398.565	382.28
398.944	408.49
399.323	397.42
399.701	405.1
400.08	386.8
400.458	396.74
400.837	389.74
401.215	399.23
401.594	424.99
401.972	415.95
402.351	429.51
402.729	409.17
403.107	417.08
403.486	431.54
403.864	438.32
404.242	439.68
404.62	395.16
404.999	425.44
405.377	437.19
405.755	437.87
406.133	444.88
406.511	438.77
406.889	441.94
407.267	464.54
407.645	475.83
408.023	457.08
408.401	486.23
408.779	465.21
409.156	479.9
409.534	491.88
409.912	500.92
410.29	479
410.667	510.18
411.045	495.72
411.422	520.81
411.8	516.74
412.178	533.01
412.555	521.94
412.933	538.88
413.31	568.71
413.687	548.83
414.065	562.84
414.442	571.65
414.819	585.89
415.197	587.47
415.574	590.41
415.951	583.85
416.328	612.1
416.705	606.45
417.082	607.58
417.46	617.98
417.837	622.5
418.214	623.18
418.591	635.83
418.967	650.07
419.344	624.76
419.721	642.84
420.098	659.56
420.475	685.77
420.852	689.84
421.228	683.74
421.605	687.81
421.982	744.98
422.358	742.04
422.735	713.34
423.111	742.95
423.488	743.17
423.864	759.44
424.241	782.95
424.617	809.16
424.994	777.52
425.37	801.93
425.746	817.97
426.123	840.35
426.499	820.91
426.875	820.46
427.251	853.23
427.627	872.43
428.003	893.23
428.379	869.95
428.756	888.48
429.132	884.41
429.507	914.92
429.883	922.15
430.259	955.37
430.635	957.63
431.011	957.4
431.387	982.71
431.763	992.21
432.138	997.4
432.514	990.4
432.89	1018.19
433.265	1043.5
433.641	1064.75
434.016	1069.49
434.392	1061.58
434.767	1093.67
435.143	1130.96
435.518	1153.11
435.894	1130.28
436.269	1164.63
436.644	1174.57
437.02	1186.1
437.395	1218.64
437.77	1236.72
438.145	1247.11
438.52	1278.07
438.895	1262.48
439.271	1298.41
439.646	1317.17
440.021	1310.39
440.395	1340.22
440.77	1327.34
441.145	1349.71
441.52	1365.3
441.895	1386.32
442.27	1389.48
442.645	1406.43
443.019	1430.84
443.394	1395.58
443.769	1457.28
444.143	1429.93
444.518	1465.41
444.892	1466.32
445.267	1511.97
445.641	1511.97
446.016	1488.92
446.39	1543.38
446.764	1510.16
447.139	1516.71
447.513	1551.29
447.887	1547.22
448.262	1564.17
448.636	1580.21
449.01	1584.28
449.384	1609.36
449.758	1643.04
450.132	1644.84
450.506	1622.02
450.88	1681.23
451.254	1657.05
451.628	1716.25
452.002	1702.7
452.376	1716.48
452.75	1724.39
453.123	1732.3
453.497	1740.66
453.871	1759.42
454.244	1807.33
454.618	1787.66
454.992	1823.6
455.365	1834.67
455.739	1892.07
456.112	1885.97
456.486	1949.24
456.859	1921.22
457.232	1973.65
457.606	1951.95
457.979	1957.83
458.352	1998.05
458.725	2031.95
459.099	2052.06
459.472	2088.45
459.845	2117.15
460.218	2123.48
460.591	2113.98
460.964	2119.18
461.337	2165.51
461.71	2170.48
462.083	2231.49
462.456	2259.29
462.829	2263.36
463.201	2252.06
463.574	2281.66
463.947	2299.06
464.32	2351.94
464.692	2382.9
465.065	2384.26
465.438	2417.03
465.81	2443.24
466.183	2453.64
466.555	2529.57
466.928	2538.61
467.3	2536.12
467.672	2553.97
468.045	2626.51
468.417	2631.26
468.789	2626.06
469.161	2662.67
469.534	2711.71
469.906	2728.88
470.278	2791.48
470.65	2783.8
471.022	2847.98
471.394	2893.17
471.766	2888.2
472.138	2911.03
472.51	3000.51
472.882	3024.47
473.253	3063.56
473.625	3095.88
473.997	3135.43
474.369	3175.65
474.74	3196.67
475.112	3247.29
475.484	3294.97
475.855	3320.51
476.227	3344.23
476.598	3482.08
476.97	3429.66
477.341	3536.09
477.713	3587.17
478.084	3612.7
478.455	3692.93
478.827	3723.89
479.198	3790.32
479.569	3774.28
479.94	3928.85
480.311	3960.26
480.682	4011.79
481.053	4047.49
481.424	4103.54
481.795	4110.54
482.166	4169.07
482.537	4239.8
482.908	4276.41
483.279	4343.98
483.65	4398.9
484.021	4515.5
484.391	4512.11
484.762	4557.99
485.133	4593.92
485.503	4646.8
485.874	4733.12
486.244	4769.51
486.615	4827.36
486.985	4888.15
487.356	4932.67
487.726	5023.96
488.097	5063.06
488.467	5081.36
488.837	5161.14
489.207	5216.73
489.578	5284.75
489.948	5345.09
490.318	5344.86
490.688	5373.56
491.058	5421.69
491.428	5481.81
491.798	5572.2
492.168	5685.19
492.538	5675.25
492.908	5719.99
493.278	5776.26
493.648	5780.1
494.017	5871.63
494.387	5831.85
494.757	5914.56
495.126	5997.05
495.496	6044.95
495.866	5990.27
496.235	6080.66
496.605	6127.66
496.974	6099.42
497.344	6178.28
497.713	6185.97
498.082	6226.64
498.452	6282.01
498.821	6302.35
499.19	6311.84
499.559	6353.65
499.928	6375.11
500.298	6417.37
500.667	6438.62
501.036	6457.6
501.405	6474.1
501.774	6470.25
502.143	6584.37
502.512	6512.29
502.88	6595.67
503.249	6578.5
503.618	6644.49
503.987	6652.17
504.356	6675.9
504.724	6692.17
505.093	6704.6
505.462	6773.07
505.83	6759.51
506.199	6825.72
506.567	6898.94
506.936	6827.08
507.304	6919.28
507.672	6902.11
508.041	6950.24
508.409	6995.21
508.777	6998.6
509.145	7018.71
509.514	7038.15
509.882	7024.82
510.25	6989.34
510.618	7090.12
510.986	7111.37
511.354	7103.46
511.722	7188.2
512.09	7197.47
512.458	7171.03
512.826	7255.54
513.193	7273.4
513.561	7270.68
513.929	7230.01
514.297	7305.94
514.664	7316.11
515.032	7378.93
515.4	7396.33
515.767	7384.13
516.135	7353.62
516.502	7349.78
516.869	7409.66
517.237	7408.76
517.604	7380.51
517.972	7456.44
518.339	7484.01
518.706	7461.87
519.073	7456.22
519.44	7468.87
519.808	7531.92
520.175	7523.11
520.542	7610.79
520.909	7540.51
521.276	7553.61
521.643	7608.53
522.009	7650.56
522.376	7634.97
522.743	7669.09
523.11	7689.88
523.477	7673.39
523.843	7785.7
524.21	7812.14
524.577	7805.36
524.943	7812.37
525.31	7794.96
525.676	7866.38
526.043	7886.49
526.409	7860.73
526.776	7935.07
527.142	7958.8
527.508	7919.48
527.874	7975.3
528.241	7905.7
528.607	7912.48
528.973	7956.77
529.339	7942.53
529.705	8012.36
530.071	8020.27
530.437	8037.22
530.803	8041.74
531.169	7992.47
531.535	7967.62
531.901	7995.64
532.267	7966.03
532.632	8048.07
532.998	8015.52
533.364	8050.33
533.73	8051.23
534.095	8059.36
534.461	8046.03
534.826	8095.52
535.192	8053.49
535.557	8066.14
535.923	8015.52
536.288	8049.2
536.653	8039.7
537.019	7968.52
537.384	8027.95
537.749	8023.21
538.114	8001.74
538.479	7972.36
538.845	8023.21
539.21	7987.28
539.575	7991.12
539.94	8011.46
540.305	8005.35
540.67	7968.07
541.034	7943.66
541.399	7942.53
541.764	7942.76
542.129	7979.37
542.494	7963.32
542.858	7922.87
543.223	7971.23
543.587	7923.1
543.952	7912.02
544.316	7862.53
544.681	7898.69
545.045	7879.03
545.41	7861.4
545.774	7913.15
546.138	7854.85
546.503	7897.56
546.867	7855.98
547.231	7925.58
547.595	7851.69
547.959	7810.78
548.324	7865.02
548.688	7831.12
549.052	7839.71
549.416	7808.52
549.779	7832.03
550.143	7787.73
550.507	7746.6
550.871	7866.83
551.235	7796.77
551.599	7812.14
551.962	7752.03
552.326	7778.02
552.689	7768.75
553.053	7743.89
553.417	7755.87
553.78	7791.35
554.143	7727.4
554.507	7760.16
554.87	7741.41
555.234	7774.85
555.597	7695.31
555.96	7700.5
556.323	7775.08
556.686	7708.41
557.05	7774.17
557.413	7718.58
557.776	7782.31
558.139	7768.3
558.502	7824.79
558.865	7835.19
559.228	7787.73
559.59	7785.02
559.953	7803.55
560.316	7851.23
560.679	7831.57
561.041	7825.7
561.404	7831.12
561.767	7869.09
562.129	7820.05
562.492	7939.82
562.854	7904.57
563.217	7860.05
563.579	7903.66
563.941	7956.09
564.304	7910.44
564.666	7949.99
565.028	7951.8
565.39	7997.45
565.753	7997.67
566.115	7999.25
566.477	8033.6
566.839	8053.04
567.201	7996.54
567.563	8045.35
567.925	8081.06
568.287	8157.21
568.648	8109.53
569.01	8118.57
569.372	8147.72
569.734	8162.41
570.095	8201.06
570.457	8173.03
570.819	8186.59
571.18	8229.53
571.542	8285.35
571.903	8255.07
572.265	8262.97
572.626	8286.03
572.987	8342.52
573.349	8349.3
573.71	8338
574.071	8375.74
574.432	8390.66
574.794	8475.4
575.155	8397.89
575.516	8455.29
575.877	8428.17
576.238	8484.44
576.599	8554.27
576.96	8474.72
577.32	8590.88
577.681	8484.21
578.042	8573.93
578.403	8616.64
578.763	8621.38
579.124	8573.7
579.485	8698.22
579.845	8660.7
580.206	8717.88
580.566	8719.91
580.927	8708.16
581.287	8799.23
581.648	8774.37
582.008	8770.98
582.368	8778.22
582.728	8792
583.089	8813.24
583.449	8775.28
583.809	8894.82
584.169	8846.46
584.529	8876.97
584.889	8897.76
585.249	8886.69
585.609	8891.43
585.969	8965.78
586.329	8909.06
586.688	8993.35
587.048	8904.77
587.408	8919.23
587.768	8973.69
588.127	8960.58
588.487	8985.44
588.846	9041.03
589.206	9009.4
589.565	9034.93
589.925	9076.74
590.284	9119
590.643	9124.65
591.003	9094.14
591.362	9117.64
591.721	9155.15
592.08	9140.69
592.44	9151.77
592.799	9148.83
593.158	9214.14
593.517	9148.6
593.876	9211.65
594.235	9177.75
594.593	9222.95
594.952	9220.92
595.311	9151.99
595.67	9223.85
596.029	9290.29
596.387	9278.09
596.746	9290.07
597.104	9185.21
597.463	9190.41
597.822	9299.11
598.18	9278.54
598.538	9291.2
598.897	9302.5
599.255	9200.58
599.613	9364.41
599.972	9314.47
600.33	9368.93
600.688	9321.25
601.046	9404.64
601.404	9379.56
601.762	9420.23
602.12	9419.1
602.478	9379.78
602.836	9398.76
603.194	9346.11
603.552	9427.01
603.91	9355.38
604.268	9426.56
604.625	9394.24
604.983	9429.05
605.341	9372.78
605.698	9439.67
606.056	9441.7
606.413	9404.41
606.771	9518.08
607.128	9473.34
607.485	9362.83
607.843	9434.92
608.2	9530.74
608.557	9489.61
608.914	9513.11
609.272	9488.25
609.629	9521.92
609.986	9520.12
610.343	9523.96
610.7	9594.47
611.057	9533.9
611.414	9594.47
611.771	9540
612.127	9633.56
612.484	9611.19
612.841	9627.23
613.198	9598.31
613.554	9598.08
613.911	9641.24
614.267	9537.74
614.624	9618.42
614.98	9649.83
615.337	9718.98
615.693	9659.32
616.05	9686.44
616.406	9656.38
616.762	9739.32
617.118	9687.8
617.475	9679.89
617.831	9730.51
618.187	9747.46
618.543	9725.54
618.899	9850.73
619.255	9708.59
619.611	9808.24
619.967	9764.86
620.323	9723.05
620.678	9782.26
621.034	9784.52
621.39	9729.38
621.746	9767.79
622.101	9838.3
622.457	9791.3
622.812	9849.15
623.168	9787.23
623.523	9812.76
623.879	9865.42
624.234	9825.87
624.589	9806.21
624.945	9855.02
625.3	9796.27
625.655	9826.32
626.01	9762.82
626.365	9812.54
626.72	9801.24
627.075	9744.74
627.43	9800.79
627.785	9760.11
628.14	9693.67
628.495	9779.32
628.85	9779.77
629.205	9707.23
629.559	9797.62
629.914	9732.99
630.269	9717.63
630.623	9700
630.978	9723.95
631.332	9716.5
631.687	9745.2
632.041	9672.2
632.396	9754.91
632.75	9634.01
633.104	9701.58
633.459	9664.07
633.813	9653.9
634.167	9625.42
634.521	9622.94
634.875	9675.14
635.229	9566.67
635.583	9546.78
635.937	9607.8
636.291	9594.92
636.645	9642.83
636.999	9513.79
637.352	9565.54
637.706	9549.27
638.06	9625.42
638.413	9493.45
638.767	9412.1
639.121	9447.58
639.474	9379.56
639.828	9478.76
640.181	9447.8
640.534	9487.12
640.888	9413.45
641.241	9400.8
641.594	9361.03
641.947	9391.98
642.301	9435.6
642.654	9390.4
643.007	9362.83
643.36	9404.64
643.713	9337.97
644.066	9441.25
644.419	9297.98
644.771	9262.95
645.124	9217.75
645.477	9204.19
645.83	9184.76
646.182	9153.8
646.535	9075.16
646.888	9115.83
647.24	9069.96
647.593	9031.32
647.945	9071.54
648.298	9031.54
648.65	8995.16
649.002	9023.41
649.355	9038.77
649.707	9024.54
650.059	9104.31
650.411	9190.63
650.763	9135.72
651.115	9233.34
651.467	9188.83
651.819	9215.72
652.171	9269.73
652.523	9190.18
652.875	9191.31
653.227	9232.44
653.578	9263.4
653.93	9217.07
654.282	9163.29
654.633	9188.15
654.985	9224.76
655.337	9160.35
655.688	9251.65
656.039	9283.29
656.391	9176.62
656.742	9200.8
657.094	9201.48
657.445	9235.38
657.796	9170.75
658.147	9148.6
658.498	9224.08
658.849	9236.96
659.2	9188.37
659.551	9182.95
659.902	9250.07
660.253	9227.24
660.604	9187.02
660.955	9199.9
661.306	9233.12
661.656	9231.76
662.007	9211.42
662.358	9227.02
662.708	9164.87
663.059	9213.46
663.409	9177.75
663.76	9284.42
664.11	9199.67
664.461	9230.18
664.811	9255.72
665.161	9216.4
665.511	9226.11
665.862	9211.42
666.212	9274.25
666.562	9250.97
666.912	9199.67
667.262	9228.6
667.612	9218.2
667.962	9246.23
668.312	9197.41
668.662	9228.6
669.011	9247.58
669.361	9239.45
669.711	9199.9
670.06	9162.84
670.41	9228.15
670.76	9176.4
671.109	9262.04
671.459	9154.7
671.808	9204.87
672.157	9155.38
672.507	9177.75
672.856	9128.71
673.205	9163.97
673.554	9198.32
673.904	9088.94
674.253	9212.78
674.602	9099.34
674.951	8981.37
675.3	8943.18
675.649	9124.2
675.998	9009.4
676.346	9111.09
676.695	9130.97
677.044	9075.38
677.393	9065.21
677.741	9063.41
678.09	9072.22
678.438	8985.44
678.787	9025.44
679.135	9061.6
679.484	8948.83
679.832	8989.06
680.181	8949.28
680.529	9017.31
680.877	8963.3
681.225	8954.48
681.573	8940.25
681.922	8923.97
682.27	8798.33
682.618	8854.37
682.966	8837.87
683.314	8892.34
683.661	8814.6
684.009	8780.93
684.357	8695.28
684.705	8743.64
685.053	8735.73
685.4	8735.28
685.748	8711.1
686.095	8690.53
686.443	8679.46
686.79	8603.3
687.138	8621.16
687.485	8603.76
687.832	8573.48
688.18	8620.03
688.527	8525.34
688.874	8610.08
689.221	8573.48
689.568	8524.89
689.915	8460.94
690.262	8481.5
690.609	8446.92
690.956	8418.68
691.303	8404.21
691.65	8289.87
691.997	8376.19
692.344	8247.83
692.69	8296.65
693.037	8275.63
693.383	8192.69
693.73	8208.51
694.077	8116.09
694.423	8186.14
694.769	8170.32
695.116	8088.06
695.462	8097.78
695.808	8034.73
696.155	8069.99
696.501	8060.72
696.847	7944.11
697.193	7865.47
697.539	7887.62
697.885	7852.14
698.231	7834.96
698.577	7852.59
698.923	7830.67
699.269	7745.47
699.614	7702.31
699.96	7691.92
700.306	7728.53
700.651	7643.78
700.997	7606.95
701.342	7652.14
701.688	7696.89
702.033	7566.5
702.379	7552.94
702.724	7564.91
703.069	7614.86
703.415	7408.53
703.76	7493.96
704.105	7432.94
704.45	7451.7
704.795	7288.99
705.14	7366.05
705.485	7371.25
705.83	7287.18
706.175	7279.5
706.52	7255.09
706.865	7219.61
707.209	7291.7
707.554	7200.18
707.899	7231.14
708.243	7169.67
708.588	7163.57
708.932	7079.05
709.277	7125.83
709.621	7157.92
709.966	7063.46
710.31	7016.68
710.654	6972.84
710.998	7014.19
711.342	7017.58
711.687	6967.64
712.031	6921.99
712.375	6875.89
712.719	6894.2
713.063	6917.7
713.407	6950.69
713.75	6902.56
714.094	6866.18
714.438	6875.44
714.782	6862.11
715.125	6865.5
715.469	6846.51
715.812	6827.76
716.156	6790.25
716.499	6734.43
716.843	6782.56
717.186	6821.66
717.53	6811.26
717.873	6786.4
718.216	6734.88
718.559	6756.35
718.902	6680.42
719.246	6690.59
719.589	6726.97
719.932	6609.68
720.275	6703.69
720.617	6651.72
720.96	6677.93
721.303	6652.62
721.646	6616.24
721.989	6620.08
722.331	6639.06
722.674	6632.28
723.016	6599.52
723.359	6602.68
723.701	6654.88
724.044	6610.36
724.386	6537.6
724.729	6553.19
725.071	6612.62
725.413	6489.91
725.755	6576.92
726.097	6489.01
726.439	6555.9
726.782	6560.19
727.124	6549.8
727.465	6511.61
727.807	6530.82
728.149	6560.87
728.491	6464.83
728.833	6561.1
729.175	6522
729.516	6529.01
729.858	6505.96
730.199	6489.46
730.541	6559.06
730.882	6475.45
731.224	6484.72
731.565	6512.74
731.906	6512.29
732.248	6456.69
732.589	6451.27
732.93	6429.35
733.271	6446.53
733.612	6473.19
733.953	6470.25
734.294	6419.18
734.635	6429.8
734.976	6424.15
735.317	6441.78
735.658	6458.73
735.999	6490.37
736.339	6487.88
736.68	6497.37
737.021	6483.81
737.361	6434.55
737.702	6459.86
738.042	6479.07
738.383	6450.14
738.723	6517.48
739.063	6451.95
739.404	6435.23
739.744	6449.01
740.084	6471.16
740.424	6521.1
740.764	6534.21
741.104	6510.7
741.444	6526.98
741.784	6509.35
742.124	6548.9
742.464	6600.42
742.804	6536.24
743.143	6552.96
743.483	6598.39
743.823	6596.35
744.162	6557.26
744.502	6554.09
744.841	6618.5
745.181	6741.43
745.52	6748.44
745.86	6754.31
746.199	6738.5
746.538	6740.53
746.877	6797.93
747.216	6859.62
747.556	6811.26
747.895	6921.32
748.234	6931.94
748.573	6918.83
748.911	6982.33
749.25	7098.94
749.589	7060.75
749.928	7152.95
750.267	7241.08
750.605	7214.64
750.944	7304.36
751.283	7390
751.621	7425.03
751.96	7428.87
752.298	7533.73
752.636	7678.58
752.975	7628.19
753.313	7702.09
753.651	7896.88
753.989	7864.34
754.327	8028.4
754.666	8041.29
755.004	8149.08
755.342	8285.35
755.679	8401.95
756.017	8444.89
756.355	8536.64
756.693	8598.79
757.031	8769.85
757.368	8822.06
757.706	8990.19
758.044	9087.81
758.381	9191.54
758.719	9341.82
759.056	9419.1
759.394	9490.06
759.731	9687.34
760.068	9764.63
760.405	9848.7
760.743	9968.24
761.08	10170.5
761.417	10214.56
761.754	10332.3
762.091	10473.99
762.428	10630.14
762.765	10681.44
763.102	10827.2
763.438	10952.17
763.775	11083.01
764.112	11173.63
764.449	11321.2
764.785	11350.35
765.122	11465.38
765.458	11566.84
765.795	11674.86
766.131	11793.5
766.467	11937.23
766.804	12051.8
767.14	12054.97
767.476	12236.66
767.812	12292.25
768.148	12461.28
768.485	12499.02
768.821	12625.35
769.157	12690.88
769.492	12825.11
769.828	12868.05
770.164	12890.65
770.5	13043.87
770.836	13090.42
771.171	13113.47
771.507	13220.58
771.842	13244.54
772.178	13380.58
772.513	13396.4
772.849	13379.22
773.184	13397.98
773.519	13537.64
773.855	13554.14
774.19	13651.99
774.525	13633.68
774.86	13800
775.195	13698.54
775.53	13755.49
775.865	13827.12
776.2	13827.35
776.535	13810.17
776.87	13891.3
777.205	13841.36
777.539	13933.56
777.874	13931.75
778.209	13939.44
778.543	13953.9
778.878	13945.76
779.212	13934.92
779.547	13915.48
779.881	14053.33
780.215	14000
780.55	14020.11
780.884	13981.69
781.218	13994.12
781.552	14038.87
781.886	13982.15
782.22	14001.81
782.554	14034.35
782.888	13888.14
783.222	13916.84
783.556	13860.79
783.889	13912.32
784.223	13855.37
784.557	13830.51
784.89	13862.15
785.224	13939.66
785.557	13870.29
785.891	13770.4
786.224	13854.92
786.558	13870.74
786.891	13698.99
787.224	13706.22
787.557	13691.76
787.891	13697.41
788.224	13702.38
788.557	13671.87
788.89	13729.95
789.223	13598.65
789.556	13648.82
789.888	13655.15
790.221	13637.97
790.554	13458.54
790.887	13572.44
791.219	13512.1
791.552	13483.4
791.884	13411.99
792.217	13387.13
792.549	13419.9
792.882	13397.98
793.214	13293.13
793.546	13408.6
793.879	13209.96
794.211	13230.75
794.543	13253.8
794.875	13242.5
795.207	13254.48
795.539	13183.52
795.871	13112.34
796.203	13135.84
796.535	12997.31
796.867	13027.37
797.198	12967.94
797.53	12981.72
797.862	12900.82
798.193	12908.5
798.525	12834.15
798.856	12914.83
799.188	12806.81
799.519	12727.04
799.85	12713.03
800.182	12759.81
800.513	12794.61
800.844	12612.46
801.175	12716.42
801.506	12699.69
801.837	12522.3
802.168	12534.27
802.499	12533.6
802.83	12587.38
803.161	12458.8
803.491	12438.68
803.822	12460.6
804.153	12400.49
804.483	12299.03
804.814	12290.44
805.145	12311
805.475	12253.38
805.805	12232.59
806.136	12255.86
806.466	12257.22
806.796	12187.62
807.126	12086.6
807.457	12113.5
807.787	12120.5
808.117	12013.84
808.447	12038.47
808.777	12062.87
809.107	11989.43
809.436	12005.48
809.766	11975.42
810.096	11941.75
810.426	11888.87
810.755	11895.2
811.085	11849.32
811.414	11822.88
811.744	11765.03
812.073	11674.86
812.403	11783.11
812.732	11671.47
813.061	11669.66
813.39	11640.29
813.719	11630.12
814.049	11645.03
814.378	11625.6
814.707	11569.78
815.036	11532.04
815.365	11522.32
815.693	11441.42
816.022	11496.79
816.351	11450.01
816.68	11385.83
817.008	11428.09
817.337	11372.5
817.665	11352.84
817.994	11320.07
818.322	11277.58
818.651	11264.7
818.979	11230.81
819.307	11219.96
819.636	11223.57
819.964	11228.09
820.292	11239.17
820.62	11237.59
820.948	11066.06
821.276	11198.04
821.604	11178.6
821.932	11159.62
822.259	11150.36
822.587	11126.63
822.915	11107.87
823.243	11117.82
823.57	11111.94
823.898	11172.05
824.225	11082.56
824.553	11088.21
824.88	11139.51
825.207	11180.64
825.535	11118.72
825.862	11152.62
826.189	11083.24
826.516	11211.15
826.843	11253.86
827.17	11294.08
827.497	11212.95
827.824	11229.9
828.151	11287.08
828.478	11217.25
828.805	11260.86
829.131	11162.56
829.458	11163.69
829.785	11134.54
830.111	11142
830.438	11198.26
830.764	11193.52
831.09	11211.82
831.417	11110.13
831.743	11200.75
832.069	11161.66
832.395	11149
832.722	11114.43
833.048	11145.38
833.374	11108.1
833.7	11069.68
834.026	11059.96
834.351	11071.04
834.677	11051.38
835.003	11061.32
835.329	11089.57
835.654	11008.67
835.98	11006.86
836.306	11020.87
836.631	11004.6
836.956	11007.31
837.282	11030.36
837.607	10961.21
837.932	10998.72
838.258	10982.9
838.583	10940.64
838.908	10846.64
839.233	10833.08
839.558	10817.71
839.883	10784.72
840.208	10769.8
840.533	10818.39
840.858	10797.82
841.182	10785.17
841.507	10803.7
841.832	10688.67
842.156	10691.16
842.481	10735.45
842.805	10713.08
843.13	10663.82
843.454	10573.2
843.778	10529.36
844.103	10563.71
844.427	10512.18
844.751	10525.29
845.075	10558.28
845.399	10401.9
845.723	10364.61
846.047	10392.64
846.371	10352.41
846.695	10367.55
847.019	10211.17
847.343	10153.32
847.666	10197.84
847.99	10114
848.313	10069.71
848.637	10077.62
848.96	10028.35
849.284	10079.65
849.607	9930.5
849.931	9878.07
850.254	9841.24
850.577	9781.8
850.9	9680.34
851.223	9770.28
851.546	9732.54
851.869	9640.79
852.192	9715.82
852.515	9625.42
852.838	9615.71
853.161	9593.56
853.483	9471.53
853.806	9489.16
854.129	9509.5
854.451	9459.78
854.774	9328.71
855.096	9387.69
855.419	9363.28
855.741	9314.92
856.063	9251.42
856.385	9253.01
856.708	9217.53
857.03	9226.57
857.352	9119.9
857.674	9154.02
857.996	9206.23
858.318	9024.31
858.64	8988.15
858.961	9035.84
859.283	8942.28
859.605	8944.76
859.926	8958.1
860.248	8893.92
860.57	8883.52
860.891	8960.13
861.212	8847.59
861.534	8866.12
861.855	8881.04
862.176	8784.09
862.498	8842.39
862.819	8869.51
863.14	8821.6
863.461	8806.46
863.782	8758.33
864.103	8741.83
864.424	8720.36
864.745	8747.93
865.065	8683.08
865.386	8662.96
865.707	8593.59
866.027	8644.66
866.348	8576.19
866.668	8582.29
866.989	8641.5
867.309	8563.76
867.63	8569.86
867.95	8564.89
868.27	8503.87
868.59	8503.87
868.91	8523.08
869.23	8539.58
869.55	8426.59
869.87	8488.96
870.19	8477.43
870.51	8470.88
870.83	8479.69
871.15	8319.02
871.469	8400.37
871.789	8411.9
872.109	8411.9
872.428	8251.9
872.748	8365.12
873.067	8342.29
873.386	8349.98
873.706	8288.06
874.025	8250.55
874.344	8272.92
874.663	8261.62
874.982	8263.43
875.301	8267.49
875.62	8236.53
875.939	8237.21
876.258	8227.5
876.577	8197.21
876.896	8229.98
877.214	8137.78
877.533	8138.46
877.852	8126.48
878.17	8153.15
878.489	8155.18
878.807	8178.23
879.125	8145.01
879.444	8140.49
879.762	8096.65
880.08	8119.93
880.398	8024.56
880.716	8013.04
881.034	7982.53
881.352	7993.15
881.67	7988.18
881.988	7981.4
882.306	7935.98
882.624	7929.88
882.941	7866.83
883.259	7887.84
883.577	7890.33
883.894	7878.13
884.212	7825.02
884.529	7842.87
884.846	7827.51
885.164	7789.54
885.481	7753.38
885.798	7747.28
886.115	7702.76
886.432	7690.79
886.75	7702.54
887.067	7680.84
887.383	7636.1
887.7	7679.26
888.017	7605.14
888.334	7569.66
888.651	7565.37
888.967	7562.43
889.284	7521.75
889.6	7504.35
889.917	7519.49
890.233	7503.22
890.55	7489.21
890.866	7471.81
891.182	7406.27
891.498	7354.75
891.815	7388.65
892.131	7309.33
892.447	7324.47
892.763	7332.38
893.079	7329.44
893.395	7304.36
893.71	7236.34
894.026	7209.44
894.342	7220.52
894.657	7111.82
894.973	7069.33
895.289	7152.72
895.604	7107.07
895.92	7032.72
896.235	6988.66
896.55	7038.83
896.865	6987.75
897.181	6980.07
897.496	6962.67
897.811	6934.2
898.126	6882.67
898.441	6835.67
898.756	6854.88
899.071	6853.75
899.386	6869.79
899.7	6770.13
900.015	6805.84
900.33	6679.74
900.644	6715.44
900.959	6683.81
901.273	6682.45
901.588	6620.98
901.902	6607.65
902.216	6567.88
902.531	6560.42
902.845	6494.66
903.159	6502.8
903.473	6478.39
903.787	6438.84
904.101	6434.55
904.415	6451.95
904.729	6399.97
905.042	6357.94
905.356	6322.91
905.67	6324.49
905.984	6345.06
906.297	6326.75
906.611	6310.03
906.924	6260.99
907.237	6247.21
907.551	6181.9
907.864	6170.15
908.177	6174.22
908.491	6166.08
908.804	6081.79
909.117	6103.48
909.43	6057.16
909.743	6046.76
910.056	5986.65
910.368	5993.2
910.681	5957.95
910.994	5960.44
911.307	5933.54
911.619	5883.15
911.932	5900.1
912.244	5833.66
912.557	5851.06
912.869	5771.74
913.181	5776.26
913.494	5724.96
913.806	5730.39
914.118	5719.54
914.43	5666.88
914.742	5683.83
915.054	5610.39
915.366	5574.91
915.678	5593.67
915.99	5539.43
916.302	5543.27
916.613	5503.27
916.925	5465.76
917.236	5542.14
917.548	5448.13
917.859	5505.31
918.171	5365.2
918.482	5402.03
918.794	5316.61
919.105	5350.28
919.416	5309.15
919.727	5311.87
920.038	5341.7
920.349	5226.44
920.66	5247.01
920.971	5233.45
921.282	5217.18
921.593	5145.09
921.903	5138.09
922.214	5137.63
922.525	5083.4
922.835	5082.27
923.146	5056.96
923.456	5045.66
923.767	5024.42
924.077	5048.6
924.387	4982.84
924.697	5014.25
925.008	5008.82
925.318	4966.56
925.628	4948.71
925.938	4949.39
926.248	4876.4
926.558	4909.39
926.867	4830.97
927.177	4854.02
927.487	4828.04
927.796	4785.55
928.106	4718.21
928.416	4712.33
928.725	4737.87
929.034	4713.01
929.344	4701.49
929.653	4667.14
929.962	4611.55
930.271	4657.65
930.581	4606.35
930.89	4618.78
931.199	4517.76
931.508	4536.97
931.817	4558.89
932.125	4531.32
932.434	4568.83
932.743	4469.18
933.051	4460.14
933.36	4442.74
933.669	4382.62
933.977	4412.68
934.286	4408.84
934.594	4401.38
934.902	4364.77
935.21	4327.49
935.519	4343.98
935.827	4323.64
936.135	4280.93
936.443	4245.45
936.751	4228.28
937.059	4273.7
937.367	4238.22
937.674	4242.97
937.982	4185.79
938.29	4162.74
938.597	4145.57
938.905	4113.25
939.213	4108.06
939.52	4087.72
939.827	4090.88
940.135	4045.01
940.442	4052.46
940.749	4019.24
941.056	4031.45
941.363	3995.97
941.67	4006.14
941.977	3936.08
942.284	3940.6
942.591	3956.87
942.898	3905.8
943.205	3919.81
943.511	3889.98
943.818	3904.9
944.125	3811.34
944.431	3866.25
944.738	3793.94
945.044	3770.21
945.35	3760.49
945.657	3735.64
945.963	3752.58
946.269	3720.04
946.575	3776.31
946.881	3694.51
947.187	3670.33
947.493	3658.8
947.799	3639.14
948.105	3670.78
948.41	3607.05
948.716	3634.17
949.022	3602.31
949.327	3596.66
949.633	3552.82
949.938	3602.08
950.244	3537
950.549	3537.9
950.854	3499.94
951.16	3480.28
951.465	3500.61
951.77	3453.84
952.075	3492.25
952.38	3480.5
952.685	3419.49
952.99	3363.67
953.294	3382.88
953.599	3413.84
953.904	3385.14
954.209	3338.13
954.513	3323.44
954.818	3336.32
955.122	3288.64
955.426	3290.68
955.731	3276.44
956.035	3262.65
956.339	3297.91
956.643	3241.19
956.948	3220.17
957.252	3191.7
957.556	3199.83
957.86	3187.85
958.163	3191.02
958.467	3120.29
958.771	3139.49
959.075	3137.23
959.378	3133.84
959.682	3172.04
959.985	3075.99
960.289	3113.73
960.592	3088.87
960.896	3024.47
961.199	3041.64
961.502	3020.4
961.805	3017.46
962.108	3030.12
962.411	3044.58
962.714	2979.95
963.017	2981.53
963.32	2967.97
963.623	2920.06
963.926	2931.82
964.228	2904.47
964.531	2934.3
964.833	2913.96
965.136	2869.9
965.438	2851.37
965.741	2857.69
966.043	2848.2
966.345	2817.02
966.648	2826.73
966.95	2817.24
967.252	2785.38
967.554	2760.52
967.856	2753.97
968.158	2726.4
968.46	2725.49
968.761	2734.53
969.063	2734.53
969.365	2705.83
969.666	2718.26
969.968	2642.33
970.269	2683.46
970.571	2663.35
970.872	2680.3
971.174	2624.7
971.475	2640.52
971.776	2636
972.077	2604.37
972.378	2614.76
972.679	2610.47
972.98	2586.06
973.281	2614.31
973.582	2560.53
973.883	2539.96
974.183	2536.57
974.484	2521.88
974.785	2510.36
975.085	2511.71
975.386	2509.68
975.686	2503.35
975.986	2484.14
976.287	2479.85
976.587	2425.61
976.887	2451.15
977.187	2471.04
977.487	2464.03
977.787	2403.92
978.087	2409.12
978.387	2380.42
978.687	2377.71
978.987	2369.57
979.286	2383.81
979.586	2367.08
979.885	2326.18
980.185	2329.12
980.484	2352.85
980.784	2329.35
981.083	2306.52
981.382	2259.06
981.682	2275.56
981.981	2271.95
982.28	2247.31
982.579	2223.59
982.878	2263.36
983.177	2252.51
983.475	2224.04
983.774	2207.99
984.073	2210.03
984.372	2209.8
984.67	2180.2
984.969	2181.55
985.267	2199.18
985.566	2137.49
985.864	2137.03
986.162	2169.12
986.461	2145.85
986.759	2118.28
987.057	2134.32
987.355	2094.32
987.653	2082.12
987.951	2058.39
988.249	2063.59
988.547	2077.83
988.844	2048.67
989.142	2065.4
989.44	2027.43
989.737	2020.43
990.035	2026.98
990.332	2009.13
990.63	2010.26
990.927	1981.56
991.224	1994.21
991.521	1998.05
991.819	1953.54
992.116	1985.63
992.413	1929.13
992.71	1944.04
993.006	1948.11
993.303	1923.25
993.6	1946.98
993.897	1908.11
994.193	1928.9
994.49	1906.31
994.787	1880.54
995.083	1852.3
995.379	1852.3
995.676	1852.07
995.972	1842.35
996.268	1854.1
996.565	1831.73
996.861	1813.43
997.157	1803.03
997.453	1766.42
997.749	1770.72
998.044	1793.77
998.34	1778.85
998.636	1782.92
998.932	1763.71
999.227	1762.13
999.523	1733.65
999.818	1736.37
1000.114	1723.49
1000.409	1721.68
1000.704	1736.59
1001	1669.48
1001.295	1693.43
1001.59	1683.26
1001.885	1687.78
1002.18	1657.27
1002.475	1683.94
1002.77	1656.37
1003.065	1651.4
1003.359	1605.75
1003.654	1603.04
1003.949	1620.89
1004.243	1586.09
1004.538	1580.66
1004.832	1580.21
1005.127	1594
1005.421	1558.07
1005.715	1561
1006.009	1537.95
1006.304	1565.3
1006.598	1516.49
1006.892	1563.04
1007.186	1520.55
1007.48	1555.35
1007.773	1512.42
1008.067	1509.93
1008.361	1484.4
1008.655	1469.26
1008.948	1493.89
1009.242	1461.35
1009.535	1441.23
1009.829	1451.63
1010.122	1453.89
1010.415	1458.18
1010.708	1410.27
1011.001	1396.26
1011.295	1415.92
1011.588	1395.36
1011.881	1375.25
1012.173	1384.96
1012.466	1410.05
1012.759	1356.72
1013.052	1421.12
1013.344	1382.25
1013.637	1354.46
1013.93	1338.64
1014.222	1312.88
1014.514	1332.54
1014.807	1344.06
1015.099	1301.35
1015.391	1337.51
1015.683	1267.23
1015.976	1306.55
1016.268	1282.37
1016.56	1276.04
1016.851	1271.97
1017.143	1238.07
1017.435	1243.95
1017.727	1260.67
1018.018	1247.79
1018.31	1244.85
1018.602	1230.84
1018.893	1225.42
1019.185	1189.04
1019.476	1183.61
1019.767	1222.26
1020.058	1189.04
1020.35	1191.97
1020.641	1175.7
1020.932	1160.34
1021.223	1191.75
1021.514	1158.53
1021.804	1139.32
1022.095	1136.61
1022.386	1140.9
1022.677	1098.64
1022.967	1113.78
1023.258	1125.08
1023.548	1128.47
1023.839	1100
1024.129	1092.32
1024.419	1081.24
1024.709	1088.7
1025	1072.43
1025.29	1062.26
1025.58	1060.45
1025.87	1027.01
1026.16	1054.8
1026.449	1048.02
1026.739	1031.98
1027.029	1023.62
1027.319	1018.87
1027.608	1023.39
1027.898	983.84
1028.187	1009.38
1028.477	1012.77
1028.766	1029.49
1029.055	980.23
1029.344	995.82
1029.634	983.39
1029.923	960.79
1030.212	935.71
1030.501	957.86
1030.79	955.6
1031.078	956.27
1031.367	936.39
1031.656	939.55
1031.945	958.76
1032.233	912.66
1032.522	938.42
1032.81	919.89
1033.099	922.38
1033.387	899.78
1033.675	914.92
1033.963	911.53
1034.251	878.08
1034.54	864.53
1034.828	868.82
1035.116	890.74
1035.403	874.24
1035.691	847.58
1035.979	854.13
1036.267	843.28
1036.554	836.05
1036.842	827.24
1037.129	826.79
1037.417	831.31
1037.704	815.49
1037.992	818.65
1038.279	786.56
1038.566	815.49
1038.853	815.49
1039.14	815.49
