Data from hue_140_FLMS001491_00015.txt Node
Date: Tue Feb 07 16:55:29 GMT 2017
User: dcchb
Spectrometer: FLMS00149
Trigger mode: 0
Integration Time (sec): 2.000000E-2
Scans to average: 10
Electric dark correction enabled: true
Nonlinearity correction enabled: false
Boxcar width: 0
XAxis mode: Wavelengths
Number of Pixels in Spectrum: 2048
>>>>>Begin Spectral Data<<<<<
341.393	12.63
341.776	12.63
342.16	12.63
342.543	-65.34
342.927	-66.92
343.31	-73.7
343.693	-60.59
344.077	-69.4
344.46	-75.96
344.843	-26.02
345.226	-55.62
345.61	-22.63
345.993	-27.37
346.376	-1.38
346.759	12.4
347.142	9.69
347.525	48.11
347.908	53.98
348.291	73.42
348.674	95.79
349.057	119.29
349.44	126.97
349.823	147.99
350.206	162.91
350.588	196.8
350.971	212.17
351.354	206.75
351.737	247.42
352.119	243.36
352.502	245.16
352.884	251.72
353.267	279.51
353.65	291.72
354.032	288.33
354.414	323.58
354.797	312.73
355.179	334.65
355.562	325.84
355.944	338.27
356.326	331.26
356.709	329.45
357.091	335.56
357.473	337.36
357.855	336.91
358.238	313.86
358.62	341.43
359.002	339.17
359.384	339.4
359.766	352.5
360.148	336.69
360.53	325.84
360.912	346.18
361.294	315.67
361.676	330.81
362.057	314.09
362.439	354.31
362.821	312.96
363.203	323.81
363.584	311.6
363.966	347.53
364.348	331.04
364.729	337.36
365.111	317.7
365.493	310.47
365.874	313.86
366.256	331.04
366.637	329.45
367.019	319.51
367.4	326.74
367.781	315.67
368.163	317.48
368.544	320.19
368.925	295.11
369.306	289.68
369.688	313.86
370.069	300.08
370.45	320.42
370.831	317.93
371.212	327.42
371.593	291.26
371.974	303.01
372.355	309.34
372.736	314.54
373.117	315.44
373.498	334.88
373.879	320.64
374.26	305.5
374.641	315.67
375.021	317.7
375.402	345.05
375.783	326.06
376.163	310.25
376.544	313.86
376.925	336.46
377.305	335.1
377.686	321.09
378.066	322.22
378.447	306.86
378.827	317.25
379.208	314.54
379.588	319.29
379.968	334.2
380.349	337.59
380.729	345.73
381.109	342.79
381.489	346.86
381.87	317.03
382.25	326.52
382.63	357.48
383.01	328.32
383.39	332.39
383.77	346.86
384.15	340.75
384.53	340.53
384.91	314.54
385.29	366.97
385.67	340.75
386.049	356.12
386.429	343.69
386.809	351.37
387.189	350.47
387.568	358.38
387.948	359.96
388.328	347.76
388.707	362.9
389.087	351.37
389.466	352.5
389.846	354.54
390.225	350.92
390.605	382.79
390.984	350.92
391.363	371.04
391.743	380.53
392.122	356.8
392.501	360.87
392.881	366.52
393.26	363.13
393.639	364.26
394.018	380.75
394.397	375.1
394.776	372.17
395.155	373.97
395.534	386.63
395.913	394.76
396.292	397.7
396.671	374.2
397.05	386.85
397.429	362.9
397.808	397.93
398.186	381.66
398.565	387.76
398.944	376.01
399.323	374.65
399.701	392.96
400.08	401.32
400.458	402.67
400.837	406.97
401.215	407.19
401.594	413.07
401.972	414.65
402.351	409.68
402.729	398.83
403.107	411.03
403.486	394.54
403.864	425.5
404.242	434.76
404.62	402
404.999	422.33
405.377	411.94
405.755	429.79
406.133	409.23
406.511	423.69
406.889	413.07
407.267	434.99
407.645	454.42
408.023	448.1
408.401	424.82
408.779	421.2
409.156	453.75
409.534	452.39
409.912	416.68
410.29	454.2
410.667	434.08
411.045	456.23
411.422	465.5
411.8	473.86
412.178	471.37
412.555	472.05
412.933	459.85
413.31	473.18
413.687	489.68
414.065	474.76
414.442	451.03
414.819	491.26
415.197	484.93
415.574	489
415.951	505.27
416.328	503.24
416.705	494.65
417.082	495.1
417.46	515.44
417.837	526.51
418.214	501.2
418.591	512.95
418.967	519.51
419.344	523.12
419.721	531.48
420.098	509.34
420.475	549.79
420.852	529.9
421.228	542.78
421.605	539.62
421.982	540.52
422.358	523.35
422.735	563.12
423.111	560.63
423.488	527.64
423.864	546.4
424.241	572.16
424.617	570.13
424.994	581.43
425.37	583.23
425.746	564.93
426.123	604.48
426.499	573.29
426.875	594.53
427.251	599.5
427.627	627.53
428.003	610.58
428.379	608.09
428.756	608.32
429.132	614.42
429.507	628.66
429.883	628.43
430.259	625.27
430.635	620.97
431.011	655.77
431.387	640.18
431.763	657.81
432.138	648.09
432.514	665.49
432.89	670.24
433.265	693.96
433.641	684.02
434.016	685.83
434.392	690.12
434.767	700.52
435.143	696.68
435.518	687.86
435.894	742.1
436.269	739.61
436.644	743
437.02	748.65
437.395	748.2
437.77	749.56
438.145	731.03
438.52	770.57
438.895	749.78
439.271	761.76
439.646	779.61
440.021	784.81
440.395	779.16
440.77	791.82
441.145	816.9
441.52	798.82
441.895	803.11
442.27	816.9
442.645	786.17
443.019	816
443.394	806.73
443.769	834.75
444.143	841.98
444.518	841.53
444.892	865.49
445.267	875.2
445.641	854.19
446.016	873.4
446.39	858.71
446.764	880.17
447.139	871.14
447.513	874.98
447.887	885.37
448.262	900.51
448.636	890.12
449.01	886.28
449.384	926.95
449.758	928.99
450.132	912.04
450.506	925.6
450.88	934.18
451.254	937.57
451.628	929.44
452.002	947.97
452.376	963.34
452.75	953.17
453.123	965.82
453.497	999.49
453.871	998.36
454.244	1011.24
454.618	1008.08
454.992	1012.15
455.365	1039.04
455.739	1049.89
456.112	1074.97
456.486	1088.3
456.859	1091.69
457.232	1098.25
457.606	1145.03
457.979	1118.59
458.352	1172.82
458.725	1142.99
459.099	1138.25
459.472	1182.99
459.845	1189.32
460.218	1186.61
460.591	1194.97
460.964	1234.97
461.337	1253.5
461.71	1245.14
462.083	1281.75
462.456	1292.82
462.829	1305.25
463.201	1340.28
463.574	1331.24
463.947	1339.82
464.32	1390.67
464.692	1387.96
465.065	1412.14
465.438	1431.57
465.81	1439.71
466.183	1462.31
466.555	1494.62
466.928	1522.87
467.3	1518.35
467.672	1533.72
468.045	1584.34
468.417	1596.31
468.789	1603.77
469.161	1667.72
469.534	1646.93
469.906	1730.55
470.278	1734.39
470.65	1751.34
471.022	1797.89
471.394	1847.83
471.766	1832.24
472.138	1901.62
472.51	1928.28
472.882	1973.03
473.253	1992.69
473.625	2047.15
473.997	2097.32
474.369	2134.15
474.74	2153.81
475.112	2206.92
475.484	2297.76
475.855	2334.6
476.227	2389.06
476.598	2452.11
476.97	2505.67
477.341	2576.85
477.713	2624.99
478.084	2670.41
478.455	2775.27
478.827	2826.11
479.198	2901.59
479.569	2985.2
479.94	3085.09
480.311	3137.74
480.682	3190.85
481.053	3366.44
481.424	3409.37
481.795	3476.49
482.166	3579.99
482.537	3672.19
482.908	3774.34
483.279	3829.7
483.65	3978.17
484.021	4060.88
484.391	4139.98
484.762	4288.9
485.133	4389.69
485.503	4427.2
485.874	4618.83
486.244	4685.72
486.615	4847.3
486.985	4953.06
487.356	5053.17
487.726	5195.99
488.097	5372.49
488.467	5437.79
488.837	5593.05
489.207	5696.32
489.578	5909.42
489.948	5951.45
490.318	6154.61
490.688	6208.85
491.058	6322.97
491.428	6498.56
491.798	6590.98
492.168	6814.26
492.538	6884.54
492.908	7021.48
493.278	7182.83
493.648	7293.11
494.017	7435.26
494.387	7510.28
494.757	7752.31
495.126	7818.75
495.496	7939.2
495.866	7999.08
496.235	8171.06
496.605	8284.5
496.974	8357.49
497.344	8535.57
497.713	8578.05
498.082	8694.88
498.452	8885.61
498.821	8932.84
499.19	9041.99
499.559	9178.04
499.928	9283.57
500.298	9412.61
500.667	9493.51
501.036	9566.5
501.405	9642.43
501.774	9646.72
502.143	9847.62
502.512	9920.39
502.88	10019.14
503.249	10028.41
503.618	10213.04
503.987	10232.92
504.356	10347.04
504.724	10407.83
505.093	10454.84
505.462	10610.54
505.83	10596.08
506.199	10670.65
506.567	10881.27
506.936	10842.17
507.304	11000.36
507.672	11026.57
508.041	11044.65
508.409	11156.74
508.777	11239.9
509.145	11341.14
509.514	11372.1
509.882	11507.01
510.25	11360.58
510.618	11473.57
510.986	11591.53
511.354	11731.19
511.722	11769.38
512.09	11900.68
512.458	11884.86
512.826	11919.21
513.193	11981.58
513.561	11987.45
513.929	12078.07
514.297	12119.65
514.664	12258.63
515.032	12252.08
515.4	12355.13
515.767	12278.29
516.135	12391.51
516.502	12308.8
516.869	12485.52
517.237	12502.69
517.604	12361
517.972	12573.65
518.339	12604.39
518.706	12601.9
519.073	12603.48
519.44	12649.58
519.808	12773.65
520.175	12683.93
520.542	12848
520.909	12859.52
521.276	12909.91
521.643	12992.17
522.009	12942.68
522.376	13017.26
522.743	13071.72
523.11	13078.5
523.477	13188.78
523.843	13270.81
524.21	13324.59
524.577	13291.15
524.943	13354.42
525.31	13361.43
525.676	13392.39
526.043	13425.61
526.409	13464.02
526.776	13412.5
527.142	13484.36
527.508	13466.74
527.874	13572.04
528.241	13608.2
528.607	13490.24
528.973	13676.9
529.339	13610.91
529.705	13625.83
530.071	13679.61
530.437	13671.25
530.803	13669.22
531.169	13682.1
531.535	13587.64
531.901	13606.17
532.267	13622.44
532.632	13716.9
532.998	13749.67
533.364	13736.79
533.73	13667.86
534.095	13636.9
534.461	13624.02
534.826	13711.48
535.192	13603.68
535.557	13766.84
535.923	13519.62
536.288	13625.83
536.653	13602.33
537.019	13497.92
537.384	13561.2
537.749	13451.37
538.114	13578.37
538.479	13409.56
538.845	13397.13
539.21	13430.81
539.575	13384.48
539.94	13385.16
540.305	13361.43
540.67	13361.88
541.034	13317.81
541.399	13269.23
541.764	13237.82
542.129	13220.19
542.494	13273.07
542.858	13157.82
543.223	13142.45
543.587	13111.49
543.952	13160.98
544.316	13040.53
544.681	12973.64
545.045	12967.31
545.41	12969.12
545.774	12966.41
546.138	12984.04
546.503	12799.41
546.867	12796.92
547.231	12930.48
547.595	12891.16
547.959	12837.37
548.324	12784.95
548.688	12703.37
549.052	12739.07
549.416	12792.86
549.779	12644.84
550.143	12566.87
550.507	12666.98
550.871	12632.41
551.235	12556.03
551.599	12595.57
551.962	12561.45
552.326	12501.11
552.689	12580.43
553.053	12416.14
553.417	12419.98
553.78	12531.17
554.143	12446.65
554.507	12405.75
554.87	12426.31
555.234	12469.47
555.597	12309.7
555.96	12379.53
556.323	12377.95
556.686	12295.92
557.05	12384.5
557.413	12309.93
557.776	12323.49
558.139	12331.85
558.502	12293.21
558.865	12279.2
559.228	12375.24
559.59	12246.43
559.953	12252.76
560.316	12351.96
560.679	12282.81
561.041	12282.36
561.404	12341.57
561.767	12304.28
562.129	12323.04
562.492	12425.63
562.854	12281.23
563.217	12267.45
563.579	12296.82
563.941	12330.27
564.304	12370.49
564.666	12393.09
565.028	12409.59
565.39	12327.11
565.753	12341.34
566.115	12427.89
566.477	12471.96
566.839	12399.19
567.201	12478.29
567.563	12501.56
567.925	12550.38
568.287	12493.88
568.648	12469.93
569.01	12593.76
569.372	12592.18
569.734	12453.66
570.095	12499.08
570.457	12591.73
570.819	12575.46
571.18	12563.71
571.542	12593.09
571.903	12599.64
572.265	12674.44
572.626	12652.29
572.987	12690.94
573.349	12679.86
573.71	12671.05
574.071	12692.29
574.432	12739.75
574.794	12805.51
575.155	12751.95
575.516	12634.89
575.877	12721.67
576.238	12723.48
576.599	12711.5
576.96	12764.83
577.32	12740.2
577.681	12804.61
578.042	12812.52
578.403	12776.58
578.763	12822.01
579.124	12787.43
579.485	12828.56
579.845	12831.95
580.206	12819.52
580.566	12767.55
580.927	12742.69
581.287	12822.23
581.648	12731.61
582.008	12803.25
582.368	12731.61
582.728	12786.3
583.089	12818.62
583.449	12786.98
583.809	12733.42
584.169	12791.05
584.529	12662.46
584.889	12776.81
585.249	12698.39
585.609	12698.85
585.969	12773.2
586.329	12647.55
586.688	12703.14
587.048	12731.61
587.408	12708.79
587.768	12626.08
588.127	12634.22
588.487	12605.74
588.846	12694.55
589.206	12518.06
589.565	12627.21
589.925	12653.65
590.284	12712.18
590.643	12690.71
591.003	12678.96
591.362	12670.6
591.721	12602.58
592.08	12611.17
592.44	12648
592.799	12631.05
593.158	12608
593.517	12601
593.876	12620.2
594.235	12551.28
594.593	12488.46
594.952	12579.53
595.311	12514.22
595.67	12532.75
596.029	12562.58
596.387	12553.31
596.746	12587.44
597.104	12517.61
597.463	12451.85
597.822	12543.14
598.18	12492.52
598.538	12461.79
598.897	12572.75
599.255	12438.51
599.613	12650.49
599.972	12523.48
600.33	12518.51
600.688	12533.88
601.046	12497.27
601.404	12641.45
601.762	12525.29
602.12	12540.43
602.478	12569.13
602.836	12576.82
603.194	12525.74
603.552	12564.61
603.91	12552.18
604.268	12562.58
604.625	12475.58
604.983	12506.08
605.341	12566.2
605.698	12528
606.056	12571.17
606.413	12462.02
606.771	12617.72
607.128	12624.05
607.485	12494.78
607.843	12586.76
608.2	12538.4
608.557	12585.86
608.914	12536.59
609.272	12706.98
609.629	12589.92
609.986	12677.38
610.343	12649.13
610.7	12740.88
611.057	12644.39
611.414	12671.73
611.771	12735.23
612.127	12745.17
612.484	12763.48
612.841	12782.91
613.198	12710.6
613.554	12758.51
613.911	12834.44
614.267	12704.04
614.624	12777.26
614.98	12708.79
615.337	12845.96
615.693	12803.02
616.05	12821.56
616.406	12878.96
616.762	12761.67
617.118	12904.04
617.475	12803.7
617.831	12930.48
618.187	12856.13
618.543	12859.29
618.899	12940.65
619.255	12957.37
619.611	12864.49
619.967	12907.2
620.323	12924.38
620.678	12841.44
621.034	12839.18
621.39	12880.99
621.746	12782.46
622.101	13014.09
622.457	12855
622.812	12891.38
623.168	12932.51
623.523	12873.76
623.879	12986.97
624.234	12785.17
624.589	12872.18
624.945	12944.49
625.3	12896.58
625.655	12956.24
626.01	12865.17
626.365	12989.46
626.72	12928.22
627.075	12949.69
627.43	12980.65
627.785	12850.26
628.14	12840.31
628.495	12997.6
628.85	12950.82
629.205	12886.41
629.559	12907.88
629.914	12927.09
630.269	12900.65
630.623	12874.66
630.978	12830.59
631.332	12878.96
631.687	12878.96
632.041	12717.83
632.396	12873.98
632.75	12790.14
633.104	12826.53
633.459	12716.93
633.813	12791.27
634.167	12744.27
634.521	12705.17
634.875	12754.44
635.229	12765.96
635.583	12623.14
635.937	12679.41
636.291	12582.47
636.645	12598.74
636.999	12552.41
637.352	12602.8
637.706	12540.43
638.06	12546.76
638.413	12488.46
638.767	12487.1
639.121	12567.78
639.474	12455.01
639.828	12494.78
640.181	12455.24
640.534	12460.89
640.888	12447.78
641.241	12348.35
641.594	12408.91
641.947	12499.53
642.301	12415.46
642.654	12434.22
643.007	12421.79
643.36	12456.37
643.713	12452.07
644.066	12402.81
644.419	12438.97
644.771	12321.91
645.124	12159.2
645.477	12207.56
645.83	12062.25
646.182	12112.65
646.535	12028.13
646.888	12102.03
647.24	11977.96
647.593	12087.79
647.945	12053.89
648.298	11972.09
648.65	11966.21
649.002	11861.13
649.355	11914.69
649.707	11975.93
650.059	12073.55
650.411	12169.14
650.763	12166.88
651.115	12210.5
651.467	12262.47
651.819	12218.41
652.171	12229.93
652.523	12228.35
652.875	12154.68
653.227	12172.31
653.578	12261.57
653.93	12198.97
654.282	12128.92
654.633	12163.27
654.985	12138.41
655.337	12188.13
655.688	12286.88
656.039	12245.53
656.391	12163.72
656.742	12203.72
657.094	12215.24
657.445	12209.59
657.796	12244.17
658.147	12222.48
658.498	12206.43
658.849	12255.92
659.2	12250.72
659.551	12139.31
659.902	12219.76
660.253	12215.47
660.604	12222.48
660.955	12219.54
661.306	12333.43
661.656	12212.98
662.007	12255.92
662.358	12238.97
662.708	12253.21
663.059	12246.88
663.409	12156.26
663.76	12299.31
664.11	12280.78
664.461	12273.1
664.811	12262.7
665.161	12221.8
665.511	12169.82
665.862	12217.96
666.212	12349.48
666.562	12311.51
666.912	12217.28
667.262	12210.95
667.612	12224.74
667.962	12312.87
668.312	12316.03
668.662	12311.29
669.011	12237.84
669.361	12189.93
669.711	12257.5
670.06	12257.73
670.41	12185.87
670.76	12203.04
671.109	12269.93
671.459	12273.1
671.808	12146.09
672.157	12295.47
672.507	12173.21
672.856	12128.24
673.205	12200.55
673.554	12198.97
673.904	12108.35
674.253	12245.75
674.602	12128.69
674.951	12047.79
675.3	11990.16
675.649	12108.81
675.998	12089.82
676.346	12028.36
676.695	12148.35
677.044	12075.59
677.393	12021.35
677.741	12085.98
678.09	12048.92
678.438	12016.6
678.787	12043.5
679.135	11996.49
679.484	12004.18
679.832	12017.51
680.181	11886.66
680.529	11957.85
680.877	11798.08
681.225	11842.82
681.573	11916.95
681.922	11814.8
682.27	11772.09
682.618	11746.1
682.966	11788.81
683.314	11759.21
683.661	11712.21
684.009	11705.65
684.357	11685.31
684.705	11683.05
685.053	11659.55
685.4	11640.8
685.748	11546.79
686.095	11583.17
686.443	11505.21
686.79	11468.14
687.138	11536.17
687.485	11535.26
687.832	11362.84
688.18	11460.24
688.527	11331.43
688.874	11350.18
689.221	11363.06
689.568	11268.83
689.915	11297.08
690.262	11332.1
690.609	11206.68
690.956	11169.62
691.303	11194.71
691.65	11116.97
691.997	11079.68
692.344	11058.89
692.69	11019.34
693.037	10989.29
693.383	10870.42
693.73	10956.52
694.077	10853.92
694.423	10880.14
694.769	10743.64
695.116	10812.57
695.462	10697.09
695.808	10652.35
696.155	10676.3
696.501	10612.12
696.847	10580.48
697.193	10541.39
697.539	10555.4
697.885	10516.53
698.231	10420.71
698.577	10412.81
698.923	10397.89
699.269	10293.71
699.614	10186.82
699.96	10309.53
700.306	10232.92
700.651	10218.01
700.997	10116.77
701.342	10194.05
701.688	10100.72
702.033	10092.59
702.379	10036.77
702.724	10023.89
703.069	10076.09
703.415	9921.97
703.76	9885.14
704.105	9813.95
704.45	9889.88
704.795	9787.06
705.14	9807.4
705.485	9773.5
705.83	9785.93
706.175	9736.89
706.52	9660.06
706.865	9675.2
707.209	9629.55
707.554	9578.25
707.899	9649.21
708.243	9606.5
708.588	9540.74
708.932	9482.66
709.277	9583.22
709.621	9471.14
709.966	9352.95
710.31	9408.99
710.654	9284.02
710.998	9342.55
711.342	9356.56
711.687	9304.13
712.031	9240.86
712.375	9192.05
712.719	9246.96
713.063	9259.62
713.407	9227.53
713.75	9151.37
714.094	9155.89
714.438	9165.38
714.782	9143.91
715.125	9052.39
715.469	9129
715.812	9075.89
716.156	8946.18
716.499	9036.34
716.843	9025.5
717.186	8925.84
717.53	9077.25
717.873	9016.01
718.216	9011.26
718.559	8956.57
718.902	8956.12
719.246	8926.06
719.589	8891.94
719.932	8883.81
720.275	8834.32
720.617	8794.09
720.96	8849.23
721.303	8829.8
721.646	8814.88
721.989	8804.49
722.331	8816.24
722.674	8750.48
723.016	8776.01
723.359	8809.01
723.701	8821.89
724.044	8695.79
724.386	8727.2
724.729	8780.31
725.071	8723.13
725.413	8772.62
725.755	8673.19
726.097	8675.9
726.439	8672.51
726.782	8686.07
727.124	8698.05
727.465	8666.86
727.807	8616.24
728.149	8619.63
728.491	8656.69
728.833	8690.36
729.175	8625.73
729.516	8624.83
729.858	8601.33
730.199	8647.2
730.541	8625.73
730.882	8564.27
731.224	8593.64
731.565	8583.02
731.906	8504.15
732.248	8574.21
732.589	8628.67
732.93	8540.99
733.271	8545.28
733.612	8579.41
733.953	8604.27
734.294	8536.02
734.635	8526.75
734.976	8558.62
735.317	8590.71
735.658	8545.06
735.999	8589.8
736.339	8515
736.68	8598.39
737.021	8583.93
737.361	8546.19
737.702	8604.72
738.042	8562.46
738.383	8510.03
738.723	8635.45
739.063	8559.97
739.404	8609.46
739.744	8639.74
740.084	8610.37
740.424	8625.06
740.764	8651.04
741.104	8650.14
741.444	8676.35
741.784	8666.18
742.124	8725.39
742.464	8737.82
742.804	8674.09
743.143	8762.45
743.483	8774.88
743.823	8755.67
744.162	8792.51
744.502	8816.92
744.841	8868.89
745.181	8913.18
745.52	8888.55
745.86	8953.41
746.199	8972.84
746.538	8987.08
746.877	9086.74
747.216	9074.31
747.556	9124.93
747.895	9113.18
748.234	9128.32
748.573	9234.53
748.911	9293.96
749.25	9351.82
749.589	9317.47
749.928	9462.77
750.267	9542.09
750.605	9544.13
750.944	9617.8
751.283	9652.83
751.621	9751.35
751.96	9811.24
752.298	9987.28
752.636	10020.05
752.975	10135.52
753.313	10115.41
753.651	10374.39
753.989	10390.66
754.327	10454.39
754.666	10536.42
755.004	10723.31
755.342	10874.04
755.679	10941.83
756.017	11054.37
756.355	11192.9
756.693	11250.52
757.031	11510.86
757.368	11560.57
757.706	11657.07
758.044	11883.73
758.381	12066.1
758.719	12151.97
759.056	12323.04
759.394	12457.95
759.731	12562.35
760.068	12723.93
760.405	12843.25
760.743	13037.6
761.08	13191.49
761.417	13358.04
761.754	13478.49
762.091	13689.33
762.428	13820.17
762.765	13907.63
763.102	14124.35
763.438	14282.31
763.775	14271.91
764.112	14524.34
764.449	14756.65
764.785	14896.08
765.122	14909.64
765.458	15052.23
765.795	15147.82
766.131	15450.86
766.467	15406.57
766.804	15566.12
767.14	15675.49
767.476	15940.8
767.812	15982.6
768.148	16111.86
768.485	16157.96
768.821	16333.55
769.157	16467.56
769.492	16592.3
769.828	16728.8
770.164	16698.52
770.5	16897.38
770.836	17114.78
771.171	17053.53
771.507	17223.02
771.842	17176.24
772.178	17317.93
772.513	17425.28
772.849	17404.71
773.184	17618.04
773.519	17633.18
773.855	17649.23
774.19	17692.84
774.525	17706.62
774.86	17922.21
775.195	17995.66
775.53	17976.22
775.865	18003.79
776.2	17965.38
776.535	18035.2
776.87	18069.1
777.205	18063.9
777.539	18041.98
777.874	18208.31
778.209	18121.53
778.543	18221.64
778.878	18168.31
779.212	18222.77
779.547	18186.16
779.881	18348.64
780.215	18290.79
780.55	18204.69
780.884	18286.5
781.218	18289.66
781.552	18335.99
781.886	18308.42
782.22	18269.77
782.554	18217.35
782.888	18244.24
783.222	18170.57
783.556	18281.98
783.889	18225.71
784.223	18064.36
784.557	18183.9
784.89	18195.2
785.224	18178.48
785.557	18151.13
785.891	18112.72
786.224	18096.45
786.558	18207.85
786.891	17975.32
787.224	17932.61
787.557	17983
787.891	17943.45
788.224	17983.45
788.557	17992.94
788.89	17969.89
789.223	17986.62
789.556	17907.75
789.888	17835.21
790.221	17824.14
790.554	17658.49
790.887	17655.55
791.219	17745.49
791.552	17653.29
791.884	17666.4
792.217	17626.85
792.549	17613.75
792.882	17425.28
793.214	17410.81
793.546	17510.25
793.879	17433.86
794.211	17296.69
794.543	17333.08
794.875	17319.97
795.207	17338.5
795.539	17224.6
795.871	17373.53
796.203	17183.02
796.535	17107.77
796.867	17099.86
797.198	17040.88
797.53	17004.5
797.862	16918.62
798.193	17053.76
798.525	16855.12
798.856	16923.59
799.188	16743.94
799.519	16726.09
799.85	16569.25
800.182	16712.07
800.513	16694.22
800.844	16497.17
801.175	16642.7
801.506	16651.06
801.837	16495.81
802.168	16534.68
802.499	16383.5
802.83	16409.94
803.161	16351.41
803.491	16316.83
803.822	16278.19
804.153	16247
804.483	16202.71
804.814	16052.21
805.145	16038.42
805.475	16114.12
805.805	16067.12
806.136	16007.23
806.466	15962.72
806.796	15988.03
807.126	15877.52
807.457	15879.1
807.787	15887.69
808.117	15721.37
808.447	15654.48
808.777	15804.98
809.107	15714.36
809.436	15675.04
809.766	15694.02
810.096	15556.62
810.426	15466.46
810.755	15565.89
811.085	15605.21
811.414	15574.25
811.744	15318.67
812.073	15371.32
812.403	15365.22
812.732	15312.11
813.061	15246.12
813.39	15227.59
813.719	15217.65
814.049	15257.88
814.378	15237.54
814.707	15113.7
815.036	15205.9
815.365	15036.19
815.693	14988.5
816.022	14979.01
816.351	14947.15
816.68	14871.22
817.008	14995.51
817.337	14823.54
817.665	14852.24
817.994	14885.68
818.322	14798.9
818.651	14794.84
818.979	14649.53
819.307	14813.37
819.636	14781.73
819.964	14616.31
820.292	14707.38
820.62	14695.86
820.948	14633.71
821.276	14600.27
821.604	14590.32
821.932	14619.25
822.259	14692.92
822.587	14547.16
822.915	14559.59
823.243	14597.55
823.57	14590.77
823.898	14520.95
824.225	14582.41
824.553	14576.54
824.88	14531.12
825.207	14626.03
825.535	14630.77
825.862	14626.03
826.189	14561.62
826.516	14654.05
826.843	14662.64
827.17	14530.89
827.497	14672.35
827.824	14591.68
828.151	14598.23
828.478	14618.34
828.805	14632.58
829.131	14583.09
829.458	14682.98
829.785	14557.56
830.111	14626.48
830.438	14746.25
830.764	14570.21
831.09	14675.97
831.417	14520.04
831.743	14539.93
832.069	14558.46
832.395	14500.61
832.722	14627.84
833.048	14544.22
833.374	14529.99
833.7	14508.74
834.026	14555.07
834.351	14547.39
834.677	14515.97
835.003	14469.65
835.329	14509.87
835.654	14392.59
835.98	14341.52
836.306	14412.47
836.631	14405.47
836.956	14437.11
837.282	14454.28
837.607	14371.12
837.932	14325.02
838.258	14312.14
838.583	14352.36
838.908	14161.86
839.233	14222.87
839.558	14098.58
839.883	14160.73
840.208	14150.79
840.533	14055.2
840.858	14131.35
841.182	14078.25
841.507	14045.48
841.832	13922.77
842.156	14061.97
842.481	13993.28
842.805	13883.9
843.13	13979.49
843.454	13946.95
843.778	13849.78
844.103	13832.15
844.427	13816.78
844.751	13874.86
845.075	13672.83
845.399	13725.49
845.723	13660.86
846.047	13666.96
846.371	13544.25
846.695	13573.63
847.019	13430.81
847.343	13368.89
847.666	13317.59
847.99	13329.34
848.313	13294.76
848.637	13112.17
848.96	13124.37
849.284	13122.34
849.607	13081.89
849.931	13055.9
850.254	12870.82
850.577	12820.2
850.9	12784.04
851.223	12791.05
851.546	12651.39
851.869	12590.15
852.192	12697.72
852.515	12507.67
852.838	12523.26
853.161	12495.46
853.483	12396.48
853.806	12364.39
854.129	12302.7
854.451	12274.45
854.774	12197.39
855.096	12144.51
855.419	12245.53
855.741	12172.08
856.063	12055.47
856.385	12028.81
856.708	12090.5
857.03	12013.44
857.352	11972.76
857.674	11934.12
857.996	11921.24
858.318	11828.14
858.64	11819.1
858.961	11813.45
859.283	11728.7
859.605	11668.37
859.926	11742.04
860.248	11696.16
860.57	11650.74
860.891	11624.75
861.212	11555.15
861.534	11572.55
861.855	11538.88
862.176	11516.51
862.498	11518.76
862.819	11507.47
863.14	11446.45
863.461	11422.27
863.782	11408.26
864.103	11380.01
864.424	11348.37
864.745	11395.83
865.065	11302.27
865.386	11246.23
865.707	11260.01
866.027	11223.41
866.348	11177.08
866.668	11158.77
866.989	11170.75
867.309	11086.69
867.63	11209.62
867.95	11174.14
868.27	11055.5
868.59	11115.16
868.91	11081.71
869.23	11026.8
869.55	10945.22
869.87	11062.05
870.19	11008.04
870.51	10997.42
870.83	11044.43
871.15	10941.15
871.469	10966.24
871.789	10856.41
872.109	10914.04
872.428	10748.62
872.748	10935.96
873.067	10792.23
873.386	10852.12
873.706	10856.18
874.025	10783.64
874.344	10777.99
874.663	10804.43
874.982	10672.01
875.301	10805.11
875.62	10726.47
875.939	10670.65
876.258	10736.19
876.577	10635.17
876.896	10649.41
877.214	10642.18
877.533	10640.37
877.852	10543.88
878.17	10572.35
878.489	10539.81
878.807	10600.82
879.125	10561.5
879.444	10607.38
879.762	10482.86
880.08	10460.04
880.398	10485.12
880.716	10448.28
881.034	10392.01
881.352	10399.25
881.67	10326.71
881.988	10430.88
882.306	10328.74
882.624	10221.85
882.941	10206.71
883.259	10175.75
883.577	10224.79
883.894	10204
884.212	10166.03
884.529	10176.65
884.846	10098.46
885.164	10040.61
885.481	10107.95
885.798	10090.1
886.115	9988.86
886.432	9976.43
886.75	10020.95
887.067	9975.08
887.383	9913.16
887.7	9935.76
888.017	9951.57
888.334	9903.89
888.651	9824.8
888.967	9813.95
889.284	9738.47
889.6	9739.38
889.917	9693.28
890.233	9711.58
890.55	9726.04
890.866	9703.67
891.182	9565.14
891.498	9555.2
891.815	9591.36
892.131	9521.76
892.447	9491.7
892.763	9458.48
893.079	9467.07
893.395	9412.61
893.71	9409.89
894.026	9359.95
894.342	9326.28
894.657	9264.59
894.973	9211.03
895.289	9240.63
895.604	9207.64
895.92	9176.91
896.235	9093.07
896.55	9116.57
896.865	9136.45
897.181	9065.27
897.496	9061.2
897.811	8937.14
898.126	8991.83
898.441	8931.26
898.756	8879.06
899.071	8850.36
899.386	8815.33
899.7	8731.95
900.015	8802.45
900.33	8684.94
900.644	8720.42
900.959	8665.96
901.273	8583.7
901.588	8676.58
901.902	8606.53
902.216	8521.56
902.531	8532.63
902.845	8498.05
903.159	8405.4
903.473	8342.58
903.787	8361.56
904.101	8329.02
904.415	8338.51
904.729	8291.28
905.042	8244.05
905.356	8183.94
905.67	8222.81
905.984	8230.26
906.297	8156.82
906.611	8096.26
906.924	7996.6
907.237	8044.28
907.551	8002.25
907.864	7982.59
908.177	8011.96
908.491	7945.98
908.804	7841.35
909.117	7811.52
909.43	7791.18
909.743	7774.68
910.056	7769.26
910.368	7725.64
910.681	7667.57
910.994	7650.39
911.307	7653.1
911.619	7501.47
911.932	7617.4
912.244	7507.12
912.557	7470.28
912.869	7526.33
913.181	7425.77
913.494	7413.56
913.806	7353.9
914.118	7346.67
914.43	7318.65
914.742	7343.06
915.054	7247.92
915.366	7195.49
915.678	7194.13
915.99	7138.09
916.302	7100.12
916.613	7104.19
916.925	7088.37
917.236	7032.56
917.548	7029.84
917.859	7040.24
918.171	6973.57
918.482	6947.36
918.794	6889.28
919.105	6914.14
919.416	6805.22
919.727	6803.18
920.038	6788.49
920.349	6828.04
920.66	6734.03
920.971	6746.46
921.282	6682.73
921.593	6658.33
921.903	6624.66
922.214	6599.35
922.525	6550.53
922.835	6580.59
923.146	6500.59
923.456	6468.5
923.767	6468.95
924.077	6429.86
924.387	6419.46
924.697	6441.61
925.008	6325.46
925.318	6353.48
925.628	6371.33
925.938	6262.18
926.248	6289.75
926.558	6224.21
926.867	6177.44
927.177	6237.32
927.487	6098.79
927.796	6134.95
928.106	6056.54
928.416	6085.46
928.725	6069.19
929.034	6056.99
929.344	5928.63
929.653	6002.3
929.962	5955.75
930.271	5923.66
930.581	5877.78
930.89	5871.23
931.199	5843.21
931.508	5835.52
931.817	5838.91
932.125	5802.31
932.434	5826.94
932.743	5692.03
933.051	5698.8
933.36	5718.47
933.669	5725.24
933.977	5636.89
934.286	5651.57
934.594	5574.97
934.902	5572.25
935.21	5548.53
935.519	5579.26
935.827	5477.34
936.135	5503.56
936.443	5446.16
936.751	5367.97
937.059	5436.21
937.367	5422.43
937.674	5437.57
937.982	5333.62
938.29	5341.53
938.597	5346.05
938.905	5291.81
939.213	5227.4
939.52	5192.15
939.827	5237.8
940.135	5175.88
940.442	5154.41
940.749	5148.76
941.056	5165.03
941.363	5107.41
941.67	5098.14
941.977	5085.94
942.284	5011.59
942.591	5020.4
942.898	4979.5
943.205	5006.62
943.511	4975.66
943.818	4969.78
944.125	4890.46
944.431	4887.53
944.738	4874.87
945.044	4880.3
945.35	4810.01
945.657	4808.21
945.963	4730.47
946.269	4735.44
946.575	4761.2
946.881	4688.66
947.187	4684.82
947.493	4665.16
947.799	4658.38
948.105	4643.47
948.41	4657.93
948.716	4618.16
949.022	4603.69
949.327	4585.16
949.633	4523.92
949.938	4477.14
950.244	4549.46
950.549	4463.81
950.854	4475.79
951.16	4478.5
951.465	4415.67
951.77	4391.95
952.075	4404.6
952.38	4378.84
952.685	4364.83
952.99	4365.96
953.294	4342.91
953.599	4312.85
953.904	4256.13
954.209	4220.65
954.513	4253.42
954.818	4236.92
955.122	4200.09
955.426	4192.86
955.731	4174.33
956.035	4169.81
956.339	4104.5
956.643	4205.96
956.948	4115.57
957.252	4072.18
957.556	4070.37
957.86	4024.27
958.163	4059.75
958.467	4011.39
958.771	4026.31
959.075	3998.28
959.378	3959.64
959.682	3939.08
959.985	3916.48
960.289	3909.47
960.592	3957.38
960.896	3858.63
961.199	3848.68
961.502	3824.73
961.805	3808.46
962.108	3795.13
962.411	3776.37
962.714	3766.65
963.017	3749.7
963.32	3742.7
963.623	3710.16
963.926	3726.2
964.228	3664.96
964.531	3707.44
964.833	3647.11
965.136	3636.26
965.438	3628.12
965.741	3626.54
966.043	3572.08
966.345	3567.34
966.648	3576.37
966.95	3575.92
967.252	3565.75
967.554	3528.01
967.856	3518.75
968.158	3499.31
968.46	3499.09
968.761	3440.11
969.063	3460.67
969.365	3460.45
969.666	3417.06
969.968	3368.24
970.269	3403.27
970.571	3330.51
970.872	3396.49
971.174	3341.8
971.475	3353.1
971.776	3303.61
972.077	3304.97
972.378	3288.7
972.679	3260.9
972.98	3295.03
973.281	3260
973.582	3229.49
973.883	3201.92
974.183	3232.88
974.484	3220
974.785	3181.81
975.085	3156.05
975.386	3118.53
975.686	3134.13
975.986	3136.39
976.287	3127.12
976.587	3102.94
976.887	3107.46
977.187	3069.95
977.487	3063.17
977.787	3047.12
978.087	3053.9
978.387	2991.31
978.687	2975.49
978.987	3027.91
979.286	2960.57
979.586	2939.1
979.885	2951.98
980.185	2904.98
980.484	2934.13
980.784	2904.75
981.083	2917.86
981.382	2902.27
981.682	2844.64
981.981	2866.56
982.28	2845.32
982.579	2827.69
982.878	2839.22
983.177	2813.01
983.475	2784.53
983.774	2803.74
984.073	2788.6
984.372	2752.22
984.67	2750.41
984.969	2766.45
985.267	2765.77
985.566	2702.95
985.864	2687.81
986.162	2669.05
986.461	2701.37
986.759	2632.67
987.057	2628.15
987.355	2637.42
987.653	2579.11
987.951	2576.85
988.249	2603.29
988.547	2584.08
988.844	2559
989.142	2583.63
989.44	2538.89
989.737	2546.12
990.035	2539.34
990.332	2512.67
990.63	2535.05
990.927	2506.35
991.224	2472.22
991.521	2466.8
991.819	2497.08
992.116	2493.47
992.413	2438.33
992.71	2423.41
993.006	2434.48
993.303	2403.07
993.6	2383.86
993.897	2378.89
994.193	2367.14
994.49	2359.46
994.787	2340.48
995.083	2304.09
995.379	2336.41
995.676	2276.75
995.972	2333.92
996.268	2296.18
996.565	2265.22
996.861	2279.69
997.157	2269.06
997.453	2263.42
997.749	2223.87
998.044	2241.72
998.34	2209.86
998.636	2196.98
998.932	2219.57
999.227	2158.11
999.523	2185
999.818	2175.28
1000.114	2139.8
1000.409	2147.26
1000.704	2123.08
1001	2138.22
1001.295	2092.12
1001.59	2096.41
1001.885	2055.06
1002.18	2049.64
1002.475	2050.99
1002.77	2063.65
1003.065	2027.26
1003.359	2008.51
1003.654	2001.28
1003.949	2003.99
1004.243	2006.92
1004.538	1986.59
1004.832	1973.03
1005.127	1956.3
1005.421	1929.41
1005.715	1949.07
1006.009	1911.11
1006.304	1948.4
1006.598	1903.42
1006.892	1894.84
1007.186	1878.57
1007.48	1899.81
1007.773	1847.61
1008.067	1826.82
1008.361	1840.83
1008.655	1834.05
1008.948	1824.78
1009.242	1817.33
1009.535	1808.96
1009.829	1800.6
1010.122	1768.96
1010.415	1767.38
1010.708	1727.16
1011.001	1746.59
1011.295	1780.04
1011.588	1750.43
1011.881	1737.55
1012.173	1710.66
1012.466	1702.98
1012.759	1704.79
1013.052	1690.32
1013.344	1691.68
1013.637	1674.28
1013.93	1625.69
1014.222	1635.41
1014.514	1629.08
1014.807	1603.32
1015.099	1627.95
1015.391	1608.29
1015.683	1575.98
1015.976	1567.61
1016.268	1580.27
1016.56	1569.2
1016.851	1566.03
1017.143	1535.07
1017.435	1548.18
1017.727	1540.27
1018.018	1491.23
1018.31	1505.02
1018.602	1490.78
1018.893	1468.86
1019.185	1493.94
1019.476	1458.92
1019.767	1447.17
1020.058	1475.41
1020.35	1436.32
1020.641	1434.28
1020.932	1407.39
1021.223	1397.68
1021.514	1395.87
1021.804	1402.87
1022.095	1394.96
1022.386	1359.71
1022.677	1354.96
1022.967	1344.57
1023.258	1347.05
1023.548	1334.63
1023.839	1322.2
1024.129	1314.74
1024.419	1313.84
1024.709	1311.35
1025	1286.94
1025.29	1293.27
1025.58	1291.01
1025.87	1265.7
1026.16	1269.54
1026.449	1271.8
1026.739	1256.44
1027.029	1250.79
1027.319	1221.41
1027.608	1224.57
1027.898	1211.69
1028.187	1198.13
1028.477	1219.37
1028.766	1220.28
1029.055	1155.2
1029.344	1168.98
1029.634	1149.32
1029.923	1169.66
1030.212	1159.94
1030.501	1159.49
1030.79	1114.52
1031.078	1129.43
1031.367	1106.16
1031.656	1110.68
1031.945	1110.45
1032.233	1107.74
1032.522	1103.9
1032.81	1103.45
1033.099	1083.11
1033.387	1091.69
1033.675	1071.36
1033.963	1081.3
1034.251	1048.31
1034.54	1046.95
1034.828	1039.27
1035.116	1028.65
1035.403	1046.72
1035.691	1020.28
1035.979	1009.66
1036.267	1001.98
1036.554	977.12
1036.842	990.45
1037.129	996.1
1037.417	966.05
1037.704	955.43
1037.992	948.42
1038.279	992.94
1038.566	985.48
1038.853	985.48
1039.14	985.48
