Data from hue_34_FLMS001491_00060.txt Node
Date: Tue Feb 07 17:25:51 GMT 2017
User: dcchb
Spectrometer: FLMS00149
Trigger mode: 0
Integration Time (sec): 2.000000E-2
Scans to average: 10
Electric dark correction enabled: true
Nonlinearity correction enabled: false
Boxcar width: 0
XAxis mode: Wavelengths
Number of Pixels in Spectrum: 2048
>>>>>Begin Spectral Data<<<<<
341.393	-18.4
341.776	-18.4
342.16	-18.4
342.543	-39.65
342.927	-60.21
343.31	-75.58
343.693	-76.48
344.077	-56.82
344.46	-56.59
344.843	-61.57
345.226	-42.36
345.61	-38.97
345.993	-10.49
346.376	-14.11
346.759	22.5
347.142	14.82
347.525	49.62
347.908	62.5
348.291	64.08
348.674	91.65
349.057	127.81
349.44	127.81
349.823	144.53
350.206	167.35
350.588	177.98
350.971	212.55
351.354	231.99
351.737	246.45
352.119	250.29
352.502	256.17
352.884	254.58
353.267	289.39
353.65	307.92
354.032	300.23
354.414	315.15
354.797	318.54
355.179	310.63
355.562	314.7
355.944	342.72
356.326	360.57
356.709	342.27
357.091	329.61
357.473	342.94
357.855	339.1
358.238	363.06
358.62	356.5
359.002	354.47
359.384	359.21
359.766	341.81
360.148	332.1
360.53	334.36
360.912	347.46
361.294	335.03
361.676	351.08
362.057	333
362.439	335.94
362.821	338.65
363.203	341.14
363.584	327.8
363.966	352.66
364.348	325.77
364.729	320.8
365.111	302.94
365.493	312.89
365.874	319.67
366.256	325.09
366.637	308.37
367.019	323.73
367.4	321.47
367.781	322.15
368.163	333.45
368.544	328.03
368.925	325.09
369.306	364.19
369.688	311.31
370.069	314.24
370.45	312.89
370.831	339.1
371.212	309.5
371.593	325.54
371.974	322.83
372.355	321.02
372.736	309.72
373.117	341.59
373.498	321.47
373.879	334.36
374.26	317.18
374.641	315.6
375.021	321.47
375.402	330.51
375.783	331.87
376.163	337.52
376.544	330.29
376.925	336.62
377.305	325.77
377.686	339.1
378.066	330.97
378.447	326.9
378.827	336.62
379.208	324.41
379.588	335.26
379.968	311.53
380.349	351.76
380.729	350.17
381.109	348.14
381.489	343.85
381.87	345.43
382.25	334.81
382.63	347.24
383.01	341.81
383.39	383.62
383.77	356.05
384.15	342.27
384.53	341.14
384.91	354.24
385.29	342.04
385.67	343.62
386.049	376.39
386.429	360.12
386.809	357.41
387.189	358.76
387.568	353.34
387.948	363.28
388.328	353.34
388.707	362.83
389.087	367.58
389.466	371.19
389.846	375.03
390.225	386.78
390.605	345.2
390.984	364.64
391.363	357.18
391.743	377.52
392.122	377.29
392.501	382.49
392.881	396.95
393.26	359.89
393.639	356.5
394.018	369.61
394.397	373.9
394.776	371.19
395.155	378.2
395.534	384.75
395.913	391.08
396.292	396.5
396.671	397.86
397.05	377.52
397.429	391.76
397.808	401.7
398.186	387.01
398.565	388.14
398.944	397.18
399.323	375.26
399.701	401.7
400.08	412.09
400.458	411.42
400.837	395.14
401.215	398.76
401.594	400.34
401.972	406.22
402.351	426.56
402.729	404.18
403.107	417.52
403.486	419.55
403.864	421.36
404.242	412.32
404.62	426.56
404.999	412.32
405.377	443.96
405.755	432.43
406.133	437.4
406.511	416.39
406.889	425.88
407.267	408.25
407.645	434.92
408.023	433.56
408.401	433.11
408.779	433.11
409.156	426.56
409.534	450.06
409.912	435.6
410.29	461.81
410.667	457.74
411.045	464.07
411.422	458.42
411.8	465.43
412.178	458.42
412.555	469.95
412.933	473.11
413.31	476.5
413.687	473.34
414.065	476.05
414.442	486.67
414.819	500.45
415.197	463.62
415.574	489.83
415.951	485.99
416.328	497.74
416.705	500.9
417.082	508.14
417.46	500.68
417.837	501.58
418.214	498.87
418.591	520.79
418.967	501.36
419.344	521.24
419.721	516.5
420.098	532.54
420.475	524.63
420.852	525.54
421.228	565.54
421.605	529.83
421.982	522.37
422.358	529.15
422.735	521.02
423.111	539.32
423.488	554.01
423.864	555.14
424.241	568.25
424.617	559.89
424.994	576.61
425.37	573.22
425.746	566.67
426.123	567.12
426.499	570.28
426.875	582.94
427.251	555.82
427.627	601.47
428.003	591.98
428.379	612.54
428.756	605.08
429.132	599.89
429.507	612.09
429.883	612.77
430.259	602.6
430.635	617.74
431.011	632.65
431.387	626.33
431.763	635.14
432.138	640.79
432.514	647.34
432.89	649.15
433.265	666.1
433.641	660.9
434.016	662.71
434.392	672.65
434.767	665.65
435.143	701.13
435.518	677.17
435.894	686.66
436.269	679.43
436.644	722.14
437.02	705.19
437.395	714.01
437.77	725.53
438.145	722.37
438.52	737.73
438.895	739.32
439.271	734.12
439.646	747.9
440.021	765.98
440.395	745.87
440.77	742.93
441.145	738.19
441.52	733.67
441.895	763.95
442.27	782.48
442.645	785.42
443.019	778.19
443.394	774.34
443.769	782.48
444.143	773.21
444.518	793.78
444.892	794
445.267	767.11
445.641	828.35
446.016	797.62
446.39	802.82
446.764	808.47
447.139	794.46
447.513	825.42
447.887	847.34
448.262	826.32
448.636	833.55
449.01	835.36
449.384	839.2
449.758	861.57
450.132	886.66
450.506	885.98
450.88	904.28
451.254	871.29
451.628	888.24
452.002	885.3
452.376	914
452.75	914.45
453.123	912.42
453.497	920.55
453.871	915.58
454.244	923.94
454.618	929.37
454.992	958.75
455.365	964.17
455.739	957.84
456.112	992.64
456.486	1009.14
456.859	993.1
457.232	1011.4
457.606	1034
457.979	1041.91
458.352	1035.81
458.725	1036.26
459.099	1059.31
459.472	1069.93
459.845	1103.37
460.218	1097.5
460.591	1094.11
460.964	1113.32
461.337	1130.94
461.71	1134.33
462.083	1170.94
462.456	1182.69
462.829	1161.45
463.201	1177.27
463.574	1175.69
463.947	1200.55
464.32	1221.34
464.692	1212.07
465.065	1221.79
465.438	1269.47
465.81	1269.25
466.183	1319.41
466.555	1343.82
466.928	1317.61
467.3	1309.25
467.672	1357.15
468.045	1401.9
468.417	1405.51
468.789	1396.02
469.161	1429.69
469.534	1444.16
469.906	1482.12
470.278	1527.09
470.65	1480.09
471.022	1553.98
471.394	1567.54
471.766	1617.94
472.138	1625.17
472.51	1634.66
472.882	1685.73
473.253	1689.57
473.625	1735.45
473.997	1753.53
474.369	1780.87
474.74	1813.64
475.112	1845.95
475.484	1904.94
475.855	1929.34
476.227	1970.92
476.598	1991.94
476.97	2051.15
477.341	2089.34
477.713	2156.68
478.084	2194.65
478.455	2276.9
478.827	2302.67
479.198	2370.23
479.569	2376.34
479.94	2456.56
480.311	2495.2
480.682	2614.97
481.053	2645.03
481.424	2713.5
481.795	2744.01
482.166	2810.9
482.537	2859.71
482.908	2941.52
483.279	3013.61
483.65	3058.35
484.021	3173.38
484.391	3257.22
484.762	3275.3
485.133	3350.32
485.503	3419.7
485.874	3568.17
486.244	3613.37
486.615	3670.09
486.985	3786.24
487.356	3887.26
487.726	3953.47
488.097	4065.33
488.467	4059.91
488.837	4195.72
489.207	4259.9
489.578	4412.67
489.948	4426
490.318	4524.3
490.688	4576.05
491.058	4690.17
491.428	4793
491.798	4927.68
492.168	5057.17
492.538	5065.76
492.908	5165.64
493.278	5265.3
493.648	5278.41
494.017	5452.64
494.387	5489.25
494.757	5611.28
495.126	5709.58
495.496	5773.99
495.866	5809.69
496.235	5953.19
496.605	5965.17
496.974	6096.69
497.344	6128.1
497.713	6221.66
498.082	6266.4
498.452	6326.74
498.821	6411.03
499.19	6493.29
499.559	6590.91
499.928	6651.7
500.298	6700.97
500.667	6780.74
501.036	6851.25
501.405	6858.93
501.774	6928.53
502.143	7039.49
502.512	7061.86
502.88	7121.52
503.249	7191.58
503.618	7258.69
503.987	7369.88
504.356	7406.03
504.724	7454.39
505.093	7471.12
505.462	7524.9
505.83	7690.09
506.199	7678.8
506.567	7761.5
506.936	7774.39
507.304	7961.05
507.672	7953.14
508.041	7999.24
508.409	8090.08
508.777	8133.7
509.145	8187.26
509.514	8252.34
509.882	8256.18
510.25	8348.61
510.618	8433.8
510.986	8419.79
511.354	8523.52
511.722	8541.15
512.09	8635.15
512.458	8664.98
512.826	8757.41
513.193	8772.78
513.561	8802.16
513.929	8928.03
514.297	8886.45
514.664	8995.37
515.032	9096.61
515.4	9154.01
515.767	9161.92
516.135	9272.43
516.502	9169.83
516.869	9391.29
517.237	9351.29
517.604	9368.02
517.972	9427.68
518.339	9510.39
518.706	9558.07
519.073	9577.28
519.44	9586.32
519.808	9719.87
520.175	9717.61
520.542	9812.75
520.909	9917.38
521.276	9850.49
521.643	9949.02
522.009	9986.53
522.376	10113.99
522.743	10086.87
523.11	10217.26
523.477	10290.48
523.843	10338.61
524.21	10447.76
524.577	10486.63
524.943	10624.71
525.31	10607.98
525.676	10713.74
526.043	10737.25
526.409	10807.98
526.776	10922.55
527.142	10900.63
527.508	10945.38
527.874	11114.41
528.241	11071.7
528.607	11143.34
528.973	11298.36
529.339	11278.02
529.705	11360.51
530.071	11409.09
530.437	11495.87
530.803	11588.97
531.169	11610.9
531.535	11650.22
531.901	11723.21
532.267	11794.17
532.632	11773.38
532.998	11848.86
533.364	11909.19
533.73	12047.49
534.095	12032.81
534.461	12103.09
534.826	12167.49
535.192	12218.79
535.557	12305.34
535.923	12305.11
536.288	12326.36
536.653	12437.31
537.019	12429.63
537.384	12502.17
537.749	12523.87
538.114	12636.18
538.479	12645.67
538.845	12638.21
539.21	12730.41
539.575	12715.5
539.94	12718.89
540.305	12851.09
540.67	12959.11
541.034	12895.16
541.399	13034.59
541.764	13044.08
542.129	13113
542.494	13113.91
542.858	13252.89
543.223	13157.52
543.587	13270.51
543.952	13235.26
544.316	13400
544.681	13472.77
545.045	13451.3
545.41	13505.31
545.774	13588.24
546.138	13586.66
546.503	13684.97
546.867	13644.97
547.231	13822.81
547.595	13827.33
547.959	13925.41
548.324	13865.53
548.688	13943.72
549.052	13994.79
549.416	14053.99
549.779	14123.15
550.143	14125.86
550.507	14239.53
550.871	14300.77
551.235	14281.11
551.599	14287.89
551.962	14328.79
552.326	14404.95
552.689	14445.17
553.053	14521.33
553.417	14555.22
553.78	14719.51
554.143	14729.01
554.507	14709.57
554.87	14823.92
555.234	14858.27
555.597	14848.55
555.96	14865.5
556.323	14949.56
556.686	14997.92
557.05	15051.71
557.413	15206.05
557.776	15186.62
558.139	15285.6
558.502	15189.56
558.865	15262.1
559.228	15373.96
559.59	15476.78
559.953	15470.45
560.316	15606.04
560.679	15669.32
561.041	15766.49
561.404	15752.71
561.767	15859.15
562.129	15731.01
562.492	15999.48
562.854	16016.88
563.217	15920.61
563.579	16021.63
563.941	16072.47
564.304	16219.36
564.666	16250.77
565.028	16321.05
565.39	16321.73
565.753	16494.38
566.115	16482.63
566.477	16631.33
566.839	16593.59
567.201	16698.22
567.563	16608.28
567.925	16826.35
568.287	16893.02
568.648	16826.8
569.01	16997.65
569.372	17173.69
569.734	17047.81
570.095	17295.27
570.457	17180.24
570.819	17277.41
571.18	17370.29
571.542	17478.99
571.903	17528.25
572.265	17631.75
572.626	17714.92
572.987	17667.46
573.349	17836.27
573.71	17836.04
574.071	17921.69
574.432	17964.4
574.794	18181.57
575.155	18234.68
575.516	18245.07
575.877	18497.27
576.238	18478.74
576.599	18698.17
576.96	18780.65
577.32	18793.76
577.681	18999.85
578.042	19142.9
578.403	19155.1
578.763	19324.82
579.124	19448.2
579.485	19641.19
579.845	19773.17
580.206	19862.43
580.566	19940.85
580.927	20179.94
581.287	20342.42
581.648	20366.15
582.008	20585.57
582.368	20887.94
582.728	21056.07
583.089	21103.53
583.449	21312.56
583.809	21548.26
584.169	21833.23
584.529	21882.72
584.889	22136.49
585.249	22215.14
585.609	22578.29
585.969	22725.63
586.329	22930.82
586.688	23197.71
587.048	23337.59
587.408	23513.41
587.768	23821.87
588.127	23929.22
588.487	24239.04
588.846	24583.89
589.206	24568.52
589.565	24927.38
589.925	25198.79
590.284	25359.46
590.643	25686.91
591.003	25973.23
591.362	26180.91
591.721	26268.81
592.08	26658.18
592.44	26882.81
592.799	27140.43
593.158	27409.12
593.517	27631.94
593.876	27885.27
594.235	28071.48
594.593	28300.63
594.952	28589.66
595.311	28831.46
595.67	29111.23
596.029	29435.74
596.387	29693.13
596.746	29970.41
597.104	29853.58
597.463	30247.02
597.822	30580.34
598.18	30690.39
598.538	30964.51
598.897	31337.38
599.255	31448.11
599.613	31889.68
599.972	31850.36
600.33	32260.52
600.688	32321.31
601.046	32572.15
601.404	33012.82
601.762	33015.76
602.12	33366.71
602.478	33572.8
602.836	33662.29
603.194	33733.7
603.552	34011.21
603.91	34136.18
604.268	34535.04
604.625	34471.09
604.983	34838.31
605.341	34877.18
605.698	35036.27
606.056	35421.79
606.413	35486.88
606.771	35716.7
607.128	35979.07
607.485	35953.98
607.843	36065.17
608.2	36341.54
608.557	36738.14
608.914	36684.81
609.272	36941.3
609.629	37141.52
609.986	37366.38
610.343	37238.02
610.7	37734.95
611.057	37710.77
611.414	37792.58
611.771	38013.36
612.127	38334.49
612.484	38425.56
612.841	38691.31
613.198	38618.77
613.554	38737.87
613.911	39004.75
614.267	38989.38
614.624	39049.72
614.98	39347.34
615.337	39442.03
615.693	39617.16
616.05	39488.81
616.406	39919.08
616.762	39791.62
617.118	39945.74
617.475	40098.28
617.831	40105.74
618.187	40162.91
618.543	40314.55
618.899	40738.04
619.255	40569.46
619.611	40622.34
619.967	40744.82
620.323	41020.29
620.678	40936
621.034	40895.32
621.39	40986.62
621.746	40994.98
622.101	41541.63
622.457	41170.57
622.812	41337.35
623.168	41474.52
623.523	41499.83
623.879	41782.98
624.234	41450.11
624.589	41758.13
624.945	41837.67
625.3	41857.33
625.655	42025.24
626.01	41950.89
626.365	41995.18
626.72	41933.04
627.075	41990.21
627.43	41930.32
627.785	42051.9
628.14	42099.59
628.495	42217.77
628.85	42137.78
629.205	42162.41
629.559	42462.06
629.914	42152.24
630.269	42294.16
630.623	42194.05
630.978	42193.14
631.332	42275.85
631.687	42395.85
632.041	42273.37
632.396	42431.33
632.75	42276.98
633.104	42408.96
633.459	42138.68
633.813	42235.63
634.167	42302.29
634.521	42239.02
634.875	42333.93
635.229	42388.39
635.583	42071.34
635.937	42187.94
636.291	42285.57
636.645	42152.69
636.999	42102.52
637.352	42199.47
637.706	42151.34
638.06	42220.71
638.413	42161.73
638.767	42036.31
639.121	42157.44
639.474	41918.35
639.828	41974.84
640.181	42046.03
640.534	42010.77
640.888	41860.72
641.241	41847.39
641.594	42020.49
641.947	42092.13
642.301	41791.57
642.654	41920.15
643.007	41907.5
643.36	41872.02
643.713	41870.66
644.066	41935.07
644.419	41747.73
644.771	41528.53
645.124	41208.31
645.477	41099.61
645.83	40855.78
646.182	40769.9
646.535	40538.5
646.888	40735.33
647.24	40514.99
647.593	40761.99
647.945	40565.61
648.298	40429.57
648.65	40420.08
649.002	40285.4
649.355	40562.9
649.707	40447.43
650.059	40607.19
650.411	41195.43
650.763	41123.79
651.115	41425.03
651.467	41246.27
651.819	41477
652.171	41223.9
652.523	41175.99
652.875	41240.17
653.227	41171.93
653.578	41368.76
653.93	41218.93
654.282	41153.17
654.633	41018.03
654.985	41140.74
655.337	41130.57
655.688	41054.19
656.039	41359.94
656.391	41000.4
656.742	40987.98
657.094	40986.62
657.445	41095.32
657.796	41126.28
658.147	41054.19
658.498	40920.41
658.849	41024.36
659.2	40914.98
659.551	40985.04
659.902	40862.78
660.253	41030.23
660.604	41061.19
660.955	40745.72
661.306	40863.91
661.656	40835.66
662.007	40914.98
662.358	40754.31
662.708	40890.35
663.059	40644.48
663.409	40639.51
663.76	40803.57
664.11	40864.14
664.461	40791.14
664.811	40770.58
665.161	40771.03
665.511	40694.65
665.862	40627.99
666.212	40861.88
666.562	40752.28
666.912	40707.76
667.262	40712.28
667.612	40694.88
667.962	40747.98
668.312	40586.4
668.662	40956.79
669.011	40730.81
669.361	40778.72
669.711	40635.22
670.06	40608.1
670.41	40615.1
670.76	40580.98
671.109	40732.16
671.459	40728.55
671.808	40574.43
672.157	40691.71
672.507	40365.17
672.856	40509.8
673.205	40567.42
673.554	40639.28
673.904	40556.8
674.253	40656.01
674.602	40599.96
674.951	39884.73
675.3	39841.79
675.649	40375.56
675.998	40279.97
676.346	40321.55
676.695	40583.01
677.044	40179.64
677.393	40304.83
677.741	40353.19
678.09	40267.09
678.438	40052.41
678.787	40256.47
679.135	40154.1
679.484	39917.04
679.832	40185.96
680.181	39793.43
680.529	40064.61
680.877	39849.02
681.225	39930.15
681.573	40112.97
681.922	39793.43
682.27	39793.88
682.618	39739.2
682.966	39556.38
683.314	39688.35
683.661	39452.88
684.009	39465.08
684.357	39395.7
684.705	39303.05
685.053	39421.92
685.4	39289.72
685.748	39195.25
686.095	39192.54
686.443	39078.87
686.79	38947.8
687.138	39070.06
687.485	39091.98
687.832	38752.1
688.18	38936.73
688.527	38761.82
688.874	38683.63
689.221	38563.18
689.568	38483.18
689.915	38454.03
690.262	38366.12
690.609	38304.88
690.956	38210.87
691.303	38117.77
691.65	38104.89
691.997	38045.45
692.344	37720.04
692.69	37833.03
693.037	37726.82
693.383	37384.68
693.73	37481.85
694.077	37211.13
694.423	37311.01
694.769	37241.18
695.116	37166.16
695.462	37087.97
695.808	37033.73
696.155	37090.45
696.501	36793.06
696.847	36849.55
697.193	36541.77
697.539	36585.83
697.885	36326.4
698.231	36434.65
698.577	36386.52
698.923	36271.94
699.269	36092.06
699.614	35958.96
699.96	35961.22
700.306	35987.2
700.651	35792.63
700.997	35727.1
701.342	35569.36
701.688	35523.71
702.033	35507.44
702.379	35358.97
702.724	35250.5
703.069	35467.44
703.415	35051.41
703.76	35054.35
704.105	34990.17
704.45	34918.76
704.795	34767.57
705.14	34565.77
705.485	34538.2
705.83	34493.23
706.175	34484.64
706.52	34359.68
706.865	34290.3
707.209	34307.47
707.554	34048.72
707.899	34147.93
708.243	33996.97
708.588	33970.31
708.932	33655.51
709.277	33719.92
709.621	33807.15
709.966	33542.52
710.31	33594.5
710.654	33209.42
710.998	33374.84
711.342	33314.51
711.687	33263.89
712.031	33062.99
712.375	33007.39
712.719	33036.09
713.063	32979.15
713.407	33068.18
713.75	32869.55
714.094	32834.07
714.438	32652.83
714.782	32688.08
715.125	32541.64
715.469	32658.25
715.812	32594.52
716.156	32396.79
716.499	32370.58
716.843	32487.86
717.186	32194.08
717.53	32320.63
717.873	32281.99
718.216	32267.53
718.559	32044.48
718.902	31847.65
719.246	31954.77
719.589	31848.33
719.932	31707.99
720.275	31688.79
720.617	31769.46
720.96	31624.38
721.303	31672.74
721.646	31644.04
721.989	31429.36
722.331	31381.67
722.674	31400.43
723.016	31519.75
723.359	31476.81
723.701	31335.12
724.044	31116.82
724.386	30976.49
724.729	31217.16
725.071	31021.46
725.413	31060.78
725.755	30971.29
726.097	30934
726.439	30695.37
726.782	30845.87
727.124	30892.87
727.465	30766.32
727.807	30807.68
728.149	30518.42
728.491	30562.04
728.833	30597.06
729.175	30492.21
729.516	30446.11
729.858	30423.28
730.199	30437.29
730.541	30325.21
730.882	30210.18
731.224	30285.66
731.565	30147.36
731.906	30165.66
732.248	30225.77
732.589	29975.84
732.93	29929.06
733.271	29858.33
733.612	29888.83
733.953	29877.99
734.294	29729.29
734.635	29809.51
734.976	29856.07
735.317	29576.98
735.658	29492.91
735.999	29663.98
736.339	29656.75
736.68	29579.01
737.021	29510.09
737.361	29396.19
737.702	29475.74
738.042	29379.02
738.383	29353.25
738.723	29449.07
739.063	29186.93
739.404	29310.77
739.744	29237.55
740.084	29080.72
740.424	29105.58
740.764	29107.61
741.104	29112.81
741.444	28984.68
741.784	28932.93
742.124	29055.41
742.464	28906.26
742.804	28828.3
743.143	28730.9
743.483	28887.5
743.823	28798.69
744.162	28763.89
744.502	28741.29
744.841	28547.4
745.181	28783.78
745.52	28521.41
745.86	28553.95
746.199	28448.64
746.538	28464.46
746.877	28505.59
747.216	28372.71
747.556	28337.01
747.895	28394.86
748.234	28168.2
748.573	28013.85
748.911	28122.1
749.25	28171.36
749.589	27965.04
749.928	27954.42
750.267	28004.14
750.605	27945.16
750.944	27880.3
751.283	27738.38
751.621	27824.03
751.96	27654.32
752.298	27692.05
752.636	27648.21
752.975	27492.51
753.313	27411.16
753.651	27476.69
753.989	27261.78
754.327	27338.17
754.666	27123.48
755.004	27341.33
755.342	27296.58
755.679	27171.62
756.017	26989.7
756.355	27111.5
756.693	26899.31
757.031	27009.13
757.368	26817.95
757.706	26716.26
758.044	26830.61
758.381	26770.5
758.719	26545.42
759.056	26639.88
759.394	26516.94
759.731	26405.99
760.068	26332.09
760.405	26256.16
760.743	26074.24
761.08	26224.3
761.417	26095.94
761.754	26030.4
762.091	25923.29
762.428	25942.95
762.765	25662.28
763.102	25782.27
763.438	25720.58
763.775	25599.68
764.112	25566.69
764.449	25618.89
764.785	25406.69
765.122	25246.02
765.458	25076.08
765.795	25082.86
766.131	25048.96
766.467	24964.44
766.804	24872.24
767.14	24796.99
767.476	24733.49
767.812	24674.73
768.148	24665.24
768.485	24464.79
768.821	24418.24
769.157	24458.24
769.492	24265.7
769.828	24262.77
770.164	24105.03
770.5	24021.64
770.836	24011.7
771.171	23854.19
771.507	23767.64
771.842	23606.74
772.178	23577.81
772.513	23609.22
772.849	23475.22
773.184	23345.28
773.519	23360.42
773.855	23213.53
774.19	23125.85
774.525	23048.33
774.86	22989.35
775.195	22978.05
775.53	22931.28
775.865	22720.21
776.2	22665.97
776.535	22473.21
776.87	22555.69
777.205	22322.25
777.539	22182.37
777.874	22347.11
778.209	22146.21
778.543	22122.03
778.878	21943.05
779.212	22030.73
779.547	21866.9
779.881	21839.78
780.215	21674.59
780.55	21810.85
780.884	21554.59
781.218	21524.98
781.552	21475.04
781.886	21372.9
782.22	21242.51
782.554	21160.25
782.888	21023.3
783.222	20876.64
783.556	20848.17
783.889	20833.7
784.223	20662.63
784.557	20671.45
784.89	20769.98
785.224	20605.46
785.557	20345.13
785.891	20431.45
786.224	20309.2
786.558	20296.77
786.891	20197.79
787.224	20072.59
787.557	19952.14
787.891	19999.6
788.224	19896.55
788.557	19977.91
788.89	19820.62
789.223	19871.7
789.556	19622.21
789.888	19541.08
790.221	19553.74
790.554	19403.68
790.887	19437.13
791.219	19333.63
791.552	19264.93
791.884	19163.47
792.217	19036.91
792.549	19007.76
792.882	18879.18
793.214	18837.6
793.546	18824.26
793.879	18723.25
794.211	18622.01
794.543	18612.29
794.875	18559.87
795.207	18638.06
795.539	18480.32
795.871	18424.95
796.203	18367.1
796.535	18211.17
796.867	18189.03
797.198	18112.42
797.53	18186.09
797.862	17994
798.193	18077.84
798.525	18041.23
798.856	17921.92
799.188	17765.76
799.519	17662.26
799.85	17650.28
800.182	17638.53
800.513	17610.06
800.844	17435.15
801.175	17568.93
801.506	17570.29
801.837	17380.46
802.168	17396.51
802.499	17249.17
802.83	17248.04
803.161	17154.7
803.491	17061.6
803.822	17138.89
804.153	16992.67
804.483	16940.47
804.814	16874.03
805.145	16835.62
805.475	16845.11
805.805	16686.92
806.136	16710.42
806.466	16775.51
806.796	16663.42
807.126	16536.64
807.457	16584.78
807.787	16482.18
808.117	16388.85
808.447	16381.62
808.777	16428.17
809.107	16327.38
809.436	16215.07
809.766	16232.24
810.096	16149.31
810.426	15986.6
810.755	16067.5
811.085	16065.47
811.414	15950.22
811.744	15880.84
812.073	15907.96
812.403	15901.86
812.732	15710.9
813.061	15771.01
813.39	15752.48
813.719	15639.94
814.049	15758.81
814.378	15693.5
814.707	15541.87
815.036	15546.39
815.365	15482.21
815.693	15344.13
816.022	15407.41
816.351	15419.38
816.68	15197.69
817.008	15213.96
817.337	15121.54
817.665	15198.6
817.994	15217.58
818.322	15140.75
818.651	15015.1
818.979	15025.72
819.307	15108.66
819.636	15030.69
819.964	14892.84
820.292	14966.97
820.62	14950.47
820.948	14869.34
821.276	14919.51
821.604	14882.67
821.932	14925.84
822.259	14872.05
822.587	14863.24
822.915	14834.31
823.243	14882.67
823.57	14835.44
823.898	14825.5
824.225	14753.64
824.553	14793.41
824.88	14804.26
825.207	14789.79
825.535	14763.81
825.862	14893.75
826.189	14736.69
826.516	14811.94
826.843	14799.51
827.17	14805.61
827.497	14809.91
827.824	14768.78
828.151	14786.63
828.478	14769.91
828.805	14844.93
829.131	14725.16
829.458	14656.01
829.785	14654.21
830.111	14707.76
830.438	14764.26
830.764	14776.91
831.09	14685.62
831.417	14645.39
831.743	14749.57
832.069	14677.71
832.395	14633.41
832.722	14640.42
833.048	14627.09
833.374	14701.44
833.7	14585.28
834.026	14663.47
834.351	14668.89
834.677	14611.49
835.003	14571.04
835.329	14604.94
835.654	14559.97
835.98	14496.7
836.306	14531.72
836.631	14434.55
836.956	14549.35
837.282	14526.98
837.607	14390.03
837.932	14370.6
838.258	14424.15
838.583	14336.93
838.908	14340.77
839.233	14314.1
839.558	14334.89
839.883	14237.27
840.208	14162.01
840.533	14197.04
840.858	14173.77
841.182	14120.21
841.507	14238.4
841.832	14062.13
842.156	14053.77
842.481	13993.66
842.805	14023.71
843.13	13915.02
843.454	13947.78
843.778	13870.27
844.103	13849.03
844.427	13762.7
844.751	13827.33
845.075	13771.74
845.399	13750.5
845.723	13603.16
846.047	13607.45
846.371	13527.68
846.695	13504.18
847.019	13400.9
847.343	13446.78
847.666	13388.7
847.99	13262.83
848.313	13265.99
848.637	13137.63
848.96	13091.76
849.284	13051.99
849.607	13007.47
849.931	12973.8
850.254	12971.99
850.577	12837.53
850.9	12778.32
851.223	12759.11
851.546	12756.18
851.869	12562.51
852.192	12632.11
852.515	12482.51
852.838	12450.42
853.161	12509.85
853.483	12391.67
853.806	12313.93
854.129	12329.29
854.451	12280.93
854.774	12288.84
855.096	12232.8
855.419	12214.5
855.741	12155.06
856.063	12028.51
856.385	11986.48
856.708	11964.56
857.03	11973.15
857.352	11979.02
857.674	11918.01
857.996	11918.23
858.318	11809.99
858.64	11808.18
858.961	11760.04
859.283	11756.2
859.605	11710.33
859.926	11723.66
860.248	11728.86
860.57	11610.22
860.891	11636.88
861.212	11600.95
861.534	11470.11
861.855	11509.65
862.176	11450
862.498	11507.17
862.819	11452.48
863.14	11393.73
863.461	11417.45
863.782	11318.02
864.103	11380.84
864.424	11412.48
864.745	11416.32
865.065	11296.33
865.386	11216.56
865.707	11209.78
866.027	11291.58
866.348	11193.05
866.668	11213.17
866.989	11063.57
867.309	11075.77
867.63	11040.06
867.95	11110.8
868.27	10977.92
868.59	11046.16
868.91	11028.76
869.23	10979.27
869.55	10941.31
869.87	10971.82
870.19	11029.22
870.51	10946.51
870.83	10974.08
871.15	10912.16
871.469	10864.02
871.789	10879.62
872.109	10881.2
872.428	10809.56
872.748	10875.32
873.067	10809.56
873.386	10788.54
873.706	10805.94
874.025	10708.77
874.344	10725.04
874.663	10703.57
874.982	10684.37
875.301	10664.93
875.62	10605.72
875.939	10564.6
876.258	10672.84
876.577	10628.55
876.896	10664.25
877.214	10575.44
877.533	10555.56
877.852	10513.75
878.17	10492.05
878.489	10485.95
878.807	10586.06
879.125	10495.9
879.444	10424.03
879.762	10438.5
880.08	10509.46
880.398	10425.84
880.716	10435.78
881.034	10350.14
881.352	10306.52
881.67	10285.28
881.988	10275.56
882.306	10213.64
882.624	10264.04
882.941	10224.04
883.259	10102.23
883.577	10124.38
883.894	10104.49
884.212	10058.39
884.529	10109.01
884.846	10103.36
885.164	10025.4
885.481	9995.8
885.798	10065.4
886.115	9956.25
886.432	10064.5
886.75	9917.83
887.067	9913.54
887.383	9878.29
887.7	9831.28
888.017	9841
888.334	9872.41
888.651	9841.22
888.967	9728.68
889.284	9762.36
889.6	9714.22
889.917	9674
890.233	9714.9
890.55	9619.31
890.866	9608.69
891.182	9594
891.498	9521.68
891.815	9540.89
892.131	9563.27
892.447	9573.43
892.763	9403.72
893.079	9382.03
893.395	9378.86
893.71	9405.3
894.026	9382.71
894.342	9319.2
894.657	9207.79
894.973	9236.27
895.289	9208.92
895.604	9216.16
895.92	9171.64
896.235	9154.01
896.55	9066.56
896.865	9093.22
897.181	9001.02
897.496	9018.2
897.811	8958.31
898.126	8931.64
898.441	8863.17
898.756	8915.15
899.071	8813
899.386	8808.71
899.7	8797.41
900.015	8731.65
900.33	8694.36
900.644	8730.97
900.959	8664.98
901.273	8623.63
901.588	8608.71
901.902	8552.22
902.216	8517.87
902.531	8528.94
902.845	8487.14
903.159	8460.24
903.473	8408.95
903.787	8365.78
904.101	8360.36
904.415	8346.57
904.729	8263.64
905.042	8270.42
905.356	8274.26
905.67	8185
905.984	8249.63
906.297	8100.03
906.611	8172.34
906.924	8134.15
907.237	8088.05
907.551	8043.31
907.864	7964.89
908.177	7926.47
908.491	7952.69
908.804	7902.07
909.117	7882.86
909.43	7833.82
909.743	7793.37
910.056	7796.31
910.368	7711.34
910.681	7685.57
910.994	7672.24
911.307	7662.75
911.619	7582.75
911.932	7566.93
912.244	7593.6
912.557	7495.52
912.869	7433.6
913.181	7419.82
913.494	7381.63
913.806	7393.61
914.118	7342.53
914.43	7322.19
914.742	7342.53
915.054	7263.44
915.366	7261.63
915.678	7203.55
915.99	7135.53
916.302	7131.24
916.613	7060.51
916.925	7078.59
917.236	7072.48
917.548	6971.92
917.859	7023.45
918.171	6988.19
918.482	6952.94
918.794	6925.14
919.105	6868.65
919.416	6782.77
919.727	6815.32
920.038	6810.12
920.349	6751.59
920.66	6682.66
920.971	6746.16
921.282	6697.13
921.593	6663.45
921.903	6605.6
922.214	6563.57
922.525	6535.77
922.835	6545.94
923.146	6528.99
923.456	6551.59
923.767	6451.93
924.077	6453.29
924.387	6397.25
924.697	6368.77
925.008	6325.61
925.318	6287.87
925.628	6273.63
925.938	6289.91
926.248	6248.78
926.558	6219.17
926.867	6190.02
927.177	6177.14
927.487	6147.54
927.796	6092.4
928.106	6115.45
928.416	6086.07
928.725	6071.38
929.034	6022.79
929.344	6036.35
929.653	6009.46
929.962	5905.28
930.271	5911.84
930.581	5841.33
930.89	5861.44
931.199	5805.85
931.508	5813.31
931.817	5777.38
932.125	5823.25
932.434	5743.48
932.743	5688.57
933.051	5659.41
933.36	5673.88
933.669	5636.59
933.977	5599.75
934.286	5534.22
934.594	5617.15
934.902	5548.23
935.21	5523.6
935.519	5522.02
935.827	5436.82
936.135	5442.24
936.443	5358.63
936.751	5381.68
937.059	5377.39
937.367	5397.05
937.674	5335.13
937.982	5315.92
938.29	5322.93
938.597	5355.47
938.905	5183.95
939.213	5222.81
939.52	5165.87
939.827	5180.33
940.135	5143.04
940.442	5110.95
940.749	5090.16
941.056	5115.47
941.363	5022.82
941.67	5043.16
941.977	5025.31
942.284	4961.58
942.591	5000.45
942.898	4955.03
943.205	4997.74
943.511	4912.54
943.818	4903.73
944.125	4825.31
944.431	4824.86
944.738	4804.52
945.044	4770.62
945.35	4750.28
945.657	4722.26
945.963	4753.67
946.269	4689.04
946.575	4724.07
946.881	4641.59
947.187	4696.27
947.493	4609.5
947.799	4636.84
948.105	4605.66
948.41	4603.4
948.716	4606.33
949.022	4550.74
949.327	4530.4
949.633	4491.53
949.938	4481.37
950.244	4450.41
950.549	4479.33
950.854	4434.59
951.16	4432.55
951.465	4394.81
951.77	4377.87
952.075	4374.7
952.38	4381.93
952.685	4341.93
952.99	4283.63
953.294	4295.61
953.599	4253.12
953.904	4212.9
954.209	4223.97
954.513	4175.61
954.818	4165.67
955.122	4171.09
955.426	4155.72
955.731	4127.7
956.035	4137.65
956.339	4099.91
956.643	4088.83
956.948	4037.54
957.252	4042.05
957.556	4036.41
957.86	4017.42
958.163	4011.77
958.467	4000.25
958.771	3933.13
959.075	3936.07
959.378	3943.75
959.682	3923.41
959.985	3917.31
960.289	3856.97
960.592	3837.09
960.896	3834.83
961.199	3804.55
961.502	3809.07
961.805	3800.71
962.108	3775.4
962.411	3760.93
962.714	3745.57
963.017	3698.79
963.32	3692.23
963.623	3713.25
963.926	3683.65
964.228	3671.89
964.531	3651.78
964.833	3639.81
965.136	3623.53
965.438	3575.85
965.741	3555.06
966.043	3611.78
966.345	3555.97
966.648	3518.45
966.95	3488.85
967.252	3534.95
967.554	3478.68
967.856	3505.57
968.158	3407.04
968.46	3437.1
968.761	3403.2
969.063	3419.02
969.365	3403.88
969.666	3340.38
969.968	3329.31
970.269	3374.28
970.571	3322.3
970.872	3329.31
971.174	3287.72
971.475	3287.72
971.776	3297.22
972.077	3275.07
972.378	3259.93
972.679	3253.37
972.98	3276.43
973.281	3238.01
973.582	3198.69
973.883	3194.39
974.183	3152.13
974.484	3193.26
974.785	3164.79
975.085	3119.14
975.386	3126.15
975.686	3113.94
975.986	3049.31
976.287	3023.32
976.587	3022.65
976.887	3064.68
977.187	3029.2
977.487	2977.68
977.787	3006.38
978.087	3002.31
978.387	2989.88
978.687	3012.48
978.987	2969.77
979.286	2894.97
979.586	2928.86
979.885	2899.26
980.185	2903.55
980.484	2880.28
980.784	2882.31
981.083	2867.4
981.382	2808.41
981.682	2892.25
981.981	2843.22
982.28	2806.61
982.579	2788.08
982.878	2800.73
983.177	2758.47
983.475	2770.22
983.774	2755.31
984.073	2760.51
984.372	2760.28
984.67	2713.05
984.969	2696.55
985.267	2698.14
985.566	2692.49
985.864	2649.55
986.162	2646.84
986.461	2625.14
986.759	2656.78
987.057	2578.82
987.355	2597.8
987.653	2593.96
987.951	2566.84
988.249	2563.68
988.547	2577.46
988.844	2542.89
989.142	2525.48
989.44	2513.06
989.737	2489.78
990.035	2506.05
990.332	2484.36
990.63	2506.05
990.927	2459.72
991.224	2472.15
991.521	2437.8
991.819	2461.76
992.116	2428.31
992.413	2446.16
992.71	2414.3
993.006	2371.14
993.303	2376.11
993.6	2372.72
993.897	2327.98
994.193	2331.82
994.49	2344.25
994.787	2333.4
995.083	2316.68
995.379	2306.51
995.676	2284.13
995.972	2296.34
996.268	2251.14
996.565	2232.38
996.861	2267.41
997.157	2236.45
997.453	2237.13
997.749	2220.18
998.044	2229.22
998.34	2195.55
998.636	2191.71
998.932	2159.39
999.227	2155.55
999.523	2157.58
999.818	2145.16
1000.114	2144.25
1000.409	2084.82
1000.704	2116.68
1001	2116.68
1001.295	2056.57
1001.59	2066.74
1001.885	2054.08
1002.18	2049.79
1002.475	2041.2
1002.77	2018.83
1003.065	2023.8
1003.359	2024.03
1003.654	2012.96
1003.949	1988.55
1004.243	1956.46
1004.538	1973.86
1004.832	1939.06
1005.127	1935.44
1005.421	1937.03
1005.715	1913.07
1006.009	1916.69
1006.304	1910.81
1006.598	1900.64
1006.892	1885.28
1007.186	1871.26
1007.48	1879.85
1007.773	1862.9
1008.067	1875.56
1008.361	1810.93
1008.655	1812.06
1008.948	1786.07
1009.242	1805.73
1009.535	1802.34
1009.829	1778.61
1010.122	1762.34
1010.415	1754.21
1010.708	1735.45
1011.001	1731.38
1011.295	1731.83
1011.588	1759.85
1011.881	1706.07
1012.173	1683.92
1012.466	1666.75
1012.759	1673.76
1013.052	1662.68
1013.344	1656.35
1013.637	1656.81
1013.93	1624.49
1014.222	1620.65
1014.514	1610.25
1014.807	1606.64
1015.099	1617.03
1015.391	1595.57
1015.683	1600.31
1015.976	1570.48
1016.268	1553.31
1016.56	1530.03
1016.851	1548.79
1017.143	1515.79
1017.435	1523.93
1017.727	1533.87
1018.018	1492.97
1018.31	1522.35
1018.602	1464.5
1018.893	1490.26
1019.185	1446.64
1019.476	1476.25
1019.767	1453.65
1020.058	1439.41
1020.35	1438.51
1020.641	1440.54
1020.932	1445.96
1021.223	1406.42
1021.514	1402.12
1021.804	1373.88
1022.095	1356.48
1022.386	1365.51
1022.677	1368.9
1022.967	1353.99
1023.258	1350.15
1023.548	1332.52
1023.839	1327.32
1024.129	1294.1
1024.419	1333.65
1024.709	1298.4
1025	1302.47
1025.29	1262.01
1025.58	1276.25
1025.87	1268.34
1026.16	1296.82
1026.449	1258.85
1026.739	1239.19
1027.029	1228.57
1027.319	1236.03
1027.608	1219.98
1027.898	1205.52
1028.187	1220.21
1028.477	1195.8
1028.766	1220.43
1029.055	1196.03
1029.344	1197.16
1029.634	1149.48
1029.923	1139.76
1030.212	1162.13
1030.501	1152.64
1030.79	1114
1031.078	1086.65
1031.367	1119.42
1031.656	1121.23
1031.945	1126.88
1032.233	1103.15
1032.522	1078.97
1032.81	1098.63
1033.099	1048.01
1033.387	1087.1
1033.675	1067.44
1033.963	1063.38
1034.251	1073.55
1034.54	1053.66
1034.828	1035.81
1035.116	1038.74
1035.403	1033.55
1035.691	1028.35
1035.979	1030.16
1036.267	1031.74
1036.554	1022.7
1036.842	973.21
1037.129	978.18
1037.417	1005.3
1037.704	997.39
1037.992	955.13
1038.279	974.56
1038.566	933.44
1038.853	933.44
1039.14	933.44
