Data from hue_22_FLMS001491_00079.txt Node
Date: Tue Feb 07 17:10:38 GMT 2017
User: dcchb
Spectrometer: FLMS00149
Trigger mode: 0
Integration Time (sec): 2.000000E-2
Scans to average: 10
Electric dark correction enabled: true
Nonlinearity correction enabled: false
Boxcar width: 0
XAxis mode: Wavelengths
Number of Pixels in Spectrum: 2048
>>>>>Begin Spectral Data<<<<<
341.393	11.79
341.776	11.79
342.16	11.79
342.543	-33.86
342.927	-83.57
343.31	-89.22
343.693	-65.04
344.077	-85.38
344.46	-42.89
344.843	-47.64
345.226	-25.95
345.61	-25.72
345.993	-15.55
346.376	-9.9
346.759	-1.77
347.142	35.3
347.525	27.61
347.908	54.73
348.291	69.19
348.674	98.34
349.057	123.88
349.44	105.35
349.823	150.32
350.206	158.23
350.588	196.2
350.971	219.25
351.354	230.77
351.737	253.37
352.119	237.32
352.502	261.28
352.884	275.52
353.267	256.98
353.65	299.47
354.032	294.27
354.414	298.79
354.797	336.08
355.179	325.01
355.562	341.95
355.944	310.54
356.326	320.03
356.709	335.4
357.091	349.19
357.473	320.49
357.855	340.82
358.238	325.91
358.62	343.99
359.002	343.54
359.384	369.07
359.766	329.3
360.148	340.6
360.53	341.73
360.912	329.3
361.294	336.3
361.676	332.01
362.057	346.02
362.439	361.39
362.821	332.01
363.203	331.79
363.584	311.9
363.966	331.56
364.348	348.28
364.729	304.67
365.111	337.43
365.493	334.27
365.874	301.96
366.256	320.03
366.637	338.79
367.019	314.61
367.4	314.16
367.781	332.91
368.163	313.93
368.544	291.33
368.925	312.58
369.306	334.5
369.688	318.9
370.069	308.06
370.45	307.38
370.831	337.89
371.212	301.05
371.593	286.36
371.974	305.35
372.355	292.01
372.736	303.99
373.117	320.49
373.498	322.29
373.879	321.84
374.26	302.86
374.641	313.93
375.021	335.85
375.402	323.2
375.783	326.81
376.163	296.08
376.544	332.91
376.925	317.1
377.305	335.4
377.686	332.91
378.066	321.84
378.447	328.62
378.827	343.54
379.208	327.72
379.588	327.04
379.968	330.2
380.349	332.69
380.729	335.4
381.109	323.65
381.489	346.93
381.87	352.12
382.25	324.33
382.63	332.24
383.01	357.32
383.39	341.28
383.77	339.47
384.15	342.86
384.53	334.95
384.91	352.35
385.29	338.79
385.67	344.89
386.049	341.28
386.429	359.13
386.809	345.8
387.189	342.86
387.568	346.25
387.948	348.73
388.328	359.13
388.707	355.74
389.087	350.99
389.466	333.37
389.846	374.5
390.225	376.08
390.605	361.84
390.984	352.35
391.363	337.43
391.743	365
392.122	347.6
392.501	393.25
392.881	381.95
393.26	363.2
393.639	362.97
394.018	370.65
394.397	352.35
394.776	370.2
395.155	377.89
395.534	388.05
395.913	377.21
396.292	402.52
396.671	394.61
397.05	390.99
397.429	372.01
397.808	383.76
398.186	375.4
398.565	378.56
398.944	381.95
399.323	390.09
399.701	390.31
400.08	414.49
400.458	397.09
400.837	404.78
401.215	385.79
401.594	406.59
401.972	401.39
402.351	402.29
402.729	394.16
403.107	421.27
403.486	403.65
403.864	382.41
404.242	400.26
404.62	400.71
404.999	407.94
405.377	423.76
405.755	421.95
406.133	426.25
406.511	413.36
406.889	423.31
407.267	434.38
407.645	416.98
408.023	444.32
408.401	416.75
408.779	432.8
409.156	463.76
409.534	426.92
409.912	444.32
410.29	443.65
410.667	445.91
411.045	469.41
411.422	446.13
411.8	440.71
412.178	446.58
412.555	454.04
412.933	477.09
413.31	482.06
413.687	453.82
414.065	478.67
414.442	459.92
414.819	487.71
415.197	454.72
415.574	488.17
415.951	495.4
416.328	519.12
416.705	488.17
417.082	497.66
417.46	491.33
417.837	494.72
418.214	480.71
418.591	514.15
418.967	510.76
419.344	507.37
419.721	492.01
420.098	521.84
420.475	519.58
420.852	506.92
421.228	536.3
421.605	504.21
421.982	519.58
422.358	520.03
422.735	511.22
423.111	518.9
423.488	529.29
423.864	558.9
424.241	518.45
424.617	557.09
424.994	539.24
425.37	574.49
425.746	551.21
426.123	559.35
426.499	548.5
426.875	558.9
427.251	560.25
427.627	590.76
428.003	570.42
428.379	578.78
428.756	600.25
429.132	555.06
429.507	598.44
429.883	575.85
430.259	595.28
430.635	608.84
431.011	614.94
431.387	610.87
431.763	610.42
432.138	641.61
432.514	627.82
432.89	618.56
433.265	646.58
433.641	651.78
434.016	655.39
434.392	659.23
434.767	673.25
435.143	654.94
435.518	709.63
435.894	663.75
436.269	659.69
436.644	684.32
437.02	696.97
437.395	690.19
437.77	701.27
438.145	729.06
438.52	729.97
438.895	726.8
439.271	737.88
439.646	725.22
440.021	721.15
440.395	733.13
440.77	714.83
441.145	758.44
441.52	766.12
441.895	767.48
442.27	765.45
442.645	767.93
443.019	776.75
443.394	746.24
443.769	758.21
444.143	744.43
444.518	767.25
444.892	742.17
445.267	771.77
445.641	791.21
446.016	787.14
446.39	785.56
446.764	801.83
447.139	802.06
447.513	816.97
447.887	818.33
448.262	821.94
448.636	814.71
449.01	842.51
449.384	841.38
449.758	822.62
450.132	852.22
450.506	845.44
450.88	848.83
451.254	844.09
451.628	876.63
452.002	870.3
452.376	884.76
452.75	882.96
453.123	887.93
453.497	875.27
453.871	901.71
454.244	909.17
454.618	936.74
454.992	939.9
455.365	943.75
455.739	948.49
456.112	960.24
456.486	969.51
456.859	970.86
457.232	988.26
457.606	1002.5
457.979	997.76
458.352	1052.44
458.725	1010.19
459.099	1021.48
459.472	1065.33
459.845	1027.81
460.218	1044.31
460.591	1080.69
460.964	1086.57
461.337	1098.77
461.71	1102.84
462.083	1115.27
462.456	1115.04
462.829	1101.03
463.201	1129.73
463.574	1159.11
463.947	1157.07
464.32	1169.28
464.692	1193.68
465.065	1218.32
465.438	1208.6
465.81	1242.95
466.183	1265.32
466.555	1267.35
466.928	1280.91
467.3	1279.33
467.672	1309.16
468.045	1344.19
468.417	1330.85
468.789	1324.75
469.161	1357.29
469.534	1364.3
469.906	1408.37
470.278	1384.64
470.65	1443.17
471.022	1434.58
471.394	1467.12
471.766	1454.24
472.138	1509.16
472.51	1530.62
472.882	1555.93
473.253	1560
473.625	1556.16
473.997	1599.1
474.369	1670.05
474.74	1661.47
475.112	1694.46
475.484	1687.68
475.855	1770.17
476.227	1761.8
476.598	1804.29
476.97	1843.38
477.341	1854.91
477.713	1907.79
478.084	1914.57
478.455	1929.26
478.827	1971.29
479.198	2009.03
479.569	2056.71
479.94	2131.29
480.311	2124.73
480.682	2193.21
481.053	2210.15
481.424	2259.64
481.795	2287.67
482.166	2319.3
482.537	2365.4
482.908	2415.8
483.279	2455.57
483.65	2491.28
484.021	2547.09
484.391	2609.24
484.762	2592.52
485.133	2605.62
485.503	2667.09
485.874	2763.36
486.244	2760.42
486.615	2840.87
486.985	2863.92
487.356	2941.43
487.726	2943.69
488.097	3022.34
488.467	3027.76
488.837	3100.53
489.207	3187.53
489.578	3241.31
489.948	3200.86
490.318	3276.11
490.688	3278.6
491.058	3356.11
491.428	3365.6
491.798	3407.64
492.168	3526.5
492.538	3547.97
492.908	3573.73
493.278	3640.85
493.648	3673.62
494.017	3722.88
494.387	3782.32
494.757	3747.51
495.126	3845.14
495.496	3841.07
495.866	3838.36
496.235	3935.08
496.605	3908.19
496.974	3958.36
497.344	4043.55
497.713	4060.27
498.082	4099.37
498.452	4139.59
498.821	4097.79
499.19	4137.56
499.559	4205.13
499.928	4193.15
500.298	4225.47
500.667	4232.47
501.036	4277.67
501.405	4371.9
501.774	4332.13
502.143	4339.36
502.512	4445.58
502.88	4441.28
503.249	4460.72
503.618	4469.53
503.987	4497.1
504.356	4527.83
504.724	4520.83
505.093	4553.37
505.462	4562.18
505.83	4636.98
506.199	4646.7
506.567	4712.01
506.936	4713.14
507.304	4786.58
507.672	4775.96
508.041	4799.92
508.409	4834.49
508.777	4886.92
509.145	4862.74
509.514	4842.85
509.882	4875.62
510.25	4897.31
510.618	4979.35
510.986	4973.24
511.354	5032.45
511.722	5008.27
512.09	5074.94
512.458	5057.31
512.826	5136.86
513.193	5144.99
513.561	5156.97
513.929	5169.62
514.297	5240.81
514.664	5229.06
515.032	5281.03
515.4	5293.69
515.767	5314.03
516.135	5347.25
516.502	5296.63
516.869	5367.81
517.237	5404.65
517.604	5402.61
517.972	5408.26
518.339	5486.68
518.706	5486.45
519.073	5485.1
519.44	5546.11
519.808	5563.74
520.175	5528.03
520.542	5597.18
520.909	5578.88
521.276	5635.15
521.643	5661.14
522.009	5653.45
522.376	5717.41
522.743	5723.51
523.11	5797.18
523.477	5819.55
523.843	5840.79
524.21	5988.81
524.577	5935.03
524.943	5985.42
525.31	5987.68
525.676	6052.54
526.043	6030.39
526.409	6054.8
526.776	6160.56
527.142	6174.34
527.508	6169.15
527.874	6214.12
528.241	6264.74
528.607	6244.4
528.973	6283.04
529.339	6325.3
529.705	6405.98
530.071	6430.16
530.437	6442.81
530.803	6516.03
531.169	6510.15
531.535	6490.72
531.901	6569.59
532.267	6546.76
532.632	6629.25
532.998	6638.51
533.364	6752.63
533.73	6680.54
534.095	6729.58
534.461	6715.57
534.826	6815.23
535.192	6815
535.557	6837.83
535.923	6796.02
536.288	6922.8
536.653	6886.87
537.019	6845.29
537.384	6905.62
537.749	6993.08
538.114	7016.58
538.479	6985.62
538.845	7073.98
539.21	7059.29
539.575	7107.65
539.94	7087.99
540.305	7193.07
540.67	7177.93
541.034	7175.22
541.399	7224.94
541.764	7213.19
542.129	7302.22
542.494	7333.18
542.858	7339.06
543.223	7350.36
543.587	7420.19
543.952	7395.78
544.316	7526.4
544.681	7514.65
545.045	7499.51
545.41	7587.19
545.774	7552.39
546.138	7576.79
546.503	7731.36
546.867	7624.25
547.231	7660.63
547.595	7723.68
547.959	7734.98
548.324	7724.59
548.688	7750.57
549.052	7872.38
549.416	7925.94
549.779	7869.67
550.143	7861.98
550.507	7947.63
550.871	7967.97
551.235	7902.43
551.599	8010.91
551.962	8057.46
552.326	8066.5
552.689	8108.76
553.053	8051.58
553.417	8046.16
553.78	8204.8
554.143	8146.72
554.507	8240.28
554.87	8263.33
555.234	8323.67
555.597	8227.17
555.96	8324.8
556.323	8356.21
556.686	8388.75
557.05	8418.8
557.413	8405.02
557.776	8452.93
558.139	8436.43
558.502	8504.68
558.865	8510.33
559.228	8612.02
559.59	8666.48
559.953	8668.29
560.316	8736.08
560.679	8749.42
561.041	8791.22
561.404	8723.43
561.767	8866.02
562.129	8817.66
562.492	8897.66
562.854	8881.39
563.217	8916.19
563.579	8883.88
563.941	8948.96
564.304	9000.48
564.666	9071.22
565.028	9084.1
565.39	9091.33
565.753	9138.33
566.115	9148.73
566.477	9212.68
566.839	9193.47
567.201	9247.03
567.563	9314.6
567.925	9345.56
568.287	9313.92
568.648	9339.68
569.01	9403.64
569.372	9501.71
569.734	9441.6
570.095	9462.17
570.457	9552.11
570.819	9577.19
571.18	9632.78
571.542	9650.18
571.903	9698.54
572.265	9786.68
572.626	9814.25
572.987	9858.77
573.349	9895.38
573.71	9981.02
574.071	9967.24
574.432	10035.26
574.794	10108.25
575.155	10193.9
575.516	10174.01
575.877	10217.85
576.238	10291.3
576.599	10385.98
576.96	10447.9
577.32	10537.39
577.681	10660.33
578.042	10700.55
578.403	10763.83
578.763	10905.07
579.124	10980.77
579.485	11047.89
579.845	11148.45
580.206	11242.01
580.566	11383.25
580.927	11463.92
581.287	11607.19
581.648	11650.36
582.008	11802.67
582.368	11960.18
582.728	12117.01
583.089	12243.56
583.449	12405.14
583.809	12484.46
584.169	12654.4
584.529	12823.21
584.889	13079.02
585.249	13180.03
585.609	13328.96
585.969	13589.29
586.329	13750.19
586.688	14006.68
587.048	14203.06
587.408	14356.05
587.768	14582.48
588.127	14711.97
588.487	14970.5
588.846	15391.28
589.206	15445.51
589.565	15793.07
589.925	16070.81
590.284	16243.23
590.643	16527.74
591.003	16763.67
591.362	17251.34
591.721	17413.37
592.08	17639.35
592.44	17984.65
592.799	18325.21
593.158	18451.99
593.517	18771.53
593.876	19181.01
594.235	19329.48
594.593	19740.31
594.952	20021.21
595.311	20210.81
595.67	20658.93
596.029	21032.71
596.387	21338.92
596.746	21692.35
597.104	21982.29
597.463	22120.14
597.822	22623.85
598.18	22763.74
598.538	23091.64
598.897	23658.18
599.255	23723.94
599.613	24267.2
599.972	24421.32
600.33	24685.27
600.688	25005.26
601.046	25337.68
601.404	25683.43
601.762	25935.41
602.12	26448.39
602.478	26659.45
602.836	27053.79
603.194	27159.1
603.552	27538.98
603.91	27741.69
604.268	28079.76
604.625	28230.49
604.983	28742.34
605.341	28864.59
605.698	29225.04
606.056	29460.06
606.413	29774.85
606.771	30145.92
607.128	30242.64
607.485	30556.53
607.843	30740.25
608.2	30975.05
608.557	31448.26
608.914	31592.66
609.272	32036.94
609.629	32280.32
609.986	32602.8
610.343	32615
610.7	33098.16
611.057	33217.02
611.414	33355.1
611.771	33604.58
612.127	34022.2
612.484	34158.24
612.841	34377.44
613.198	34469.87
613.554	34632.13
613.911	35029.18
614.267	35154.82
614.624	35373.8
614.98	35554.59
615.337	35894.01
615.693	36010.85
616.05	36173.78
616.406	36531.06
616.762	36426.66
617.118	36685.86
617.475	36750.71
617.831	37111.83
618.187	37173.75
618.543	37369.23
618.899	37770.35
619.255	37762.89
619.611	37868.65
619.967	38145.25
620.323	38322.2
620.678	38156.78
621.034	38352.71
621.39	38530.33
621.746	38439.26
622.101	39179.8
622.457	38871.79
622.812	39081.27
623.168	39183.42
623.523	39294.15
623.879	39430.87
624.234	39312.68
624.589	39550.64
624.945	39722.39
625.3	39801.48
625.655	39818.2
626.01	39948.14
626.365	39912.44
626.72	40059.55
627.075	40027.24
627.43	40215.03
627.785	40133.9
628.14	40385.2
628.495	40400.56
628.85	40576.15
629.205	40394.69
629.559	40598.75
629.914	40417.96
630.269	40639.65
630.623	40504.97
630.978	40724.85
631.332	40787.44
631.687	40957.84
632.041	40849.59
632.396	41017.04
632.75	40889.36
633.104	41002.58
633.459	40796.26
633.813	40760.78
634.167	41052.75
634.521	40888.91
634.875	41028.57
635.229	41054.1
635.583	40918.51
635.937	40940.89
636.291	41065.4
636.645	40992.64
636.999	40913.32
637.352	41184.27
637.706	40876.26
638.06	41099.53
638.413	41000.77
638.767	40962.13
639.121	40968.91
639.474	40744.28
639.828	40827.9
640.181	40780.44
640.534	41002.13
640.888	40844.39
641.241	40750.38
641.594	40863.37
641.947	40886.65
642.301	40776.37
642.654	40966.42
643.007	40973.88
643.36	40838.06
643.713	40783.15
644.066	40982.92
644.419	40743.83
644.771	40613.21
645.124	40216.39
645.477	40170.96
645.83	40007.13
646.182	39829.96
646.535	39768.04
646.888	39727.36
647.24	39516.97
647.593	39771.65
647.945	39740.47
648.298	39565.33
648.65	39604.2
649.002	39481.26
649.355	39698.89
649.707	39680.58
650.059	39796.28
650.411	40243.96
650.763	40303.16
651.115	40710.61
651.467	40490.05
651.819	40573.89
652.171	40416.83
652.523	40471.29
652.875	40337.06
653.227	40266.78
653.578	40440.56
653.93	40462.26
654.282	40255.48
654.633	40328.02
654.985	40375.7
655.337	40336.61
655.688	40296.84
656.039	40481.24
656.391	40102.26
656.742	40145.2
657.094	40255.48
657.445	40389.49
657.796	40278.76
658.147	40282.37
658.498	40130.74
658.849	40277.85
659.2	40162.83
659.551	40158.08
659.902	40182.04
660.253	40141.13
660.604	40239.44
660.955	40050.97
661.306	40254.35
661.656	40110.17
662.007	40136.39
662.358	40110.63
662.708	40356.72
663.059	39985.21
663.409	39857.98
663.76	40144.3
664.11	40056.16
664.461	40287.12
664.811	40213.9
665.161	40085.09
665.511	39958.09
665.862	40000.12
666.212	40109.5
666.562	40128.7
666.912	40011.42
667.262	40087.8
667.612	39994.47
667.962	40055.49
668.312	40060.91
668.662	40177.52
669.011	40076.05
669.361	40017.07
669.711	39911.76
670.06	39899.11
670.41	39836.96
670.76	39803.06
671.109	40018.88
671.459	39864.3
671.808	39880.58
672.157	39991.53
672.507	39707.47
672.856	39762.61
673.205	39871.08
673.554	39951.08
673.904	39900.46
674.253	39975.26
674.602	39952.89
674.951	39232.91
675.3	39054.38
675.649	39676.06
675.998	39686.46
676.346	39631.99
676.695	39830.18
677.044	39384.32
677.393	39610.75
677.741	39662.5
678.09	39474.94
678.438	39416.63
678.787	39559.23
679.135	39490.76
679.484	39219.12
679.832	39433.81
680.181	39262.74
680.529	39161.5
680.877	39226.81
681.225	39047.15
681.573	39312
681.922	39044.67
682.27	38945.46
682.618	39067.49
682.966	38914.5
683.314	39076.3
683.661	38876.08
684.009	38743.88
684.357	38765.58
684.705	38552.02
685.053	38669.76
685.4	38513.38
685.748	38394.29
686.095	38458.47
686.443	38317
686.79	38208.3
687.138	38345.7
687.485	38427.73
687.832	38191.81
688.18	38183.67
688.527	37901.42
688.874	37868.43
689.221	37890.57
689.568	37783
689.915	37760.41
690.262	37718.37
690.609	37584.14
690.956	37547.76
691.303	37507.53
691.65	37210.59
691.997	37342.56
692.344	37036.36
692.69	37075.23
693.037	36927.43
693.383	36779.64
693.73	36809.7
694.077	36665.97
694.423	36730.6
694.769	36598.63
695.116	36552.75
695.462	36538.06
695.808	36370.84
696.155	36361.8
696.501	36218.53
696.847	36203.61
697.193	35788.48
697.539	36082.26
697.885	35707.58
698.231	35641.14
698.577	35643.17
698.923	35591.2
699.269	35401.82
699.614	35332.45
699.96	35183.52
700.306	35136.07
700.651	35074.15
700.997	35014.26
701.342	34871.67
701.688	34988.27
702.033	34778.11
702.379	34983.53
702.724	34718
703.069	34714.61
703.415	34268.07
703.76	34419.25
704.105	34309.65
704.45	34306.94
704.795	34116.89
705.14	34043.67
705.485	33988.53
705.83	33824.24
706.175	33908.08
706.52	33795.54
706.865	33605.71
707.209	33688.87
707.554	33511.48
707.899	33613.17
708.243	33323.23
708.588	33223.8
708.932	33078.04
709.277	33151.26
709.621	33121.66
709.966	33032.17
710.31	33120.98
710.654	32647.55
710.998	32862
711.342	32763.93
711.687	32646.87
712.031	32475.57
712.375	32469.25
712.719	32477.61
713.063	32437.83
713.407	32412.98
713.75	32258.18
714.094	32303.83
714.438	32125.98
714.782	32269.48
715.125	32000.78
715.469	31977.73
715.812	31963.04
716.156	31827.68
716.499	31753.78
716.843	31846.66
717.186	31722.15
717.53	31857.06
717.873	31666.55
718.216	31658.87
718.559	31522.15
718.902	31316.28
719.246	31453.45
719.589	31227.24
719.932	31238.99
720.275	31146.57
720.617	31217.07
720.96	31071.54
721.303	30985.22
721.646	31015.95
721.989	30835.84
722.331	30960.58
722.674	30902.96
723.016	30803.3
723.359	30655.06
723.701	30823.64
724.044	30570.76
724.386	30404.44
724.729	30696.41
725.071	30443.76
725.413	30473.59
725.755	30340.49
726.097	30161.51
726.439	30120.83
726.782	30156.31
727.124	30204.22
727.465	30103.66
727.807	30115.41
728.149	30145.46
728.491	29922.19
728.833	30033.6
729.175	29911.12
729.516	29853.49
729.858	29770.79
730.199	29813.04
730.541	29901.18
730.882	29835.19
731.224	29751.35
731.565	29626.16
731.906	29665.93
732.248	29695.31
732.589	29426.16
732.93	29398.59
733.271	29549.77
733.612	29406.95
733.953	29449.44
734.294	29278.14
734.635	29245.15
734.976	29248.54
735.317	29093.29
735.658	29149.56
735.999	29155.21
736.339	29044.7
736.68	29254.64
737.021	29120.18
737.361	28930.13
737.702	28990.47
738.042	28896.68
738.383	28805.84
738.723	28912.95
739.063	28660.31
739.404	28864.59
739.744	28726.97
740.084	28634.09
740.424	28728.1
740.764	28580.99
741.104	28722.68
741.444	28484.94
741.784	28389.8
742.124	28472.97
742.464	28355.23
742.804	28331.05
743.143	28300.99
743.483	28409.01
743.823	28257.6
744.162	28140.55
744.502	28125.63
744.841	28020.32
745.181	28220.09
745.52	27932.19
745.86	28094.67
746.199	27991.4
746.538	28085.18
746.877	28176.93
747.216	28049.7
747.556	27951.4
747.895	27917.05
748.234	27805.86
748.573	27662.14
748.911	27767.9
749.25	27755.7
749.589	27652.87
749.928	27615.59
750.267	27629.15
750.605	27584.18
750.944	27379.66
751.283	27313.45
751.621	27526.55
751.96	27409.04
752.298	27265.31
752.636	27305.99
752.975	27193.45
753.313	27161.59
753.651	27278.87
753.989	27018.77
754.327	26863.06
754.666	26866.68
755.004	26982.38
755.342	26949.39
755.679	26943.74
756.017	26741.94
756.355	26808.83
756.693	26616.74
757.031	26647.7
757.368	26468.95
757.706	26434.6
758.044	26450.42
758.381	26380.37
758.719	26361.61
759.056	26443.87
759.394	26307.15
759.731	26132.01
760.068	26135.85
760.405	25907.61
760.743	26017.21
761.08	26027.38
761.417	25799.82
761.754	25807.95
762.091	25794.17
762.428	25629.88
762.765	25555.53
763.102	25593.27
763.438	25456.1
763.775	25385.14
764.112	25317.57
764.449	25342.43
764.785	25246.38
765.122	25027.18
765.458	24962.78
765.795	24963
766.131	24967.75
766.467	24908.09
766.804	24697.25
767.14	24572.96
767.476	24598.49
767.812	24602.33
768.148	24528.66
768.485	24271.49
768.821	24245.51
769.157	24200.08
769.492	24058.62
769.828	24091.61
770.164	23934.55
770.5	23777.27
770.836	23824.73
771.171	23597.16
771.507	23615.69
771.842	23445.53
772.178	23563.72
772.513	23404.4
772.849	23425.42
773.184	23232.43
773.519	23210.96
773.855	23080.57
774.19	23007.35
774.525	22852.55
774.86	22791.76
775.195	22742.5
775.53	22690.97
775.865	22638.77
776.2	22489.62
776.535	22345.67
776.87	22397.65
777.205	22284.88
777.539	22117.65
777.874	22257.76
778.209	22002.85
778.543	21968.96
778.878	21806.7
779.212	21857.55
779.547	21672.24
779.881	21750.66
780.215	21632.24
780.55	21618.01
780.884	21486.94
781.218	21373.94
781.552	21442.64
781.886	21240.16
782.22	21223.89
782.554	21086.04
782.888	20892.83
783.222	20868.42
783.556	20776.67
783.889	20779.61
784.223	20600.4
784.557	20480.41
784.89	20589.56
785.224	20426.4
785.557	20405.83
785.891	20267.08
786.224	20266.18
786.558	20294.42
786.891	20054.88
787.224	19893.3
787.557	19846.53
787.891	19883.81
788.224	19808.56
788.557	19910.25
788.89	19800.65
789.223	19781.22
789.556	19539.87
789.888	19518.63
790.221	19398.63
790.554	19258.97
790.887	19241.34
791.219	19210.61
791.552	19119.54
791.884	19025.76
792.217	18942.14
792.549	18811.75
792.882	18757.52
793.214	18646.56
793.546	18799.32
793.879	18704.86
794.211	18542.61
794.543	18671.19
794.875	18422.16
795.207	18502.83
795.539	18383.06
795.871	18427.58
796.203	18215.61
796.535	18161.15
796.867	18183.29
797.198	18065.1
797.53	18082.5
797.862	17899.01
798.193	17976.29
798.525	17864.88
798.856	17914.37
799.188	17595.96
799.519	17608.62
799.85	17547.6
800.182	17574.5
800.513	17505.57
800.844	17426.25
801.175	17417.21
801.506	17421.05
801.837	17256.31
802.168	17251.34
802.499	17115.07
802.83	17117.11
803.161	17051.35
803.491	17130.21
803.822	17020.61
804.153	16952.59
804.483	16779.71
804.814	16815.87
805.145	16801.86
805.475	16695.42
805.805	16663.33
806.136	16693.84
806.466	16649.77
806.796	16681.19
807.126	16510.12
807.457	16486.61
807.787	16480.06
808.117	16336.56
808.447	16321.42
808.777	16392.83
809.107	16253.17
809.436	16096.34
809.766	16109.45
810.096	16063.35
810.426	16006.63
810.755	16041.88
811.085	16031.49
811.414	16026.51
811.744	15788.33
812.073	15793.98
812.403	15748.55
812.732	15678.05
813.061	15684.83
813.39	15617.71
813.719	15573.42
814.049	15691.61
814.378	15613.87
814.707	15520.54
815.036	15558.96
815.365	15386.76
815.693	15327.77
816.022	15301.33
816.351	15354.44
816.68	15190.6
817.008	15232.64
817.337	15061.79
817.665	15048.91
817.994	15105.86
818.322	15032.19
818.651	15041.45
818.979	14929.82
819.307	15029.93
819.636	14985.86
819.964	14836.26
820.292	14902.48
820.62	14902.02
820.948	14785.87
821.276	14809.6
821.604	14741.58
821.932	14829.48
822.259	14777.73
822.587	14762.82
822.915	14720.79
823.243	14772.08
823.57	14674.68
823.898	14790.84
824.225	14691.63
824.553	14740.22
824.88	14725.3
825.207	14811.63
825.535	14749.26
825.862	14775.93
826.189	14723.95
826.516	14784.29
826.843	14830.39
827.17	14712.42
827.497	14726.89
827.824	14705.87
828.151	14735.7
828.478	14738.86
828.805	14664.52
829.131	14694.12
829.458	14680.56
829.785	14594.46
830.111	14695.48
830.438	14748.36
830.764	14641.01
831.09	14700.67
831.417	14676.72
831.743	14673.55
832.069	14586.78
832.395	14631.75
832.722	14616.61
833.048	14551.98
833.374	14576.38
833.7	14505.65
834.026	14520.56
834.351	14589.72
834.677	14499.55
835.003	14528.7
835.329	14466.33
835.654	14474.92
835.98	14482.15
836.306	14390.62
836.631	14343.17
836.956	14433.56
837.282	14495.48
837.607	14344.07
837.932	14275.37
838.258	14422.04
838.583	14248.93
838.908	14170.07
839.233	14231.53
839.558	14256.62
839.883	14205.32
840.208	14133
840.533	14093.91
840.858	14160.35
841.182	14085.77
841.507	14106.56
841.832	14012.56
842.156	13988.38
842.481	13938.21
842.805	13986.79
843.13	13854.59
843.454	13831.32
843.778	13817.76
844.103	13822.28
844.427	13749.29
844.751	13749.29
845.075	13685.11
845.399	13600.36
845.723	13591.32
846.047	13612.34
846.371	13467.03
846.695	13485.34
847.019	13347.04
847.343	13374.61
847.666	13219.58
847.99	13192.69
848.313	13157.89
848.637	13107.04
848.96	13110.21
849.284	13053.03
849.607	12949.98
849.931	12984.11
850.254	12859.37
850.577	12818.01
850.9	12778.46
851.223	12727.17
851.546	12589.77
851.869	12639.48
852.192	12599.71
852.515	12475.42
852.838	12430.22
853.161	12472.93
853.483	12418.7
853.806	12306.39
854.129	12335.09
854.451	12198.82
854.774	12165.15
855.096	12088.54
855.419	12096.67
855.741	12069.78
856.063	11991.37
856.385	11952.27
856.708	11961.08
857.03	11834.31
857.352	11902.33
857.674	11866.4
857.996	11852.84
858.318	11772.61
858.64	11826.17
858.961	11684.03
859.283	11615.1
859.605	11680.19
859.926	11679.74
860.248	11611.71
860.57	11553.86
860.891	11552.73
861.212	11514.77
861.534	11485.62
861.855	11383.02
862.176	11540.76
862.498	11428.44
862.819	11487.2
863.14	11300.54
863.461	11366.3
863.782	11279.52
864.103	11333.76
864.424	11249.24
864.745	11356.81
865.065	11247.66
865.386	11202.01
865.707	11216.92
866.027	11239.75
866.348	11194.1
866.668	11149.13
866.989	11180.54
867.309	11054.44
867.63	11076.59
867.95	11058.28
868.27	10999.75
868.59	10991.39
868.91	10914.33
869.23	11047.66
869.55	10918.4
869.87	10998.4
870.19	10912.98
870.51	10983.93
870.83	10912.52
871.15	10885.86
871.469	10788.01
871.789	10864.39
872.109	10751.62
872.428	10730.38
872.748	10743.04
873.067	10701
873.386	10761.12
873.706	10741
874.025	10707.56
874.344	10649.25
874.663	10661.68
874.982	10630.95
875.301	10552.99
875.62	10616.49
875.939	10596.6
876.258	10536.71
876.577	10527.9
876.896	10574.23
877.214	10485.19
877.533	10513.21
877.852	10483.83
878.17	10444.06
878.489	10432.99
878.807	10405.87
879.125	10460.33
879.444	10416.27
879.762	10360.67
880.08	10458.07
880.398	10382.59
880.716	10335.36
881.034	10340.34
881.352	10306.44
881.67	10291.07
881.988	10289.26
882.306	10267.79
882.624	10190.96
882.941	10105.99
883.259	10129.49
883.577	10156.61
883.894	10074.13
884.212	10121.36
884.529	10004.07
884.846	9973.11
885.164	10006.56
885.481	9988.25
885.798	9966.11
886.115	9886.34
886.432	9837.52
886.75	9903.06
887.067	9819.45
887.383	9864.42
887.7	9792.33
888.017	9744.19
888.334	9796.17
888.651	9763.4
888.967	9790.52
889.284	9736.51
889.6	9705.78
889.917	9689.96
890.233	9629.17
890.55	9564.54
890.866	9633.91
891.182	9517.98
891.498	9513.69
891.815	9459
892.131	9431.21
892.447	9422.17
892.763	9377.2
893.079	9349.85
893.395	9297.65
893.71	9336.97
894.026	9258.56
894.342	9268.73
894.657	9137.88
894.973	9177.43
895.289	9174.94
895.604	9166.81
895.92	9074.38
896.235	9033.03
896.55	9112.35
896.865	8986.7
897.181	9010.65
897.496	8957.32
897.811	8936.3
898.126	8935.85
898.441	8841.62
898.756	8844.1
899.071	8832.8
899.386	8741.73
899.7	8673.71
900.015	8708.51
900.33	8593.04
900.644	8586.48
900.959	8644.79
901.273	8584.68
901.588	8626.03
901.902	8521.17
902.216	8511.68
902.531	8469.42
902.845	8411.57
903.159	8441.4
903.473	8369.31
903.787	8328.86
904.101	8293.84
904.415	8208.64
904.729	8312.82
905.042	8225.14
905.356	8169.77
905.67	8183.78
905.984	8151.24
906.297	8147.17
906.611	8002.54
906.924	8099.26
907.237	8039.15
907.551	7969.55
907.864	7979.49
908.177	7923.68
908.491	7892.04
908.804	7895.2
909.117	7817.92
909.43	7801.65
909.743	7745.15
910.056	7763.23
910.368	7653.4
910.681	7679.39
910.994	7630.35
911.307	7585.15
911.619	7525.95
911.932	7585.38
912.244	7490.47
912.557	7469
912.869	7446.4
913.181	7403.24
913.494	7386.06
913.806	7354.88
914.118	7316.91
914.43	7292.05
914.742	7278.5
915.054	7237.59
915.366	7194.2
915.678	7161.21
915.99	7156.92
916.302	7073.75
916.613	7127.54
916.925	7033.08
917.236	7049.35
917.548	7003.47
917.859	6990.59
918.171	6939.52
918.482	6906.3
918.794	6900.88
919.105	6877.38
919.416	6799.86
919.727	6842.57
920.038	6768.68
920.349	6763.03
920.66	6749.92
920.971	6723.93
921.282	6734.33
921.593	6647.55
921.903	6570.49
922.214	6585.41
922.525	6547.89
922.835	6553.77
923.146	6504.05
923.456	6483.71
923.767	6493.88
924.077	6416.14
924.387	6360.78
924.697	6394
925.008	6340.67
925.318	6291.85
925.628	6295.7
925.938	6271.29
926.248	6200.78
926.558	6184.29
926.867	6200.33
927.177	6152.87
927.487	6112.88
927.796	6073.1
928.106	6071.52
928.416	6018.19
928.725	5979.77
929.034	5972.99
929.344	5977.51
929.653	5927.57
929.962	5866.55
930.271	5869.72
930.581	5855.93
930.89	5842.83
931.199	5791.08
931.508	5745.43
931.817	5773
932.125	5754.24
932.434	5718.08
932.743	5643.06
933.051	5671.98
933.36	5629.95
933.669	5589.5
933.977	5582.27
934.286	5580.01
934.594	5588.82
934.902	5502.72
935.21	5472.21
935.519	5486.23
935.827	5446.23
936.135	5440.35
936.443	5344.76
936.751	5377.3
937.059	5389.51
937.367	5347.02
937.674	5370.97
937.982	5325.1
938.29	5290.52
938.597	5266.12
938.905	5228.61
939.213	5172.56
939.52	5155.84
939.827	5156.52
940.135	5138.89
940.442	5068.16
940.749	5100.25
941.056	5078.1
941.363	5048.27
941.67	5042.62
941.977	5000.81
942.284	4919.24
942.591	4931.44
942.898	4918.56
943.205	4931.89
943.511	4899.57
943.818	4900.03
944.125	4859.58
944.431	4846.47
944.738	4867.03
945.044	4811.67
945.35	4808.96
945.657	4757.21
945.963	4728.96
946.269	4692.35
946.575	4698.45
946.881	4669.98
947.187	4689.64
947.493	4658.22
947.799	4571.9
948.105	4590.66
948.41	4560.15
948.716	4565.8
949.022	4562.86
949.327	4544.56
949.633	4474.5
949.938	4432.02
950.244	4495.97
950.549	4434.73
950.854	4412.13
951.16	4391.11
951.465	4366.48
951.77	4378.68
952.075	4369.19
952.38	4306.82
952.685	4356.99
952.99	4271.12
953.294	4255.75
953.599	4272.7
953.904	4203.77
954.209	4216.88
954.513	4185.24
954.818	4177.56
955.122	4187.05
955.426	4156.54
955.731	4115.41
956.035	4131.23
956.339	4094.4
956.643	4042.65
956.948	3988.86
957.252	4009.88
957.556	4019.82
957.86	3950.22
958.163	3980.95
958.467	3935.76
958.771	3942.31
959.075	3922.2
959.378	3845.82
959.682	3914.52
959.985	3859.38
960.289	3868.64
960.592	3854.86
960.896	3852.14
961.199	3799.94
961.502	3808.3
961.805	3735.99
962.108	3724.01
962.411	3726.72
962.714	3700.06
963.017	3699.15
963.32	3792.49
963.623	3688.98
963.926	3659.16
964.228	3619.16
964.531	3641.75
964.833	3631.59
965.136	3572.38
965.438	3618.25
965.741	3554.3
966.043	3549.78
966.345	3540.06
966.648	3501.42
966.95	3527.86
967.252	3437.69
967.554	3463.91
967.856	3463.91
968.158	3397.92
968.46	3456.22
968.761	3406.05
969.063	3420.29
969.365	3393.17
969.666	3367.64
969.968	3320.86
970.269	3332.16
970.571	3328.09
970.872	3343.01
971.174	3312.27
971.475	3293.97
971.776	3249
972.077	3270.01
972.378	3243.35
972.679	3239.28
972.98	3223.01
973.281	3213.07
973.582	3224.14
973.883	3176.23
974.183	3174.65
974.484	3154.08
974.785	3129
975.085	3129
975.386	3110.92
975.686	3089.9
975.986	3053.3
976.287	3072.05
976.587	3016.91
976.887	3034.99
977.187	3024.82
977.487	2991.15
977.787	3007.87
978.087	2986.4
978.387	2992.51
978.687	2936.69
978.987	2943.24
979.286	2900.08
979.586	2927.42
979.885	2889.46
980.185	2884.26
980.484	2861.21
980.784	2866.41
981.083	2832.51
981.382	2851.72
981.682	2829.35
981.981	2806.52
982.28	2799.74
982.579	2807.43
982.878	2790.93
983.177	2787.09
983.475	2731.95
983.774	2716.58
984.073	2733.53
984.372	2738.05
984.67	2721.33
984.969	2700.99
985.267	2667.32
985.566	2666.41
985.864	2666.41
986.162	2651.5
986.461	2622.8
986.759	2637.26
987.057	2596.81
987.355	2587.09
987.653	2605.4
987.951	2539.64
988.249	2579.41
988.547	2604.04
988.844	2520.2
989.142	2573.76
989.44	2510.94
989.737	2516.13
990.035	2499.86
990.332	2488.34
990.63	2438.62
990.927	2475.68
991.224	2458.06
991.521	2413.99
991.819	2407.44
992.116	2430.49
992.413	2418.74
992.71	2366.53
993.006	2379.87
993.303	2383.03
993.6	2394.56
993.897	2349.36
994.193	2327.89
994.49	2309.81
994.787	2324.95
995.083	2315.01
995.379	2278.4
995.676	2297.16
995.972	2303.26
996.268	2239.53
996.565	2249.7
996.861	2204.28
997.157	2238.85
997.453	2220.77
997.749	2222.81
998.044	2202.24
998.34	2152.3
998.636	2159.53
998.932	2166.54
999.227	2148.91
999.523	2131.06
999.818	2150.04
1000.114	2105.75
1000.409	2105.52
1000.704	2107.56
1001	2087.9
1001.295	2075.02
1001.59	2079.76
1001.885	2045.41
1002.18	2058.07
1002.475	2040.21
1002.77	2023.94
1003.065	1995.47
1003.359	2026.66
1003.654	2008.35
1003.949	1976.49
1004.243	1985.98
1004.538	1959.31
1004.832	1956.83
1005.127	1935.81
1005.421	1921.8
1005.715	1931.97
1006.009	1923.16
1006.304	1894.46
1006.598	1876.83
1006.892	1861.01
1007.186	1830.05
1007.48	1865.08
1007.773	1825.76
1008.067	1827.11
1008.361	1806.55
1008.655	1810.84
1008.948	1776.94
1009.242	1790.5
1009.535	1792.76
1009.829	1760
1010.122	1762.48
1010.415	1783.5
1010.708	1750.05
1011.001	1731.75
1011.295	1727.68
1011.588	1726.55
1011.881	1705.31
1012.173	1677.29
1012.466	1693.56
1012.759	1674.8
1013.052	1670.05
1013.344	1673.44
1013.637	1645.87
1013.93	1639.32
1014.222	1628.93
1014.514	1610.62
1014.807	1599.32
1015.099	1595.93
1015.391	1588.25
1015.683	1564.52
1015.976	1558.87
1016.268	1560.91
1016.56	1545.31
1016.851	1510.29
1017.143	1511.42
1017.435	1499.21
1017.727	1519.32
1018.018	1545.31
1018.31	1502.15
1018.602	1477.74
1018.893	1462.15
1019.185	1456.95
1019.476	1434.58
1019.767	1456.05
1020.058	1453.56
1020.35	1444.98
1020.641	1398.2
1020.932	1424.19
1021.223	1383.28
1021.514	1376.73
1021.804	1383.73
1022.095	1378.54
1022.386	1359.55
1022.677	1354.81
1022.967	1351.65
1023.258	1346.22
1023.548	1312.32
1023.839	1308.03
1024.129	1297.18
1024.419	1317.97
1024.709	1292.44
1025	1320.69
1025.29	1279.56
1025.58	1259.22
1025.87	1263.96
1026.16	1232.78
1026.449	1264.42
1026.739	1224.87
1027.029	1219.45
1027.319	1230.29
1027.608	1219.67
1027.898	1206.56
1028.187	1194.36
1028.477	1191.65
1028.766	1193.68
1029.055	1182.84
1029.344	1194.36
1029.634	1177.19
1029.923	1159.79
1030.212	1149.16
1030.501	1144.65
1030.79	1129.73
1031.078	1136.06
1031.367	1139
1031.656	1104.19
1031.945	1095.83
1032.233	1094.93
1032.522	1075.49
1032.81	1089.05
1033.099	1057.87
1033.387	1078.66
1033.675	1062.39
1033.963	1067.36
1034.251	1051.09
1034.54	1037.98
1034.828	1052.22
1035.116	1029.39
1035.403	1022.16
1035.691	999.34
1035.979	1021.26
1036.267	986.23
1036.554	1014.25
1036.842	977.19
1037.129	983.75
1037.417	981.71
1037.704	954.82
1037.992	969.73
1038.279	947.36
1038.566	954.37
1038.853	954.37
1039.14	954.37
