Data from hue_240_FLMS001491_00061.txt Node
Date: Tue Feb 07 16:35:47 GMT 2017
User: dcchb
Spectrometer: FLMS00149
Trigger mode: 0
Integration Time (sec): 2.000000E-2
Scans to average: 10
Electric dark correction enabled: true
Nonlinearity correction enabled: false
Boxcar width: 0
XAxis mode: Wavelengths
Number of Pixels in Spectrum: 2048
>>>>>Begin Spectral Data<<<<<
341.393	-8.3
341.776	-8.3
342.16	-8.3
342.543	-45.82
342.927	-50.56
343.31	-57.57
343.693	-65.25
344.077	-89.21
344.46	-43.78
344.843	-41.3
345.226	-48.76
345.61	-41.07
345.993	-16.44
346.376	-22.32
346.759	14.52
347.142	28.76
347.525	52.48
347.908	52.71
348.291	65.37
348.674	94.52
349.057	117.34
349.44	117.12
349.823	143.78
350.206	175.19
350.588	183.33
350.971	204.8
351.354	193.05
351.737	230.78
352.119	239.6
352.502	258.35
352.884	283.21
353.267	289.31
353.65	269.2
354.032	291.12
354.414	315.53
354.797	303.55
355.179	314.62
355.562	322.31
355.944	326.6
356.326	342.42
356.709	334.96
357.091	344.91
357.473	336.32
357.855	337
358.238	329.99
358.62	339.03
359.002	318.92
359.384	337.67
359.766	325.7
360.148	328.18
360.53	315.08
360.912	326.6
361.294	333.61
361.676	336.32
362.057	329.09
362.439	328.86
362.821	332.7
363.203	308.75
363.584	331.8
363.966	312.82
364.348	318.69
364.729	308.07
365.111	331.8
365.493	320.27
365.874	320.27
366.256	319.82
366.637	321.4
367.019	306.49
367.4	310.1
367.781	306.04
368.163	308.07
368.544	318.47
368.925	311.46
369.306	303.33
369.688	305.13
370.069	305.59
370.45	302.2
370.831	317.56
371.212	308.75
371.593	311.01
371.974	314.85
372.355	311.46
372.736	306.04
373.117	307.62
373.498	302.87
373.879	307.62
374.26	311.01
374.641	299.94
375.021	314.4
375.402	327.51
375.783	329.77
376.163	318.69
376.544	327.51
376.925	305.36
377.305	333.16
377.686	306.72
378.066	318.01
378.447	316.43
378.827	322.53
379.208	326.15
379.588	309.65
379.968	325.7
380.349	330.44
380.729	335.87
381.109	329.99
381.489	345.36
381.87	314.17
382.25	336.09
382.63	345.13
383.01	337.45
383.39	342.19
383.77	334.74
384.15	327.73
384.53	362.31
384.91	339.93
385.29	336.77
385.67	357.11
386.049	344.91
386.429	352.14
386.809	359.82
387.189	347.17
387.568	354.4
387.948	354.4
388.328	357.56
388.707	354.17
389.087	362.08
389.466	354.17
389.846	367.5
390.225	361.63
390.605	374.06
390.984	356.43
391.363	353.27
391.743	379.48
392.122	378.8
392.501	370.44
392.881	387.62
393.26	366.37
393.639	384.23
394.018	389.88
394.397	397.79
394.776	376.09
395.155	389.65
395.534	394.62
395.913	377.45
396.292	395.07
396.671	367.05
397.05	384
397.429	407.73
397.808	407.96
398.186	393.04
398.565	402.31
398.944	408.18
399.323	391.23
399.701	385.36
400.08	424
400.458	406.15
400.837	413.15
401.215	417.67
401.594	408.86
401.972	398.92
402.351	421.29
402.729	415.64
403.107	434.85
403.486	424.23
403.864	420.38
404.242	435.75
404.62	445.69
404.999	433.04
405.377	447.73
405.755	427.62
406.133	444.56
406.511	437.11
406.889	465.13
407.267	463.1
407.645	479.14
408.023	475.75
408.401	483.66
408.779	471.91
409.156	478.01
409.534	485.92
409.912	491.79
410.29	515.98
410.667	488.18
411.045	486.82
411.422	515.07
411.8	516.43
412.178	516.43
412.555	555.52
412.933	531.34
413.31	565.92
413.687	550.78
414.065	543.77
414.442	573.83
414.819	561.62
415.197	578.57
415.574	578.12
415.951	587.61
416.328	597.33
416.705	590.55
417.082	599.36
417.46	605.69
417.837	617.89
418.214	634.16
418.591	620.61
418.967	633.26
419.344	656.31
419.721	640.94
420.098	642.53
420.475	647.95
420.852	669.19
421.228	673.49
421.605	683.2
421.982	670.55
422.358	718
422.735	705.8
423.111	721.39
423.488	731.34
423.864	744.22
424.241	748.29
424.617	746.48
424.994	770.43
425.37	780.6
425.746	747.38
426.123	784.89
426.499	807.27
426.875	776.08
427.251	831.67
427.627	838
428.003	845.68
428.379	851.79
428.756	853.14
429.132	864.89
429.507	868.06
429.883	868.73
430.259	893.59
430.635	899.24
431.011	918
431.387	912.35
431.763	935.4
432.138	945.12
432.514	951.67
432.89	967.49
433.265	967.71
433.641	1000.03
434.016	1018.79
434.392	1012.91
434.767	1022.85
435.143	1054.27
435.518	1067.37
435.894	1064.89
436.269	1080.25
436.644	1104.89
437.02	1117.99
437.395	1103.53
437.77	1157.99
438.145	1136.98
438.52	1178.56
438.895	1197.77
439.271	1212.23
439.646	1205.22
440.021	1254.26
440.395	1235.73
440.77	1241.61
441.145	1260.59
441.52	1301.27
441.895	1271.89
442.27	1287.03
442.645	1313.92
443.019	1306.91
443.394	1321.38
443.769	1359.79
444.143	1361.38
444.518	1379.23
444.892	1360.92
445.267	1363.86
445.641	1414.03
446.016	1404.54
446.39	1434.14
446.764	1412.9
447.139	1394.82
447.513	1470.53
447.887	1407.03
448.262	1464.88
448.636	1468.94
449.01	1471.88
449.384	1493.35
449.758	1496.06
450.132	1515.04
450.506	1532.45
450.88	1500.58
451.254	1527.47
451.628	1571.99
452.002	1578.55
452.376	1580.35
452.75	1619.45
453.123	1595.27
453.497	1631.88
453.871	1635.72
454.244	1681.59
454.618	1696.06
454.992	1683.85
455.365	1687.92
455.739	1717.75
456.112	1765.89
456.486	1779.9
456.859	1786.9
457.232	1832.1
457.606	1814.7
457.979	1836.84
458.352	1884.98
458.725	1862.38
459.099	1893.79
459.472	1967.69
459.845	1941.93
460.218	1956.39
460.591	1993.68
460.964	1993.68
461.337	2006.33
461.71	2027.57
462.083	2066.89
462.456	2057.4
462.829	2060.12
463.201	2102.37
463.574	2120.23
463.947	2153.67
464.32	2168.36
464.692	2192.32
465.065	2219.21
465.438	2281.35
465.81	2288.36
466.183	2286.32
466.555	2321.35
466.928	2345.98
467.3	2312.76
467.672	2418.52
468.045	2422.14
468.417	2448.58
468.789	2471.63
469.161	2468.92
469.534	2505.08
469.906	2583.94
470.278	2571.74
470.65	2605.64
471.022	2647.22
471.394	2712.53
471.766	2722.24
472.138	2751.62
472.51	2784.16
472.882	2815.12
473.253	2867.33
473.625	2865.07
473.997	2915.01
474.369	2931.73
474.74	3007.66
475.112	3051.5
475.484	3076.36
475.855	3111.39
476.227	3143.25
476.598	3199.75
476.97	3226.41
477.341	3285.17
477.713	3347.77
478.084	3367.88
478.455	3448.78
478.827	3447.42
479.198	3538.04
479.569	3579.85
479.94	3632.05
480.311	3642.9
480.682	3745.27
481.053	3800.41
481.424	3848.09
481.795	3876.11
482.166	3931.7
482.537	3970.8
482.908	4019.61
483.279	4104.81
483.65	4213.73
484.021	4185.94
484.391	4289.21
484.762	4275.2
485.133	4318.36
485.503	4402.2
485.874	4450.33
486.244	4517.9
486.615	4563.1
486.985	4627.05
487.356	4678.13
487.726	4715.41
488.097	4784.34
488.467	4854.17
488.837	4898.91
489.207	4943.88
489.578	5001.51
489.948	5012.13
490.318	5098.91
490.688	5107.04
491.058	5123.76
491.428	5232.91
491.798	5286.47
492.168	5369.41
492.538	5388.84
492.908	5430.42
493.278	5522.62
493.648	5515.84
494.017	5537.76
494.387	5615.95
494.757	5632.45
495.126	5656.86
495.496	5747.93
495.866	5777.08
496.235	5777.53
496.605	5866.79
496.974	5887.36
497.344	5878.32
497.713	5900.47
498.082	5911.54
498.452	5946.11
498.821	6039.9
499.19	6027.47
499.559	6067.47
499.928	6101.59
500.298	6190.85
500.667	6128.26
501.036	6189.5
501.405	6231.76
501.774	6255.26
502.143	6283.96
502.512	6275.82
502.88	6339.32
503.249	6345.88
503.618	6363.73
503.987	6414.8
504.356	6423.84
504.724	6433.79
505.093	6479.43
505.462	6491.64
505.83	6483.73
506.199	6573.67
506.567	6600.56
506.936	6608.02
507.304	6720.11
507.672	6669.94
508.041	6696.6
508.409	6717.85
508.777	6781.12
509.145	6838.97
509.514	6752.2
509.882	6857.73
510.25	6863.6
510.618	6873.32
510.986	6934.11
511.354	6905.64
511.722	6921.23
512.09	7031.74
512.458	6948.35
512.826	7004.62
513.193	7030.38
513.561	7029.48
513.929	7122.36
514.297	7099.3
514.664	7127.1
515.032	7143.37
515.4	7179.98
515.767	7175.24
516.135	7237.38
516.502	7196.25
516.869	7265.85
517.237	7307.43
517.604	7159.19
517.972	7270.6
518.339	7332.07
518.706	7304.27
519.073	7314.21
519.44	7367.09
519.808	7399.18
520.175	7373.87
520.542	7412.06
520.909	7509.24
521.276	7452.06
521.643	7451.84
522.009	7591.04
522.376	7570.25
522.743	7530.71
523.11	7600.53
523.477	7669.23
523.843	7641.21
524.21	7651.83
524.577	7753.52
524.943	7756.46
525.31	7748.1
525.676	7816.8
526.043	7812.05
526.409	7780.87
526.776	7851.15
527.142	7814.31
527.508	7835.56
527.874	7937.02
528.241	7974.54
528.607	7920.98
528.973	7930.02
529.339	7969.11
529.705	8042.78
530.071	8103.8
530.437	8066.96
530.803	8059.28
531.169	8098.37
531.535	8066.29
531.901	8010.92
532.267	8045.72
532.632	8063.35
532.998	8039.62
533.364	8071.26
533.73	8083.46
534.095	8114.19
534.461	8123.91
534.826	8148.09
535.192	8158.49
535.557	8189.67
535.923	8119.62
536.288	8106.28
536.653	8119.62
537.019	8083.69
537.384	8083.46
537.749	8074.65
538.114	8123.46
538.479	8146.51
538.845	8123.91
539.21	8167.98
539.575	8081.43
539.94	8081.2
540.305	8158.71
540.67	8048.43
541.034	8099.5
541.399	8045.27
541.764	8075.55
542.129	8114.65
542.494	8108.09
542.858	8078.94
543.223	8053.18
543.587	8090.01
543.952	8081.2
544.316	8029.9
544.681	8040.07
545.045	8057.02
545.41	8061.99
545.774	8118.94
546.138	8055.89
546.503	8033.07
546.867	8022.9
547.231	8126.17
547.595	8070.8
547.959	8023.57
548.324	8000.52
548.688	8002.11
549.052	8021.31
549.416	7990.81
549.779	8020.18
550.143	8002.33
550.507	8106.96
550.871	8042.1
551.235	7989.45
551.599	8081.65
551.962	8028.32
552.326	8031.26
552.689	8105.38
553.053	7991.03
553.417	8003.91
553.78	8036.68
554.143	7982.9
554.507	8024.7
554.87	8025.83
555.234	8070.58
555.597	7972.5
555.96	8088.66
556.323	8038.26
556.686	8029.68
557.05	8050.92
557.413	8090.47
557.776	8064.03
558.139	8127.75
558.502	8122.33
558.865	8097.7
559.228	8126.17
559.59	8118.71
559.953	8113.52
560.316	8185.38
560.679	8191.71
561.041	8180.41
561.404	8175.43
561.767	8221.76
562.129	8232.16
562.492	8247.52
562.854	8264.25
563.217	8238.03
563.579	8236
563.941	8321.65
564.304	8321.42
564.666	8358.48
565.028	8345.83
565.39	8396.9
565.753	8441.87
566.115	8428.31
566.477	8469.21
566.839	8471.92
567.201	8570
567.563	8558.48
567.925	8520.51
568.287	8533.17
568.648	8581.3
569.01	8628.98
569.372	8683.67
569.734	8602.09
570.095	8578.14
570.457	8678.02
570.819	8704.46
571.18	8672.82
571.542	8705.59
571.903	8755.98
572.265	8781.97
572.626	8737.91
572.987	8811.8
573.349	8786.72
573.71	8845.25
574.071	8866.49
574.432	8871.24
574.794	8941.97
575.155	8932.48
575.516	8895.42
575.877	8913.95
576.238	8958.69
576.599	8995.3
576.96	8989.2
577.32	9049.76
577.681	8995.53
578.042	9085.69
578.403	9064.45
578.763	9105.13
579.124	9085.69
579.485	9082.3
579.845	9158.23
580.206	9169.31
580.566	9108.74
580.927	9128.18
581.287	9242.98
581.648	9169.31
582.008	9265.35
582.368	9240.49
582.728	9237.78
583.089	9289.3
583.449	9254.28
583.809	9263.54
584.169	9298.34
584.529	9330.43
584.889	9362.75
585.249	9324.78
585.609	9242.07
585.969	9346.93
586.329	9335.63
586.688	9366.82
587.048	9386.02
587.408	9321.17
587.768	9358.68
588.127	9324.56
588.487	9311.68
588.846	9406.14
589.206	9344.44
589.565	9334.95
589.925	9369.08
590.284	9339.25
590.643	9404.78
591.003	9477.32
591.362	9482.07
591.721	9457.43
592.08	9473.25
592.44	9447.27
592.799	9478.45
593.158	9468.06
593.517	9487.04
593.876	9448.85
594.235	9461.05
594.593	9569.97
594.952	9576.53
595.311	9527.94
595.67	9511.67
596.029	9498.56
596.387	9534.72
596.746	9563.65
597.104	9478.23
597.463	9520.94
597.822	9581.73
598.18	9552.57
598.538	9514.61
598.897	9570.65
599.255	9535.17
599.613	9645.68
599.972	9603.87
600.33	9613.82
600.688	9605.45
601.046	9598.22
601.404	9687.49
601.762	9574.27
602.12	9706.24
602.478	9710.76
602.836	9683.64
603.194	9623.31
603.552	9665.79
603.91	9630.76
604.268	9668.05
604.625	9612.46
604.983	9690.2
605.341	9636.19
605.698	9664.89
606.056	9681.84
606.413	9669.41
606.771	9656.98
607.128	9689.52
607.485	9663.08
607.843	9715.73
608.2	9710.08
608.557	9809.52
608.914	9728.84
609.272	9717.77
609.629	9797.31
609.986	9811.32
610.343	9769.07
610.7	9811.78
611.057	9803.41
611.414	9797.54
611.771	9729.52
612.127	9815.84
612.484	9816.3
612.841	9887.03
613.198	9744.21
613.554	9798.22
613.911	9841.83
614.267	9879.8
614.624	9855.84
614.98	9912.56
615.337	9957.76
615.693	9899.91
616.05	9924.99
616.406	9920.25
616.762	9938.78
617.118	9947.82
617.475	9963.18
617.831	10005.9
618.187	9981.04
618.543	9983.07
618.899	10097.64
619.255	10007.93
619.611	9977.2
619.967	10015.84
620.323	10064.2
620.678	10027.14
621.034	9995.05
621.39	10012.45
621.746	9974.03
622.101	10099.23
622.457	9935.84
622.812	10044.76
623.168	10052.9
623.523	10009.96
623.879	10101.71
624.234	9961.38
624.589	10040.02
624.945	9995.5
625.3	9994.82
625.655	9991.88
626.01	10043.86
626.365	10071.2
626.72	10009.74
627.075	9943.52
627.43	9991.66
627.785	9969.96
628.14	9991.88
628.495	10014.48
628.85	10022.39
629.205	9946.24
629.559	10076.4
629.914	9910.53
630.269	9970.64
630.623	9959.34
630.978	9896.97
631.332	9936.97
631.687	9922.96
632.041	9923.19
632.396	9957.99
632.75	9841.15
633.104	9882.73
633.459	9852.68
633.813	9832.11
634.167	9889.06
634.521	9835.5
634.875	9868.72
635.229	9832.57
635.583	9754.38
635.937	9847.48
636.291	9788.95
636.645	9788.27
636.999	9697.88
637.352	9745.34
637.706	9728.84
638.06	9777.88
638.413	9721.83
638.767	9719.12
639.121	9705.34
639.474	9661.5
639.828	9730.87
640.181	9670.54
640.534	9659.92
640.888	9667.37
641.241	9577.21
641.594	9624.21
641.947	9655.4
642.301	9610.2
642.654	9588.05
643.007	9625.57
643.36	9569.3
643.713	9590.31
644.066	9552.12
644.419	9521.16
644.771	9462.41
645.124	9396.19
645.477	9366.82
645.83	9266.25
646.182	9252.69
646.535	9216.76
646.888	9285.46
647.24	9161.17
647.593	9249.98
647.945	9236.42
648.298	9170.66
648.65	9159.36
649.002	9125.01
649.355	9172.7
649.707	9170.66
650.059	9263.99
650.411	9337.66
650.763	9331.34
651.115	9419.7
651.467	9415.85
651.819	9386.25
652.171	9398.91
652.523	9383.76
652.875	9381.5
653.227	9302.64
653.578	9384.22
653.93	9336.08
654.282	9355.74
654.633	9301.28
654.985	9374.05
655.337	9375.4
655.688	9377.21
656.039	9419.92
656.391	9286.37
656.742	9354.61
657.094	9372.24
657.445	9348.51
657.796	9360.04
658.147	9376.53
658.498	9402.07
658.849	9341.51
659.2	9379.7
659.551	9349.19
659.902	9351.68
660.253	9311
660.604	9369.98
660.955	9301.05
661.306	9359.36
661.656	9398
662.007	9374.95
662.358	9400.71
662.708	9340.83
663.059	9325.24
663.409	9274.39
663.76	9374.95
664.11	9326.36
664.461	9405.01
664.811	9363.65
665.161	9365.46
665.511	9307.83
665.862	9363.65
666.212	9407.49
666.562	9429.41
666.912	9361.17
667.262	9271.68
667.612	9359.13
667.962	9392.35
668.312	9331.79
668.662	9427.61
669.011	9386.02
669.361	9334.95
669.711	9257.44
670.06	9383.54
670.41	9287.27
670.76	9210.21
671.109	9309.87
671.459	9293.15
671.808	9341.05
672.157	9314.61
672.507	9249.53
672.856	9308.51
673.205	9295.63
673.554	9310.09
673.904	9215.63
674.253	9282.98
674.602	9268.74
674.951	9130.44
675.3	9088.86
675.649	9216.99
675.998	9228.74
676.346	9208.18
676.695	9245.92
677.044	9161.85
677.393	9238.01
677.741	9267.84
678.09	9150.78
678.438	9121.4
678.787	9125.24
679.135	9115.3
679.484	9165.69
679.832	9183.77
680.181	9006.15
680.529	9161.4
680.877	9045.69
681.225	9052.93
681.573	9111
681.922	9075.98
682.27	8951.91
682.618	9038.69
682.966	8960.95
683.314	8962.31
683.661	8937
684.009	8929.54
684.357	8935.87
684.705	8852.25
685.053	8839.6
685.4	8894.96
685.748	8815.42
686.095	8821.07
686.443	8746.72
686.79	8749.88
687.138	8747.4
687.485	8801.41
687.832	8757.11
688.18	8676.66
688.527	8634.18
688.874	8644.12
689.221	8671.69
689.568	8582.88
689.915	8603.45
690.262	8562.54
690.609	8577.68
690.956	8563.45
691.303	8489.78
691.65	8490.45
691.997	8499.04
692.344	8395.09
692.69	8447.29
693.037	8406.39
693.383	8292.95
693.73	8315.32
694.077	8359.16
694.423	8308.99
694.769	8239.84
695.116	8310.8
695.462	8238.03
695.808	8210.24
696.155	8191.48
696.501	8112.84
696.847	8149.9
697.193	7998.26
697.539	8049.56
697.885	8000.52
698.231	7962.11
698.577	7956.68
698.923	7992.61
699.269	7922.56
699.614	7835.56
699.96	7840.53
700.306	7904.26
700.651	7805.05
700.997	7788.78
701.342	7848.44
701.688	7739.74
702.033	7732.06
702.379	7753.07
702.724	7645.05
703.069	7659.06
703.415	7598.73
703.76	7573.19
704.105	7625.62
704.45	7557.6
704.795	7562.12
705.14	7574.09
705.485	7506.53
705.83	7510.82
706.175	7515.57
706.52	7420.65
706.865	7397.15
707.209	7375.68
707.554	7320.32
707.899	7362.8
708.243	7389.92
708.588	7340.65
708.932	7322.12
709.277	7217.72
709.621	7246.65
709.966	7200.77
710.31	7240.77
710.654	7199.19
710.998	7215.46
711.342	7241
711.687	7129.36
712.031	7159.64
712.375	7103.82
712.719	7151.96
713.063	7059.76
713.407	7110.6
713.75	7047.78
714.094	7025.86
714.438	7037.39
714.782	7036.48
715.125	6988.8
715.469	7049.81
715.812	6984.05
716.156	6944.51
716.499	6954
716.843	6952.64
717.186	6876.71
717.53	6972.3
717.873	6923.72
718.216	6866.32
718.559	6877.39
718.902	6863.38
719.246	6866.99
719.589	6858.41
719.932	6775.7
720.275	6811.63
720.617	6873.1
720.96	6851.4
721.303	6781.57
721.646	6810.27
721.989	6748.81
722.331	6863.6
722.674	6754.68
723.016	6744.51
723.359	6755.59
723.701	6750.16
724.044	6705.42
724.386	6672.65
724.729	6733.44
725.071	6724.63
725.413	6689.15
725.755	6696.83
726.097	6666.1
726.439	6633.78
726.782	6658.64
727.124	6731.18
727.465	6638.07
727.807	6676.27
728.149	6648.24
728.491	6617.51
728.833	6630.62
729.175	6559.88
729.516	6629.94
729.858	6652.76
730.199	6640.79
730.541	6596.72
730.882	6590.17
731.224	6571.64
731.565	6622.93
731.906	6590.84
732.248	6567.57
732.589	6553.33
732.93	6575.02
733.271	6597.4
733.612	6578.19
733.953	6643.27
734.294	6528.47
734.635	6520.56
734.976	6535.7
735.317	6560.34
735.658	6527.57
735.999	6582.71
736.339	6549.94
736.68	6563.73
737.021	6587.68
737.361	6537.74
737.702	6575.7
738.042	6617.06
738.383	6499.09
738.723	6567.12
739.063	6585.19
739.404	6589.49
739.744	6530.51
740.084	6492.54
740.424	6586.1
740.764	6561.24
741.104	6607.34
741.444	6572.09
741.784	6622.93
742.124	6608.02
742.464	6606.89
742.804	6602.14
743.143	6625.19
743.483	6593.78
743.823	6611.86
744.162	6650.28
744.502	6668.81
744.841	6672.88
745.181	6627.9
745.52	6724.85
745.86	6747.68
746.199	6798.07
746.538	6749.48
746.877	6806.21
747.216	6851.85
747.556	6916.94
747.895	6892.76
748.234	6857.28
748.573	6918.29
748.911	7003.71
749.25	7006.65
749.589	6989.93
749.928	7019.08
750.267	7175.01
750.605	7169.13
750.944	7160.55
751.283	7125.97
751.621	7272.41
751.96	7272.63
752.298	7353.54
752.636	7372.29
752.975	7433.53
753.313	7536.36
753.651	7599.18
753.989	7623.13
754.327	7651.61
754.666	7724.6
755.004	7781.77
755.342	7859.06
755.679	7954.65
756.017	7962.78
756.355	8127.07
756.693	8179.95
757.031	8263.57
757.368	8334.3
757.706	8445.71
758.044	8535.2
758.381	8697.68
758.719	8686.16
759.056	8753.5
759.394	8913.27
759.731	8936.54
760.068	9053.38
760.405	9015.41
760.743	9145.35
761.08	9301.96
761.417	9367.72
761.754	9472.8
762.091	9553.48
762.428	9659.46
762.765	9721.38
763.102	9846.13
763.438	9836.86
763.775	9969.06
764.112	10062.84
764.449	10182.16
764.785	10253.12
765.122	10268.71
765.458	10357.3
765.795	10387.13
766.131	10522.27
766.467	10550.74
766.804	10618.99
767.14	10741.92
767.476	10760.23
767.812	10774.46
768.148	10926.32
768.485	10950.73
768.821	10982.59
769.157	11102.82
769.492	11170.61
769.828	11183.27
770.164	11170.84
770.5	11263.26
770.836	11249.25
771.171	11250.83
771.507	11347.78
771.842	11361.11
772.178	11427.33
772.513	11503.26
772.849	11550.71
773.184	11532.18
773.519	11547.32
773.855	11643.59
774.19	11592.07
774.525	11588.9
774.86	11737.83
775.195	11675.68
775.53	11766.98
775.865	11735.12
776.2	11693.08
776.535	11628.45
776.87	11740.09
777.205	11737.15
777.539	11743.7
777.874	11752.52
778.209	11684.27
778.543	11744.38
778.878	11731.27
779.212	11802.01
779.547	11778.96
779.881	11812.63
780.215	11733.76
780.55	11778.28
780.884	11662.8
781.218	11776.7
781.552	11732.4
781.886	11716.36
782.22	11707.09
782.554	11691.95
782.888	11621.45
783.222	11629.58
783.556	11644.72
783.889	11561.11
784.223	11578.06
784.557	11541.22
784.89	11586.19
785.224	11505.52
785.557	11439.3
785.891	11484.73
786.224	11416.25
786.558	11501.45
786.891	11420.1
787.224	11308.23
787.557	11312.75
787.891	11348.68
788.224	11375.35
788.557	11330.38
788.89	11316.6
789.223	11417.38
789.556	11332.64
789.888	11251.96
790.221	11173.1
790.554	11092.87
790.887	11199.08
791.219	11091.52
791.552	11059.65
791.884	11118.86
792.217	11009.71
792.549	11008.35
792.882	10967.68
793.214	10974.46
793.546	10991.63
793.879	10856.49
794.211	10896.49
794.543	11004.96
794.875	10867.34
795.207	10940.79
795.539	10875.48
795.871	10897.85
796.203	10809.72
796.535	10694.46
796.867	10729.72
797.198	10604.52
797.53	10658.08
797.862	10638.65
798.193	10676.84
798.525	10523.4
798.856	10589.38
799.188	10521.14
799.519	10535.37
799.85	10427.13
800.182	10493.11
800.513	10415.15
800.844	10359.56
801.175	10440.01
801.506	10414.02
801.837	10305.1
802.168	10285.89
802.499	10263.74
802.83	10268.94
803.161	10272.1
803.491	10237.53
803.822	10249.96
804.153	10217.19
804.483	10101.49
804.814	10138.32
805.145	10138.77
805.475	10059.45
805.805	10012.9
806.136	9941.49
806.466	10100.36
806.796	10064.65
807.126	9903.07
807.457	9926.58
807.787	9909.85
808.117	9821.04
808.447	9832.34
808.777	9910.98
809.107	9834.15
809.436	9790.53
809.766	9738.78
810.096	9829.4
810.426	9749.18
810.755	9746.24
811.085	9691.55
811.414	9669.63
811.744	9685.23
812.073	9702.85
812.403	9652.91
812.732	9603.42
813.061	9553.48
813.39	9537.66
813.719	9572.46
814.049	9590.54
814.378	9533.37
814.707	9514.16
815.036	9503.76
815.365	9479.81
815.693	9402.97
816.022	9345.12
816.351	9414.05
816.68	9277.33
817.008	9392.8
817.337	9214.5
817.665	9284.11
817.994	9285.01
818.322	9265.35
818.651	9181.74
818.979	9200.72
819.307	9245.92
819.636	9179.93
819.964	9148.74
820.292	9191
820.62	9170.89
820.948	9152.13
821.276	9110.78
821.604	9135.86
821.932	9106.26
822.259	9117.1
822.587	9174.73
822.915	9102.64
823.243	9164.11
823.57	9141.29
823.898	9133.83
824.225	9106.03
824.553	9058.12
824.88	9099.48
825.207	9181.06
825.535	9050.89
825.862	9183.32
826.189	9092.02
826.516	9163.21
826.843	9171.34
827.17	9100.83
827.497	9166.14
827.824	9098.12
828.151	9148.52
828.478	9125.01
828.805	9101.96
829.131	9125.47
829.458	9142.41
829.785	9061.51
830.111	9135.64
830.438	9164.11
830.764	9148.29
831.09	9125.24
831.417	9090.21
831.743	9174.96
832.069	9074.62
832.395	9082.76
832.722	9120.27
833.048	9051.34
833.374	9118.01
833.7	9090.21
834.026	9071.23
834.351	9077.56
834.677	9070.78
835.003	9101.29
835.329	9043.66
835.654	8993.72
835.98	8985.81
836.306	8980.16
836.631	8971.8
836.956	9045.02
837.282	8994.4
837.607	8956.21
837.932	8990.55
838.258	8927.73
838.583	9042.3
838.908	8821.52
839.233	8935.41
839.558	8871.46
839.883	8948.07
840.208	8845.25
840.533	8923.21
840.858	8830.78
841.182	8878.47
841.507	8804.12
841.832	8801.63
842.156	8781.07
842.481	8777.23
842.805	8793.27
843.13	8764.8
843.454	8720.51
843.778	8663.56
844.103	8690.9
844.427	8644.12
844.751	8588.98
845.075	8650.9
845.399	8614.75
845.723	8563.22
846.047	8607.74
846.371	8467.63
846.695	8495.2
847.019	8416.56
847.343	8459.72
847.666	8359.38
847.99	8303.34
848.313	8288.88
848.637	8288.43
848.96	8311.93
849.284	8204.36
849.607	8174.08
849.931	8165.49
850.254	8144.48
850.577	8052.5
850.9	8027.42
851.223	8025.83
851.546	8019.73
851.869	7908.55
852.192	8006.85
852.515	7868.78
852.838	7896.8
853.161	7873.97
853.483	7851.83
853.806	7815.67
854.129	7809.12
854.451	7733.41
854.774	7763.69
855.096	7695
855.419	7691.15
855.741	7683.47
856.063	7618.39
856.385	7610.25
856.708	7561.89
857.03	7569.12
857.352	7535.45
857.674	7532.97
857.996	7499.75
858.318	7410.71
858.64	7430.6
858.961	7408.68
859.283	7391.95
859.605	7363.48
859.926	7388.34
860.248	7367.55
860.57	7311.73
860.891	7311.28
861.212	7330.71
861.534	7246.87
861.855	7288.45
862.176	7233.09
862.498	7281.9
862.819	7297.27
863.14	7265.18
863.461	7238.28
863.782	7244.16
864.103	7178.62
864.424	7150.38
864.745	7156.93
865.065	7090.72
865.386	7122.58
865.707	7118.74
866.027	7064.5
866.348	7108.8
866.668	7062.7
866.989	7047.55
867.309	6972.08
867.63	7036.03
867.95	7036.48
868.27	6989.48
868.59	6981.34
868.91	7057.27
869.23	7019.08
869.55	6990.38
869.87	6949.25
870.19	6941.34
870.51	6974.11
870.83	6955.13
871.15	6925.75
871.469	6938.41
871.789	6917.39
872.109	6906.77
872.428	6876.03
872.748	6854.79
873.067	6879.42
873.386	6877.84
873.706	6848.69
874.025	6791.06
874.344	6827.22
874.663	6831.97
874.982	6834
875.301	6754.91
875.62	6800.33
875.939	6801.69
876.258	6763.49
876.577	6741.57
876.896	6714.91
877.214	6657.96
877.533	6734.79
877.852	6724.85
878.17	6674.01
878.489	6765.98
878.807	6640.11
879.125	6666.1
879.444	6678.75
879.762	6669.03
880.08	6655.02
880.398	6619.54
880.716	6610.73
881.034	6670.39
881.352	6595.59
881.67	6556.27
881.988	6582.03
882.306	6555.36
882.624	6521.01
882.941	6482.37
883.259	6468.14
883.577	6499.77
883.894	6475.82
884.212	6452.09
884.529	6430.17
884.846	6411.19
885.164	6437.18
885.481	6380
885.798	6368.02
886.115	6398.31
886.432	6382.26
886.75	6334.35
887.067	6340
887.383	6313.56
887.7	6310.85
888.017	6228.14
888.334	6332.09
888.651	6250.51
888.967	6238.31
889.284	6223.62
889.6	6205.54
889.917	6177.75
890.233	6198.76
890.55	6159.89
890.866	6177.75
891.182	6144.75
891.498	6121.03
891.815	6073.12
892.131	6069.95
892.447	6057.3
892.763	6087.35
893.079	6073.12
893.395	6060.46
893.71	6014.14
894.026	5990.86
894.342	5997.64
894.657	5915.83
894.973	5962.61
895.289	5948.37
895.604	5900.69
895.92	5859.11
896.235	5814.59
896.55	5842.39
896.865	5820.02
897.181	5793.8
897.496	5777.98
897.811	5800.58
898.126	5785.44
898.441	5772.11
898.756	5728.95
899.071	5691.43
899.386	5666.8
899.7	5568.5
900.015	5581.83
900.33	5627.93
900.644	5584.54
900.959	5544.32
901.273	5527.59
901.588	5471.78
901.902	5509.74
902.216	5522.17
902.531	5453.7
902.845	5449.86
903.159	5440.37
903.473	5408.28
903.787	5370.99
904.101	5374.83
904.415	5333.93
904.729	5369.41
905.042	5249.41
905.356	5348.16
905.67	5292.8
905.984	5269.52
906.297	5214.83
906.611	5194.04
906.924	5245.34
907.237	5196.3
907.551	5197.89
907.864	5110.43
908.177	5102.3
908.491	5102.07
908.804	5070.88
909.117	5048.96
909.43	4986.59
909.743	5005.35
910.056	5070.21
910.368	4999.02
910.681	4995.41
910.994	4939.59
911.307	4923.54
911.619	4874.28
911.932	4904.11
912.244	4861.17
912.557	4872.47
912.869	4833.6
913.181	4802.64
913.494	4784.79
913.806	4798.35
914.118	4743.89
914.43	4708.41
914.742	4769.87
915.054	4710.89
915.366	4689.2
915.678	4688.52
915.99	4745.24
916.302	4609.43
916.613	4586.6
916.925	4582.53
917.236	4575.08
917.548	4573.5
917.859	4573.5
918.171	4580.73
918.482	4493.5
918.794	4507.28
919.105	4495.31
919.416	4460.96
919.727	4463.67
920.038	4444.01
920.349	4423.89
920.66	4419.83
920.971	4396.33
921.282	4418.02
921.593	4366.5
921.903	4310
922.214	4288.98
922.525	4284.24
922.835	4265.26
923.146	4287.18
923.456	4206.27
923.767	4208.76
924.077	4166.27
924.387	4194.3
924.697	4163.56
925.008	4168.31
925.318	4168.08
925.628	4143
925.938	4150
926.248	4091.7
926.558	4021.87
926.867	4050.8
927.177	4046.5
927.487	4016.67
927.796	3968.54
928.106	3959.27
928.416	3952.04
928.725	3968.77
929.034	3931.03
929.344	3935.32
929.653	3924.47
929.962	3906.85
930.271	3882.21
930.581	3867.07
930.89	3820.75
931.199	3837.92
931.508	3798.37
931.817	3785.49
932.125	3764.48
932.434	3760.64
932.743	3762.44
933.051	3727.87
933.36	3689.9
933.669	3688.77
933.977	3651.94
934.286	3682.45
934.594	3680.41
934.902	3664.14
935.21	3672.28
935.519	3680.19
935.827	3607.87
936.135	3604.93
936.443	3575.1
936.751	3531.49
937.059	3614.2
937.367	3514.99
937.674	3536.01
937.982	3527.65
938.29	3494.2
938.597	3488.33
938.905	3465.5
939.213	3449.68
939.52	3458.04
939.827	3450.81
940.135	3410.81
940.442	3421.44
940.749	3388.44
941.056	3390.93
941.363	3376.92
941.67	3313.42
941.977	3343.47
942.284	3320.42
942.591	3326.3
942.898	3312.06
943.205	3293.3
943.511	3268.22
943.818	3252.17
944.125	3297.6
944.431	3219.41
944.738	3225.96
945.044	3222.12
945.35	3181.22
945.657	3150.48
945.963	3149.58
946.269	3138.96
946.575	3094.89
946.881	3146.19
947.187	3094.66
947.493	3123.14
947.799	3082.01
948.105	3093.53
948.41	3065.74
948.716	3034.1
949.022	3053.08
949.327	3028.9
949.633	2998.17
949.938	3010.6
950.244	3019.86
950.549	2990.03
950.854	2995.01
951.16	2950.49
951.465	2923.82
951.77	2922.47
952.075	2894.22
952.38	2916.14
952.685	2887.89
952.99	2894.67
953.294	2889.92
953.599	2836.37
953.904	2853.77
954.209	2832.3
954.513	2820.32
954.818	2813.77
955.122	2804.5
955.426	2760.21
955.731	2763.6
956.035	2773.09
956.339	2769.93
956.643	2749.36
956.948	2733.54
957.252	2715.01
957.556	2708.46
957.86	2726.09
958.163	2679.99
958.467	2671.85
958.771	2687.22
959.075	2670.27
959.378	2639.76
959.682	2604.73
959.985	2609.71
960.289	2611.97
960.592	2594.11
960.896	2607.67
961.199	2597.73
961.502	2575.13
961.805	2561.12
962.108	2544.62
962.411	2540.1
962.714	2522.25
963.017	2510.95
963.32	2524.96
963.623	2503.27
963.926	2489.71
964.228	2491.06
964.531	2468.01
964.833	2414.68
965.136	2449.26
965.438	2406.77
965.741	2389.37
966.043	2413.55
966.345	2393.89
966.648	2412.2
966.95	2393.89
967.252	2383.5
967.554	2367.23
967.856	2337.4
968.158	2340.79
968.46	2321.35
968.761	2336.94
969.063	2303.05
969.365	2305.98
969.666	2340.56
969.968	2303.95
970.269	2295.59
970.571	2290.17
970.872	2281.58
971.174	2241.81
971.475	2261.69
971.776	2253.33
972.077	2227.57
972.378	2199.32
972.679	2224.63
972.98	2216.72
973.281	2192.32
973.582	2180.56
973.883	2179.43
974.183	2178.76
974.484	2158.19
974.785	2177.4
975.085	2169.26
975.386	2145.99
975.686	2145.76
975.986	2110.28
976.287	2121.13
976.587	2084.52
976.887	2112.09
977.187	2060.34
977.487	2049.04
977.787	2065.09
978.087	2052.43
978.387	2009.27
978.687	2029.16
978.987	2012.21
979.286	2034.13
979.586	2058.31
979.885	2004.75
980.185	2000.23
980.484	1995.26
980.784	1975.6
981.083	1960
981.382	1943.28
981.682	1954.81
981.981	1977.86
982.28	1947.12
982.579	1937.86
982.878	1885.2
983.177	1935.6
983.475	1896.05
983.774	1914.81
984.073	1899.44
984.372	1888.37
984.67	1869.61
984.969	1874.36
985.267	1848.37
985.566	1881.14
985.864	1840.46
986.162	1855.6
986.461	1870.97
986.759	1798.88
987.057	1814.92
987.355	1825.32
987.653	1847.24
987.951	1807.01
988.249	1788.94
988.547	1793.23
988.844	1769.28
989.142	1758.88
989.44	1743.29
989.737	1749.39
990.035	1721.37
990.332	1766.56
990.63	1738.32
990.927	1748.71
991.224	1734.25
991.521	1702.38
991.819	1687.92
992.116	1668.04
992.413	1680.92
992.71	1671.88
993.006	1684.76
993.303	1663.29
993.6	1669.62
993.897	1657.41
994.193	1673.23
994.49	1637.75
994.787	1604.31
995.083	1623.29
995.379	1634.59
995.676	1619.22
995.972	1586.23
996.268	1573.8
996.565	1586
996.861	1572.67
997.157	1574.93
997.453	1561.37
997.749	1560.47
998.044	1529.28
998.34	1544.2
998.636	1555.95
998.932	1542.39
999.227	1524.76
999.523	1524.54
999.818	1513.69
1000.114	1498.77
1000.409	1524.76
1000.704	1470.75
1001	1478.21
1001.295	1464.2
1001.59	1476.85
1001.885	1487.02
1002.18	1423.3
1002.475	1443.63
1002.77	1447.93
1003.065	1408.61
1003.359	1421.49
1003.654	1425.33
1003.949	1387.82
1004.243	1388.95
1004.538	1366.35
1004.832	1372.68
1005.127	1376.29
1005.421	1369.96
1005.715	1364.99
1006.009	1334.48
1006.304	1322.73
1006.598	1343.07
1006.892	1355.28
1007.186	1332.45
1007.48	1322.28
1007.773	1320.25
1008.067	1311.43
1008.361	1315.95
1008.655	1315.5
1008.948	1268.95
1009.242	1273.02
1009.535	1273.92
1009.829	1271.89
1010.122	1271.44
1010.415	1244.32
1010.708	1253.36
1011.001	1228.27
1011.295	1234.15
1011.588	1234.37
1011.881	1215.39
1012.173	1211.32
1012.466	1216.52
1012.759	1198.44
1013.052	1187.14
1013.344	1173.81
1013.637	1170.42
1013.93	1169.29
1014.222	1192.57
1014.514	1168.16
1014.807	1154.83
1015.099	1143.76
1015.391	1163.87
1015.683	1156.18
1015.976	1131.33
1016.268	1132.91
1016.56	1120.7
1016.851	1108.05
1017.143	1100.14
1017.435	1089.52
1017.727	1108.05
1018.018	1115.51
1018.31	1094.94
1018.602	1078.22
1018.893	1095.85
1019.185	1052.46
1019.476	1080.03
1019.767	1054.27
1020.058	1040.93
1020.35	1053.36
1020.641	1042.51
1020.932	1012.01
1021.223	1016.98
1021.514	1001.16
1021.804	1020.37
1022.095	1026.47
1022.386	1011.33
1022.677	993.25
1022.967	1009.97
1023.258	984.21
1023.548	978.34
1023.839	974.95
1024.129	983.99
1024.419	952.8
1024.709	969.07
1025	958.68
1025.29	959.35
1025.58	919.81
1025.87	952.8
1026.16	925.23
1026.449	921.84
1026.739	925.68
1027.029	931.11
1027.319	914.83
1027.608	919.58
1027.898	909.19
1028.187	901.95
1028.477	893.59
1028.766	884.78
1029.055	855.18
1029.344	876.19
1029.634	866.02
1029.923	871.9
1030.212	852.69
1030.501	868.51
1030.79	849.98
1031.078	851.56
1031.367	832.13
1031.656	820.6
1031.945	841.62
1032.233	814.05
1032.522	837.32
1032.81	820.6
1033.099	799.58
1033.387	816.76
1033.675	793.03
1033.963	798.45
1034.251	792.13
1034.54	794.39
1034.828	773.14
1035.116	795.97
1035.403	800.71
1035.691	781.28
1035.979	769.08
1036.267	775.18
1036.554	773.82
1036.842	764.1
1037.129	752.81
1037.417	758.23
1037.704	773.6
1037.992	750.77
1038.279	723.65
1038.566	752.58
1038.853	752.58
1039.14	752.58
