Data from hue_36_FLMS001491_00004.txt Node
Date: Tue Feb 07 17:29:19 GMT 2017
User: dcchb
Spectrometer: FLMS00149
Trigger mode: 0
Integration Time (sec): 2.000000E-2
Scans to average: 10
Electric dark correction enabled: true
Nonlinearity correction enabled: false
Boxcar width: 0
XAxis mode: Wavelengths
Number of Pixels in Spectrum: 2048
>>>>>Begin Spectral Data<<<<<
341.393	-4.08
341.776	-4.08
342.16	-4.08
342.543	-56.74
342.927	-56.74
343.31	-64.19
343.693	-64.65
344.077	-70.07
344.46	-42.72
344.843	-63.52
345.226	-41.59
345.61	-37.98
345.993	-16.28
346.376	-2.73
346.759	10.38
347.142	23.04
347.525	61.68
347.908	55.35
348.291	56.26
348.674	89.02
349.057	108.01
349.44	124.28
349.823	166.08
350.206	182.81
350.588	213.09
350.971	221
351.354	239.98
351.737	243.6
352.119	253.09
352.502	288.34
352.884	272.52
353.267	297.38
353.65	305.74
354.032	320.88
354.414	324.95
354.797	313.42
355.179	318.85
355.562	336.47
355.944	329.47
356.326	342.58
356.709	352.52
357.091	346.64
357.473	353.87
357.855	346.19
358.238	355.68
358.62	331.73
359.002	355.68
359.384	360.65
359.766	336.7
360.148	335.8
360.53	350.94
360.912	343.25
361.294	336.93
361.676	333.76
362.057	331.28
362.439	334.21
362.821	320.66
363.203	337.83
363.584	352.07
363.966	328.11
364.348	314.55
364.729	342.12
365.111	312.29
365.493	316.59
365.874	336.93
366.256	322.46
366.637	327.89
367.019	315.68
367.4	327.43
367.781	303.93
368.163	314.33
368.544	341.9
368.925	310.94
369.306	321.79
369.688	318.17
370.069	322.46
370.45	305.97
370.831	345.51
371.212	326.53
371.593	335.8
371.974	321.79
372.355	288.79
372.736	328.11
373.117	329.24
373.498	316.59
373.879	329.02
374.26	338.06
374.641	310.49
375.021	331.05
375.402	344.61
375.783	338.28
376.163	329.69
376.544	324.27
376.925	329.69
377.305	311.39
377.686	327.66
378.066	343.03
378.447	346.19
378.827	338.28
379.208	323.14
379.588	335.57
379.968	319.75
380.349	326.3
380.729	356.13
381.109	344.16
381.489	352.52
381.87	349.81
382.25	362.24
382.63	357.04
383.01	356.59
383.39	360.65
383.77	355.68
384.15	362.01
384.53	362.69
384.91	342.35
385.29	321.11
385.67	339.41
386.049	358.85
386.429	349.81
386.809	344.16
387.189	343.03
387.568	361.78
387.948	347.55
388.328	367.66
388.707	364.95
389.087	352.52
389.466	372.63
389.846	364.04
390.225	384.83
390.605	366.76
390.984	364.95
391.363	369.02
391.743	386.87
392.122	365.4
392.501	405.62
392.881	391.39
393.26	385.51
393.639	391.39
394.018	371.95
394.397	382.8
394.776	388.22
395.155	378.73
395.534	401.56
395.913	384.16
396.292	401.78
396.671	394.55
397.05	366.76
397.429	406.08
397.808	381.67
398.186	389.81
398.565	390.94
398.944	390.71
399.323	381.22
399.701	404.27
400.08	400.43
400.458	405.62
400.837	407.88
401.215	407.88
401.594	403.59
401.972	396.36
402.351	406.98
402.729	423.25
403.107	429.13
403.486	400.2
403.864	426.64
404.242	440.88
404.62	426.42
404.999	434.32
405.377	429.81
405.755	430.71
406.133	418.96
406.511	439.07
406.889	445.17
407.267	456.7
407.645	408.34
408.023	433.87
408.401	436.58
408.779	443.14
409.156	436.36
409.534	432.52
409.912	436.58
410.29	448.79
410.667	458.96
411.045	478.62
411.422	452.86
411.8	465.74
412.178	468.22
412.555	471.16
412.933	478.39
413.31	471.16
413.687	481.33
414.065	470.93
414.442	477.49
414.819	495.34
415.197	500.54
415.574	519.29
415.951	503.25
416.328	500.99
416.705	505.74
417.082	506.41
417.46	513.87
417.837	515.45
418.214	489.01
418.591	515.68
418.967	508.45
419.344	533.53
419.721	532.63
420.098	517.71
420.475	521.78
420.852	510.71
421.228	515
421.605	523.81
421.982	526.98
422.358	543.25
422.735	561.55
423.111	548.45
423.488	522.46
423.864	557.26
424.241	554.1
424.617	558.84
424.994	566.07
425.37	591.83
425.746	556.81
426.123	579.41
426.499	577.15
426.875	569.24
427.251	559.07
427.627	577.6
428.003	574.89
428.379	574.89
428.756	604.49
429.132	612.85
429.507	607.65
429.883	613.76
430.259	611.27
430.635	616.47
431.011	625.51
431.387	619.63
431.763	632.06
432.138	629.12
432.514	646.75
432.89	651.72
433.265	619.63
433.641	687.88
434.016	659.4
434.392	661.66
434.767	699.18
435.143	673.87
435.518	670.48
435.894	711.61
436.269	698.27
436.644	701.21
437.02	690.14
437.395	719.29
437.77	705.5
438.145	705.5
438.52	738.5
438.895	730.36
439.271	707.99
439.646	749.34
440.021	722.68
440.395	739.63
440.77	748.21
441.145	743.02
441.52	755.9
441.895	773.07
442.27	758.61
442.645	749.12
443.019	764.94
443.394	788.44
443.769	783.69
444.143	790.93
444.518	801.09
444.892	799.74
445.267	805.84
445.641	806.74
446.016	803.58
446.39	816.91
446.764	817.59
447.139	827.31
447.513	833.41
447.887	798.83
448.262	828.21
448.636	839.06
449.01	844.71
449.384	842.68
449.758	839.51
450.132	856.23
450.506	858.72
450.88	854.88
451.254	858.95
451.628	869.34
452.002	868.66
452.376	903.46
452.75	909.11
453.123	871.83
453.497	921.32
453.871	914.76
454.244	923.35
454.618	947.76
454.992	953.41
455.365	950.47
455.739	940.98
456.112	967.19
456.486	974.2
456.859	975.78
457.232	1003.35
457.606	994.08
457.979	969.68
458.352	1004.71
458.725	1037.7
459.099	1027.08
459.472	1064.14
459.845	1069.79
460.218	1073.86
460.591	1066.62
460.964	1087.19
461.337	1099.39
461.71	1107.3
462.083	1150.69
462.456	1130.13
462.829	1161.54
463.201	1154.31
463.574	1183.01
463.947	1188.43
464.32	1227.52
464.692	1203.57
465.065	1233.63
465.438	1230.01
465.81	1277.01
466.183	1281.31
466.555	1303.68
466.928	1320.63
467.3	1325.37
467.672	1337.8
468.045	1392.27
468.417	1388.42
468.789	1367.63
469.161	1453.96
469.534	1417.35
469.906	1456.44
470.278	1465.26
470.65	1465.94
471.022	1511.58
471.394	1540.06
471.766	1570.79
472.138	1594.07
472.51	1614.18
472.882	1665.48
473.253	1684.24
473.625	1710.68
473.997	1757.68
474.369	1813.72
474.74	1801.29
475.112	1842.2
475.484	1899.6
475.855	1904.57
476.227	1939.82
476.598	2035.19
476.97	2029.54
477.341	2121.06
477.713	2157.44
478.084	2147.27
478.455	2238.8
478.827	2255.29
479.198	2365.8
479.569	2404.89
479.94	2478.79
480.311	2518.79
480.682	2571.44
481.053	2633.59
481.424	2701.38
481.795	2731.21
482.166	2825
482.537	2887.59
482.908	2954.03
483.279	3007.59
483.65	3102.96
484.021	3165.55
484.391	3278.32
484.762	3325.32
485.133	3370.74
485.503	3448.71
485.874	3574.58
486.244	3619.33
486.615	3733.22
486.985	3810.96
487.356	3959.66
487.726	3959.66
488.097	4101.57
488.467	4173.89
488.837	4253.89
489.207	4396.71
489.578	4491.39
489.948	4549.92
490.318	4591.05
490.688	4755.34
491.058	4812.29
491.428	4957.37
491.798	5012.28
492.168	5139.06
492.538	5208.21
492.908	5316.68
493.278	5423.8
493.648	5506.96
494.017	5641.87
494.387	5685.49
494.757	5757.57
495.126	5881.19
495.496	5930.9
495.866	5981.98
496.235	6114.4
496.605	6217.45
496.974	6308.29
497.344	6359.37
497.713	6454.96
498.082	6534.28
498.452	6618.79
498.821	6693.37
499.19	6781.28
499.559	6882.97
499.928	6895.62
500.298	6995.73
500.667	7112.34
501.036	7164.09
501.405	7296.74
501.774	7335.16
502.143	7368.38
502.512	7416.06
502.88	7560.92
503.249	7617.41
503.618	7661.93
503.987	7760.23
504.356	7826.45
504.724	7921.81
505.093	7997.74
505.462	7987.8
505.83	8104.63
506.199	8235.48
506.567	8332.65
506.936	8308.47
507.304	8388.47
507.672	8479.31
508.041	8561.12
508.409	8571.51
508.777	8707.1
509.145	8783.26
509.514	8766.54
509.882	8858.74
510.25	8961.78
510.618	8997.04
510.986	8998.17
511.354	9152.51
511.722	9249.23
512.09	9272.74
512.458	9313.19
512.826	9388.89
513.193	9409.91
513.561	9511.37
513.929	9588.89
514.297	9674.99
514.664	9764.93
515.032	9750.92
515.4	9875.43
515.767	9888.54
516.135	9934.41
516.502	9839.95
516.869	10060.06
517.237	10155.2
517.604	10096.44
517.972	10216.21
518.339	10329.88
518.706	10295.08
519.073	10398.81
519.44	10502.99
519.808	10522.42
520.175	10534.4
520.542	10713.38
520.909	10685.58
521.276	10806.93
521.643	10898.23
522.009	10911.34
522.376	10956.99
522.743	10979.81
523.11	11089.86
523.477	11225
523.843	11322.17
524.21	11385.68
524.577	11408.95
524.943	11518.78
525.31	11540.47
525.676	11676.52
526.043	11709.06
526.409	11761.03
526.776	11901.59
527.142	11923.51
527.508	12038.77
527.874	12126.45
528.241	12135.94
528.607	12164.19
528.973	12370.06
529.339	12351.53
529.705	12443.73
530.071	12644.17
530.437	12566.21
530.803	12596.72
531.169	12718.07
531.535	12729.82
531.901	12883.26
532.267	12801.01
532.632	12970.27
532.998	12967.1
533.364	13125.97
533.73	13164.61
534.095	13208.45
534.461	13216.59
534.826	13280.31
535.192	13400.76
535.557	13487.09
535.923	13400.31
536.288	13526.18
536.653	13628.55
537.019	13622.9
537.384	13634.66
537.749	13800.3
538.114	13721.66
538.479	13783.35
538.845	13883.46
539.21	13844.59
539.575	13913.97
539.94	13904.48
540.305	14123.91
540.67	14051.37
541.034	14123.91
541.399	14218.6
541.764	14224.47
542.129	14337.46
542.494	14383.34
542.858	14380.85
543.223	14433.96
543.587	14565.93
543.952	14636.44
544.316	14626.04
544.681	14664.23
545.045	14793.72
545.41	14766.38
545.774	14907.84
546.138	14929.76
546.503	14814.74
546.867	14978.8
547.231	15132.92
547.595	15146.48
547.959	15112.36
548.324	15176.76
548.688	15252.24
549.052	15365.01
549.416	15343.31
549.779	15450.2
550.143	15513.25
550.507	15480.71
550.871	15677.99
551.235	15562.97
551.599	15702.85
551.962	15698.56
552.326	15765.22
552.689	15903.3
553.053	15834.82
553.417	15875.73
553.78	16139.45
554.143	15972.67
554.507	16116.85
554.87	16110.52
555.234	16354.81
555.597	16257.86
555.96	16349.84
556.323	16350.52
556.686	16357.75
557.05	16501.92
557.413	16544.64
557.776	16614.46
558.139	16760.9
558.502	16641.13
558.865	16791.63
559.228	16795.7
559.59	16932.87
559.953	16880.45
560.316	17111.4
560.679	17080.67
561.041	17176.94
561.404	17219.87
561.767	17388
562.129	17359.76
562.492	17509.58
562.854	17526.53
563.217	17556.13
563.579	17565.85
563.941	17690.82
564.304	17766.75
564.666	17847.88
565.028	17865.73
565.39	17920.87
565.753	18088.32
566.115	18013.3
566.477	18194.31
566.839	18222.56
567.201	18310.24
567.563	18329.45
567.925	18500.29
568.287	18526.5
568.648	18545.26
569.01	18754.52
569.372	18727.86
569.734	18694.41
570.095	18775.09
570.457	18911.8
570.819	19051.24
571.18	19038.58
571.542	19144.34
571.903	19182.31
572.265	19269.31
572.626	19344.79
572.987	19369.19
573.349	19567.61
573.71	19542.75
574.071	19773.03
574.432	19817.09
574.794	19869.97
575.155	20079.68
575.516	19979.35
575.877	20193.35
576.238	20268.38
576.599	20455.95
576.96	20589.73
577.32	20604.64
577.681	20847.57
578.042	20885.76
578.403	20975.03
578.763	21070.62
579.124	21156.72
579.485	21423.6
579.845	21579.31
580.206	21632.41
580.566	21752.63
580.927	21884.16
581.287	22102.68
581.648	22118.5
582.008	22531.37
582.368	22519.39
582.728	22655.89
583.089	22906.05
583.449	23004.35
583.809	23160.05
584.169	23409.99
584.529	23541.51
584.889	23909.64
585.249	23950.77
585.609	24074.38
585.969	24292.45
586.329	24537.65
586.688	24721.14
587.048	24849.05
587.408	25108.93
587.768	25284.29
588.127	25427.57
588.487	25679.99
588.846	26110.94
589.206	26162.46
589.565	26410.59
589.925	26623.69
590.284	26794.08
590.643	27134.41
591.003	27291.25
591.362	27588.19
591.721	27834.28
592.08	28117.44
592.44	28250.09
592.799	28673.13
593.158	28756.74
593.517	28860.02
593.876	29243.28
594.235	29353.34
594.593	29522.15
594.952	29966.2
595.311	29928.46
595.67	30196.03
596.029	30610.93
596.387	30839.85
596.746	31000.98
597.104	31187.64
597.463	31266.06
597.822	31567.52
598.18	31734.74
598.538	32032.14
598.897	32269.65
599.255	32242.98
599.613	32758.45
599.972	32793.02
600.33	33129.51
600.688	33099.45
601.046	33388.03
601.404	33648.37
601.762	33856.72
602.12	34146.66
602.478	34335.13
602.836	34544.16
603.194	34436.59
603.552	34675.91
603.91	34762.46
604.268	35143.47
604.625	35190.25
604.983	35398.15
605.341	35413.07
605.698	35772.15
606.056	35952.49
606.413	36098.7
606.771	36264.8
607.128	36480.83
607.485	36355.87
607.843	36519.03
608.2	36908.39
608.557	37015.96
608.914	37047.15
609.272	37275.62
609.629	37519.9
609.986	37721.03
610.343	37752.67
610.7	38102.71
611.057	38211.41
611.414	38151.98
611.771	38288.02
612.127	38619.31
612.484	38624.28
612.841	38831.06
613.198	38701.79
613.554	38893.43
613.911	39306.07
614.267	39115.57
614.624	39254.77
614.98	39373.64
615.337	39693.18
615.693	39763.91
616.05	39702.67
616.406	40169.78
616.762	40008.88
617.118	40131.36
617.475	40225.14
617.831	40328.19
618.187	40496.1
618.543	40491.58
618.899	40829.42
619.255	40782.19
619.611	40683.89
619.967	41077.32
620.323	41093.82
620.678	41000.49
621.034	41040.26
621.39	41129.3
621.746	41073.93
622.101	41584.88
622.457	41380.14
622.812	41465.11
623.168	41655.16
623.523	41577.2
623.879	41890.18
624.234	41537.88
624.589	41741.49
624.945	41829.39
625.3	41956.4
625.655	42015.15
626.01	41975.61
626.365	42147.13
626.72	42015.38
627.075	42111.19
627.43	42077.52
627.785	42167.01
628.14	42162.49
628.495	42275.48
628.85	42151.42
629.205	42111.87
629.559	42473.45
629.914	42173.11
630.269	42294.24
630.623	42255.15
630.978	42189.61
631.332	42419.89
631.687	42401.58
632.041	42364.07
632.396	42356.39
632.75	42300.34
633.104	42287.46
633.459	42170.63
633.813	42216.28
634.167	42186.22
634.521	42328.36
634.875	42307.35
635.229	42380.11
635.583	42107.81
635.937	42162.95
636.291	42300.12
636.645	42179.67
636.999	42151.42
637.352	42318.65
637.706	42056.06
638.06	42161.59
638.413	42139.22
638.767	41852.44
639.121	42177.18
639.474	42013.12
639.828	41982.38
640.181	41976.28
640.534	42015.38
640.888	41908.49
641.241	41782.16
641.594	41977.87
641.947	42001.82
642.301	41816.97
642.654	41897.19
643.007	41978.77
643.36	41931.76
643.713	41842.5
644.066	41907.36
644.419	41632.11
644.771	41517.99
645.124	41115.06
645.477	41117.55
645.83	40798.91
646.182	40804.11
646.535	40696.77
646.888	40762.76
647.24	40516.66
647.593	40615.42
647.945	40602.76
648.298	40433.95
648.65	40421.07
649.002	40461.75
649.355	40560.5
649.707	40552.59
650.059	40520.28
650.411	41142.86
650.763	41101.05
651.115	41517.31
651.467	41416.07
651.819	41391.67
652.171	41280.48
652.523	41261.95
652.875	41188.73
653.227	41028.96
653.578	41383.53
653.93	41267.83
654.282	41033.71
654.633	40886.82
654.985	41033.71
655.337	41047.72
655.688	41079.36
656.039	41237.09
656.391	40964.11
656.742	40982.64
657.094	41030.55
657.445	41101.96
657.796	40947.61
658.147	40891.11
658.498	40905.13
658.849	40974.05
659.2	41042.97
659.551	40820.38
659.902	41032.35
660.253	40970.43
660.604	40919.81
660.955	40896.54
661.306	40994.84
661.656	40805.92
662.007	40774.96
662.358	40901.74
662.708	40872.36
663.059	40844.79
663.409	40515.3
663.76	40895.86
664.11	40834.84
664.461	40878.23
664.811	40891.79
665.161	40869.65
665.511	40647.5
665.862	40885.69
666.212	40902.41
666.562	40994.16
666.912	40763.43
667.262	40778.57
667.612	40751.23
667.962	40897.44
668.312	40700.16
668.662	40754.17
669.011	40787.39
669.361	40617
669.711	40750.33
670.06	40719.14
670.41	40506.27
670.76	40676.43
671.109	40615.19
671.459	40581.29
671.808	40650.44
672.157	40636.43
672.507	40428.98
672.856	40402.31
673.205	40503.78
673.554	40664.23
673.904	40514.63
674.253	40659.93
674.602	40695.41
674.951	39872.16
675.3	39789.67
675.649	40485.25
675.998	40354.63
676.346	40462.2
676.695	40433.72
677.044	40307.85
677.393	40283.67
677.741	40485.48
678.09	40230.11
678.438	40157.12
678.787	40158.7
679.135	40204.35
679.484	40038.26
679.832	40160.51
680.181	39773.18
680.529	40037.58
680.877	39984.02
681.225	39847.07
681.573	40080.29
681.922	39849.79
682.27	39753.74
682.618	39783.8
682.966	39525.27
683.314	39599.62
683.661	39559.62
684.009	39414.77
684.357	39204.15
684.705	39239.18
685.053	39353.75
685.4	39230.59
685.748	39121.9
686.095	39044.61
686.443	38960.54
686.79	38931.62
687.138	38973.2
687.485	39018.39
687.832	38854.78
688.18	38912.86
688.527	38651.17
688.874	38723.94
689.221	38624.06
689.568	38628.35
689.915	38410.28
690.262	38470.16
690.609	38430.84
690.956	38250.96
691.303	38166.89
691.65	38059.1
691.997	38009.61
692.344	37816.17
692.69	37857.75
693.037	37876.96
693.383	37438.55
693.73	37606.45
694.077	37402.84
694.423	37369.17
694.769	37209.18
695.116	37195.62
695.462	37098.45
695.808	36974.38
696.155	37060.25
696.501	36933.25
696.847	36851.22
697.193	36553.15
697.539	36742.3
697.885	36503.43
698.231	36521.74
698.577	36325.36
698.923	36284.46
699.269	36090.34
699.614	35958.59
699.96	36053.5
700.306	36111.58
700.651	35801.08
700.997	35670.91
701.342	35555.89
701.688	35621.87
702.033	35458.49
702.379	35479.5
702.724	35247.87
703.069	35430.24
703.415	34947.32
703.76	35030.48
704.105	35027.31
704.45	34955.9
704.795	34705.74
705.14	34639.98
705.485	34629.58
705.83	34473.2
706.175	34519.76
706.52	34395.01
706.865	34296.94
707.209	34300.1
707.554	34029.15
707.899	34209.03
708.243	34002.71
708.588	33958.87
708.932	33860.79
709.277	33762.26
709.621	33808.59
709.966	33595.71
710.31	33630.74
710.654	33383.06
710.998	33511.87
711.342	33409.95
711.687	33383.06
712.031	33296.96
712.375	33092
712.719	33113.92
713.063	33174.48
713.407	33253.35
713.75	33011.77
714.094	32976.52
714.438	32668.28
714.782	33034.37
715.125	32717.32
715.469	32777.43
715.812	32621.28
716.156	32438
716.499	32395.07
716.843	32514.16
717.186	32367.95
717.53	32457.89
717.873	32515.06
718.216	32334.05
718.559	32166.82
718.902	31973.38
719.246	32073.94
719.589	31987.85
719.932	31803.9
720.275	31717.57
720.617	31664.01
720.96	31583.11
721.303	31731.35
721.646	31609.32
721.989	31542.66
722.331	31565.03
722.674	31483.9
723.016	31440.06
723.359	31456.56
723.701	31434.41
724.044	31156
724.386	31104.03
724.729	31307.86
725.071	31160.52
725.413	31113.07
725.755	31123.01
726.097	30845.05
726.439	30806.41
726.782	30821.32
727.124	30879.4
727.465	30749.69
727.807	30812.28
728.149	30726.41
728.491	30607.09
728.833	30688.9
729.175	30588.79
729.516	30334.56
729.858	30388.11
730.199	30496.81
730.541	30302.69
730.882	30392.63
731.224	30400.99
731.565	30164.16
731.906	30163.94
732.248	30195.12
732.589	30224.05
732.93	29947
733.271	30013.89
733.612	29978.63
733.953	29920.1
734.294	29779.99
734.635	29765.76
734.976	29967.11
735.317	29808.24
735.658	29813.44
735.999	29681.92
736.339	29625.2
736.68	29629.04
737.021	29691.63
737.361	29508.81
737.702	29555.37
738.042	29438.31
738.383	29435.82
738.723	29385.65
739.063	29248.03
739.404	29319.67
739.744	29260.23
740.084	29154.93
740.424	29223.4
740.764	29044.42
741.104	29260.46
741.444	29049.62
741.784	28915.84
742.124	29022.27
742.464	28991.54
742.804	28953.35
743.143	28832.67
743.483	28925.1
743.823	28709.06
744.162	28681.04
744.502	28737.76
744.841	28521.72
745.181	28690.08
745.52	28620.25
745.86	28665.9
746.199	28542.51
746.538	28416.19
746.877	28509.29
747.216	28486.47
747.556	28314.5
747.895	28517.88
748.234	28301.16
748.573	28227.49
748.911	28178.68
749.25	28138
749.589	27968.29
749.928	28073.82
750.267	28133.26
750.605	27945.92
750.944	27942.08
751.283	27766.04
751.621	27874.51
751.96	27785.92
752.298	27789.99
752.636	27706.6
752.975	27574.63
753.313	27564.23
753.651	27586.61
753.989	27471.81
754.327	27401.3
754.666	27296.67
755.004	27412.37
755.342	27389.32
755.679	27265.48
756.017	27090.35
756.355	27361.98
756.693	26973.97
757.031	27122.89
757.368	26926.06
757.706	26976.45
758.044	26779.39
758.381	26830.92
758.719	26680.87
759.056	26672.05
759.394	26572.39
759.731	26414.43
760.068	26454.88
760.405	26233.87
760.743	26221.22
761.08	26248.79
761.417	26199.97
761.754	25958.17
762.091	26033.65
762.428	25897.61
762.765	25886.31
763.102	25856.71
763.438	25775.58
763.775	25602.48
764.112	25668.24
764.449	25576.04
764.785	25535.13
765.122	25276.61
765.458	25233.45
765.795	25205.2
766.131	25201.81
766.467	25033
766.804	24999.78
767.14	24866.22
767.476	24811.08
767.812	24695.16
768.148	24793.01
768.485	24607.93
768.821	24407.25
769.157	24403.64
769.492	24345.79
769.828	24355.28
770.164	24140.59
770.5	24106.47
770.836	24010.88
771.171	23884.33
771.507	23887.49
771.842	23699.7
772.178	23729.31
772.513	23731.79
772.849	23590.55
773.184	23445.02
773.519	23417.68
773.855	23303.33
774.19	23232.37
774.525	23063.33
774.86	23073.96
775.195	23081.19
775.53	22991.7
775.865	22940.4
776.2	22706.51
776.535	22573.4
776.87	22558.71
777.205	22563.23
777.539	22373.41
777.874	22483.91
778.209	22203.02
778.543	22245.5
778.878	21957.83
779.212	22107.43
779.547	21850.03
779.881	22031.05
780.215	21771.16
780.55	21787.66
780.884	21595.58
781.218	21507.67
781.552	21519.87
781.886	21417.95
782.22	21399.2
782.554	21281.69
782.888	21100.45
783.222	21031.3
783.556	20846.22
783.889	20921.47
784.223	20744.3
784.557	20731.42
784.89	20759.67
785.224	20689.61
785.557	20457.53
785.891	20450.3
786.224	20368.04
786.558	20209.17
786.891	20147.93
787.224	20119
787.557	20062.96
787.891	20017.76
788.224	19962.85
788.557	20068.38
788.89	19869.75
789.223	19879.46
789.556	19775.06
789.888	19675.63
790.221	19620.71
790.554	19356.54
790.887	19496.42
791.219	19437.89
791.552	19372.81
791.884	19284.68
792.217	19126.94
792.549	19172.14
792.882	18984.12
793.214	18955.42
793.546	19039.03
793.879	18755.65
794.211	18737.35
794.543	18812.37
794.875	18640.85
795.207	18754.97
795.539	18629.55
795.871	18557.92
796.203	18405.38
796.535	18335.77
796.867	18276.34
797.198	18253.07
797.53	18253.07
797.862	18081.54
798.193	18175.33
798.525	18028.44
798.856	18006.07
799.188	17860.76
799.519	17720.88
799.85	17700.09
800.182	17713.19
800.513	17748.22
800.844	17481.56
801.175	17547.1
801.506	17573.76
801.837	17411.05
802.168	17385.07
802.499	17377.83
802.83	17185.97
803.161	17240.21
803.491	17162.92
803.822	17147.78
804.153	17051.51
804.483	16971.97
804.814	16950.27
805.145	16937.17
805.475	16955.7
805.805	16790.28
806.136	16835.02
806.466	16822.37
806.796	16796.83
807.126	16640.68
807.457	16501.25
807.787	16586.67
808.117	16582.6
808.447	16383.28
808.777	16426.9
809.107	16399.33
809.436	16311.87
809.766	16283.85
810.096	16213.57
810.426	16134.25
810.755	16169.05
811.085	16053.8
811.414	16153.69
811.744	15995.95
812.073	15890.87
812.403	15930.64
812.732	15801.38
813.061	15831.21
813.39	15803.19
813.719	15750.76
814.049	15816.97
814.378	15702.4
814.707	15571.1
815.036	15639.57
815.365	15524.55
815.693	15479.13
816.022	15379.02
816.351	15381.28
816.68	15309.64
817.008	15422.41
817.337	15178.12
817.665	15100.83
817.994	15269.41
818.322	15206.37
818.651	15080.04
818.979	15081.4
819.307	15098.35
819.636	15046.82
819.964	14969.08
820.292	14998.24
820.62	14964.34
820.948	14901.51
821.276	14952.36
821.604	14937.22
821.932	15010.21
822.259	14966.82
822.587	14927.5
822.915	14891.8
823.243	14954.62
823.57	14872.59
823.898	14932.25
824.225	14915.53
824.553	14744.46
824.88	14851.35
825.207	14869.65
825.535	14859.71
825.862	14926.37
826.189	14816.09
826.516	14937.67
826.843	14890.89
827.17	14881.85
827.497	14852.93
827.824	14859.26
828.151	14896.32
828.478	14851.57
828.805	14914.17
829.131	14846.15
829.458	14818.81
829.785	14700.16
830.111	14745.59
830.438	14846.83
830.764	14780.61
831.09	14871.01
831.417	14730.45
831.743	14706.04
832.069	14834.17
832.395	14668.98
832.722	14820.16
833.048	14756.43
833.374	14643.22
833.7	14649.54
834.026	14694.29
834.351	14684.35
834.677	14558.7
835.003	14631.24
835.329	14618.58
835.654	14641.18
835.98	14634.18
836.306	14615.42
836.631	14521.64
836.956	14553.73
837.282	14537.46
837.607	14441.41
837.932	14450
838.258	14504.01
838.583	14408.65
838.908	14395.77
839.233	14401.42
839.558	14271.02
839.883	14305.15
840.208	14185.15
840.533	14275.99
840.858	14198.03
841.182	14259.95
841.507	14188.31
841.832	14110.58
842.156	14098.6
842.481	14109.9
842.805	14039.84
843.13	14082.33
843.454	13983.12
843.778	13907.87
844.103	13924.82
844.427	13930.47
844.751	13883.91
845.075	13793.97
845.399	13717.37
845.723	13733.86
846.047	13700.64
846.371	13619.29
846.695	13622.68
847.019	13423.81
847.343	13425.17
847.666	13360.31
847.99	13350.37
848.313	13391.72
848.637	13301.56
848.96	13179.3
849.284	13100.88
849.607	13050.04
849.931	13012.53
850.254	12917.84
850.577	12919.42
850.9	12803.49
851.223	12805.98
851.546	12726.88
851.869	12714.91
852.192	12712.87
852.515	12575.47
852.838	12596.04
853.161	12565.08
853.483	12491.18
853.806	12394.46
854.129	12390.17
854.451	12278.99
854.774	12289.38
855.096	12347.68
855.419	12210.96
855.741	12245.77
856.063	12178.65
856.385	12058.43
856.708	12061.59
857.03	12011.65
857.352	12081.25
857.674	11943.85
857.996	11928.71
858.318	11809.84
858.64	11833.12
858.961	11746.34
859.283	11791.54
859.605	11704.76
859.926	11694.82
860.248	11716.06
860.57	11655.72
860.891	11622.51
861.212	11584.99
861.534	11630.87
861.855	11526.91
862.176	11530.3
862.498	11456.86
862.819	11512.45
863.14	11510.87
863.461	11408.5
863.782	11445.11
864.103	11427.93
864.424	11397.65
864.745	11352.91
865.065	11319.46
865.386	11263.87
865.707	11302.51
866.027	11261.61
866.348	11272.46
866.668	11312.91
866.989	11233.36
867.309	11090.09
867.63	11146.81
867.95	11151.11
868.27	11067.49
868.59	11113.14
868.91	11135.96
869.23	11094.16
869.55	11035.85
869.87	11045.8
870.19	11046.25
870.51	11029.53
870.83	11057.1
871.15	10931.22
871.469	10983.43
871.789	10916.53
872.109	10939.59
872.428	10810.32
872.748	10847.16
873.067	10838.34
873.386	10855.07
873.706	10836.99
874.025	10796.09
874.344	10722.42
874.663	10796.54
874.982	10734.84
875.301	10742.98
875.62	10684.45
875.939	10733.26
876.258	10708.18
876.577	10623.21
876.896	10692.59
877.214	10607.39
877.533	10593.38
877.852	10635.41
878.17	10542.99
878.489	10608.29
878.807	10504.79
879.125	10500.95
879.444	10514.74
879.762	10511.35
880.08	10503.44
880.398	10422.99
880.716	10482.42
881.034	10404.68
881.352	10341.86
881.67	10397
881.988	10363.1
882.306	10389.77
882.624	10290.11
882.941	10241.07
883.259	10264.8
883.577	10172.83
883.894	10178.02
884.212	10210.56
884.529	10124.24
884.846	10122.21
885.164	10135.31
885.481	10059.16
885.798	10072.72
886.115	9994.98
886.432	9933.06
886.75	9938.26
887.067	9917.92
887.383	10032.04
887.7	9913.17
888.017	9906.17
888.334	9907.52
888.651	9831.82
888.967	9789.33
889.284	9827.75
889.6	9714.53
889.917	9673.18
890.233	9638.6
890.55	9642.22
890.866	9635.89
891.182	9714.31
891.498	9598.83
891.815	9552.73
892.131	9567.64
892.447	9528.55
892.763	9455.56
893.079	9443.81
893.395	9332.4
893.71	9433.41
894.026	9413.52
894.342	9324.71
894.657	9261.21
894.973	9298.5
895.289	9257.14
895.604	9247.43
895.92	9198.39
896.235	9165.85
896.55	9103.02
896.865	9140.31
897.181	9047.88
897.496	9061.22
897.811	8968.34
898.126	8958.39
898.441	8964.04
898.756	8945.97
899.071	8864.39
899.386	8865.29
899.7	8865.52
900.015	8823.48
900.33	8766.08
900.644	8733.09
900.959	8685.18
901.273	8696.93
901.588	8621
901.902	8609.93
902.216	8543.04
902.531	8486.99
902.845	8480.67
903.159	8463.27
903.473	8481.12
903.787	8371.74
904.101	8357.05
904.415	8348.24
904.729	8380.78
905.042	8261.24
905.356	8327.22
905.67	8261.92
905.984	8216.04
906.297	8203.16
906.611	8126.55
906.924	8108.25
907.237	8164.74
907.551	8052.43
907.864	8052.88
908.177	8036.61
908.491	8032.09
908.804	7900.34
909.117	7904.86
909.43	7884.98
909.743	7850.85
910.056	7769.73
910.368	7740.57
910.681	7698.09
910.994	7723.4
911.307	7717.98
911.619	7593.23
911.932	7547.13
912.244	7583.52
912.557	7571.54
912.869	7548.49
913.181	7508.49
913.494	7478.21
913.806	7423.52
914.118	7401.15
914.43	7347.82
914.742	7357.53
915.054	7306.46
915.366	7285.9
915.678	7233.24
915.99	7183.07
916.302	7184.88
916.613	7158.22
916.925	7169.74
917.236	7118.44
917.548	7090.65
917.859	7076.86
918.171	7007.49
918.482	7018.33
918.794	6939.24
919.105	6929.97
919.416	6884.1
919.727	6860.6
920.038	6870.54
920.349	6743.31
920.66	6803.87
920.971	6788.96
921.282	6764.1
921.593	6660.38
921.903	6680.04
922.214	6648.17
922.525	6568.17
922.835	6544.22
923.146	6472.58
923.456	6499.02
923.767	6498.8
924.077	6484.11
924.387	6395.3
924.697	6401.63
925.008	6391.68
925.318	6391.91
925.628	6333.83
925.938	6304.45
926.248	6289.76
926.558	6228.75
926.867	6182.42
927.177	6220.84
927.487	6173.38
927.796	6101.07
928.106	6143.33
928.416	6081.18
928.725	6074.18
929.034	5988.98
929.344	5989.66
929.653	6048.19
929.962	5953.28
930.271	5878.93
930.581	5895.42
930.89	5855.2
931.199	5843.9
931.508	5819.72
931.817	5837.12
932.125	5741.76
932.434	5741.08
932.743	5657.46
933.051	5713.51
933.36	5714.64
933.669	5602.78
933.977	5688.42
934.286	5592.61
934.594	5624.02
934.902	5530.24
935.21	5525.49
935.519	5541.54
935.827	5460.18
936.135	5480.52
936.443	5431.26
936.751	5393.97
937.059	5414.76
937.367	5351.03
937.674	5352.39
937.982	5317.36
938.29	5322.33
938.597	5328.89
938.905	5247.53
939.213	5246.18
939.52	5221.09
939.827	5233.75
940.135	5142.9
940.442	5134.54
940.749	5107.2
941.056	5163.47
941.363	5094.32
941.67	5026.97
941.977	5052.51
942.284	5044.82
942.591	5027.42
942.898	4986.07
943.205	5002.57
943.511	4925.51
943.818	4913.3
944.125	4910.59
944.431	4849.35
944.738	4899.29
945.044	4841.89
945.35	4806.87
945.657	4830.59
945.963	4770.93
946.269	4751.95
946.575	4760.99
946.881	4704.04
947.187	4715.34
947.493	4664.04
947.799	4653.87
948.105	4596.25
948.41	4630.37
948.716	4591.5
949.022	4557.61
949.327	4553.76
949.633	4560.09
949.938	4527.32
950.244	4477.16
950.549	4440.77
950.854	4468.12
951.16	4430.6
951.465	4439.42
951.77	4391.51
952.075	4365.29
952.38	4365.75
952.685	4356.26
952.99	4298.18
953.294	4302.92
953.599	4275.81
953.904	4259.08
954.209	4219.54
954.513	4236.03
954.818	4196.49
955.122	4239.42
955.426	4161.01
955.731	4161.23
956.035	4127.79
956.339	4098.41
956.643	4081.01
956.948	4058.18
957.252	4100.89
957.556	4063.83
957.86	4038.07
958.163	4039.43
958.467	3943.84
958.771	3946.55
959.075	3970.73
959.378	3967.57
959.682	3965.98
959.985	3904.74
960.289	3918.75
960.592	3882.82
960.896	3858.87
961.199	3868.13
961.502	3813.67
961.805	3804.41
962.108	3774.58
962.411	3799.43
962.714	3747.46
963.017	3772.99
963.32	3722.83
963.623	3746.55
963.926	3696.16
964.228	3691.41
964.531	3675.37
964.833	3630.85
965.136	3634.69
965.438	3606.67
965.741	3611.87
966.043	3595.37
966.345	3562.15
966.648	3599.67
966.95	3573.45
967.252	3564.41
967.554	3493.68
967.856	3495.71
968.158	3437.86
968.46	3455.71
968.761	3454.13
969.063	3432.21
969.365	3392.21
969.666	3382.5
969.968	3369.39
970.269	3368.26
970.571	3387.24
970.872	3293.46
971.174	3296.62
971.475	3327.81
971.776	3324.19
972.077	3282.39
972.378	3258.43
972.679	3278.32
972.98	3239.67
973.281	3212.78
973.582	3239.67
973.883	3212.78
974.183	3175.95
974.484	3182.5
974.785	3183.86
975.085	3168.49
975.386	3105.67
975.686	3115.38
975.986	3116.29
976.287	3081.03
976.587	3057.76
976.887	3027.02
977.187	3049.85
977.487	3018.89
977.787	3033.13
978.087	2997.87
978.387	2997.2
978.687	2983.41
978.987	2965.33
979.286	2964.43
979.586	2927.82
979.885	2919.46
980.185	2915.62
980.484	2895.28
980.784	2893.02
981.083	2889.4
981.382	2863.41
981.682	2874.94
981.981	2844.43
982.28	2805.79
982.579	2803.98
982.878	2766.47
983.177	2822.96
983.475	2786.81
983.774	2765.79
984.073	2763.53
984.372	2684.21
984.67	2729.18
984.969	2722.4
985.267	2712
985.566	2701.16
985.864	2671.1
986.162	2660.93
986.461	2657.09
986.759	2640.59
987.057	2627.94
987.355	2584.32
987.653	2590.43
987.951	2606.47
988.249	2580.93
988.547	2582.06
988.844	2583.42
989.142	2562.86
989.44	2526.47
989.737	2532.57
990.035	2504.55
990.332	2501.62
990.63	2510.65
990.927	2493.71
991.224	2464.78
991.521	2441.28
991.819	2460.03
992.116	2420.04
992.413	2421.17
992.71	2414.16
993.006	2413.93
993.303	2407.15
993.6	2382.07
993.897	2402.86
994.193	2373.93
994.49	2360.15
994.787	2328.06
995.083	2326.7
995.379	2326.48
995.676	2337.33
995.972	2288.51
996.268	2264.33
996.565	2247.84
996.861	2265.91
997.157	2263.88
997.453	2215.75
997.749	2239.02
998.044	2220.04
998.34	2220.94
998.636	2196.76
998.932	2160.38
999.227	2180.72
999.523	2158.57
999.818	2167.84
1000.114	2111.79
1000.409	2110.66
1000.704	2120.16
1001	2101.63
1001.295	2079.93
1001.59	2102.98
1001.885	2115.64
1002.18	2057.78
1002.475	2072.7
1002.77	2027.96
1003.065	2044.45
1003.359	2034.51
1003.654	2010.55
1003.949	2013.72
1004.243	1981.85
1004.538	1992.48
1004.832	1942.99
1005.127	1960.61
1005.421	1935.98
1005.715	1956.32
1006.009	1917.68
1006.304	1922.2
1006.598	1902.31
1006.892	1887.62
1007.186	1862.99
1007.48	1897.79
1007.773	1850.56
1008.067	1832.48
1008.361	1853.72
1008.655	1844.23
1008.948	1800.39
1009.242	1809.43
1009.535	1798.81
1009.829	1792.48
1010.122	1767.17
1010.415	1779.6
1010.708	1758.13
1011.001	1723.56
1011.295	1784.8
1011.588	1734.4
1011.881	1702.77
1012.173	1718.81
1012.466	1688.76
1012.759	1685.82
1013.052	1681.3
1013.344	1681.3
1013.637	1682.88
1013.93	1641.3
1014.222	1618.7
1014.514	1627.51
1014.807	1615.76
1015.099	1612.37
1015.391	1595.65
1015.683	1591.58
1015.976	1550.23
1016.268	1587.74
1016.56	1568.31
1016.851	1557.91
1017.143	1531.02
1017.435	1543.45
1017.727	1543
1018.018	1517.69
1018.31	1520.17
1018.602	1503.45
1018.893	1497.57
1019.185	1511.36
1019.476	1484.92
1019.767	1462.09
1020.058	1460.29
1020.35	1425.49
1020.641	1425.03
1020.932	1428.2
1021.223	1426.84
1021.514	1394.53
1021.804	1408.31
1022.095	1395.2
1022.386	1377.12
1022.677	1366.73
1022.967	1333.74
1023.258	1353.85
1023.548	1353.62
1023.839	1354.3
1024.129	1326.28
1024.419	1313.85
1024.709	1309.33
1025	1340.97
1025.29	1293.96
1025.58	1289.9
1025.87	1262.1
1026.16	1232.04
1026.449	1248.09
1026.739	1259.16
1027.029	1244.02
1027.319	1222.33
1027.608	1209.67
1027.898	1227.52
1028.187	1224.13
1028.477	1192.5
1028.766	1190.92
1029.055	1162.67
1029.344	1178.94
1029.634	1171.03
1029.923	1141.88
1030.212	1166.96
1030.501	1164.48
1030.79	1138.26
1031.078	1091.03
1031.367	1115.89
1031.656	1131.03
1031.945	1108.43
1032.233	1120.41
1032.522	1107.08
1032.81	1091.48
1033.099	1096.91
1033.387	1080.64
1033.675	1073.63
1033.963	1036.79
1034.251	1077.47
1034.54	1067.75
1034.828	1066.4
1035.116	1037.02
1035.403	1028.43
1035.691	1018.04
1035.979	1006.29
1036.267	1005.38
1036.554	1015.1
1036.842	989.79
1037.129	984.14
1037.417	974.65
1037.704	981.2
1037.992	936.68
1038.279	970.36
1038.566	952.5
1038.853	952.5
1039.14	952.5
