Data from hue_20_FLMS001491_93.txt Node
Date: Mon Feb 06 15:34:59 GMT 2017
User: dcchb
Spectrometer: FLMS00149
Trigger mode: 0
Integration Time (sec): 2.000000E-2
Scans to average: 10
Electric dark correction enabled: true
Nonlinearity correction enabled: false
Boxcar width: 0
XAxis mode: Wavelengths
Number of Pixels in Spectrum: 2048
>>>>>Begin Spectral Data<<<<<
341.393	-15.72
341.776	-15.72
342.16	-15.72
342.543	-68.15
342.927	-66.57
343.31	-82.38
343.693	-63.85
344.077	-63.85
344.46	-74.93
344.843	-46.68
345.226	-19.34
345.61	-26.34
345.993	-24.53
346.376	-25.66
346.759	18.86
347.142	24.05
347.525	53.2
347.908	44.17
348.291	74.45
348.674	116.03
349.057	96.82
349.44	110.83
349.823	147.21
350.206	169.36
350.588	196.7
350.971	228.79
351.354	238.51
351.737	251.62
352.119	246.19
352.502	257.72
352.884	257.49
353.267	278.96
353.65	289.13
354.032	295.46
354.414	300.2
354.797	319.19
355.179	325.51
355.562	315.8
355.944	316.25
356.326	329.58
356.709	351.05
357.091	353.99
357.473	330.71
357.855	328
358.238	359.41
358.62	344.27
359.002	354.89
359.384	356.93
359.766	348.56
360.148	341.56
360.53	340.2
360.912	338.4
361.294	336.81
361.676	355.57
362.057	348.34
362.439	345.85
362.821	352.18
363.203	327.55
363.584	309.47
363.966	317.6
364.348	328
364.729	318.73
365.111	331.39
365.493	317.6
365.874	320.32
366.256	327.77
366.637	345.4
367.019	326.87
367.4	313.08
367.781	337.49
368.163	334.33
368.544	331.62
368.925	317.38
369.306	330.71
369.688	309.02
370.069	316.93
370.45	311.05
370.831	323.71
371.212	314.89
371.593	335.01
371.974	313.54
372.355	303.14
372.736	326.42
373.117	329.81
373.498	325.74
373.879	304.72
374.26	331.16
374.641	312.86
375.021	324.38
375.402	329.81
375.783	339.3
376.163	343.37
376.544	332.52
376.925	358.51
377.305	345.63
377.686	324.16
378.066	333.65
378.447	335.46
378.827	359.19
379.208	334.78
379.588	349.69
379.968	346.76
380.349	330.26
380.729	342.69
381.109	368
381.489	324.61
381.87	345.85
382.25	360.32
382.63	370.26
383.01	351.5
383.39	357.38
383.77	382.91
384.15	367.32
384.53	356.25
384.91	353.08
385.29	380.88
385.67	348.56
386.049	360.09
386.429	366.19
386.809	347.43
387.189	385.4
387.568	387.21
387.948	372.29
388.328	367.32
388.707	385.17
389.087	380.88
389.466	381.56
389.846	382.69
390.225	372.07
390.605	396.02
390.984	393.76
391.363	370.94
391.743	367.77
392.122	400.54
392.501	396.02
392.881	393.08
393.26	380.65
393.639	378.85
394.018	411.39
394.397	380.43
394.776	410.71
395.155	400.31
395.534	413.2
395.913	389.02
396.292	403.7
396.671	425.4
397.05	401.22
397.429	416.81
397.808	406.64
398.186	420.65
398.565	414.33
398.944	407.77
399.323	411.16
399.701	402.57
400.08	420.2
400.458	415.46
400.837	422.91
401.215	441.22
401.594	431.27
401.972	441.22
402.351	446.41
402.729	437.83
403.107	444.15
403.486	449.58
403.864	467.66
404.242	469.24
404.62	466.75
404.999	465.17
405.377	483.7
405.755	461.1
406.133	436.02
406.511	454.78
406.889	483.48
407.267	469.92
407.645	462.91
408.023	481.44
408.401	486.64
408.779	490.26
409.156	476.47
409.534	481.67
409.912	484.15
410.29	469.01
410.667	510.59
411.045	492.52
411.422	506.07
411.8	515.34
412.178	508.56
412.555	513.76
412.933	505.4
413.31	538.16
413.687	505.4
414.065	518.28
414.442	533.64
414.819	520.76
415.197	515.57
415.574	543.36
415.951	548.79
416.328	552.63
416.705	563.25
417.082	553.98
417.46	554.66
417.837	579.97
418.214	584.72
418.591	564.83
418.967	560.99
419.344	555.34
419.721	564.6
420.098	586.52
420.475	577.48
420.852	585.85
421.228	585.39
421.605	571.16
421.982	622.68
422.358	623.13
422.735	596.24
423.111	608.44
423.488	601.21
423.864	623.59
424.241	635.56
424.617	606.18
424.994	615.68
425.37	643.02
425.746	646.18
426.123	625.62
426.499	645.51
426.875	651.16
427.251	659.06
427.627	645.96
428.003	663.81
428.379	674.21
428.756	679.4
429.132	706.07
429.507	685.05
429.883	698.39
430.259	709.01
430.635	714.88
431.011	701.78
431.387	698.61
431.763	716.24
432.138	720.31
432.514	724.6
432.89	749.91
433.265	760.08
433.641	753.3
434.016	759.17
434.392	773.41
434.767	780.87
435.143	782.45
435.518	785.61
435.894	803.24
436.269	802.79
436.644	824.26
437.02	819.96
437.395	809.8
437.77	830.36
438.145	831.72
438.52	828.78
438.895	853.86
439.271	863.58
439.646	864.26
440.021	882.34
440.395	855.22
440.77	872.62
441.145	899.28
441.52	905.39
441.895	906.52
442.27	913.3
442.645	907.87
443.019	924.37
443.394	917.36
443.769	917.59
444.143	925.95
444.518	914.88
444.892	928.66
445.267	942.9
445.641	943.58
446.016	967.98
446.39	946.06
446.764	960.53
447.139	958.27
447.513	978.38
447.887	944.03
448.262	978.15
448.636	972.05
449.01	999.17
449.384	981.54
449.758	1014.31
450.132	1019.28
450.506	1037.36
450.88	1021.31
451.254	1040.75
451.628	1044.59
452.002	1036.68
452.376	1072.84
452.75	1085.04
453.123	1046.17
453.497	1089.11
453.871	1115.78
454.244	1087.08
454.618	1125.94
454.992	1123.01
455.365	1129.79
455.739	1149.22
456.112	1168.2
456.486	1135.44
456.859	1178.82
457.232	1216.34
457.606	1185.83
457.979	1211.14
458.352	1234.64
458.725	1227.41
459.099	1231.03
459.472	1283.45
459.845	1299.95
460.218	1275.55
460.591	1312.61
460.964	1316.9
461.337	1355.09
461.71	1396.67
462.083	1394.41
462.456	1389.21
462.829	1427.63
463.201	1400.74
463.574	1424.47
463.947	1415.43
464.32	1467.63
464.692	1448.42
465.065	1495.43
465.438	1479.61
465.81	1545.14
466.183	1556.89
466.555	1563.22
466.928	1582.88
467.3	1589.21
467.672	1574.29
468.045	1627.4
468.417	1627.85
468.789	1650.9
469.161	1671.69
469.534	1680.51
469.906	1732.48
470.278	1736.78
470.65	1744.01
471.022	1794.63
471.394	1811.12
471.766	1854.06
472.138	1878.02
472.51	1888.41
472.882	1938.58
473.253	1974.74
473.625	1983.55
473.997	1995.07
474.369	2035.3
474.74	2059.25
475.112	2117.33
475.484	2156.2
475.855	2151.23
476.227	2214.5
476.598	2269.64
476.97	2262.41
477.341	2316.42
477.713	2374.95
478.084	2366.82
478.455	2422.18
478.827	2439.13
479.198	2535.85
479.569	2535.85
479.94	2612.69
480.311	2645.23
480.682	2705.11
481.053	2769.74
481.424	2809.52
481.795	2816.07
482.166	2900.81
482.537	2896.75
482.908	2957.54
483.279	3048.38
483.65	3094.93
484.021	3124.31
484.391	3191.43
484.762	3219.45
485.133	3229.39
485.503	3325.89
485.874	3406.11
486.244	3435.49
486.615	3468.93
486.985	3577.41
487.356	3599.55
487.726	3638.2
488.097	3698.08
488.467	3758.64
488.837	3814.46
489.207	3850.17
489.578	3922.48
489.948	3970.84
490.318	4019.43
490.688	3999.09
491.058	4143.72
491.428	4163.83
491.798	4181.91
492.168	4299.19
492.538	4322.92
492.908	4369.48
493.278	4426.88
493.648	4456.25
494.017	4492.18
494.387	4536.02
494.757	4595.91
495.126	4661.67
495.496	4645.85
495.866	4733.76
496.235	4741.22
496.605	4800.42
496.974	4833.87
497.344	4891.04
497.713	4944.83
498.082	5002
498.452	5022.11
498.821	5087.2
499.19	5054.2
499.559	5112.51
499.928	5143.24
500.298	5165.61
500.667	5234.31
501.036	5261.88
501.405	5339.85
501.774	5311.6
502.143	5372.39
502.512	5370.58
502.88	5386.17
503.249	5450.35
503.618	5445.83
503.987	5514.08
504.356	5524.02
504.724	5592.72
505.093	5588.88
505.462	5630.46
505.83	5671.59
506.199	5722.43
506.567	5759.5
506.936	5770.79
507.304	5810.79
507.672	5839.49
508.041	5889.66
508.409	5921.07
508.777	5964.46
509.145	6027.74
509.514	6017.34
509.882	6068.19
510.25	6076.1
510.618	6140.05
510.986	6170.78
511.354	6158.81
511.722	6278.13
512.09	6262.99
512.458	6251.69
512.826	6369.2
513.193	6369.42
513.561	6341.4
513.929	6448.06
514.297	6514.5
514.664	6447.61
515.032	6466.6
515.4	6514.05
515.767	6563.54
516.135	6602.41
516.502	6561.28
516.869	6731
517.237	6759.02
517.604	6728.96
517.972	6758.11
518.339	6894.83
518.706	6857.09
519.073	6829.75
519.44	6873.14
519.808	6956.98
520.175	6942.29
520.542	7060.48
520.909	7092.57
521.276	7047.82
521.643	7147.71
522.009	7215.05
522.376	7179.57
522.743	7291.21
523.11	7328.27
523.477	7351.32
523.843	7372.33
524.21	7463.18
524.577	7495.72
524.943	7511.09
525.31	7571.65
525.676	7660.91
526.043	7674.93
526.409	7785.88
526.776	7803.96
527.142	7876.73
527.508	7883.73
527.874	7896.39
528.241	7961.92
528.607	8011.87
528.973	8090.28
529.339	8043.96
529.705	8160.79
530.071	8188.81
530.437	8259.09
530.803	8255.02
531.169	8293.44
531.535	8395.36
531.901	8343.16
532.267	8413.21
532.632	8487.79
532.998	8505.19
533.364	8569.82
533.73	8638.74
534.095	8611.17
534.461	8661.57
534.826	8697.5
535.192	8800.09
535.557	8833.99
535.923	8865.63
536.288	8836.25
536.653	8928
537.019	8927.32
537.384	8956.93
537.749	8969.13
538.114	9036.7
538.479	9038.05
538.845	9071.27
539.21	9125.06
539.575	9162.57
539.94	9215.22
540.305	9219.74
540.67	9180.2
541.034	9237.14
541.399	9352.85
541.764	9334.99
542.129	9414.31
542.494	9416.35
542.858	9472.84
543.223	9523.01
543.587	9561.2
543.952	9546.97
544.316	9640.07
544.681	9650.47
545.045	9648.43
545.41	9744.02
545.774	9806.39
546.138	9802.33
546.503	9818.82
546.867	9821.76
547.231	9890.69
547.595	9925.94
547.959	9911.48
548.324	10041.64
548.688	10027.86
549.052	10101.75
549.416	10076.9
549.779	10099.95
550.143	10145.37
550.507	10203.45
550.871	10216.33
551.235	10301.52
551.599	10308.3
551.962	10376.78
552.326	10390.33
552.689	10446.15
553.053	10434.85
553.417	10498.81
553.78	10662.87
554.143	10568.18
554.507	10559.14
554.87	10665.13
555.234	10685.69
555.597	10651.12
555.96	10781.06
556.323	10719.37
556.686	10780.15
557.05	10850.44
557.413	10873.94
557.776	10895.41
558.139	10969.53
558.502	10971.56
558.865	11025.57
559.228	11073.03
559.59	11155.06
559.953	11144.66
560.316	11294.49
560.679	11274.83
561.041	11306.69
561.404	11362.96
561.767	11412.91
562.129	11408.61
562.492	11520.47
562.854	11567.7
563.217	11572.68
563.579	11605.44
563.941	11632.11
564.304	11665.55
564.666	11828.26
565.028	11862.16
565.39	11853.8
565.753	11894.48
566.115	12052.89
566.477	12054.02
566.839	12134.02
567.201	12152.55
567.563	12106.9
567.925	12173.11
568.287	12233
568.648	12228.03
569.01	12275.26
569.372	12397.29
569.734	12332.66
570.095	12450.17
570.457	12484.97
570.819	12570.84
571.18	12518.19
571.542	12697.62
571.903	12760.67
572.265	12740.33
572.626	12717.5
572.987	12879.76
573.349	12967.22
573.71	12959.53
574.071	12980.55
574.432	13023.49
574.794	13168.57
575.155	13233.88
575.516	13236.36
575.877	13388
576.238	13352.97
576.599	13460.99
576.96	13461.44
577.32	13536.24
577.681	13684.94
578.042	13731.72
578.403	13787.76
578.763	13941.88
579.124	13974.65
579.485	14095.32
579.845	14173.74
580.206	14256.22
580.566	14369.44
580.927	14492.6
581.287	14618.92
581.648	14696.89
582.008	14876.09
582.368	14902.08
582.728	15145.69
583.089	15244.67
583.449	15257.1
583.809	15444.89
584.169	15627.94
584.529	15726.24
584.889	15903.18
585.249	16000.36
585.609	16222.72
585.969	16516.73
586.329	16629.49
586.688	16761.01
587.048	17060.22
587.408	17195.8
587.768	17415.69
588.127	17588.34
588.487	17810.93
588.846	18120.07
589.206	18237.59
589.565	18401.2
589.925	18757.35
590.284	18951.24
590.643	19186.49
591.003	19505.35
591.362	19758.45
591.721	19952.12
592.08	20281.15
592.44	20699.67
592.799	20746.67
593.158	21061.24
593.517	21374.23
593.876	21593.88
594.235	21852.63
594.593	22161.32
594.952	22569.22
595.311	22631.37
595.67	23035.2
596.029	23398.58
596.387	23740.04
596.746	24071.56
597.104	24184.55
597.463	24457.76
597.822	24798.54
598.18	24966.22
598.538	25281.92
598.897	25797.39
599.255	25839.87
599.613	26509.68
599.972	26567.31
600.33	26854.76
600.688	27089.56
601.046	27429.89
601.404	27858.58
601.762	28046.14
602.12	28430.54
602.478	28690.19
602.836	28922.28
603.194	29168.6
603.552	29446.33
603.91	29617.4
604.268	30020.1
604.625	30181.45
604.983	30496.02
605.341	30617.15
605.698	31025.95
606.056	31326.96
606.413	31537.12
606.771	31886.27
607.128	32133.94
607.485	32172.59
607.843	32546.81
608.2	32935.5
608.557	33194.71
608.914	33418.2
609.272	33662.04
609.629	33934.8
609.986	34250.5
610.343	34343.6
610.7	34779.98
611.057	34875.57
611.414	35136.8
611.771	35298.61
612.127	35713.06
612.484	35789.21
612.841	36137
613.198	36049.77
613.554	36297.68
613.911	36604.56
614.267	36791.22
614.624	36986.47
614.98	37063.76
615.337	37383.52
615.693	37425.78
616.05	37548.26
616.406	38027.8
616.762	37997.74
617.118	38195.03
617.475	38276.38
617.831	38589.59
618.187	38719.08
618.543	38931.05
618.899	39278.16
619.255	39137.15
619.611	39283.36
619.967	39599.51
620.323	39891.25
620.678	39630.7
621.034	39782.56
621.39	39839.5
621.746	39961.76
622.101	40484.68
622.457	40178.48
622.812	40382.77
623.168	40508.19
623.523	40538.24
623.879	40738.91
624.234	40627.96
624.589	40835.41
624.945	41050.77
625.3	40957.21
625.655	41125.57
626.01	41209.18
626.365	41409.86
626.72	41347.03
627.075	41445.79
627.43	41559.46
627.785	41415.96
628.14	41548.16
628.495	41841.94
628.85	41790.64
629.205	41674.71
629.559	42012.78
629.914	41690.53
630.269	41911.31
630.623	41842.39
630.978	41741.83
631.332	41951.54
631.687	42073.12
632.041	41941.59
632.396	42128.93
632.75	42087.58
633.104	42061.59
633.459	42023.4
633.813	41997.86
634.167	42066.56
634.521	42139.56
634.875	42131.65
635.229	42146.34
635.583	41882.16
635.937	41935.95
636.291	42054.59
636.645	42089.39
636.999	42086.68
637.352	42110.18
637.706	41889.84
638.06	42214.81
638.413	42093.91
638.767	41981.59
639.121	42057.3
639.474	41801.26
639.828	41984.53
640.181	42068.37
640.534	42102.49
640.888	41979.33
641.241	41895.27
641.594	41981.14
641.947	42076.28
642.301	41973.23
642.654	41937.53
643.007	41956.28
643.36	41944.98
643.713	41833.12
644.066	41970.97
644.419	41751.54
644.771	41522.85
645.124	41226.59
645.477	41171.22
645.83	40984.56
646.182	40847.39
646.535	40680.16
646.888	40810.1
647.24	40508.19
647.593	40934.39
647.945	40808.29
648.298	40475.64
648.65	40556.55
649.002	40488.53
649.355	40637.9
649.707	40480.62
650.059	40748.18
650.411	41112.01
650.763	41255.74
651.115	41804.42
651.467	41459.8
651.819	41516.97
652.171	41458.9
652.523	41517.88
652.875	41440.82
653.227	41097.78
653.578	41390.65
653.93	41221.16
654.282	41068.62
654.633	41175.06
654.985	41187.94
655.337	41329.86
655.688	41215.29
656.039	41492.34
656.391	40970.32
656.742	41107.94
657.094	41176.87
657.445	41174.61
657.796	41035.18
658.147	41144.78
658.498	41123.09
658.849	41245.57
659.2	41096.65
659.551	41057.55
659.902	41122.41
660.253	41204.21
660.604	41220.48
660.955	40970.77
661.306	41159.02
661.656	40974.39
662.007	40991.79
662.358	41153.82
662.708	40858.46
663.059	40911.57
663.409	40692.81
663.76	40976.87
664.11	41014.84
664.461	40885.58
664.811	41050.32
665.161	40941.4
665.511	40928.74
665.862	41018.23
666.212	41081.05
666.562	41000.38
666.912	40964.67
667.262	40997.89
667.612	41004.44
667.962	40959.93
668.312	40923.09
668.662	41064.1
669.011	40935.97
669.361	40800.16
669.711	40911.79
670.06	40807.39
670.41	40786.6
670.76	40859.82
671.109	40901.62
671.459	40804.45
671.808	40674.06
672.157	40767.16
672.507	40489.2
672.856	40663.66
673.205	40693.94
673.554	40743.43
673.904	40714.06
674.253	40932.13
674.602	40692.14
674.951	40005.83
675.3	39964.25
675.649	40557.45
675.998	40486.04
676.346	40540.5
676.695	40606.04
677.044	40303.22
677.393	40521.07
677.741	40500.05
678.09	40328.98
678.438	40403.56
678.787	40408.75
679.135	40348.19
679.484	40206.05
679.832	40195.88
680.181	40030.91
680.529	40120.17
680.877	39955.21
681.225	40029.55
681.573	40223.9
681.922	39936.68
682.27	39732.16
682.618	39965.6
682.966	39856.45
683.314	40020.29
683.661	39656.23
684.009	39480.64
684.357	39493.98
684.705	39442.45
685.053	39534.88
685.4	39395
685.748	39326.97
686.095	39281.78
686.443	39236.13
686.79	39033.42
687.138	39224.83
687.485	39058.05
687.832	38919.75
688.18	38908.91
688.527	38719.76
688.874	38825.74
689.221	38687.22
689.568	38559.09
689.915	38544.62
690.262	38568.35
690.609	38366.77
690.956	38320.67
691.303	38246.55
691.65	38163.39
691.997	38051.3
692.344	37863.51
692.69	37797.98
693.037	37748.71
693.383	37436.18
693.73	37663.29
694.077	37507.14
694.423	37615.16
694.769	37192.79
695.116	37317.99
695.462	37274.37
695.808	37059.92
696.155	36933.59
696.501	37080.25
696.847	36961.16
697.193	36626.71
697.539	36706.93
697.885	36475.98
698.231	36398.92
698.577	36490.21
698.923	36240.95
699.269	36196.66
699.614	36010.9
699.96	35918.93
700.306	35924.35
700.651	35876.9
700.997	35672.16
701.342	35686.84
701.688	35632.38
702.033	35533.63
702.379	35505.61
702.724	35384.71
703.069	35441.43
703.415	34865.17
703.76	34959.86
704.105	35038.95
704.45	34952.17
704.795	34645.06
705.14	34621.56
705.485	34702.24
705.83	34552.86
706.175	34591.05
706.52	34418.18
706.865	34333.89
707.209	34269.71
707.554	34189.26
707.899	34261.57
708.243	34049.15
708.588	33962.6
708.932	33799.21
709.277	33843.28
709.621	33857.97
709.966	33589.72
710.31	33700
710.654	33413.91
710.998	33468.15
711.342	33483.06
711.687	33418.2
712.031	33144.76
712.375	33081.49
712.719	33177.31
713.063	32963.3
713.407	33173.92
713.75	32906.58
714.094	32901.15
714.438	32823.87
714.782	32755.85
715.125	32592.01
715.469	32707.49
715.812	32420.94
716.156	32450.55
716.499	32499.58
716.843	32493.03
717.186	32270.66
717.53	32338.46
717.873	32400.15
718.216	32261.17
718.559	32209.42
718.902	31929.2
719.246	31971.01
719.589	31840.39
719.932	31827.74
720.275	31866.83
720.617	31736.44
720.96	31555.2
721.303	31709.55
721.646	31637.46
721.989	31425.49
722.331	31573.73
722.674	31363.79
723.016	31393.4
723.359	31470.46
723.701	31347.52
724.044	31115.66
724.386	31048.1
724.729	31142.78
725.071	31096
725.413	31084.71
725.755	30983.24
726.097	30843.36
726.439	30805.62
726.782	30851.72
727.124	30948.66
727.465	30734.43
727.807	30650.82
728.149	30548.45
728.491	30561.56
728.833	30590.93
729.175	30412.41
729.516	30404.72
729.858	30448.34
730.199	30416.7
730.541	30309.36
730.882	30223.71
731.224	30474.33
731.565	30136.48
731.906	30124.73
732.248	30181
732.589	29947.11
732.93	29957.28
733.271	29881.8
733.612	30025.07
733.953	29882.48
734.294	29854.68
734.635	29776.94
734.976	29881.12
735.317	29731.07
735.658	29676.83
735.999	29751.86
736.339	29552.54
736.68	29687
737.021	29451.98
737.361	29393
737.702	29736.49
738.042	29565.88
738.383	29531.07
738.723	29528.14
739.063	29320.23
739.404	29355.26
739.744	29244.98
740.084	29280.68
740.424	29176.05
740.764	29163.63
741.104	29269.16
741.444	29020.13
741.784	28926.8
742.124	28928.15
742.464	28914.14
742.804	28951.88
743.143	28958.21
743.483	28883.41
743.823	28722.96
744.162	28722.73
744.502	28699.68
744.841	28561.61
745.181	28772.45
745.52	28531.78
745.86	28602.96
746.199	28542.63
746.538	28453.36
746.877	28624.43
747.216	28533.36
747.556	28315.96
747.895	28348.05
748.234	28275.06
748.573	28327.26
748.911	28229.41
749.25	28288.17
749.589	28074.16
749.928	28083.65
750.267	28285.68
750.605	28001.4
750.944	28110.55
751.283	27916.43
751.621	28005.24
751.96	27917.78
752.298	27912.59
752.636	27803.21
752.975	27841.85
753.313	27618.58
753.651	27713.95
753.989	27647.06
754.327	27539.49
754.666	27389.44
755.004	27471.47
755.342	27454.07
755.679	27476.21
756.017	27243.22
756.355	27229.89
756.693	27233.28
757.031	27231.93
757.368	27026.96
757.706	26994.42
758.044	26848.66
758.381	26988.54
758.719	26848.66
759.056	26909.45
759.394	26760.3
759.731	26664.48
760.068	26596.01
760.405	26346.52
760.743	26404.6
761.08	26460.65
761.417	26293.64
761.754	26368.67
762.091	26251.16
762.428	26255
762.765	26016.59
763.102	26018.4
763.438	25906.31
763.775	25797.84
764.112	25872.64
764.449	25841.23
764.785	25754.9
765.122	25659.31
765.458	25529.37
765.795	25426.32
766.131	25545.87
766.467	25290.51
766.804	25101.36
767.14	25097.52
767.476	25066.78
767.812	24874.7
768.148	25015.49
768.485	24905.88
768.821	24590.19
769.157	24695.72
769.492	24694.82
769.828	24564.65
770.164	24344.77
770.5	24357.88
770.836	24300.25
771.171	24171.21
771.507	24168.73
771.842	23933.48
772.178	23946.14
772.513	23753.6
772.849	23822.75
773.184	23726.03
773.519	23731.9
773.855	23626.82
774.19	23488.75
774.525	23471.57
774.86	23338.69
775.195	23404.91
775.53	23249.43
775.865	23138.47
776.2	22926.28
776.535	22813.74
776.87	22872.27
777.205	22618.04
777.539	22618.49
777.874	22691.71
778.209	22437.48
778.543	22400.87
778.878	22277.71
779.212	22351.38
779.547	22150.02
779.881	22150.7
780.215	22004.04
780.55	22042.91
780.884	21834.55
781.218	21859.64
781.552	21785.74
781.886	21689.47
782.22	21607.89
782.554	21539.19
782.888	21242.7
783.222	21236.15
783.556	21088.36
783.889	21186.43
784.223	20844.3
784.557	20942.37
784.89	20990.28
785.224	20890.17
785.557	20793.9
785.891	20777.63
786.224	20627.81
786.558	20667.35
786.891	20390.07
787.224	20378.32
787.557	20252.9
787.891	20268.04
788.224	20247.02
788.557	20228.49
788.89	20180.81
789.223	20160.47
789.556	19943.53
789.888	19852.01
790.221	19881.84
790.554	19640.03
790.887	19791.44
791.219	19548.29
791.552	19504.67
791.884	19555.74
792.217	19430.1
792.549	19389.65
792.882	19186.26
793.214	19123.44
793.546	19170.89
793.879	18960.5
794.211	18967.51
794.543	19042.76
794.875	18970.9
795.207	18952.82
795.539	18748.31
795.871	18796.44
796.203	18674.41
796.535	18429.67
796.867	18525.94
797.198	18502.44
797.53	18312.61
797.862	18323.01
798.193	18461.08
798.525	18189.9
798.856	18313.97
799.188	18091.6
799.519	18036.91
799.85	17927.09
800.182	18013.86
800.513	17871.49
800.844	17672.85
801.175	17829.91
801.506	17769.58
801.837	17673.08
802.168	17662.01
802.499	17629.69
802.83	17498.62
803.161	17478.96
803.491	17384.05
803.822	17412.07
804.153	17288.01
804.483	17108.58
804.814	17186.54
805.145	17179.31
805.475	17061.57
805.805	17030.84
806.136	16974.12
806.466	16962.14
806.796	16921.46
807.126	16764.4
807.457	16784.29
807.787	16752.2
808.117	16717.63
808.447	16647.34
808.777	16667.91
809.107	16511.98
809.436	16547.23
809.766	16504.3
810.096	16498.2
810.426	16342.27
810.755	16260.24
811.085	16273.34
811.414	16351.53
811.744	16281.03
812.073	16172.78
812.403	16109.73
812.732	15983.41
813.061	15980.47
813.39	15917.87
813.719	15925.1
814.049	15977.98
814.378	15942.28
814.707	15838.1
815.036	15818.21
815.365	15746.35
815.693	15635.39
816.022	15688.5
816.351	15660.25
816.68	15516.3
817.008	15495.28
817.337	15373.03
817.665	15341.84
817.994	15397.66
818.322	15400.15
818.651	15319.7
818.979	15261.17
819.307	15370.77
819.636	15206.03
819.964	15126.71
820.292	15124.45
820.62	15179.59
820.948	15079.02
821.276	15089.65
821.604	15093.49
821.932	15066.14
822.259	15035.41
822.587	15141.62
822.915	15009.2
823.243	15139.14
823.57	15035.86
823.898	15068.4
824.225	14920.61
824.553	15062.08
824.88	15036.54
825.207	15072.7
825.535	15024.79
825.862	15102.98
826.189	15032.02
826.516	15067.73
826.843	15098.68
827.17	15062.98
827.497	14994.96
827.824	15091
828.151	15049.87
828.478	14966.03
828.805	15109.08
829.131	14943.66
829.458	14976.88
829.785	14869.54
830.111	14975.52
830.438	15078.8
830.764	15024.79
831.09	15108.4
831.417	14981.63
831.743	15011.68
832.069	14984.79
832.395	14847.39
832.722	14964.45
833.048	14928.52
833.374	14932.59
833.7	14854.4
834.026	14832.48
834.351	14810.33
834.677	14831.8
835.003	14920.38
835.329	14839.93
835.654	14740.05
835.98	14716.1
836.306	14729.66
836.631	14672.26
836.956	14681.75
837.282	14687.4
837.607	14652.14
837.932	14593.84
838.258	14618.02
838.583	14598.59
838.908	14589.09
839.233	14502.54
839.558	14470.68
839.883	14359.72
840.208	14420.28
840.533	14446.5
840.858	14324.92
841.182	14381.42
841.507	14416.22
841.832	14264.58
842.156	14277.01
842.481	14271.14
842.805	14312.94
843.13	14212.61
843.454	14248.76
843.778	14182.78
844.103	14129.44
844.427	14034.31
844.751	13955.66
845.075	14039.73
845.399	13961.09
845.723	13821.88
846.047	13874.31
846.371	13808.32
846.695	13814.88
847.019	13607.65
847.343	13639.06
847.666	13561.1
847.99	13460.99
848.313	13470.93
848.637	13416.24
848.96	13335.57
849.284	13386.87
849.607	13266.19
849.931	13188.45
850.254	13116.82
850.577	13076.59
850.9	12943.49
851.223	12992.75
851.546	12901.23
851.869	12902.58
852.192	12846.09
852.515	12741.01
852.838	12724.74
853.161	12714.34
853.483	12688.58
853.806	12588.02
854.129	12545.31
854.451	12499.88
854.774	12443.39
855.096	12366.1
855.419	12430.51
855.741	12373.33
856.063	12330.4
856.385	12317.52
856.708	12213.56
857.03	12189.38
857.352	12160.46
857.674	12221.02
857.996	12072.55
858.318	12052.89
858.64	12032.78
858.961	11991.42
859.283	11946.23
859.605	11853.57
859.926	11823.29
860.248	11851.31
860.57	11796.4
860.891	11807.02
861.212	11743.52
861.534	11686.8
861.855	11697.87
862.176	11627.14
862.498	11755.04
862.819	11648.61
863.14	11632.34
863.461	11601.15
863.782	11527.25
864.103	11610.64
864.424	11543.98
864.745	11538.1
865.065	11499.68
865.386	11417.65
865.707	11431.44
866.027	11430.53
866.348	11372.91
866.668	11340.14
866.989	11327.26
867.309	11288.84
867.63	11273.25
867.95	11222.85
868.27	11151.22
868.59	11204.55
868.91	11232.12
869.23	11172.01
869.55	11169.07
869.87	11216.08
870.19	11182.86
870.51	11233.02
870.83	11169.75
871.15	11094.95
871.469	11096.98
871.789	11122.07
872.109	11078
872.428	11013.82
872.748	11056.98
873.067	10990.09
873.386	10974.27
873.706	10989.64
874.025	10991.22
874.344	10995.06
874.663	10946.7
874.982	10876.2
875.301	10811.34
875.62	10840.49
875.939	10780.15
876.258	10794.84
876.577	10737.67
876.896	10749.42
877.214	10730.21
877.533	10748.97
877.852	10719.59
878.17	10698.35
878.489	10750.1
878.807	10662.64
879.125	10632.36
879.444	10678.69
879.762	10631.68
880.08	10655.86
880.398	10537
880.716	10520.05
881.034	10587.17
881.352	10477.11
881.67	10473.5
881.988	10462.87
882.306	10506.72
882.624	10455.42
882.941	10414.06
883.259	10315.99
883.577	10339.94
883.894	10349.66
884.212	10334.29
884.529	10334.74
884.846	10274.18
885.164	10308.3
885.481	10171.81
885.798	10220.85
886.115	10087.52
886.432	10117.35
886.75	10083.22
887.067	10169.77
887.383	10061.98
887.7	10060.4
888.017	10050.91
888.334	10041.19
888.651	9970.01
888.967	10015.2
889.284	9879.84
889.6	9914.41
889.917	9832.61
890.233	9816.34
890.55	9856.34
890.866	9784.02
891.182	9783.12
891.498	9767.3
891.815	9678.04
892.131	9658.83
892.447	9638.49
892.763	9593.52
893.079	9548.1
893.395	9555.78
893.71	9531.37
894.026	9479.62
894.342	9436.01
894.657	9471.71
894.973	9420.87
895.289	9348.1
895.604	9372.51
895.92	9330.02
896.235	9293.87
896.55	9209.8
896.865	9236.01
897.181	9176.13
897.496	9202.34
897.811	9097.49
898.126	9091.16
898.441	9034.89
898.756	9050.93
899.071	8988.79
899.386	9057.94
899.7	8955.34
900.015	8864.05
900.33	8922.8
900.644	8882.8
900.959	8883.26
901.273	8818.85
901.588	8775.91
901.902	8761.45
902.216	8723.71
902.531	8672.19
902.845	8626.31
903.159	8639.87
903.473	8630.38
903.787	8517.84
904.101	8465.64
904.415	8472.87
904.729	8429.03
905.042	8472.19
905.356	8332.31
905.67	8380.9
905.984	8284.85
906.297	8302.25
906.611	8237.85
906.924	8225.87
907.237	8240.79
907.551	8177.28
907.864	8191.3
908.177	8121.47
908.491	8048.02
908.804	8104.97
909.117	8060.23
909.43	7973.9
909.743	7933
910.056	7899.33
910.368	7902.94
910.681	7818.2
910.994	7843.28
911.307	7719.44
911.619	7676.06
911.932	7733
912.244	7719.22
912.557	7675.15
912.869	7530.52
913.181	7570.75
913.494	7586.11
913.806	7541.82
914.118	7473.8
914.43	7439.9
914.742	7411.2
915.054	7425.44
915.366	7339.57
915.678	7324.2
915.99	7266.57
916.302	7284.43
916.613	7220.02
916.925	7192.68
917.236	7184.09
917.548	7204.88
917.859	7182.28
918.171	7095.96
918.482	7047.37
918.794	7017.77
919.105	6966.47
919.416	6966.24
919.727	6944.55
920.038	6900.93
920.349	6850.54
920.66	6867.26
920.971	6864.78
921.282	6788.39
921.593	6776.42
921.903	6777.77
922.214	6712.24
922.525	6693.93
922.835	6681.28
923.146	6643.54
923.456	6602.19
923.767	6588.63
924.077	6584.78
924.387	6545.69
924.697	6469.08
925.008	6480.38
925.318	6469.31
925.628	6465.47
925.938	6422.75
926.248	6331.46
926.558	6372.81
926.867	6316.32
927.177	6263.44
927.487	6272.48
927.796	6224.12
928.106	6218.92
928.416	6190.22
928.725	6168.3
929.034	6095.98
929.344	6130.33
929.653	6108.64
929.962	6045.14
930.271	6037
930.581	5976.89
930.89	5992.26
931.199	5878.36
931.508	5920.17
931.817	5905.03
932.125	5902.32
932.434	5858.02
932.743	5797.23
933.051	5739.61
933.36	5737.35
933.669	5731.7
933.977	5691.47
934.286	5681.76
934.594	5703.9
934.902	5590.23
935.21	5612.61
935.519	5579.39
935.827	5571.48
936.135	5595.66
936.443	5517.24
936.751	5489.45
937.059	5493.06
937.367	5450.58
937.674	5385.27
937.982	5434.08
938.29	5394.08
938.597	5340.52
938.905	5305.27
939.213	5308.21
939.52	5294.2
939.827	5361.31
940.135	5304.37
940.442	5265.05
940.749	5232.28
941.056	5186.4
941.363	5154.99
941.67	5152.05
941.977	5113.64
942.284	5114.31
942.591	5112.51
942.898	5065.95
943.205	5022.57
943.511	4999.97
943.818	5013.75
944.125	4977.82
944.431	4953.41
944.738	4914.55
945.044	4898.95
945.35	4898.05
945.657	4864.6
945.963	4823.02
946.269	4839.07
946.575	4823.02
946.881	4791.61
947.187	4774.44
947.493	4743.7
947.799	4703.7
948.105	4717.04
948.41	4637.04
948.716	4712.29
949.022	4629.58
949.327	4651.05
949.633	4553.88
949.938	4552.3
950.244	4570.37
950.549	4542.13
950.854	4489.47
951.16	4506.65
951.465	4488.34
951.77	4436.37
952.075	4444.5
952.38	4397.95
952.685	4374.67
952.99	4357.27
953.294	4350.72
953.599	4334.22
953.904	4307.78
954.209	4259.2
954.513	4316.14
954.818	4230.04
955.122	4270.72
955.426	4222.36
955.731	4215.81
956.035	4185.3
956.339	4190.95
956.643	4178.52
956.948	4135.81
957.252	4124.28
957.556	4075.92
957.86	4096.26
958.163	4063.72
958.467	4082.48
958.771	4026.89
959.075	4017.17
959.378	4028.69
959.682	3939.88
959.985	3992.08
960.289	3971.29
960.592	3939.66
960.896	3912.09
961.199	3886.1
961.502	3874.35
961.805	3831.18
962.108	3859.21
962.411	3806.78
962.714	3784.86
963.017	3778.76
963.32	3769.27
963.623	3743.96
963.926	3769.72
964.228	3774.01
964.531	3723.16
964.833	3703.96
965.136	3681.13
965.438	3664.41
965.741	3657.86
966.043	3618.99
966.345	3608.37
966.648	3605.65
966.95	3614.02
967.252	3563.17
967.554	3561.59
967.856	3551.87
968.158	3529.27
968.46	3466.67
968.761	3504.41
969.063	3478.2
969.365	3444.75
969.666	3468.03
969.968	3427.81
970.269	3437.52
970.571	3403.4
970.872	3397.3
971.174	3372.67
971.475	3362.95
971.776	3322.27
972.077	3348.26
972.378	3345.1
972.679	3299.22
972.98	3316.62
973.281	3270.3
973.582	3266.91
973.883	3264.65
974.183	3249.5
974.484	3237.75
974.785	3233.01
975.085	3192.33
975.386	3205.89
975.686	3160.24
975.986	3192.11
976.287	3151.43
976.587	3115.72
976.887	3131.77
977.187	3083.41
977.487	3076.4
977.787	3085.89
978.087	3076.4
978.387	3043.63
978.687	3029.62
978.987	3035.73
979.286	2990.75
979.586	2979.46
979.885	2954.37
980.185	2991.88
980.484	2968.61
980.784	2931.1
981.083	2927.71
981.382	2904.88
981.682	2911.43
981.981	2867.14
982.28	2866.01
982.579	2849.52
982.878	2850.87
983.177	2847.26
983.475	2866.69
983.774	2847.71
984.073	2822.17
984.372	2770.42
984.67	2758.67
984.969	2779.46
985.267	2736.52
985.566	2723.64
985.864	2734.49
986.162	2681.61
986.461	2701.04
986.759	2656.53
987.057	2642.29
987.355	2647.49
987.653	2669.41
987.951	2614.72
988.249	2605
988.547	2621.5
988.844	2602.52
989.142	2587.6
989.44	2593.93
989.737	2532.24
990.035	2523.42
990.332	2544.66
990.63	2497.89
990.927	2506.25
991.224	2475.06
991.521	2493.37
991.819	2477.32
992.116	2497.43
992.413	2463.54
992.71	2440.03
993.006	2438.45
993.303	2411.11
993.6	2367.04
993.897	2410.2
994.193	2337.89
994.49	2358.45
994.787	2374.27
995.083	2381.51
995.379	2369.3
995.676	2347.38
995.972	2348.06
996.268	2307.61
996.565	2329.08
996.861	2292.92
997.157	2265.8
997.453	2267.16
997.749	2262.64
998.044	2252.7
998.34	2215.18
998.636	2227.16
998.932	2229.19
999.227	2201.4
999.523	2213.15
999.818	2145.58
1000.114	2166.14
1000.409	2160.72
1000.704	2156.88
1001	2122.08
1001.295	2098.35
1001.59	2119.14
1001.885	2109.87
1002.18	2065.36
1002.475	2110.78
1002.77	2057.67
1003.065	2055.41
1003.359	2027.62
1003.654	2068.97
1003.949	2061.97
1004.243	2007.28
1004.538	1984.23
1004.832	1978.8
1005.127	1967.28
1005.421	1967.5
1005.715	1937.45
1006.009	1975.64
1006.304	1943.1
1006.598	1939.03
1006.892	1930.44
1007.186	1891.57
1007.48	1909.43
1007.773	1900.16
1008.067	1861.07
1008.361	1854.51
1008.655	1836.89
1008.948	1871.91
1009.242	1829.43
1009.535	1829.2
1009.829	1831.01
1010.122	1814.29
1010.415	1805.48
1010.708	1771.35
1011.001	1781.07
1011.295	1759.6
1011.588	1737.68
1011.881	1758.24
1012.173	1711.47
1012.466	1747.62
1012.759	1692.71
1013.052	1684.35
1013.344	1694.52
1013.637	1697.23
1013.93	1697.91
1014.222	1709.43
1014.514	1665.82
1014.807	1634.18
1015.099	1631.69
1015.391	1631.69
1015.683	1625.14
1015.976	1594.18
1016.268	1606.61
1016.56	1578.14
1016.851	1540.62
1017.143	1562.09
1017.435	1528.87
1017.727	1535.2
1018.018	1519.83
1018.31	1523.45
1018.602	1547.4
1018.893	1492.94
1019.185	1478.03
1019.476	1474.41
1019.767	1492.71
1020.058	1488.42
1020.35	1445.94
1020.641	1464.92
1020.932	1428.08
1021.223	1420.63
1021.514	1412.94
1021.804	1414.07
1022.095	1412.49
1022.386	1406.16
1022.677	1383.34
1022.967	1407.97
1023.258	1395.99
1023.548	1378.82
1023.839	1369.1
1024.129	1325.26
1024.419	1334.53
1024.709	1320.29
1025	1330.23
1025.29	1317.35
1025.58	1325.94
1025.87	1293.85
1026.16	1290.23
1026.449	1262.44
1026.739	1291.82
1027.029	1273.96
1027.319	1233.29
1027.608	1235.32
1027.898	1225.83
1028.187	1222.67
1028.477	1198.71
1028.766	1218.6
1029.055	1204.59
1029.344	1184.25
1029.634	1192.61
1029.923	1175.21
1030.212	1174.76
1030.501	1155.1
1030.79	1163.46
1031.078	1138.15
1031.367	1138.15
1031.656	1132.72
1031.945	1136.57
1032.233	1109.9
1032.522	1152.16
1032.81	1091.37
1033.099	1090.92
1033.387	1097.47
1033.675	1124.36
1033.963	1050.92
1034.251	1073.74
1034.54	1071.94
1034.828	1052.73
1035.116	1066.74
1035.403	1052.27
1035.691	1033.74
1035.979	1039.39
1036.267	1013.86
1036.554	1028.32
1036.842	1004.82
1037.129	1019.28
1037.417	994.87
1037.704	991.94
1037.992	1012.05
1038.279	984.25
1038.566	962.11
1038.853	962.11
1039.14	962.11
