Data from hue_310_FLMS001491_84.txt Node
Date: Mon Feb 06 15:50:19 GMT 2017
User: dcchb
Spectrometer: FLMS00149
Trigger mode: 0
Integration Time (sec): 2.000000E-2
Scans to average: 10
Electric dark correction enabled: true
Nonlinearity correction enabled: false
Boxcar width: 0
XAxis mode: Wavelengths
Number of Pixels in Spectrum: 2048
>>>>>Begin Spectral Data<<<<<
341.393	-15.52
341.776	-15.52
342.16	-15.52
342.543	-64.11
342.927	-57.33
343.31	-63.43
343.693	-58.46
344.077	-86.48
344.46	-53.26
344.843	-55.3
345.226	-43.32
345.61	-27.05
345.993	-4.45
346.376	2.78
346.759	0.3
347.142	35.1
347.525	43.46
347.908	65.38
348.291	60.63
348.674	73.74
349.057	110.35
349.44	145.15
349.823	141.99
350.206	158.94
350.588	183.34
350.971	206.62
351.354	213.62
351.737	223.79
352.119	245.94
352.502	241.87
352.884	272.61
353.267	269.22
353.65	285.71
354.032	290.91
354.414	307.86
354.797	283.68
355.179	294.75
355.562	325.49
355.944	331.14
356.326	321.19
356.709	327.29
357.091	314.41
357.473	363.45
357.855	336.56
358.238	343.79
358.62	342.66
359.002	344.02
359.384	316.67
359.766	343.79
360.148	325.49
360.53	306.28
360.912	339.95
361.294	337.01
361.676	341.76
362.057	318.48
362.439	339.04
362.821	330.91
363.203	330.01
363.584	322.77
363.966	313.06
364.348	332.49
364.729	322.32
365.111	306.28
365.493	320.74
365.874	321.42
366.256	327.75
366.637	304.92
367.019	310.8
367.4	328.65
367.781	305.83
368.163	297.46
368.544	304.02
368.925	312.15
369.306	310.12
369.688	296.11
370.069	315.99
370.45	318.71
370.831	311.47
371.212	292.27
371.593	319.61
371.974	322.55
372.355	312.83
372.736	327.29
373.117	302.21
373.498	307.63
373.879	308.09
374.26	303.57
374.641	311.47
375.021	303.57
375.402	318.25
375.783	313.06
376.163	315.77
376.544	297.46
376.925	334.53
377.305	342.89
377.686	329.33
378.066	306.96
378.447	312.38
378.827	321.64
379.208	350.57
379.588	335.88
379.968	323
380.349	305.6
380.729	337.24
381.109	331.59
381.489	331.59
381.87	341.3
382.25	339.5
382.63	350.57
383.01	345.37
383.39	332.94
383.77	361.64
384.15	326.84
384.53	337.46
384.91	354.64
385.29	338.14
385.67	339.27
386.049	341.3
386.429	363.22
386.809	363
387.189	351.02
387.568	360.74
387.948	369.1
388.328	371.36
388.707	381.53
389.087	334.3
389.466	354.19
389.846	364.81
390.225	376.33
390.605	369.33
390.984	330.68
391.363	377.69
391.743	379.72
392.122	355.77
392.501	376.33
392.881	393.96
393.26	377.46
393.639	378.14
394.018	373.17
394.397	382.89
394.776	384.24
395.155	399.61
395.534	405.03
395.913	385.15
396.292	393.28
396.671	398.48
397.05	398.48
397.429	388.08
397.808	382.21
398.186	399.38
398.565	393.96
398.944	405.03
399.323	390.57
399.701	394.86
400.08	407.52
400.458	414.07
400.837	403.9
401.215	418.14
401.594	435.09
401.972	403.45
402.351	422.43
402.729	449.1
403.107	438.48
403.486	438.93
403.864	417.46
404.242	434.18
404.62	440.51
404.999	444.8
405.377	428.99
405.755	457.46
406.133	457.69
406.511	473.96
406.889	469.44
407.267	464.24
407.645	472.83
408.023	473.96
408.401	472.83
408.779	484.8
409.156	507.85
409.534	498.59
409.912	492.26
410.29	506.05
410.667	513.96
411.045	525.48
411.422	528.87
411.8	540.62
412.178	535.88
412.555	559.15
412.933	560.96
413.31	573.16
413.687	541.07
414.065	563.22
414.442	584.91
414.819	605.7
415.197	612.03
415.574	612.03
415.951	607.51
416.328	601.86
416.705	662.88
417.082	632.82
417.46	634.86
417.837	651.13
418.214	675.76
418.591	673.73
418.967	671.47
419.344	679.37
419.721	683.89
420.098	686.83
420.475	715.76
420.852	724.35
421.228	732.03
421.605	727.28
421.982	731.12
422.358	765.02
422.735	766.38
423.111	737.9
423.488	779.94
423.864	800.28
424.241	787.17
424.617	801.41
424.994	794.63
425.37	840.95
425.746	836.43
426.123	852.25
426.499	868.97
426.875	830.11
427.251	863.55
427.627	864
428.003	891.35
428.379	876.21
428.756	885.47
429.132	913.04
429.507	929.09
429.883	903.55
430.259	946.26
430.635	952.14
431.011	958.24
431.387	963.89
431.763	990.55
432.138	997.33
432.514	1026.26
432.89	1026.94
433.265	1048.18
433.641	1053.83
434.016	1073.04
434.392	1063.55
434.767	1075.52
435.143	1092.25
435.518	1087.27
435.894	1119.82
436.269	1126.82
436.644	1145.58
437.02	1152.58
437.395	1123.88
437.77	1165.01
438.145	1171.34
438.52	1190.55
438.895	1218.8
439.271	1236.87
439.646	1238.23
440.021	1237.33
440.395	1220.38
440.77	1226.48
441.145	1256.99
441.52	1247.95
441.895	1273.03
442.27	1292.47
442.645	1270.32
443.019	1287.95
443.394	1320.71
443.769	1286.82
444.143	1294.27
444.518	1313.93
444.892	1313.26
445.267	1321.17
445.641	1314.84
446.016	1354.39
446.39	1319.36
446.764	1339.24
447.139	1346.25
447.513	1361.62
447.887	1346.93
448.262	1356.65
448.636	1359.58
449.01	1365.68
449.384	1387.15
449.758	1390.54
450.132	1401.84
450.506	1398.45
450.88	1403.42
451.254	1403.2
451.628	1409.3
452.002	1463.99
452.376	1426.25
452.75	1460.6
453.123	1445
453.497	1474.38
453.871	1469.64
454.244	1513.48
454.618	1519.35
454.992	1522.52
455.365	1499.01
455.739	1553.02
456.112	1556.87
456.486	1572.68
456.859	1580.59
457.232	1582.85
457.606	1590.09
457.979	1593.25
458.352	1602.06
458.725	1653.13
459.099	1618.11
459.472	1654.94
459.845	1695.62
460.218	1669.86
460.591	1694.26
460.964	1722.06
461.337	1682.51
461.71	1736.52
462.083	1759.35
462.456	1761.83
462.829	1757.31
463.201	1773.81
463.574	1789.18
463.947	1808.38
464.32	1841.6
464.692	1854.26
465.065	1866.91
465.438	1880.25
465.81	1912.79
466.183	1920.25
466.555	1927.7
466.928	1943.52
467.3	1962.73
467.672	1952.34
468.045	2000.24
468.417	2005.44
468.789	2016.51
469.161	2013.13
469.534	2059
469.906	2078.21
470.278	2110.75
470.65	2098.09
471.022	2164.31
471.394	2186.45
471.766	2165.44
472.138	2211.31
472.51	2220.8
472.882	2219.9
473.253	2258.99
473.625	2292.89
473.997	2346.22
474.369	2319.78
474.74	2319.33
475.112	2391.19
475.484	2407.01
475.855	2442.49
476.227	2488.59
476.598	2502.6
476.97	2486.11
477.341	2564.97
477.713	2588.48
478.084	2570.85
478.455	2633
478.827	2655.82
479.198	2705.08
479.569	2729.04
479.94	2750.05
480.311	2805.19
480.682	2832.76
481.053	2850.62
481.424	2892.2
481.795	2951.86
482.166	2940.11
482.537	2986.21
482.908	3034.57
483.279	3031.4
483.65	3078.63
484.021	3125.86
484.391	3110.05
484.762	3177.39
485.133	3158.41
485.503	3174.45
485.874	3253.54
486.244	3294
486.615	3342.36
486.985	3352.98
487.356	3434.33
487.726	3439.98
488.097	3501
488.467	3437.27
488.837	3543.48
489.207	3565.63
489.578	3588.68
489.948	3600.43
490.318	3637.72
490.688	3708.67
491.058	3745.73
491.428	3737.15
491.798	3782.57
492.168	3840.65
492.538	3872.74
492.908	3847.2
493.278	3972.62
493.648	3929.01
494.017	3968.78
494.387	3985.28
494.757	3981.89
495.126	4028.67
495.496	4050.13
495.866	4076.12
496.235	4061.43
496.605	4132.84
496.974	4144.37
497.344	4246.51
497.713	4230.69
498.082	4203.12
498.452	4233.18
498.821	4265.72
499.19	4285.61
499.559	4297.13
499.928	4323.57
500.298	4332.84
500.667	4381.65
501.036	4344.59
501.405	4396.11
501.774	4419.84
502.143	4462.1
502.512	4513.62
502.88	4499.61
503.249	4469.56
503.618	4491.7
503.987	4502.55
504.356	4544.13
504.724	4570.57
505.093	4580.52
505.462	4553.17
505.83	4620.51
506.199	4666.84
506.567	4676.56
506.936	4659.84
507.304	4683.79
507.672	4711.36
508.041	4743.22
508.409	4759.72
508.777	4775.76
509.145	4812.15
509.514	4747.74
509.882	4830.68
510.25	4844.46
510.618	4845.37
510.986	4802.2
511.354	4874.52
511.722	4878.59
512.09	4965.82
512.458	4950.22
512.826	4994.29
513.193	4997.91
513.561	4997.23
513.929	5012.37
514.297	5020.28
514.664	5053.72
515.032	5052.37
515.4	5165.13
515.767	5090.78
516.135	5166.94
516.502	5089.88
516.869	5188.18
517.237	5156.09
517.604	5125.36
517.972	5186.83
518.339	5216.2
518.706	5192.93
519.073	5203.78
519.44	5216.2
519.808	5285.36
520.175	5285.58
520.542	5336.43
520.909	5317.67
521.276	5345.69
521.643	5341.17
522.009	5339.82
522.376	5459.81
522.743	5446.93
523.11	5458.01
523.477	5552.47
523.843	5539.59
524.21	5599.47
524.577	5583.65
524.943	5627.49
525.31	5636.76
525.676	5626.14
526.043	5737.55
526.409	5708.62
526.776	5758.56
527.142	5745
527.508	5765.57
527.874	5772.57
528.241	5846.92
528.607	5868.62
528.973	5922.17
529.339	5934.15
529.705	5953.81
530.071	6015.05
530.437	6028.84
530.803	6042.62
531.169	6095.73
531.535	6124.43
531.901	6103.64
532.267	6143.41
532.632	6187.7
532.998	6184.31
533.364	6192.45
533.73	6260.02
534.095	6306.35
534.461	6289.4
534.826	6344.08
535.192	6378.21
535.557	6404.65
535.923	6419.56
536.288	6378.66
536.653	6480.13
537.019	6441.26
537.384	6468.38
537.749	6537.3
538.114	6530.07
538.479	6567.13
538.845	6596.51
539.21	6633.57
539.575	6649.39
539.94	6644.19
540.305	6730.29
540.67	6730.97
541.034	6751.53
541.399	6758.76
541.764	6754.47
542.129	6824.07
542.494	6851.42
542.858	6881.92
543.223	6909.95
543.587	6933.45
543.952	6984.97
544.316	6948.81
544.681	6905.88
545.045	7053.22
545.41	7148.36
545.774	7086.89
546.138	7161.01
546.503	7179.09
546.867	7180.67
547.231	7249.37
547.595	7259.31
547.959	7270.84
548.324	7207.34
548.688	7297.96
549.052	7271.29
549.416	7315.81
549.779	7354.23
550.143	7370.27
550.507	7413.44
550.871	7472.64
551.235	7450.95
551.599	7483.72
551.962	7521
552.326	7563.49
552.689	7640.32
553.053	7596.48
553.417	7594.45
553.78	7674.45
554.143	7595.35
554.507	7686.42
554.87	7598.51
555.234	7755.8
555.597	7672.64
555.96	7741.79
556.323	7754.67
556.686	7805.52
557.05	7835.12
557.413	7851.84
557.776	7843.48
558.139	7929.58
558.502	7953.99
558.865	7943.14
559.228	7999.86
559.59	7993.98
559.953	8000.99
560.316	8055.23
560.679	8115.56
561.041	8061.1
561.404	8169.35
561.767	8266.07
562.129	8164.83
562.492	8256.12
562.854	8286.63
563.217	8244.15
563.579	8272.85
563.941	8273.98
564.304	8341.09
564.666	8388.32
565.028	8470.81
565.39	8372.51
565.753	8429.45
566.115	8474.2
566.477	8556
566.839	8526.4
567.201	8606.4
567.563	8643.01
567.925	8675.77
568.287	8680.97
568.648	8677.58
569.01	8740.41
569.372	8803.45
569.734	8731.37
570.095	8821.53
570.457	8897.24
570.819	8904.24
571.18	8955.32
571.542	8980.4
571.903	9010.23
572.265	9080.06
572.626	9114.41
572.987	9199.38
573.349	9145.59
573.71	9241.64
574.071	9290.67
574.432	9362.31
574.794	9371.58
575.155	9523.44
575.516	9527.5
575.877	9617.9
576.238	9643.88
576.599	9793.26
576.96	9773.6
577.32	9849.98
577.681	9958
578.042	10104.66
578.403	10167.94
578.763	10222.63
579.124	10353.02
579.485	10546.91
579.845	10609.51
580.206	10715.04
580.566	10821.48
580.927	10943.51
581.287	11107.35
581.648	11145.54
582.008	11383.5
582.368	11531.52
582.728	11621.01
583.089	11861.68
583.449	12001.11
583.809	12183.03
584.169	12307.54
584.529	12457.82
584.889	12821.88
585.249	12931.03
585.609	13105.26
585.969	13376.44
586.329	13550
586.688	13844.23
587.048	14067.05
587.408	14138.91
587.768	14503.87
588.127	14768.27
588.487	14940.69
588.846	15366.22
589.206	15529.83
589.565	15796.49
589.925	16053.43
590.284	16248.68
590.643	16650.25
591.003	16846.86
591.362	17167.75
591.721	17448.65
592.08	17763.67
592.44	18099.93
592.799	18414.05
593.158	18682.52
593.517	18916.64
593.876	19291.54
594.235	19506.45
594.593	19803.62
594.952	20210.39
595.311	20480.21
595.67	20851.5
596.029	21253.3
596.387	21526.51
596.746	21867.74
597.104	22131.69
597.463	22355.64
597.822	22755.18
598.18	22891.67
598.538	23292.79
598.897	23758.99
599.255	23752.21
599.613	24497.51
599.972	24590.61
600.33	24986.08
600.688	25113.31
601.046	25654.76
601.404	25969.78
601.762	26132.26
602.12	26596.66
602.478	26908.29
602.836	27104.22
603.194	27225.57
603.552	27596.63
603.91	27724.99
604.268	28172.66
604.625	28389.83
604.983	28797.51
605.341	28852.19
605.698	29318.62
606.056	29522.46
606.413	29811.72
606.771	30123.8
607.128	30391.81
607.485	30394.3
607.843	30737.57
608.2	31095.98
608.557	31366.93
608.914	31588.84
609.272	31899.8
609.629	32076.97
609.986	32409.39
610.343	32551.98
610.7	32947.45
611.057	32997.17
611.414	33208.91
611.771	33370.49
612.127	33676.02
612.484	33941.55
612.841	34154.88
613.198	34165.5
613.554	34413.4
613.911	34769.1
614.267	34984.24
614.624	35020.17
614.98	35284.11
615.337	35527.95
615.693	35571.79
616.05	35624.67
616.406	35979.92
616.762	36037.54
617.118	36285.22
617.475	36239.8
617.831	36603.85
618.187	36788.48
618.543	36960.23
618.899	37306.21
619.255	37276.38
619.611	37385.53
619.967	37544.62
620.323	37784.61
620.678	37734.67
621.034	37863.71
621.39	37818.51
621.746	37949.58
622.101	38432.05
622.457	38124.27
622.812	38516.12
623.168	38524.03
623.523	38596.12
623.879	38770.58
624.234	38736.91
624.589	39011.93
624.945	39028.2
625.3	39222.77
625.655	39235.88
626.01	39266.38
626.365	39301.86
626.72	39526.94
627.075	39523.1
627.43	39481.29
627.785	39485.13
628.14	39595.41
628.495	39717.9
628.85	39785.01
629.205	39842.86
629.559	40114.72
629.914	39825.46
630.269	39925.35
630.623	39936.65
630.978	39997.66
631.332	40141.16
631.687	40208.5
632.041	40043.54
632.396	40221.16
632.75	40081.95
633.104	40272.23
633.459	40142.74
633.813	40251.89
634.167	40152.01
634.521	40197.66
634.875	40266.36
635.229	40269.07
635.583	40084.44
635.937	40114.5
636.291	40298.67
636.645	40245.79
636.999	40217.32
637.352	40359.91
637.706	40173.93
638.06	40209.18
638.413	40403.3
638.767	40269.97
639.121	40201.05
639.474	40055.06
639.828	40111.56
640.181	40101.84
640.534	40246.47
640.888	40018.23
641.241	39988.17
641.594	40163.31
641.947	40292.57
642.301	40127.38
642.654	40197.66
643.007	40138.9
643.36	40093.48
643.713	40123.54
644.066	40198.79
644.419	39902.52
644.771	39807.84
645.124	39397
645.477	39340.28
645.83	39060.06
646.182	39056.9
646.535	38936.9
646.888	38863.46
647.24	38773.74
647.593	39062.55
647.945	38838.37
648.298	38801.76
648.65	38702.78
649.002	38813.97
649.355	38877.01
649.707	38635.66
650.059	38971.02
650.411	39423.44
650.763	39322.2
651.115	39841.96
651.467	39608.29
651.819	39684.9
652.171	39651.91
652.523	39545.25
652.875	39517
653.227	39398.58
653.578	39688.52
653.93	39526.71
654.282	39501.86
654.633	39415.76
654.985	39340.96
655.337	39476.77
655.688	39374.85
656.039	39615.07
656.391	39333.05
656.742	39321.3
657.094	39388.41
657.445	39434.06
657.796	39323.78
658.147	39270.22
658.498	39386.38
658.849	39328.53
659.2	39338.02
659.551	39306.16
659.902	39412.82
660.253	39234.29
660.604	39407.4
660.955	39085.14
661.306	39451.91
661.656	39279.49
662.007	39323.33
662.358	39173.28
662.708	39175.76
663.059	39204.92
663.409	39011.02
663.76	39289.88
664.11	39284.69
664.461	39201.3
664.811	39260.96
665.161	39270
665.511	39138.48
665.862	39265.03
666.212	39219.83
666.562	39265.03
666.912	39088.99
667.262	39137.12
667.612	39250.56
667.962	39183.67
668.312	39112.94
668.662	39219.15
669.011	39102.32
669.361	39011.7
669.711	38995.43
670.06	39001.08
670.41	38913.4
670.76	38886.05
671.109	39224.12
671.459	38962.66
671.808	38812.16
672.157	39041.08
672.507	38740.52
672.856	38940.97
673.205	38815.55
673.554	39001.31
673.904	38809.67
674.253	38992.72
674.602	38828.88
674.951	38396.58
675.3	38112.29
675.649	38686.51
675.998	38627.3
676.346	38712.27
676.695	38827.75
677.044	38583.24
677.393	38666.4
677.741	38745.04
678.09	38608.32
678.438	38524.93
678.787	38615.55
679.135	38489.23
679.484	38393.64
679.832	38440.87
680.181	38231.83
680.529	38432.28
680.877	38273.64
681.225	38209.91
681.573	38476.35
681.922	38185.06
682.27	38086.3
682.618	38112.29
682.966	37898.06
683.314	38096.02
683.661	37937.15
684.009	37661.45
684.357	37811.51
684.705	37732.41
685.053	37795.24
685.4	37719.08
685.748	37526.77
686.095	37529.25
686.443	37419.2
686.79	37357.73
687.138	37434.11
687.485	37430.05
687.832	37153.9
688.18	37326.55
688.527	37084.52
688.874	37090.17
689.221	36868.71
689.568	36990.06
689.915	36886.33
690.262	36950.06
690.609	36756.39
690.956	36517.08
691.303	36523.86
691.65	36307.36
691.997	36366.12
692.344	36156.18
692.69	36195.5
693.037	36236.41
693.383	35807.72
693.73	36153.24
694.077	35805.68
694.423	35942.4
694.769	35740.6
695.116	35677.1
695.462	35611.56
695.808	35549.19
696.155	35525.46
696.501	35332.7
696.847	35311.01
697.193	35081.41
697.539	35200.73
697.885	34970.68
698.231	34743.79
698.577	34718.03
698.923	34831.02
699.269	34612.04
699.614	34399.39
699.96	34458.37
700.306	34420.86
700.651	34360.52
700.997	34241.2
701.342	34155.1
701.688	34106.52
702.033	33940.65
702.379	33922.57
702.724	33896.13
703.069	33923.92
703.415	33520.55
703.76	33564.39
704.105	33615.68
704.45	33461.56
704.795	33322.13
705.14	33133.89
705.485	33076.94
705.83	33067.9
706.175	33189.03
706.52	32990.16
706.865	32779.77
707.209	32871.75
707.554	32754.01
707.899	32855.48
708.243	32595.15
708.588	32534.36
708.932	32322.61
709.277	32446.45
709.621	32423.85
709.966	32239.67
710.31	32138.43
710.654	31921.27
710.998	32144.76
711.342	31985.9
711.687	31933.02
712.031	31821.61
712.375	31663.19
712.719	31743.19
713.063	31711.55
713.407	31659.8
713.75	31539.81
714.094	31500.49
714.438	31409.41
714.782	31434.95
715.125	31153.15
715.469	31299.59
715.812	31095.07
716.156	31064.79
716.499	31038.58
716.843	31138.91
717.186	30955.64
717.53	31101.63
717.873	30942.53
718.216	30873.16
718.559	30876.77
718.902	30582.77
719.246	30644.46
719.589	30596.1
719.932	30380.06
720.275	30430.23
720.617	30468.42
720.96	30378.03
721.303	30309.56
721.646	30328.54
721.989	30109.79
722.331	30244.93
722.674	30103.23
723.016	30101.65
723.359	29995.44
723.701	30006.06
724.044	29839.29
724.386	29754.09
724.729	29820.76
725.071	29723.58
725.413	29707.76
725.755	29755.67
726.097	29624.6
726.439	29431.39
726.782	29482.46
727.124	29491.95
727.465	29239.98
727.807	29350.49
728.149	29267.1
728.491	29170.38
728.833	29338.28
729.175	29084.05
729.516	29060.55
729.858	29006.99
730.199	29112.07
730.541	29039.08
730.882	29032.75
731.224	29072.53
731.565	28816.04
731.906	28931.06
732.248	28950.5
732.589	28752.53
732.93	28663.72
733.271	28724.51
733.612	28696.04
733.953	28677.73
734.294	28527.23
734.635	28393.45
734.976	28529.94
735.317	28409.49
735.658	28397.06
735.999	28341.7
736.339	28356.61
736.68	28414.46
737.021	28234.58
737.361	28192.1
737.702	28285.65
738.042	28231.64
738.383	28024.87
738.723	28097.41
739.063	28019.22
739.404	28085.43
739.744	27950.75
740.084	27866
740.424	27862.84
740.764	27708.49
741.104	27856.74
741.444	27593.7
741.784	27670.3
742.124	27687.93
742.464	27698.55
742.804	27626.01
743.143	27550.31
743.483	27520.7
743.823	27456.3
744.162	27361.61
744.502	27426.02
744.841	27296.3
745.181	27371.78
745.52	27236.87
745.86	27295.4
746.199	27259.47
746.538	27168.85
746.877	27179.69
747.216	27066.93
747.556	26991.68
747.895	27064.67
748.234	26913.04
748.573	26847.27
748.911	26739.71
749.25	26755.07
749.589	26667.39
749.928	26734.51
750.267	26816.77
750.605	26573.38
750.944	26569.77
751.283	26373.16
751.621	26584.68
751.96	26361.41
752.298	26426.72
752.636	26313.95
752.975	26119.16
753.313	26128.42
753.651	26251.58
753.989	26231.7
754.327	26023.57
754.666	25925.94
755.004	25965.72
755.342	25968.65
755.679	25866.51
756.017	25708.32
756.355	25756
756.693	25745.83
757.031	25637.59
757.368	25574.09
757.706	25482.79
758.044	25350.14
758.381	25464.71
758.719	25308.33
759.056	25246.19
759.394	25224.94
759.731	24960.32
760.068	25013.42
760.405	25007.55
760.743	24815.01
761.08	24879.64
761.417	24666.31
761.754	24717.84
762.091	24643.94
762.428	24535.02
762.765	24415.25
763.102	24382.25
763.438	24342.48
763.775	24220.9
764.112	24155.59
764.449	24242.6
764.785	24087.12
765.122	23905.2
765.458	23968.93
765.795	23764.64
766.131	23763.74
766.467	23748.37
766.804	23615.72
767.14	23503.41
767.476	23521.49
767.812	23335.73
768.148	23348.61
768.485	23213.25
768.821	23133.7
769.157	23041.95
769.492	22978
769.828	23022.29
770.164	22842.41
770.5	22698.91
770.836	22699.81
771.171	22546.14
771.507	22530.1
771.842	22431.8
772.178	22307.96
772.513	22311.57
772.849	22239.49
773.184	22133.73
773.519	22111.81
773.855	21973.96
774.19	21998.59
774.525	21895.77
774.86	21912.94
775.195	21777.58
775.53	21750.46
775.865	21648.99
776.2	21383.69
776.535	21220.3
776.87	21304.82
777.205	21270.92
777.539	21077.48
777.874	21145.28
778.209	20934.66
778.543	21044.94
778.878	20774.21
779.212	20848.11
779.547	20624.84
779.881	20781.45
780.215	20660.32
780.55	20526.54
780.884	20345.98
781.218	20313.66
781.552	20412.42
781.886	20082.48
782.22	20178.75
782.554	20078.86
782.888	19917.74
783.222	19847.01
783.556	19758.65
783.889	19659.44
784.223	19596.84
784.557	19520.46
784.89	19609.72
785.224	19391.43
785.557	19357.53
785.891	19315.95
786.224	19355.27
786.558	19250.64
786.891	19035.95
787.224	18996.41
787.557	18925.67
787.891	18865.11
788.224	18803.19
788.557	18862.17
788.89	18781.95
789.223	18722.52
789.556	18591.67
789.888	18566.59
790.221	18362.98
790.554	18309.87
790.887	18332.7
791.219	18214.28
791.552	18248.18
791.884	18174.73
792.217	18175.19
792.549	18008.18
792.882	17990.11
793.214	17890
793.546	17927.96
793.879	17722.09
794.211	17638.93
794.543	17730
794.875	17596.22
795.207	17571.36
795.539	17461.31
795.871	17531.36
796.203	17320.97
796.535	17224.02
796.867	17256.57
797.198	17196.45
797.53	17135.89
797.862	17036.91
798.193	17024.71
798.525	16925.95
798.856	16961.88
799.188	16808.22
799.519	16806.86
799.85	16734.32
800.182	16682.12
800.513	16677.37
800.844	16500.88
801.175	16597.37
801.506	16499.07
801.837	16403.93
802.168	16413.2
802.499	16337.27
802.83	16236.48
803.161	16280.32
803.491	16284.16
803.822	16158.97
804.153	16129.14
804.483	15963.49
804.814	16041.91
805.145	15898.18
805.475	15902.7
805.805	15910.61
806.136	15887.34
806.466	15848.47
806.796	15776.83
807.126	15703.61
807.457	15605.31
807.787	15625.42
808.117	15511.53
808.447	15535.48
808.777	15485.77
809.107	15495.71
809.436	15357.41
809.766	15335.03
810.096	15278.76
810.426	15214.81
810.755	15328.03
811.085	15250.74
811.414	15248.94
811.744	15108.83
812.073	15086.45
812.403	15083.74
812.732	14913.58
813.061	14922.16
813.39	14817.99
813.719	14774.15
814.049	14857.31
814.378	14862.96
814.707	14694.15
815.036	14748.38
815.365	14646.69
815.693	14546.58
816.022	14546.81
816.351	14545
816.68	14358.79
817.008	14450.31
817.337	14323.08
817.665	14293.48
817.994	14381.16
818.322	14334.83
818.651	14258.68
818.979	14156.31
819.307	14303.42
819.636	14274.95
819.964	14133.26
820.292	14119.47
820.62	14090.32
820.948	14056.2
821.276	14194.05
821.604	13982.98
821.932	14024.79
822.259	14127.38
822.587	14118.57
822.915	14047.61
823.243	14055.97
823.57	14004
823.898	14016.43
824.225	13992.47
824.553	13894.17
824.88	14022.75
825.207	14080.38
825.535	14052.36
825.862	14004
826.189	13930.1
826.516	14084.67
826.843	14045.58
827.17	14080.83
827.497	14077.21
827.824	14081.96
828.151	14009.19
828.478	14004
828.805	14124.44
829.131	14074.28
829.458	13959.03
829.785	13875.19
830.111	13965.81
830.438	14013.94
830.764	13931.91
831.09	13934.85
831.417	13885.81
831.743	13903.66
832.069	13980.04
832.395	13804.45
832.722	13918.57
833.048	13879.48
833.374	13874.51
833.7	13848.29
834.026	13787.05
834.351	13882.64
834.677	13842.42
835.003	13843.32
835.329	13813.49
835.654	13759.03
835.98	13721.97
836.306	13805.58
836.631	13606.94
836.956	13714.96
837.282	13729.2
837.607	13696.89
837.932	13629.54
838.258	13590.67
838.583	13626.38
838.908	13537.34
839.233	13529.88
839.558	13474.29
839.883	13442.66
840.208	13500.73
840.533	13448.08
840.858	13450.11
841.182	13406.27
841.507	13440.85
841.832	13317.46
842.156	13317.23
842.481	13258.71
842.805	13259.38
843.13	13149.56
843.454	13193.85
843.778	13088.54
844.103	13089.44
844.427	13056.22
844.751	13072.95
845.075	12966.28
845.399	13003.12
845.723	12892.61
846.047	12944.59
846.371	12806.51
846.695	12922.67
847.019	12744.59
847.343	12689
847.666	12578.5
847.99	12494.66
848.313	12610.13
848.637	12461.44
848.96	12446.3
849.284	12370.14
849.607	12380.54
849.931	12293.08
850.254	12187.09
850.577	12112.75
850.9	12192.97
851.223	12021.68
851.546	12049.92
851.869	11979.87
852.192	11996.59
852.515	11865.52
852.838	11861.23
853.161	11828.23
853.483	11792.08
853.806	11713.66
854.129	11682.02
854.451	11626.21
854.774	11632.76
855.096	11457.17
855.419	11591.63
855.741	11453.1
856.063	11403.84
856.385	11357.74
856.708	11434.12
857.03	11370.39
857.352	11303.5
857.674	11302.37
857.996	11238.19
858.318	11185.99
858.64	11290.85
858.961	11182.6
859.283	11080.01
859.605	11022.83
859.926	11137.4
860.248	11071.42
860.57	10950.74
860.891	11073.68
861.212	10904.19
861.534	10966.34
861.855	10903.51
862.176	10902.38
862.498	10948.94
862.819	10858.09
863.14	10771.99
863.461	10779.45
863.782	10700.58
864.103	10728.15
864.424	10727.25
864.745	10730.64
865.065	10671.88
865.386	10602.05
865.707	10614.48
866.027	10592.11
866.348	10562.96
866.668	10547.82
866.989	10602.96
867.309	10474.6
867.63	10508.27
867.95	10490.42
868.27	10434.82
868.59	10438.21
868.91	10460.36
869.23	10446.12
869.55	10442.73
869.87	10418.78
870.19	10350.08
870.51	10443.41
870.83	10306.24
871.15	10309.18
871.469	10313.47
871.789	10341.04
872.109	10302.17
872.428	10217.88
872.748	10242.74
873.067	10226.24
873.386	10257.88
873.706	10208.62
874.025	10174.94
874.344	10083.42
874.663	10197.77
874.982	10143.31
875.301	10157.32
875.62	10109.86
875.939	10052.24
876.258	10063.76
876.577	10010.88
876.896	9995.97
877.214	10052.24
877.533	9919.81
877.852	9987.38
878.17	9988.51
878.489	9996.19
878.807	9944.89
879.125	9932.01
879.444	9923.88
879.762	9803.2
880.08	9840.49
880.398	9845.24
880.716	9844.33
881.034	9794.62
881.352	9764.56
881.67	9797.1
881.988	9729.76
882.306	9692.92
882.624	9713.71
882.941	9678.91
883.259	9670.1
883.577	9653.83
883.894	9606.6
884.212	9546.49
884.529	9582.19
884.846	9539.48
885.164	9512.36
885.481	9459.48
885.798	9478.92
886.115	9352.37
886.432	9519.59
886.75	9428.52
887.067	9405.47
887.383	9326.15
887.7	9339.26
888.017	9304.68
888.334	9310.56
888.651	9285.7
888.967	9233.73
889.284	9186.27
889.6	9205.25
889.917	9157.8
890.233	9156.44
890.55	9097.23
890.866	9106.5
891.182	9077.35
891.498	8986.5
891.815	9004.58
892.131	8999.61
892.447	8973.85
892.763	8929.78
893.079	8934.75
893.395	8893.17
893.71	8846.84
894.026	8907.86
894.342	8848.88
894.657	8773.63
894.973	8695.66
895.289	8812.95
895.604	8741.54
895.92	8674.42
896.235	8590.81
896.55	8553.74
896.865	8573.63
897.181	8555.55
897.496	8531.15
897.811	8511.03
898.126	8454.31
898.441	8401.88
898.756	8452.28
899.071	8354.88
899.386	8402.34
899.7	8332.51
900.015	8262
900.33	8225.84
900.644	8211.83
900.959	8233.53
901.273	8146.98
901.588	8135.68
901.902	8042.35
902.216	8050.93
902.531	8000.54
902.845	8053.42
903.159	8003.93
903.473	7895.46
903.787	7906.53
904.101	7867.21
904.415	7930.03
904.729	7810.94
905.042	7790.37
905.356	7818.4
905.67	7742.47
905.984	7759.64
906.297	7706.76
906.611	7616.37
906.924	7651.39
907.237	7575.01
907.551	7589.25
907.864	7609.14
908.177	7506.77
908.491	7520.32
908.804	7475.35
909.117	7473.77
909.43	7380.44
909.743	7350.39
910.056	7310.84
910.368	7305.64
910.681	7310.39
910.994	7261.35
911.307	7217.06
911.619	7170.96
911.932	7157.17
912.244	7133.22
912.557	7136.15
912.869	7059.55
913.181	7000.34
913.494	7009.83
913.806	6959.44
914.118	6962.6
914.43	6980
914.742	6944.52
915.054	6908.59
915.366	6867.23
915.678	6837.63
915.99	6805.99
916.302	6737.07
916.613	6703.17
916.925	6764.64
917.236	6698.2
917.548	6658.43
917.859	6606.9
918.171	6599.9
918.482	6591.54
918.794	6558.54
919.105	6528.26
919.416	6485.1
919.727	6478.77
920.038	6445.78
920.349	6404.87
920.66	6398.09
920.971	6349.73
921.282	6336.85
921.593	6293.01
921.903	6284.2
922.214	6249.4
922.525	6228.61
922.835	6166.91
923.146	6163.3
923.456	6243.97
923.767	6058.22
924.077	6121.72
924.387	6080.59
924.697	6030.87
925.008	6017.09
925.318	5973.47
925.628	6000.14
925.938	5979.12
926.248	5914.94
926.558	5870.65
926.867	5905.9
927.177	5848.96
927.487	5811.9
927.796	5778.45
928.106	5792.46
928.416	5746.81
928.725	5702.29
929.034	5702.52
929.344	5702.97
929.653	5662.29
929.962	5647.83
930.271	5622.75
930.581	5614.84
930.89	5593.82
931.199	5549.76
931.508	5486.48
931.817	5492.36
932.125	5465.46
932.434	5409.42
932.743	5377.78
933.051	5354.51
933.36	5411
933.669	5358.8
933.977	5286.49
934.286	5284.23
934.594	5298.24
934.902	5274.28
935.21	5204.23
935.519	5237.45
935.827	5245.81
936.135	5135.98
936.443	5105.47
936.751	5130.11
937.059	5109.54
937.367	5055.53
937.674	5056.21
937.982	5067.51
938.29	5009.88
938.597	5050.33
938.905	4987.96
939.213	4933.73
939.52	4931.92
939.827	4866.38
940.135	4899.38
940.442	4891.92
940.749	4866.84
941.056	4901.18
941.363	4768.98
941.67	4797.46
941.977	4744.13
942.284	4708.2
942.591	4685.37
942.898	4667.29
943.205	4641.08
943.511	4644.24
943.818	4654.86
944.125	4625.49
944.431	4615.09
944.738	4590.01
945.044	4556.56
945.35	4557.46
945.657	4562.89
945.963	4484.92
946.269	4470.69
946.575	4475.21
946.881	4520.4
947.187	4446.96
947.493	4421.88
947.799	4414.64
948.105	4363.57
948.41	4362.89
948.716	4352.95
949.022	4289.68
949.327	4302.56
949.633	4259.17
949.938	4271.14
950.244	4239.73
950.549	4267.98
950.854	4197.47
951.16	4178.04
951.465	4187.08
951.77	4127.42
952.075	4126.97
952.38	4152.96
952.685	4156.35
952.99	4088.32
953.294	4095.1
953.599	4036.12
953.904	4020.3
954.209	4020.53
954.513	4012.39
954.818	4016.24
955.122	3993.19
955.426	3923.13
955.731	3943.47
956.035	3898.27
956.339	3860.76
956.643	3890.82
956.948	3826.18
957.252	3857.6
957.556	3841.1
957.86	3799.74
958.163	3762.46
958.467	3777.37
958.771	3786.41
959.075	3750.03
959.378	3733.53
959.682	3784.83
959.985	3706.87
960.289	3701.44
960.592	3640.65
960.896	3644.49
961.199	3623.93
961.502	3625.06
961.805	3627.55
962.108	3573.31
962.411	3625.51
962.714	3593.87
963.017	3536.02
963.32	3543.48
963.623	3506.87
963.926	3472.3
964.228	3474.56
964.531	3513.65
964.833	3478.4
965.136	3432.97
965.438	3416.48
965.741	3388.91
966.043	3349.36
966.345	3371.73
966.648	3378.06
966.95	3338.97
967.252	3334.9
967.554	3304.62
967.856	3356.37
968.158	3281.34
968.46	3286.76
968.761	3256.26
969.063	3237.73
969.365	3245.63
969.666	3205.41
969.968	3216.71
970.269	3164.73
970.571	3207.44
970.872	3189.14
971.174	3115.69
971.475	3152.08
971.776	3172.64
972.077	3098.52
972.378	3084.51
972.679	3097.16
972.98	3081.35
973.281	3065.53
973.582	3037.05
973.883	3035.92
974.183	3010.61
974.484	3025.53
974.785	2991.63
975.085	2984.85
975.386	2984.4
975.686	2952.31
975.986	2937.62
976.287	2892.2
976.587	2873.22
976.887	2900.11
977.187	2875.48
977.487	2867.11
977.787	2821.24
978.087	2817.62
978.387	2847
978.687	2785.76
978.987	2814.46
979.286	2809.71
979.586	2781.24
979.885	2751.86
980.185	2768.59
980.484	2720.9
980.784	2750.73
981.083	2738.08
981.382	2708.93
981.682	2727
981.981	2687.68
982.28	2680
982.579	2644.97
982.878	2639.78
983.177	2630.74
983.475	2636.16
983.774	2641.58
984.073	2602.49
984.372	2586.67
984.67	2575.6
984.969	2580.79
985.267	2550.96
985.566	2544.41
985.864	2534.24
986.162	2564.75
986.461	2480.91
986.759	2513.22
987.057	2483.17
987.355	2483.62
987.653	2478.65
987.951	2483.62
988.249	2464.19
988.547	2478.65
988.844	2454.02
989.142	2383.74
989.44	2374.47
989.737	2393
990.035	2375.6
990.332	2354.13
990.63	2341.7
990.927	2386
991.224	2341.48
991.521	2338.77
991.819	2317.07
992.116	2376.73
992.413	2294.93
992.71	2277.98
993.006	2305.09
993.303	2278.88
993.6	2248.6
993.897	2250.63
994.193	2239.11
994.49	2238.43
994.787	2226.23
995.083	2177.41
995.379	2188.49
995.676	2182.39
995.972	2171.76
996.268	2146.23
996.565	2142.61
996.861	2126.34
997.157	2157.75
997.453	2120.01
997.749	2102.39
998.044	2096.74
998.34	2076.85
998.636	2071.65
998.932	2074.37
999.227	2041.15
999.523	2051.09
999.818	2029.4
1000.114	2019.23
1000.409	2047.02
1000.704	2020.58
1001	2008.15
1001.295	1952.34
1001.59	1962.05
1001.885	1986.01
1002.18	1942.84
1002.475	1968.83
1002.77	1929.06
1003.065	1918.89
1003.359	1889.74
1003.654	1909.62
1003.949	1859.68
1004.243	1880.93
1004.538	1844.77
1004.832	1871.21
1005.127	1866.91
1005.421	1828.72
1005.715	1823.53
1006.009	1801.15
1006.304	1828.27
1006.598	1831.89
1006.892	1779.68
1007.186	1769.52
1007.48	1780.81
1007.773	1777.2
1008.067	1772.23
1008.361	1760.25
1008.655	1753.92
1008.948	1709.63
1009.242	1692
1009.535	1700.14
1009.829	1725.45
1010.122	1711.44
1010.415	1680.7
1010.708	1690.87
1011.001	1657.43
1011.295	1644.32
1011.588	1654.04
1011.881	1598.22
1012.173	1619.92
1012.466	1637.09
1012.759	1602.51
1013.052	1593.7
1013.344	1562.97
1013.637	1588.5
1013.93	1543.76
1014.222	1556.19
1014.514	1559.13
1014.807	1574.27
1015.099	1542.18
1015.391	1544.89
1015.683	1521.16
1015.976	1500.37
1016.268	1500.82
1016.56	1486.36
1016.851	1473.25
1017.143	1464.44
1017.435	1463.99
1017.727	1436.42
1018.018	1431.9
1018.31	1443.42
1018.602	1443.42
1018.893	1394.84
1019.185	1386.25
1019.476	1405.91
1019.767	1386.93
1020.058	1362.07
1020.35	1369.07
1020.641	1370.66
1020.932	1375.63
1021.223	1327.04
1021.514	1318.68
1021.804	1318.45
1022.095	1285.01
1022.386	1310.32
1022.677	1319.36
1022.967	1305.12
1023.258	1292.01
1023.548	1304.9
1023.839	1286.82
1024.129	1230.77
1024.419	1241.85
1024.709	1247.5
1025	1225.35
1025.29	1232.81
1025.58	1256.08
1025.87	1213.82
1026.16	1211.79
1026.449	1207.27
1026.739	1190.55
1027.029	1195.29
1027.319	1174.05
1027.608	1172.7
1027.898	1169.53
1028.187	1151.23
1028.477	1150.55
1028.766	1144.9
1029.055	1123.43
1029.344	1120.49
1029.634	1144
1029.923	1126.14
1030.212	1098.35
1030.501	1090.66
1030.79	1098.8
1031.078	1056.09
1031.367	1074.17
1031.656	1068.29
1031.945	1048.4
1032.233	1065.35
1032.522	1045.92
1032.81	1028.52
1033.099	1012.93
1033.387	1020.16
1033.675	1016.99
1033.963	1026.03
1034.251	1019.03
1034.54	986.71
1034.828	1000.5
1035.116	979.03
1035.403	978.12
1035.691	976.77
1035.979	998.24
1036.267	946.26
1036.554	986.94
1036.842	957.11
1037.129	945.13
1037.417	932.93
1037.704	940.61
1037.992	945.58
1038.279	922.76
1038.566	922.98
1038.853	922.98
1039.14	922.98
