Data from hue_190_FLMS001491_00072.txt Node
Date: Tue Feb 07 16:45:44 GMT 2017
User: dcchb
Spectrometer: FLMS00149
Trigger mode: 0
Integration Time (sec): 2.000000E-2
Scans to average: 10
Electric dark correction enabled: true
Nonlinearity correction enabled: false
Boxcar width: 0
XAxis mode: Wavelengths
Number of Pixels in Spectrum: 2048
>>>>>Begin Spectral Data<<<<<
341.393	-13.09
341.776	-13.09
342.16	-13.09
342.543	-80.66
342.927	-70.49
343.31	-87.44
343.693	-87.67
344.077	-71.62
344.46	-46.76
344.843	-52.41
345.226	-46.99
345.61	-27.1
345.993	-25.07
346.376	-4.51
346.759	26.23
347.142	27.81
347.525	33.46
347.908	85.44
348.291	81.82
348.674	95.38
349.057	99.45
349.44	123.85
349.823	126.56
350.206	163.85
350.588	182.16
350.971	206.56
351.354	213.79
351.737	222.38
352.119	255.83
352.502	247.69
352.884	260.12
353.267	278.2
353.65	291.08
354.032	293.79
354.414	315.49
354.797	308.48
355.179	325.66
355.562	325.2
355.944	326.56
356.326	317.97
356.709	312.32
357.091	350.97
357.473	327.01
357.855	331.53
358.238	340.57
358.62	339.44
359.002	334.69
359.384	342.83
359.766	334.47
360.148	326.56
360.53	294.02
360.912	318.42
361.294	323.62
361.676	317.29
362.057	336.5
362.439	335.82
362.821	332.66
363.203	296.96
363.584	307.35
363.966	310.51
364.348	318.88
364.729	322.49
365.111	315.49
365.493	296.28
365.874	304.86
366.256	304.19
366.637	325.2
367.019	313.68
367.4	303.96
367.781	303.96
368.163	297.63
368.544	313
368.925	309.84
369.306	317.75
369.688	309.16
370.069	326.33
370.45	300.35
370.831	298.99
371.212	320.68
371.593	287.92
371.974	322.04
372.355	310.29
372.736	305.54
373.117	304.64
373.498	306.22
373.879	321.14
374.26	316.16
374.641	325.2
375.021	289.95
375.402	325.88
375.783	312.32
376.163	308.03
376.544	326.33
376.925	338.31
377.305	318.88
377.686	318.65
378.066	334.92
378.447	308.71
378.827	333.11
379.208	304.19
379.588	314.13
379.968	318.2
380.349	315.71
380.729	322.49
381.109	331.98
381.489	331.3
381.87	339.21
382.25	322.27
382.63	312.32
383.01	332.43
383.39	334.24
383.77	337.63
384.15	339.44
384.53	340.12
384.91	354.13
385.29	354.36
385.67	329.72
386.049	339.21
386.429	319.55
386.809	338.08
387.189	349.61
387.568	344.19
387.948	342.83
388.328	338.76
388.707	341.25
389.087	336.28
389.466	350.29
389.846	363.85
390.225	359.55
390.605	368.37
390.984	344.19
391.363	340.57
391.743	366.11
392.122	355.03
392.501	347.58
392.881	374.02
393.26	369.72
393.639	356.39
394.018	346.9
394.397	353.68
394.776	369.5
395.155	353.45
395.534	363.62
395.913	363.39
396.292	390.96
396.671	401.13
397.05	367.01
397.429	385.09
397.808	397.29
398.186	394.35
398.565	381.92
398.944	389.38
399.323	391.42
399.701	394.81
400.08	396.61
400.458	407.91
400.837	411.3
401.215	407.69
401.594	399.55
401.972	389.61
402.351	398.42
402.729	409.04
403.107	411.98
403.486	430.74
403.864	411.53
404.242	410.85
404.62	424.18
404.999	411.08
405.377	442.26
405.755	437.29
406.133	430.74
406.511	441.58
406.889	434.58
407.267	444.75
407.645	447.91
408.023	465.54
408.401	469.38
408.779	478.19
409.156	468.7
409.534	488.14
409.912	489.94
410.29	506.89
410.667	506.22
411.045	510.51
411.422	514.8
411.8	517.06
412.178	536.95
412.555	526.1
412.933	551.86
413.31	555.25
413.687	551.86
414.065	564.75
414.442	562.26
414.819	574.91
415.197	602.26
415.574	593.67
415.951	633.44
416.328	622.37
416.705	634.12
417.082	631.64
417.46	628.47
417.837	647.68
418.214	665.99
418.591	667.57
418.967	654.23
419.344	674.35
419.721	699.66
420.098	699.43
420.475	699.66
420.852	697.62
421.228	706.66
421.605	722.71
421.982	744.63
422.358	762.03
422.735	798.64
423.111	757.28
423.488	795.25
423.864	807.22
424.241	807.68
424.617	851.52
424.994	824.85
425.37	872.08
425.746	870.05
426.123	885.19
426.499	887.9
426.875	906.2
427.251	916.15
427.627	946.43
428.003	955.7
428.379	961.57
428.756	961.57
429.132	991.17
429.507	1006.32
429.883	1007.67
430.259	1018.07
430.635	1021
431.011	1060.55
431.387	1054.22
431.763	1081.57
432.138	1085.41
432.514	1094.22
432.89	1120.44
433.265	1145.52
433.641	1157.95
434.016	1165.41
434.392	1203.15
434.767	1223.26
435.143	1238.63
435.518	1253.31
435.894	1281.79
436.269	1297.16
436.644	1318.85
437.02	1311.62
437.395	1367.66
437.77	1368.79
438.145	1406.3
438.52	1420.99
438.895	1480.65
439.271	1458.73
439.646	1490.82
440.021	1509.35
440.395	1548.22
440.77	1509.58
441.145	1544.15
441.52	1609.24
441.895	1598.39
442.27	1617.15
442.645	1642.91
443.019	1667.31
443.394	1685.17
443.769	1690.59
444.143	1666.41
444.518	1739.18
444.892	1735.34
445.267	1738.05
445.641	1787.76
446.016	1773.07
446.39	1792.51
446.764	1809.01
447.139	1824.15
447.513	1825.28
447.887	1833.64
448.262	1799.74
448.636	1859.17
449.01	1919.06
449.384	1904.82
449.758	1961.77
450.132	1955.67
450.506	1973.3
450.88	1982.79
451.254	2012.62
451.628	2065.04
452.002	2030.7
452.376	2092.84
452.75	2066.85
453.123	2101.88
453.497	2130.58
453.871	2139.62
454.244	2193.85
454.618	2186.17
454.992	2211.26
455.365	2237.02
455.739	2299.61
456.112	2296
456.486	2326.51
456.859	2366.73
457.232	2420.06
457.606	2368.77
457.979	2452.15
458.352	2503.68
458.725	2516.56
459.099	2530.12
459.472	2566.5
459.845	2580.06
460.218	2634.3
460.591	2631.36
460.964	2641.07
461.337	2723.56
461.71	2750.68
462.083	2797.45
462.456	2821.63
462.829	2810.11
463.201	2904.8
463.574	2896.66
463.947	2966.49
464.32	2989.77
464.692	2991.35
465.065	3048.97
465.438	3091.46
465.81	3141.17
466.183	3188.4
466.555	3280.61
466.928	3289.65
467.3	3261.85
467.672	3323.09
468.045	3402.86
468.417	3426.36
468.789	3456.19
469.161	3482.18
469.534	3529.86
469.906	3642.18
470.278	3640.82
470.65	3734.83
471.022	3751.33
471.394	3867.03
471.766	3857.31
472.138	3926.01
472.51	3994.26
472.882	4097.08
473.253	4113.8
473.625	4222.5
473.997	4264.76
474.369	4289.62
474.74	4372.78
475.112	4414.36
475.484	4509.27
475.855	4561.02
476.227	4643.96
476.598	4775.26
476.97	4775.93
477.341	4907
477.713	5023.38
478.084	5010.05
478.455	5160.78
478.827	5166.43
479.198	5340.89
479.569	5341.34
479.94	5520.55
480.311	5586.76
480.682	5663.14
481.053	5876.02
481.424	5916.69
481.795	5978.39
482.166	6020.42
482.537	6160.53
482.908	6319.85
483.279	6326.4
483.65	6430.35
484.021	6563.46
484.391	6638.71
484.762	6735.2
485.133	6756.9
485.503	6908.08
485.874	7052.26
486.244	7107.4
486.615	7231.46
486.985	7351.69
487.356	7421.06
487.726	7505.81
488.097	7666.25
488.467	7708.06
488.837	7835.51
489.207	7943.76
489.578	8038.9
489.948	8080.25
490.318	8261.49
490.688	8254.71
491.058	8358.66
491.428	8531.54
491.798	8578.55
492.168	8673.46
492.538	8767.92
492.908	8867.13
493.278	8928.37
493.648	8951.42
494.017	9052.88
494.387	9202.03
494.757	9245.42
495.126	9268.47
495.496	9300.79
495.866	9350.05
496.235	9491.06
496.605	9580.55
496.974	9497.62
497.344	9628.46
497.713	9703.49
498.082	9699.65
498.452	9811.06
498.821	9790.94
499.19	9878.85
499.559	9971.73
499.928	10040.88
500.298	10066.64
500.667	10154.55
501.036	10132.63
501.405	10201.1
501.774	10130.6
502.143	10224.6
502.512	10302.57
502.88	10336.92
503.249	10260.76
503.618	10387.99
503.987	10386.63
504.356	10524.48
504.724	10456.46
505.093	10476.57
505.462	10469.57
505.83	10586.63
506.199	10590.7
506.567	10615.55
506.936	10640.19
507.304	10728.32
507.672	10719.73
508.041	10772.39
508.409	10737.36
508.777	10874.76
509.145	10943.23
509.514	10862.55
509.882	10884.02
510.25	10913.63
510.618	10967.41
510.986	10939.39
511.354	10993.4
511.722	11024.13
512.09	11080.63
512.458	10991.82
512.826	11087.18
513.193	11138.48
513.561	11052.38
513.929	11124.02
514.297	11213.28
514.664	11204.47
515.032	11291.92
515.4	11243.56
515.767	11303.67
516.135	11219.61
516.502	11197.23
516.869	11284.46
517.237	11344.57
517.604	11244.69
517.972	11252.6
518.339	11331.69
518.706	11252.83
519.073	11211.02
519.44	11287.85
519.808	11361.07
520.175	11243.11
520.542	11408.53
520.909	11428.87
521.276	11403.78
521.643	11431.8
522.009	11403.1
522.376	11344.8
522.743	11329.89
523.11	11397.68
523.477	11465.25
523.843	11423.44
524.21	11457.57
524.577	11555.87
524.943	11466.38
525.31	11477.23
525.676	11611.23
526.043	11548.64
526.409	11516.55
526.776	11501.41
527.142	11475.19
527.508	11507.73
527.874	11577.11
528.241	11469.77
528.607	11427.28
528.973	11504.57
529.339	11340.28
529.705	11392.71
530.071	11431.35
530.437	11438.36
530.803	11414.86
531.169	11317.46
531.535	11233.62
531.901	11315.2
532.267	11275.65
532.632	11212.83
532.998	11270
533.364	11284.24
533.73	11150.46
534.095	11206.27
534.461	11155.2
534.826	11176.44
535.192	11087.18
535.557	11080.4
535.923	11031.14
536.288	10983.91
536.653	10934.19
537.019	10811.03
537.384	10820.97
537.749	10877.92
538.114	10766.06
538.479	10652.16
538.845	10598.38
539.21	10595.22
539.575	10534.2
539.94	10574.65
540.305	10562
540.67	10395.9
541.034	10371.49
541.399	10402.68
541.764	10287.43
542.129	10235.9
542.494	10217.15
542.858	10183.7
543.223	10105.96
543.587	10110.03
543.952	10013.76
544.316	9987.55
544.681	9933.31
545.045	9904.16
545.41	9873.2
545.774	9764.73
546.138	9766.54
546.503	9761.57
546.867	9739.42
547.231	9669.59
547.595	9583.26
547.959	9557.28
548.324	9505.75
548.688	9378.98
549.052	9395.02
549.416	9379.2
549.779	9280.45
550.143	9300.79
550.507	9254.01
550.871	9282.03
551.235	9101.7
551.599	9144.41
551.962	9114.12
552.326	9037.74
552.689	9026.44
553.053	8955.71
553.417	8877.75
553.78	8912.55
554.143	8895.6
554.507	8826.22
554.87	8810.4
555.234	8801.59
555.597	8742.38
555.96	8730.41
556.323	8721.59
556.686	8595.72
557.05	8643.63
557.413	8563.18
557.776	8581.71
558.139	8556.17
558.502	8523.86
558.865	8513.69
559.228	8500.58
559.59	8452.22
559.953	8416.06
560.316	8471.66
560.679	8400.47
561.041	8370.87
561.404	8440.7
561.767	8430.75
562.129	8334.48
562.492	8381.94
562.854	8340.36
563.217	8283.86
563.579	8359.57
563.941	8356.63
564.304	8363.41
564.666	8344.2
565.028	8349.4
565.39	8350.53
565.753	8304.2
566.115	8280.93
566.477	8301.04
566.839	8284.54
567.201	8262.62
567.563	8259.68
567.925	8257.65
568.287	8294.71
568.648	8239.35
569.01	8272.56
569.372	8233.02
569.734	8207.93
570.095	8257.88
570.457	8324.09
570.819	8307.37
571.18	8259.91
571.542	8245.22
571.903	8253.13
572.265	8246.8
572.626	8269.85
572.987	8266.69
573.349	8271.89
573.71	8302.17
574.071	8314.37
574.432	8299.91
574.794	8331.55
575.155	8278.21
575.516	8227.59
575.877	8247.48
576.238	8245.45
576.599	8216.52
576.96	8212.45
577.32	8179.23
577.681	8200.48
578.042	8215.84
578.403	8260.59
578.763	8281.15
579.124	8207.26
579.485	8260.14
579.845	8253.58
580.206	8218.78
580.566	8167.48
580.927	8186.24
581.287	8228.05
581.648	8228.05
582.008	8174.26
582.368	8143.3
582.728	8182.62
583.089	8193.92
583.449	8192.12
583.809	8132.46
584.169	8148.05
584.529	8113.7
584.889	8124.55
585.249	8099.69
585.609	8058.11
585.969	8105.11
586.329	8058.33
586.688	8080.71
587.048	8082.74
587.408	8057.43
587.768	7992.8
588.127	8002.06
588.487	8018.56
588.846	8056.98
589.206	8013.36
589.565	8031.67
589.925	8051.33
590.284	8048.16
590.643	7996.64
591.003	7987.6
591.362	7950.31
591.721	7972.91
592.08	8003.87
592.44	7981.73
592.799	7955.51
593.158	7943.08
593.517	7867.15
593.876	7960.26
594.235	7947.83
594.593	7981.05
594.952	7941.95
595.311	7904.67
595.67	7877.32
596.029	7933.36
596.387	7967.49
596.746	7945.79
597.104	7862.63
597.463	7837.77
597.822	7884.55
598.18	7866.25
598.538	7814.05
598.897	7867.6
599.255	7779.7
599.613	7882.29
599.972	7871.67
600.33	7892.69
600.688	7794.61
601.046	7852.46
601.404	7815.85
601.762	7896.3
602.12	7838.9
602.478	7868.96
602.836	7898.56
603.194	7774.27
603.552	7826.7
603.91	7824.22
604.268	7793.93
604.625	7830.32
604.983	7888.17
605.341	7794.84
605.698	7777.44
606.056	7849.07
606.413	7748.51
606.771	7784.22
607.128	7790.09
607.485	7743.31
607.843	7820.15
608.2	7866.7
608.557	7892.46
608.914	7786.93
609.272	7826.02
609.629	7852.24
609.986	7788.96
610.343	7757.1
610.7	7792.13
611.057	7796.65
611.414	7873.25
611.771	7831.22
612.127	7857.43
612.484	7884.78
612.841	7909.41
613.198	7826.02
613.554	7863.08
613.911	7869.19
614.267	7884.1
614.624	7858.11
614.98	7890.43
615.337	7922.97
615.693	7901.28
616.05	7846.14
616.406	7923.65
616.762	7948.28
617.118	7913.7
617.475	7878.45
617.831	7964.55
618.187	7920.26
618.543	7863.08
618.899	7911.9
619.255	7943.08
619.611	7959.58
619.967	7893.59
620.323	7967.26
620.678	7865.34
621.034	7881.84
621.39	7921.39
621.746	7958.9
622.101	8005.23
622.457	7921.39
622.812	7947.6
623.168	7870.77
623.523	7876.87
623.879	7983.76
624.234	7879.13
624.589	7928.62
624.945	8001.16
625.3	7953.93
625.655	7955.29
626.01	7941.95
626.365	7902.41
626.72	7923.87
627.075	7888.62
627.43	7911.67
627.785	7945.12
628.14	7959.13
628.495	7892.69
628.85	7924.1
629.205	7827.6
629.559	7899.24
629.914	7830.54
630.269	7825.57
630.623	7896.08
630.978	7859.69
631.332	7875.97
631.687	7821.5
632.041	7853.82
632.396	7863.76
632.75	7819.02
633.104	7843.88
633.459	7793.03
633.813	7788.96
634.167	7781.73
634.521	7747.61
634.875	7789.87
635.229	7758.91
635.583	7704.44
635.937	7685.46
636.291	7695.86
636.645	7676.2
636.999	7675.97
637.352	7692.02
637.706	7631.23
638.06	7712.35
638.413	7639.36
638.767	7638.23
639.121	7638.68
639.474	7569.31
639.828	7561.17
640.181	7643.88
640.534	7610.21
640.888	7600.49
641.241	7544.22
641.594	7593.49
641.947	7541.06
642.301	7547.39
642.654	7549.42
643.007	7549.19
643.36	7525.24
643.713	7527.27
644.066	7519.36
644.419	7538.8
644.771	7486.14
645.124	7418.12
645.477	7464.22
645.83	7362.08
646.182	7346.26
646.535	7323.66
646.888	7318.92
647.24	7275.98
647.593	7311.46
647.945	7306.04
648.298	7302.42
648.65	7277.79
649.002	7264
649.355	7282.31
649.707	7273.04
650.059	7305.36
650.411	7420.38
650.763	7409.76
651.115	7454.06
651.467	7445.02
651.819	7434.17
652.171	7459.48
652.523	7455.86
652.875	7387.16
653.227	7479.37
653.578	7492.25
653.93	7450.44
654.282	7445.02
654.633	7411.8
654.985	7392.81
655.337	7439.59
655.688	7477.78
656.039	7475.52
656.391	7384.68
656.742	7430.55
657.094	7458.35
657.445	7460.61
657.796	7484.56
658.147	7372.48
658.498	7550.55
658.849	7461.74
659.2	7508.07
659.551	7486.14
659.902	7489.31
660.253	7441.4
660.604	7402.53
660.955	7479.82
661.306	7469.65
661.656	7458.12
662.007	7491.57
662.358	7478.46
662.708	7443.89
663.059	7467.16
663.409	7461.29
663.76	7449.08
664.11	7521.62
664.461	7536.54
664.811	7517.33
665.161	7560.27
665.511	7494.96
665.862	7475.3
666.212	7539.48
666.562	7541.96
666.912	7532.25
667.262	7534.28
667.612	7455.41
667.962	7532.47
668.312	7495.64
668.662	7570.66
669.011	7541.51
669.361	7536.31
669.711	7524.11
670.06	7513.49
670.41	7516.65
670.76	7471.23
671.109	7463.55
671.459	7465.58
671.808	7457.9
672.157	7455.64
672.507	7430.55
672.856	7395.98
673.205	7440.04
673.554	7409.31
673.904	7398.46
674.253	7435.52
674.602	7473.94
674.951	7357.56
675.3	7333.61
675.649	7408.63
675.998	7419.93
676.346	7402.53
676.695	7383.1
677.044	7342.87
677.393	7390.78
677.741	7392.59
678.09	7367.96
678.438	7360.05
678.787	7355.75
679.135	7333.38
679.484	7275.76
679.832	7313.27
680.181	7298.81
680.529	7273.27
680.877	7299.26
681.225	7308.52
681.573	7335.87
681.922	7195.53
682.27	7221.75
682.618	7214.74
682.966	7211.12
683.314	7213.84
683.661	7184.68
684.009	7183.1
684.357	7152.37
684.705	7081.41
685.053	7107.4
685.4	7068.98
685.748	7086.83
686.095	7059.94
686.443	7040.73
686.79	7018.13
687.138	6986.5
687.485	7017
687.832	6956.22
688.18	6972.94
688.527	6953.28
688.874	6944.01
689.221	6876.22
689.568	6877.12
689.915	6808.2
690.262	6814.07
690.609	6835.99
690.956	6753.73
691.303	6809.33
691.65	6754.86
691.997	6728.2
692.344	6720.29
692.69	6672.83
693.037	6639.39
693.383	6647.3
693.73	6669.44
694.077	6599.16
694.423	6535.21
694.769	6553.97
695.116	6560.75
695.462	6504.93
695.808	6530.69
696.155	6457.47
696.501	6502.67
696.847	6429.45
697.193	6401.65
697.539	6454.08
697.885	6332.95
698.231	6293.86
698.577	6335.21
698.923	6347.42
699.269	6285.5
699.614	6248.44
699.96	6198.95
700.306	6220.87
700.651	6159.4
700.997	6158.5
701.342	6116.01
701.688	6139.74
702.033	6118.05
702.379	6084.83
702.724	6106.29
703.069	6088.67
703.415	5973.19
703.76	6047.76
704.105	5991.95
704.45	6026.75
704.795	5939.74
705.14	5878.73
705.485	5885.96
705.83	5880.54
706.175	5858.62
706.52	5793.53
706.865	5867.88
707.209	5863.14
707.554	5817.71
707.899	5816.58
708.243	5755.12
708.588	5737.72
708.932	5738.85
709.277	5711.05
709.621	5688.9
709.966	5647.1
710.31	5706.76
710.654	5572.52
710.998	5618.62
711.342	5680.32
711.687	5598.74
712.031	5565.52
712.375	5540.43
712.719	5528.46
713.063	5536.59
713.407	5553.99
713.75	5562.81
714.094	5548.34
714.438	5499.76
714.782	5518.74
715.125	5528
715.469	5454.79
715.812	5426.09
716.156	5430.61
716.499	5476.71
716.843	5434
717.186	5468.12
717.53	5470.83
717.873	5428.12
718.216	5401.91
718.559	5389.02
718.902	5330.04
719.246	5402.58
719.589	5358.07
719.932	5389.7
720.275	5391.06
720.617	5377.73
720.96	5370.04
721.303	5335.69
721.646	5343.38
721.989	5286.88
722.331	5372.08
722.674	5363.71
723.016	5321
723.359	5309.48
723.701	5331.4
724.044	5329.14
724.386	5281.68
724.729	5317.16
725.071	5292.76
725.413	5323.04
725.755	5306.09
726.097	5266.54
726.439	5289.59
726.782	5212.98
727.124	5263.15
727.465	5243.49
727.807	5207.11
728.149	5267.22
728.491	5231.51
728.833	5243.27
729.175	5250.72
729.516	5229.93
729.858	5270.38
730.199	5275.58
730.541	5262.25
730.882	5263.15
731.224	5232.87
731.565	5265.19
731.906	5231.51
732.248	5221.12
732.589	5298.41
732.93	5258.63
733.271	5176.38
733.612	5271.51
733.953	5276.94
734.294	5258.86
734.635	5245.07
734.976	5281.91
735.317	5222.25
735.658	5165.3
735.999	5260.89
736.339	5317.16
736.68	5255.92
737.021	5288.01
737.361	5249.37
737.702	5308.58
738.042	5303.38
738.383	5335.69
738.723	5345.41
739.063	5328.24
739.404	5348.8
739.744	5283.72
740.084	5368.46
740.424	5347.44
740.764	5413.88
741.104	5382.47
741.444	5372.08
741.784	5390.15
742.124	5385.18
742.464	5419.31
742.804	5431.06
743.143	5456.59
743.483	5492.75
743.823	5424.28
744.162	5509.02
744.502	5567.55
744.841	5563.94
745.181	5598.51
745.52	5573.88
745.86	5675.12
746.199	5648.23
746.538	5722.12
746.877	5794.44
747.216	5838.96
747.556	5790.82
747.895	5867.66
748.234	5934.55
748.573	5930.93
748.911	5990.37
749.25	6044.6
749.589	6077.82
749.928	6209.57
750.267	6242.56
750.605	6255.44
750.944	6347.87
751.283	6406.4
751.621	6464.25
751.96	6545.83
752.298	6694.3
752.636	6732.27
752.975	6804.58
753.313	6920.74
753.651	6987.63
753.989	7109.66
754.327	7209.09
754.666	7309.43
755.004	7435.07
755.342	7557.1
755.679	7659.02
756.017	7748.28
756.355	7903.99
756.693	8103.3
757.031	8214.26
757.368	8390.98
757.706	8466.01
758.044	8653.12
758.381	8741.71
758.719	8949.38
759.056	9124.07
759.394	9253.78
759.731	9355.02
760.068	9495.58
760.405	9688.8
760.743	9835.01
761.08	10017.6
761.417	10211.95
761.754	10364.71
762.091	10578.95
762.428	10718.6
762.765	10799.5
763.102	11065.94
763.438	11175.09
763.775	11398.58
764.112	11544.8
764.449	11755.41
764.785	11945.91
765.122	12075.18
765.458	12154.95
765.795	12382.29
766.131	12512.23
766.467	12681.94
766.804	12902.95
767.14	13016.62
767.476	13126.67
767.812	13340.23
768.148	13392.43
768.485	13596.72
768.821	13681.46
769.157	13798.75
769.492	14076.25
769.828	14119.64
770.164	14223.59
770.5	14387.88
770.836	14542.23
771.171	14587.65
771.507	14779.29
771.842	14691.83
772.178	14929.11
772.513	14966.85
772.849	15115.77
773.184	15185.15
773.519	15387.41
773.855	15311.93
774.19	15425.37
774.525	15426.28
774.86	15686.61
775.195	15682.31
775.53	15782.65
775.865	15724.57
776.2	15853.38
776.535	15871.46
776.87	15924.79
777.205	15928.63
777.539	16011.57
777.874	16190.32
778.209	16018.8
778.543	16223.32
778.878	16101.06
779.212	16267.83
779.547	16163.66
779.881	16296.76
780.215	16297.66
780.55	16435.29
780.884	16341.28
781.218	16462.63
781.552	16580.82
781.886	16459.92
782.22	16413.37
782.554	16457.43
782.888	16357.1
783.222	16462.18
783.556	16432.12
783.889	16405.46
784.223	16397.1
784.557	16394.16
784.89	16424.67
785.224	16450.66
785.557	16433.03
785.891	16421.28
786.224	16377.44
786.558	16430.54
786.891	16348.74
787.224	16288.17
787.557	16303.09
787.891	16301.28
788.224	16367.49
788.557	16400.71
788.89	16365.01
789.223	16445.23
789.556	16306.7
789.888	16267.83
790.221	16234.62
790.554	16177.89
790.887	16221.28
791.219	16212.7
791.552	16177.89
791.884	16068.07
792.217	16067.39
792.549	16105.81
792.882	16012.93
793.214	16033.94
793.546	16025.13
793.879	15889.77
794.211	15866.72
794.543	16020.84
794.875	15957.33
795.207	15974.96
795.539	15972.02
795.871	15839.37
796.203	15791.01
796.535	15761.18
796.867	15772.48
797.198	15695.19
797.53	15704.69
797.862	15589.89
798.193	15654.52
798.525	15564.35
798.856	15621.98
799.188	15515.31
799.519	15522.77
799.85	15371.81
800.182	15416.78
800.513	15367.07
800.844	15299.5
801.175	15284.13
801.506	15415.88
801.837	15276
802.168	15304.02
802.499	15292.27
802.83	15159.62
803.161	15212.04
803.491	15172.27
803.822	15109.67
804.153	15137.02
804.483	14969.34
804.814	14912.39
805.145	14955.78
805.475	14898.38
805.805	14773.41
806.136	14878.94
806.466	14910.58
806.796	14811.15
807.126	14752.62
807.457	14674.66
807.787	14717.37
808.117	14627.65
808.447	14617.48
808.777	14585.17
809.107	14571.16
809.436	14587.43
809.766	14502.68
810.096	14421.33
810.426	14360.31
810.755	14544.26
811.085	14441.67
811.414	14435.11
811.744	14249.36
812.073	14317.83
812.403	14294.1
812.732	14318.06
813.061	14199.41
813.39	14194.22
813.719	14160.77
814.049	14269.47
814.378	14163.71
814.707	14099.3
815.036	14112.19
815.365	14039.87
815.693	13927.78
816.022	14006.43
816.351	13885.98
816.68	13839.65
817.008	13928.69
817.337	13826.54
817.665	13778.63
817.994	13825.87
818.322	13775.25
818.651	13784.51
818.979	13696.83
819.307	13762.59
819.636	13748.13
819.964	13592.2
820.292	13693.44
820.62	13637.4
820.948	13667.68
821.276	13742.7
821.604	13618.19
821.932	13635.59
822.259	13716.04
822.587	13644.63
822.915	13675.13
823.243	13688.92
823.57	13585.65
823.898	13745.87
824.225	13608.92
824.553	13549.04
824.88	13615.7
825.207	13625.87
825.535	13631.75
825.862	13676.72
826.189	13596.49
826.516	13667.23
826.843	13674.68
827.17	13645.31
827.497	13629.71
827.824	13716.49
828.151	13640.56
828.478	13705.19
828.805	13769.6
829.131	13647.34
829.458	13703.38
829.785	13627.23
830.111	13655.25
830.438	13784.28
830.764	13640.79
831.09	13695.47
831.417	13642.37
831.743	13747.68
832.069	13641.92
832.395	13561.69
832.722	13691.18
833.048	13604.85
833.374	13676.72
833.7	13523.27
834.026	13594.68
834.351	13573.22
834.677	13548.81
835.003	13601.01
835.329	13594.68
835.654	13533.9
835.98	13516.95
836.306	13495.93
836.631	13474.24
836.956	13508.59
837.282	13549.94
837.607	13437.63
837.932	13413.67
838.258	13395.59
838.583	13440.79
838.908	13303.62
839.233	13389.49
839.558	13316.27
839.883	13247.8
840.208	13125.77
840.533	13240.8
840.858	13222.72
841.182	13240.34
841.507	13258.65
841.832	13145.43
842.156	13220.68
842.481	13156.28
842.805	13014.14
843.13	13088.26
843.454	13059.56
843.778	13038.09
844.103	12961.93
844.427	12909.05
844.751	12889.39
845.075	12968.03
845.399	12773.46
845.723	12772.79
846.047	12746.8
846.371	12627.48
846.695	12704.76
847.019	12524.88
847.343	12595.39
847.666	12501.61
847.99	12480.14
848.313	12379.8
848.637	12364.43
848.96	12283.31
849.284	12188.62
849.607	12206.25
849.931	12116.76
850.254	12109.75
850.577	11994.5
850.9	12040.15
851.223	11942.3
851.546	11876.99
851.869	11830.89
852.192	11865.46
852.515	11771.68
852.838	11803.77
853.161	11723.1
853.483	11693.94
853.806	11638.13
854.129	11582.31
854.451	11605.81
854.774	11538.69
855.096	11447.62
855.419	11417.79
855.741	11463.67
856.063	11384.12
856.385	11291.24
856.708	11373.05
857.03	11237.23
857.352	11297.34
857.674	11206.95
857.996	11134.64
858.318	11124.69
858.64	11144.81
858.961	11070.23
859.283	11009.22
859.605	10993.4
859.926	11050.35
860.248	10955.43
860.57	10913.85
860.891	11032.04
861.212	10848.54
861.534	10842.44
861.855	10854.19
862.176	10845.15
862.498	10773.74
862.819	10715.89
863.14	10746.85
863.461	10707.76
863.782	10674.08
864.103	10708.66
864.424	10680.86
864.745	10650.13
865.065	10546.86
865.386	10578.95
865.707	10584.14
866.027	10514.99
866.348	10560.64
866.668	10645.84
866.989	10524.26
867.309	10470.02
867.63	10496.24
867.95	10419.18
868.27	10352.28
868.59	10417.59
868.91	10401.55
869.23	10335.56
869.55	10297.82
869.87	10279.29
870.19	10387.99
870.51	10324.94
870.83	10318.39
871.15	10232.51
871.469	10230.25
871.789	10278.84
872.109	10297.82
872.428	10194.55
872.748	10195.68
873.067	10163.36
873.386	10192.29
873.706	10156.58
874.025	10103.7
874.344	10170.59
874.663	10087.66
874.982	10081.56
875.301	10105.51
875.62	10043.82
875.939	9951.16
876.258	10061.44
876.577	9983.71
876.896	10013.76
877.214	9959.3
877.533	9916.36
877.852	9919.3
878.17	9956.59
878.489	9859.19
878.807	9875.91
879.125	9840.21
879.444	9873.43
879.762	9865.29
880.08	9810.38
880.398	9764.5
880.716	9802.69
881.034	9725.63
881.352	9733.77
881.67	9708.69
881.988	9758.63
882.306	9664.62
882.624	9683.15
882.941	9587.56
883.259	9601.12
883.577	9589.14
883.894	9583.49
884.212	9453.1
884.529	9515.47
884.846	9514.11
885.164	9479.76
885.481	9478.18
885.798	9455.36
886.115	9398.19
886.432	9418.07
886.75	9322.71
887.067	9368.58
887.383	9315.25
887.7	9347.11
888.017	9340.79
888.334	9302.59
888.651	9246.55
888.967	9238.87
889.284	9193.67
889.6	9189.38
889.917	9174.01
890.233	9094.46
890.55	9111.41
890.866	9124.07
891.182	9006.78
891.498	9037.74
891.815	8943.06
892.131	8929.27
892.447	8937.63
892.763	8953.23
893.079	8894.24
893.395	8851.53
893.71	8810.18
894.026	8756.85
894.342	8764.08
894.657	8678.88
894.973	8721.59
895.289	8692.89
895.604	8693.57
895.92	8595.49
896.235	8593.46
896.55	8581.48
896.865	8484.76
897.181	8538.09
897.496	8520.92
897.811	8449.96
898.126	8421.71
898.441	8355.27
898.756	8377.19
899.071	8342.39
899.386	8377.19
899.7	8261.94
900.015	8257.88
900.33	8073.47
900.644	8134.49
900.959	8148.73
901.273	8173.81
901.588	8086.13
901.902	8068.73
902.216	7977.66
902.531	7992.57
902.845	7944.44
903.159	7934.95
903.473	7956.19
903.787	7837.77
904.101	7888.17
904.415	7842.29
904.729	7773.14
905.042	7722.3
905.356	7707.38
905.67	7699.02
905.984	7673.48
906.297	7667.61
906.611	7601.4
906.924	7659.7
907.237	7495.64
907.551	7523.21
907.864	7479.14
908.177	7533.15
908.491	7495.64
908.804	7397.11
909.117	7391.23
909.43	7335.19
909.743	7297.68
910.056	7296.55
910.368	7286.6
910.681	7160.73
910.994	7221.97
911.307	7181.52
911.619	7126.38
911.932	7153.95
912.244	7087.29
912.557	7045.03
912.869	7005.71
913.181	7054.52
913.494	6961.41
913.806	6956.67
914.118	6847.29
914.43	6855.65
914.742	6848.65
915.054	6800.97
915.366	6832.15
915.678	6760.06
915.99	6745.83
916.302	6690.23
916.613	6670.35
916.925	6652.04
917.236	6617.69
917.548	6589.9
917.859	6647.3
918.171	6547.19
918.482	6539.73
918.794	6478.49
919.105	6469
919.416	6441.2
919.727	6399.17
920.038	6379.51
920.349	6385.16
920.66	6380.86
920.971	6350.13
921.282	6307.87
921.593	6272.17
921.903	6210.02
922.214	6188.1
922.525	6221.09
922.835	6174.09
923.146	6096.8
923.456	6138.61
923.767	6084.83
924.077	6035.56
924.387	6043.47
924.697	5991.72
925.008	6000.08
925.318	5954.43
925.628	5975.45
925.938	5980.2
926.248	5906.53
926.558	5925.28
926.867	5850.48
927.177	5813.42
927.487	5815
927.796	5770.48
928.106	5753.31
928.416	5750.37
928.725	5767.77
929.034	5688.23
929.344	5638.51
929.653	5623.82
929.962	5625.85
930.271	5600.77
930.581	5601.67
930.89	5560.55
931.199	5483.71
931.508	5510.6
931.817	5523.94
932.125	5455.92
932.434	5484.39
932.743	5414.79
933.051	5426.09
933.36	5342.02
933.669	5362.81
933.977	5293.66
934.286	5332.08
934.594	5309.03
934.902	5249.37
935.21	5236.71
935.519	5224.51
935.827	5201.91
936.135	5132.99
936.443	5176.83
936.751	5136.83
937.059	5122.14
937.367	5102.48
937.674	5080.11
937.982	5046.89
938.29	4971.63
938.597	5042.82
938.905	4985.65
939.213	4944.74
939.52	4918.3
939.827	4973.22
940.135	4873.33
940.442	4895.03
940.749	4893.22
941.056	4826.33
941.363	4791.07
941.67	4778.87
941.977	4776.16
942.284	4748.59
942.591	4733.22
942.898	4699.55
943.205	4695.48
943.511	4673.11
943.818	4646.45
944.125	4592.89
944.431	4598.76
944.738	4557.18
945.044	4592.44
945.35	4558.54
945.657	4550.4
945.963	4492.1
946.269	4470.86
946.575	4489.39
946.881	4411.42
947.187	4444.19
947.493	4438.54
947.799	4434.02
948.105	4395.6
948.41	4396.96
948.716	4356.28
949.022	4355.38
949.327	4338.21
949.633	4271.54
949.938	4264.76
950.244	4262.27
950.549	4279.68
950.854	4203.52
951.16	4233.12
951.465	4189.28
951.77	4148.83
952.075	4177.31
952.38	4184.54
952.685	4131.2
952.99	4143.41
953.294	4081.49
953.599	4072.22
953.904	4024.54
954.209	4043.75
954.513	3979.8
954.818	4006.24
955.122	3979.8
955.426	3959.01
955.731	3923.75
956.035	3912
956.339	3893.25
956.643	3918.1
956.948	3879.01
957.252	3859.57
957.556	3895.96
957.86	3860.25
958.163	3853.25
958.467	3828.39
958.771	3781.61
959.075	3783.42
959.378	3750.2
959.682	3732.12
959.985	3684.66
960.289	3705.23
960.592	3674.27
960.896	3685.34
961.199	3674.04
961.502	3657.32
961.805	3628.39
962.108	3591.11
962.411	3596.3
962.714	3583.87
963.017	3568.28
963.32	3557.89
963.623	3522.86
963.926	3551.11
964.228	3500.71
964.531	3522.18
964.833	3492.13
965.136	3453.48
965.438	3471.34
965.741	3404.22
966.043	3430.21
966.345	3406.93
966.648	3396.99
966.95	3351.34
967.252	3323.09
967.554	3360.38
967.856	3309.98
968.158	3274.05
968.46	3311.34
968.761	3281.28
969.063	3310.89
969.365	3248.29
969.666	3250.1
969.968	3216.88
970.269	3225.92
970.571	3216.43
970.872	3195.86
971.174	3128.07
971.475	3190.89
971.776	3171
972.077	3094.62
972.378	3154.73
972.679	3117.22
972.98	3105.02
973.281	3077.67
973.582	3062.53
973.883	3062.98
974.183	3034.28
974.484	3066.6
974.785	3021.4
975.085	2967.62
975.386	2988.41
975.686	2955.87
975.986	2926.94
976.287	2933.95
976.587	2935.76
976.887	2886.27
977.187	2903.89
977.487	2895.31
977.787	2869.09
978.087	2862.31
978.387	2851.69
978.687	2848.07
978.987	2815.99
979.286	2845.36
979.586	2815.08
979.885	2825.25
980.185	2773.5
980.484	2825.02
980.784	2749.09
981.083	2744.57
981.382	2721.98
981.682	2724.01
981.981	2690.79
982.28	2716.55
982.579	2697.12
982.878	2675.65
983.177	2634.07
983.475	2629.32
983.774	2625.48
984.073	2630.91
984.372	2600.85
984.67	2604.47
984.969	2608.31
985.267	2596.1
985.566	2561.75
985.864	2557.46
986.162	2561.08
986.461	2543.22
986.759	2495.99
987.057	2499.16
987.355	2489.44
987.653	2488.76
987.951	2487.86
988.249	2448.76
988.547	2465.71
988.844	2471.14
989.142	2416.67
989.44	2430.23
989.737	2431.14
990.035	2408.76
990.332	2378.03
990.63	2387.07
990.927	2357.69
991.224	2342.55
991.521	2336
991.819	2327.64
992.116	2340.74
992.413	2312.27
992.71	2276.56
993.006	2304.81
993.303	2295.77
993.6	2251.03
993.897	2272.27
994.193	2283.57
994.49	2247.41
994.787	2233.85
995.083	2188.66
995.379	2227.98
995.676	2170.13
995.972	2148.21
996.268	2164.48
996.565	2169
996.861	2133.74
997.157	2164.93
997.453	2151.6
997.749	2109.34
998.044	2105.95
998.34	2128.32
998.636	2076.57
998.932	2075.89
999.227	2075.21
999.523	2085.38
999.818	2012.16
1000.114	2012.16
1000.409	2038.15
1000.704	2037.25
1001	2025.05
1001.295	1982.56
1001.59	2002.45
1001.885	1990.24
1002.18	1956.8
1002.475	1906.4
1002.77	1929
1003.065	1920.42
1003.359	1908.44
1003.654	1923.35
1003.949	1921.77
1004.243	1880.42
1004.538	1871.15
1004.832	1862.56
1005.127	1874.32
1005.421	1882.45
1005.715	1849.01
1006.009	1825.05
1006.304	1829.34
1006.598	1782.11
1006.892	1801.1
1007.186	1776.24
1007.48	1802.45
1007.773	1774.66
1008.067	1752.96
1008.361	1763.81
1008.655	1707.77
1008.948	1709.8
1009.242	1708.9
1009.535	1717.03
1009.829	1720.65
1010.122	1677.71
1010.415	1688.78
1010.708	1675.22
1011.001	1697.14
1011.295	1658.5
1011.588	1625.28
1011.881	1640.42
1012.173	1598.84
1012.466	1620.54
1012.759	1581.89
1013.052	1624.15
1013.344	1596.58
1013.637	1578.73
1013.93	1559.97
1014.222	1538.05
1014.514	1538.05
1014.807	1561.55
1015.099	1535.12
1015.391	1559.75
1015.683	1508.68
1015.976	1527.21
1016.268	1490.82
1016.56	1479.98
1016.851	1462.12
1017.143	1484.27
1017.435	1478.17
1017.727	1449.24
1018.018	1405.17
1018.31	1436.36
1018.602	1419.86
1018.893	1403.37
1019.185	1402.01
1019.476	1402.24
1019.767	1384.61
1020.058	1392.29
1020.35	1370.15
1020.641	1372.63
1020.932	1377.83
1021.223	1364.95
1021.514	1328.79
1021.804	1316.36
1022.095	1323.14
1022.386	1324.73
1022.677	1324.73
1022.967	1278.62
1023.258	1276.59
1023.548	1276.82
1023.839	1239.98
1024.129	1287.66
1024.419	1260.77
1024.709	1254.22
1025	1262.58
1025.29	1238.17
1025.58	1204.28
1025.87	1194.78
1026.16	1199.08
1026.449	1213.09
1026.739	1178.97
1027.029	1173.32
1027.319	1153.66
1027.608	1162.47
1027.898	1163.15
1028.187	1160.89
1028.477	1155.24
1028.766	1150.04
1029.055	1121.34
1029.344	1129.02
1029.634	1124.05
1029.923	1141.91
1030.212	1094.67
1030.501	1123.6
1030.79	1096.93
1031.078	1082.92
1031.367	1057.16
1031.656	1057.39
1031.945	1041.34
1032.233	1072.75
1032.522	1040.44
1032.81	1032.76
1033.099	1045.64
1033.387	1002.7
1033.675	1047.22
1033.963	1016.48
1034.251	1018.74
1034.54	1015.35
1034.828	996.37
1035.116	961.12
1035.403	967.67
1035.691	969.25
1035.979	971.74
1036.267	962.7
1036.554	1000.89
1036.842	957.96
1037.129	968.58
1037.417	945.75
1037.704	931.74
1037.992	933.32
1038.279	924.51
1038.566	928.8
1038.853	928.8
1039.14	928.8
