Data from hue_80_FLMS001491_80.txt Node
Date: Mon Feb 06 15:23:33 GMT 2017
User: dcchb
Spectrometer: FLMS00149
Trigger mode: 0
Integration Time (sec): 2.000000E-2
Scans to average: 10
Electric dark correction enabled: true
Nonlinearity correction enabled: false
Boxcar width: 0
XAxis mode: Wavelengths
Number of Pixels in Spectrum: 2048
>>>>>Begin Spectral Data<<<<<
341.393	-12.41
341.776	-12.41
342.16	-12.41
342.543	-84.5
342.927	-76.14
343.31	-68.91
343.693	-72.3
344.077	-48.8
344.46	-47.89
344.843	-52.19
345.226	-51.51
345.61	-21.23
345.993	-20.78
346.376	-22.81
346.759	17.19
347.142	22.16
347.525	54.02
347.908	64.65
348.291	68.49
348.674	77.75
349.057	102.16
349.44	126.79
349.823	140.12
350.206	168.6
350.588	163.4
350.971	189.39
351.354	219.9
351.737	239.56
352.119	243.85
352.502	275.26
352.884	273.45
353.267	262.61
353.65	274.13
354.032	276.39
354.414	298.31
354.797	312.77
355.179	311.19
355.562	314.36
355.944	307.58
356.326	328.37
356.709	338.08
357.091	315.49
357.473	355.94
357.855	331.98
358.238	333.79
358.62	331.98
359.002	349.16
359.384	317.07
359.766	343.06
360.148	318.2
360.53	332.21
360.912	352.1
361.294	321.14
361.676	328.14
362.057	341.25
362.439	322.72
362.821	319.33
363.203	315.49
363.584	325.2
363.966	305.54
364.348	310.06
364.729	327.92
365.111	310.06
365.493	332.21
365.874	311.64
366.256	300.12
366.637	324.07
367.019	299.89
367.4	290.4
367.781	312.1
368.163	301.93
368.544	300.57
368.925	291.08
369.306	325.66
369.688	298.76
370.069	313.9
370.45	297.63
370.831	306.9
371.212	307.8
371.593	328.82
371.974	315.94
372.355	296.96
372.736	322.94
373.117	284.98
373.498	323.85
373.879	308.03
374.26	297.63
374.641	287.24
375.021	306.22
375.402	310.74
375.783	314.13
376.163	296.96
376.544	319.55
376.925	326.79
377.305	305.54
377.686	305.54
378.066	317.52
378.447	316.84
378.827	335.6
379.208	342.38
379.588	305.99
379.968	308.93
380.349	314.81
380.729	322.94
381.109	322.04
381.489	334.92
381.87	328.59
382.25	358.65
382.63	322.04
383.01	336.05
383.39	336.5
383.77	350.51
384.15	325.88
384.53	337.63
384.91	324.53
385.29	347.8
385.67	333.79
386.049	347.8
386.429	331.3
386.809	322.49
387.189	342.6
387.568	350.97
387.948	359.1
388.328	357.29
388.707	346.45
389.087	362.49
389.466	368.59
389.846	348.93
390.225	367.91
390.605	367.24
390.984	365.2
391.363	349.38
391.743	362.72
392.122	345.99
392.501	347.12
392.881	356.16
393.26	343.51
393.639	371.08
394.018	362.04
394.397	361.59
394.776	363.85
395.155	375.37
395.534	363.85
395.913	378.31
396.292	353.23
396.671	362.49
397.05	374.47
397.429	359.33
397.808	368.59
398.186	403.17
398.565	378.54
398.944	352.32
399.323	397.07
399.701	393
400.08	390.74
400.458	379.67
400.837	396.61
401.215	394.58
401.594	371.53
401.972	387.57
402.351	393.9
402.729	386.22
403.107	413.79
403.486	403.62
403.864	397.97
404.242	410.17
404.62	412.43
404.999	400.68
405.377	397.74
405.755	403.17
406.133	406.78
406.511	410.85
406.889	433
407.267	399.33
407.645	429.83
408.023	437.29
408.401	428.25
408.779	402.72
409.156	430.51
409.534	422.15
409.912	435.48
410.29	450.4
410.667	427.57
411.045	427.12
411.422	440.91
411.8	430.29
412.178	429.61
412.555	463.96
412.933	448.36
413.31	453.11
413.687	452.43
414.065	457.86
414.442	484.07
414.819	474.8
415.197	468.02
415.574	491.3
415.951	456.73
416.328	491.75
416.705	490.17
417.082	484.75
417.46	490.17
417.837	465.99
418.214	507.12
418.591	491.07
418.967	479.78
419.344	488.14
419.721	475.71
420.098	495.59
420.475	527.46
420.852	506.44
421.228	520
421.605	500.57
421.982	516.16
422.358	517.29
422.735	537.4
423.111	516.61
423.488	512.54
423.864	526.33
424.241	546.21
424.617	524.29
424.994	554.12
425.37	546.67
425.746	588.47
426.123	544.63
426.499	563.16
426.875	570.17
427.251	564.52
427.627	578.76
428.003	579.66
428.379	566.1
428.756	571.52
429.132	589.15
429.507	587.8
429.883	573.11
430.259	617.85
430.635	581.47
431.011	621.92
431.387	616.27
431.763	622.37
432.138	628.25
432.514	613.33
432.89	627.57
433.265	635.48
433.641	657.85
434.016	644.29
434.392	640.68
434.767	652.65
435.143	667.12
435.518	678.19
435.894	690.62
436.269	684.97
436.644	698.75
437.02	698.98
437.395	681.35
437.77	692.2
438.145	704.63
438.52	720.45
438.895	700.33
439.271	718.41
439.646	727.23
440.021	733.1
440.395	742.82
440.77	727.23
441.145	728.13
441.52	761.35
441.895	734.46
442.27	748.7
442.645	767.45
443.019	763.84
443.394	754.34
443.769	763.61
444.143	765.87
444.518	786.43
444.892	771.52
445.267	785.08
445.641	776.26
446.016	816.26
446.39	818.52
446.764	799.54
447.139	789.37
447.513	804.06
447.887	828.69
448.262	804.06
448.636	813.78
449.01	837.73
449.384	828.69
449.758	849.03
450.132	843.61
450.506	839.31
450.88	832.53
451.254	869.37
451.628	878.64
452.002	906.2
452.376	882.7
452.75	888.8
453.123	903.04
453.497	928.35
453.871	936.94
454.244	929.93
454.618	959.31
454.992	951.85
455.365	943.27
455.739	963.38
456.112	969.03
456.486	968.12
456.859	992.53
457.232	996.37
457.606	1020.1
457.979	1012.64
458.352	1033.43
458.725	1046.77
459.099	1054
459.472	1057.84
459.845	1064.62
460.218	1074.11
460.591	1096.48
460.964	1089.7
461.337	1131.96
461.71	1159.08
462.083	1162.92
462.456	1185.97
462.829	1168.8
463.201	1206.08
463.574	1196.37
463.947	1226.87
464.32	1256.7
464.692	1264.39
465.065	1272.3
465.438	1270.04
465.81	1323.14
466.183	1326.53
466.555	1343.48
466.928	1349.81
467.3	1362.69
467.672	1413.08
468.045	1417.38
468.417	1449.92
468.789	1443.14
469.161	1482.46
469.534	1496.25
469.906	1524.04
470.278	1572.63
470.65	1560.2
471.022	1587.32
471.394	1662.34
471.766	1684.26
472.138	1691.72
472.51	1711.83
472.882	1762.23
473.253	1825.5
473.625	1870.25
473.997	1903.01
474.369	1904.82
474.74	1950.25
475.112	2020.07
475.484	2055.78
475.855	2087.42
476.227	2121.09
476.598	2216.68
476.97	2218.71
477.341	2304.36
477.713	2364.25
478.084	2379.84
478.455	2482.21
478.827	2527.41
479.198	2636.1
479.569	2663.45
479.94	2783.22
480.311	2813.73
480.682	2903.44
481.053	3020.95
481.424	3107.5
481.795	3194.51
482.166	3237.44
482.537	3330.1
482.908	3421.17
483.279	3485.8
483.65	3615.51
484.021	3756.75
484.391	3794.26
484.762	3914.26
485.133	3976.86
485.503	4082.62
485.874	4217.76
486.244	4308.6
486.615	4474.92
486.985	4583.62
487.356	4679.89
487.726	4797.85
488.097	4993.56
488.467	4985.42
488.837	5177.51
489.207	5357.84
489.578	5503.37
489.948	5591.05
490.318	5719.41
490.688	5777.94
491.058	6046.41
491.428	6144.94
491.798	6219.51
492.168	6437.81
492.538	6529.11
492.908	6662.66
493.278	6847.97
493.648	6903.56
494.017	7108.08
494.387	7230.78
494.757	7381.74
495.126	7526.14
495.496	7626.03
495.866	7757.55
496.235	7951.22
496.605	8057.88
496.974	8203.87
497.344	8303.75
497.713	8442.05
498.082	8588.94
498.452	8687.92
498.821	8811.08
499.19	8958.42
499.559	9105.31
499.928	9174.69
500.298	9361.35
500.667	9488.35
501.036	9521.12
501.405	9614.68
501.774	9791.4
502.143	9898.06
502.512	9970.6
502.88	10092.63
503.249	10220.99
503.618	10342.79
503.987	10359.06
504.356	10532.17
504.724	10661.43
505.093	10691.71
505.462	10795.89
505.83	10896.68
506.199	11020.52
506.567	11218.93
506.936	11265.71
507.304	11371.92
507.672	11560.39
508.041	11636.77
508.409	11625.47
508.777	11818.46
509.145	11884.9
509.514	11924.22
509.882	12100.94
510.25	12117.44
510.618	12260.48
510.986	12302.06
511.354	12441.72
511.722	12561.04
512.09	12677.65
512.458	12649.63
512.826	12780.92
513.193	12819.79
513.561	12833.57
513.929	13038.32
514.297	13112.89
514.664	13245.99
515.032	13210.97
515.4	13310.4
515.767	13385.88
516.135	13477.4
516.502	13473.78
516.869	13669.94
517.237	13700.67
517.604	13711.07
517.972	13895.47
518.339	13889.82
518.706	13935.24
519.073	13977.73
519.44	14029.02
519.808	14210.94
520.175	14161.68
520.542	14424.27
520.909	14371.16
521.276	14425.4
521.643	14540.87
522.009	14611.61
522.376	14669.01
522.743	14785.61
523.11	14892.96
523.477	14875.78
523.843	15011.6
524.21	15077.13
524.577	15094.31
524.943	15173.85
525.31	15265.38
525.676	15283
526.043	15411.81
526.409	15458.14
526.776	15510.34
527.142	15551.47
527.508	15626.04
527.874	15745.36
528.241	15815.87
528.607	15740.62
528.973	15790.79
529.339	15866.72
529.705	15922.53
530.071	16007.95
530.437	16039.14
530.803	16101.29
531.169	16144.22
531.535	16142.87
531.901	16194.62
532.267	16169.08
532.632	16222.86
532.998	16281.39
533.364	16260.38
533.73	16268.96
534.095	16391.45
534.461	16438.45
534.826	16397.55
535.192	16442.75
535.557	16416.31
535.923	16439.58
536.288	16519.58
536.653	16534.72
537.019	16450.2
537.384	16459.24
537.749	16480.03
538.114	16575.85
538.479	16519.35
538.845	16501.73
539.21	16470.09
539.575	16493.59
539.94	16525.68
540.305	16566.58
540.67	16521.39
541.034	16510.54
541.399	16540.37
541.764	16500.15
542.129	16551.9
542.494	16534.04
542.858	16563.65
543.223	16461.05
543.587	16490.65
543.952	16491.11
544.316	16553.48
544.681	16447.72
545.045	16550.54
545.41	16539.24
545.774	16543.53
546.138	16467.6
546.503	16452.24
546.867	16439.58
547.231	16511.44
547.595	16476.64
547.959	16417.89
548.324	16537.88
548.688	16458.34
549.052	16397.78
549.416	16415.18
549.779	16360.04
550.143	16453.37
550.507	16474.38
550.871	16534.27
551.235	16382.18
551.599	16443.2
551.962	16483.65
552.326	16533.36
552.689	16492.01
553.053	16412.24
553.417	16417.66
553.78	16578.79
554.143	16490.43
554.507	16545.12
554.87	16560.71
555.234	16629.86
555.597	16448.62
555.96	16444.55
556.323	16483.65
556.686	16524.78
557.05	16645.9
557.413	16561.39
557.776	16506.25
558.139	16629.41
558.502	16620.37
558.865	16572.23
559.228	16705.11
559.59	16697.65
559.953	16606.81
560.316	16827.14
560.679	16790.31
561.041	16823.3
561.404	16925.44
561.767	16906.46
562.129	16782.17
562.492	17027.14
562.854	16915.05
563.217	16812.68
563.579	16905.78
563.941	17000.47
564.304	17050.41
564.666	17095.61
565.028	17070.75
565.39	17085.89
565.753	17164.08
566.115	17214.02
566.477	17196.4
566.839	17297.86
567.201	17313.91
567.563	17303.29
567.925	17347.81
568.287	17334.93
568.648	17395.94
569.01	17472.32
569.372	17576.95
569.734	17519.33
570.095	17569.04
570.457	17537.41
570.819	17602.49
571.18	17565.2
571.542	17655.14
571.903	17658.98
572.265	17687.01
572.626	17649.49
572.987	17755.03
573.349	17847.68
573.71	17766.78
574.071	17806.33
574.432	17917.28
574.794	17951.86
575.155	17871.86
575.516	17847.23
575.877	17909.15
576.238	18062.82
576.599	17943.27
576.96	17981.01
577.32	17955.25
577.681	17981.69
578.042	17996.6
578.403	17987.79
578.763	18065.3
579.124	18065.08
579.485	18094.45
579.845	18175.13
580.206	18069.14
580.566	18116.15
580.927	18075.02
581.287	18185.75
581.648	18150.05
582.008	18133.77
582.368	18129.03
582.728	18148.69
583.089	18145.75
583.449	18137.16
583.809	18145.53
584.169	18064.62
584.529	18069.6
584.889	18104.17
585.249	18138.52
585.609	18113.66
585.969	18150.05
586.329	18082.02
586.688	18090.61
587.048	18024.85
587.408	18003.83
587.768	18089.71
588.127	18049.48
588.487	17993.44
588.846	18104.85
589.206	18010.16
589.565	17965.87
589.925	17969.03
590.284	17962.93
590.643	17941.46
591.003	18037.05
591.362	18066.66
591.721	17994.34
592.08	18047
592.44	17998.64
592.799	18087.67
593.158	17981.01
593.517	17922.71
593.876	17988.24
594.235	17923.84
594.593	17898.07
594.952	17986.21
595.311	17903.95
595.67	17987.56
596.029	18113.44
596.387	17987.56
596.746	18032.99
597.104	17952.76
597.463	17909.83
597.822	17991.86
598.18	17898.75
598.538	17954.57
598.897	18017.62
599.255	17775.37
599.613	18118.63
599.972	17966.32
600.33	18089.48
600.688	18018.52
601.046	17950.95
601.404	18079.76
601.762	18040.9
602.12	18151.4
602.478	18056.94
602.836	18035.7
603.194	17980.78
603.552	17950.95
603.91	17886.55
604.268	17941.46
604.625	17958.86
604.983	18114.79
605.341	17956.38
605.698	17991.18
606.056	17972.42
606.413	17995.25
606.771	18076.15
607.128	18085.64
607.485	18027.34
607.843	18034.79
608.2	18204.51
608.557	18146.88
608.914	18075.25
609.272	18211.51
609.629	18241.34
609.986	18300.55
610.343	18192.08
610.7	18362.92
611.057	18227.33
611.414	18180.78
611.771	18326.09
612.127	18302.13
612.484	18283.83
612.841	18306.2
613.198	18325.63
613.554	18313.66
613.911	18348.23
614.267	18350.04
614.624	18458.51
614.98	18471.39
615.337	18489.7
615.693	18404.95
616.05	18471.62
616.406	18571.73
616.762	18454.22
617.118	18476.82
617.475	18464.39
617.831	18564.05
618.187	18577.83
618.543	18540.32
618.899	18634.78
619.255	18620.77
619.611	18710.03
619.967	18736.7
620.323	18649.69
620.678	18720.2
621.034	18684.04
621.39	18720.65
621.746	18568.79
622.101	18926.75
622.457	18677.94
622.812	18793.19
623.168	18701.22
623.523	18750.71
623.879	18778.28
624.234	18698.73
624.589	18740.54
624.945	18762.91
625.3	18728.56
625.655	18645.63
626.01	18728.11
626.365	18738.73
626.72	18668.45
627.075	18698.96
627.43	18688.34
627.785	18653.99
628.14	18628.45
628.495	18635.91
628.85	18657.15
629.205	18617.15
629.559	18811.5
629.914	18651.05
630.269	18744.38
630.623	18650.37
630.978	18613.99
631.332	18651.05
631.687	18588.68
632.041	18657.6
632.396	18607.43
632.75	18552.97
633.104	18650.15
633.459	18531.28
633.813	18468.91
634.167	18563.59
634.521	18496.25
634.875	18541.45
635.229	18489.92
635.583	18293.09
635.937	18384.39
636.291	18380.77
636.645	18435.46
636.999	18383.94
637.352	18351.17
637.706	18274.34
638.06	18349.81
638.413	18351.62
638.767	18252.87
639.121	18341.68
639.474	18229.59
639.828	18270.72
640.181	18152.76
640.534	18230.27
640.888	18182.59
641.241	18129.25
641.594	18094.68
641.947	18179.42
642.301	18081.35
642.654	18123.83
643.007	18083.83
643.36	18086.77
643.713	18057.84
644.066	18139.2
644.419	17877.74
644.771	17950.5
645.124	17731.07
645.477	17750.06
645.83	17531.3
646.182	17577.18
646.535	17470.74
646.888	17548.71
647.24	17448.37
647.593	17553.45
647.945	17483.17
648.298	17416.96
648.65	17387.35
649.002	17341.25
649.355	17323.63
649.707	17326.34
650.059	17509.84
650.411	17700.34
650.763	17702.6
651.115	17828.47
651.467	17785.54
651.819	17820.11
652.171	17780.34
652.523	17765.87
652.875	17794.57
653.227	17711.19
653.578	17793.44
653.93	17737.4
654.282	17658.08
654.633	17799.32
654.985	17782.82
655.337	17774.24
655.688	17699.66
656.039	17894.23
656.391	17642.49
656.742	17723.16
657.094	17813.78
657.445	17750.73
657.796	17746.67
658.147	17748.25
658.498	17774.46
658.849	17797.74
659.2	17762.71
659.551	17812.2
659.902	17838.19
660.253	17718.87
660.604	17918.64
660.955	17747.57
661.306	17917.51
661.656	17823.27
662.007	17848.58
662.358	17685.65
662.708	17893.33
663.059	17833.44
663.409	17718.42
663.76	17817.85
664.11	17911.86
664.461	17965.87
664.811	17823.5
665.161	17946.66
665.511	17783.28
665.862	17854.23
666.212	17791.18
666.562	17870.5
666.912	17825.31
667.262	17905.98
667.612	17825.99
667.962	17796.83
668.312	17825.99
668.662	17884.29
669.011	17838.19
669.361	17716.84
669.711	17741.47
670.06	17799.09
670.41	17821.24
670.76	17757.29
671.109	17815.59
671.459	17746.21
671.808	17691.75
672.157	17735.59
672.507	17617.18
672.856	17646.33
673.205	17693.79
673.554	17793.22
673.904	17673
674.253	17696.05
674.602	17718.19
674.951	17415.38
675.3	17368.15
675.649	17604.75
675.998	17602.49
676.346	17644.97
676.695	17649.72
677.044	17478.42
677.393	17551.87
677.741	17587.8
678.09	17540.57
678.438	17470.52
678.787	17456.73
679.135	17456.5
679.484	17351.65
679.832	17392.78
680.181	17308.49
680.529	17474.36
680.877	17281.82
681.225	17266
681.573	17409.5
681.922	17286.11
682.27	17235.49
682.618	17285.66
682.966	17194.59
683.314	17261.71
683.661	17100.36
684.009	17123.63
684.357	16957.76
684.705	16964.09
685.053	17056.51
685.4	17019.91
685.748	16800.48
686.095	16881.6
686.443	16779.01
686.79	16703.53
687.138	16730.2
687.485	16787.37
687.832	16671.67
688.18	16683.87
688.527	16612.01
688.874	16644.77
689.221	16472.8
689.568	16532.46
689.915	16469.19
690.262	16455.85
690.609	16358
690.956	16336.99
691.303	16335.18
691.65	16201.85
691.997	16320.04
692.344	16068.29
692.69	16076.88
693.037	16030.78
693.383	15946.49
693.73	15969.54
694.077	15829.43
694.423	15790.33
694.769	15804.57
695.116	15717.11
695.462	15759.6
695.808	15648.87
696.155	15652.26
696.501	15482.09
696.847	15514.86
697.193	15456.56
697.539	15417.91
697.885	15273.28
698.231	15180.86
698.577	15214.08
698.923	15242.78
699.269	15111.48
699.614	15048.66
699.96	15018.83
700.306	14948.77
700.651	14910.13
700.997	14865.16
701.342	14892.73
701.688	14740.87
702.033	14704.26
702.379	14721.21
702.724	14631.04
703.069	14573.42
703.415	14448
703.76	14443.02
704.105	14463.59
704.45	14420.88
704.795	14295.91
705.14	14262.92
705.485	14250.03
705.83	14171.17
706.175	14183.82
706.52	14128.91
706.865	14098.17
707.209	14079.87
707.554	14031.28
707.899	14077.16
708.243	13964.84
708.588	13906.77
708.932	13862.47
709.277	13767.79
709.621	13838.52
709.966	13688.69
710.31	13868.8
710.654	13678.3
710.998	13660.67
711.342	13670.84
711.687	13603.5
712.031	13484.18
712.375	13500.68
712.719	13566.44
713.063	13462.94
713.407	13490.05
713.75	13413.67
714.094	13397.85
714.438	13331.64
714.782	13378.87
715.125	13296.16
715.469	13257.07
715.812	13205.09
716.156	13153.11
716.499	13311.08
716.843	13164.19
717.186	13068.82
717.53	13220.46
717.873	13086.22
718.216	13100.69
718.559	13024.98
718.902	12883.52
719.246	12977.3
719.589	12915.38
719.932	12937.53
720.275	12836.06
720.617	12868.15
720.96	12820.47
721.303	12874.48
721.646	12874.93
721.989	12757.19
722.331	12855.95
722.674	12784.08
723.016	12749.74
723.359	12772.56
723.701	12749.06
724.044	12722.84
724.386	12643.75
724.729	12751.77
725.071	12707.48
725.413	12686.69
725.755	12625.67
726.097	12586.35
726.439	12599
726.782	12600.13
727.124	12646.91
727.465	12566.46
727.807	12538.89
728.149	12550.19
728.491	12472.23
728.833	12544.54
729.175	12510.19
729.516	12528.27
729.858	12520.14
730.199	12494.37
730.541	12486.47
730.882	12579.57
731.224	12526.24
731.565	12504.09
731.906	12501.61
732.248	12427.03
732.589	12465
732.93	12427.03
733.271	12484.43
733.612	12506.13
733.953	12528.72
734.294	12418.22
734.635	12432.46
734.976	12496.63
735.317	12387.03
735.658	12423.87
735.999	12472.45
736.339	12425.45
736.68	12480.59
737.021	12408.05
737.361	12450.99
737.702	12500.7
738.042	12415.05
738.383	12465.68
738.723	12509.52
739.063	12458.67
739.404	12445.79
739.744	12482.4
740.084	12417.77
740.424	12433.81
740.764	12463.64
741.104	12489.86
741.444	12431.1
741.784	12455.73
742.124	12565.33
742.464	12529.18
742.804	12531.89
743.143	12573.92
743.483	12597.65
743.823	12508.84
744.162	12595.39
744.502	12651.88
744.841	12613.92
745.181	12802.84
745.52	12709.28
745.86	12774.82
746.199	12793.8
746.538	12854.37
746.877	12966.23
747.216	12878.55
747.556	12962.84
747.895	12980.92
748.234	12991.76
748.573	13069.5
748.911	13185.43
749.25	13266.11
749.589	13222.04
749.928	13247.35
750.267	13388.14
750.605	13460.23
750.944	13438.76
751.283	13520.79
751.621	13674.23
751.96	13732.76
752.298	13736.6
752.636	13897.28
752.975	13882.36
753.313	13924.39
753.651	14062.7
753.989	14149.92
754.327	14288
754.666	14355.34
755.004	14392.18
755.342	14596.69
755.679	14604.38
756.017	14765.95
756.355	14888.66
756.693	14923.24
757.031	14997.13
757.368	15094.98
757.706	15195.32
758.044	15338.59
758.381	15413.85
758.719	15521.41
759.056	15760.5
759.394	15807.06
759.731	15872.59
760.068	16013.15
760.405	16104.68
760.743	16174.05
761.08	16353.71
761.417	16403.88
761.754	16547.38
762.091	16660.82
762.428	16735.62
762.765	16793.92
763.102	17014.03
763.438	17009.06
763.775	17033.46
764.112	17253.35
764.449	17295.38
764.785	17396.62
765.122	17485.88
765.458	17477.52
765.795	17641.13
766.131	17704.41
766.467	17776.72
766.804	17792.77
767.14	17781.92
767.476	17943.72
767.812	17932.2
768.148	18128.13
768.485	18081.35
768.821	18145.3
769.157	18164.73
769.492	18249.48
769.828	18310.27
770.164	18274.79
770.5	18292.41
770.836	18372.64
771.171	18285.86
771.507	18447.44
771.842	18338.06
772.178	18453.31
772.513	18403.6
772.849	18425.52
773.184	18384.39
773.519	18513.43
773.855	18492.41
774.19	18550.94
774.525	18424.84
774.86	18607.43
775.195	18597.49
775.53	18536.25
775.865	18494.9
776.2	18412.19
776.535	18361.34
776.87	18457.61
777.205	18313.88
777.539	18473.2
777.874	18300.78
778.209	18277.73
778.543	18431.17
778.878	18284.96
779.212	18313.66
779.547	18254
779.881	18414.67
780.215	18179.42
780.55	18224.62
780.884	18291.28
781.218	18180.1
781.552	18230.5
781.886	18159.31
782.22	18073.66
782.554	18071.63
782.888	17947.11
783.222	17938.3
783.556	17836.61
783.889	17755.25
784.223	17724.29
784.557	17725.65
784.89	17784.41
785.224	17741.24
785.557	17656.27
785.891	17597.52
786.224	17504.41
786.558	17520.01
786.891	17404.98
787.224	17420.35
787.557	17325.89
787.891	17382.83
788.224	17317.3
788.557	17334.7
788.89	17191.2
789.223	17240.46
789.556	17151.2
789.888	17131.32
790.221	17003.86
790.554	16862.85
790.887	16883.86
791.219	16915.28
791.552	16865.11
791.884	16763.87
792.217	16753.92
792.549	16764.77
792.882	16670.76
793.214	16442.07
793.546	16541.27
793.879	16453.82
794.211	16370.88
794.543	16446.81
794.875	16308.29
795.207	16472.58
795.539	16389.41
795.871	16351.22
796.203	16262.86
796.535	16142.64
796.867	16137.67
797.198	16104
797.53	16002.31
797.862	15922.08
798.193	15967.5
798.525	15907.62
798.856	15887.28
799.188	15755.08
799.519	15718.24
799.85	15621.07
800.182	15712.37
800.513	15638.7
800.844	15476.67
801.175	15578.14
801.506	15534.52
801.837	15526.61
802.168	15441.64
802.499	15417.69
802.83	15318.71
803.161	15285.71
803.491	15282.55
803.822	15250.91
804.153	15152.61
804.483	15120.97
804.814	14966.85
805.145	15018.15
805.475	15116.68
805.805	14963.69
806.136	14969.34
806.466	15005.95
806.796	14925.5
807.126	14789.91
807.457	14747.2
807.787	14829.23
808.117	14737.25
808.447	14574.32
808.777	14716.46
809.107	14659.97
809.436	14577.48
809.766	14570.93
810.096	14464.04
810.426	14518.28
810.755	14522.34
811.085	14428.79
811.414	14440.31
811.744	14372.52
812.073	14193.54
812.403	14268.57
812.732	14155.12
813.061	14133.65
813.39	14168.46
813.719	14051.4
814.049	14116.71
814.378	14144.95
814.707	14019.98
815.036	14063.6
815.365	13930.95
815.693	13833.77
816.022	13898.41
816.351	13791.06
816.68	13706.09
817.008	13793.78
817.337	13634.01
817.665	13650.5
817.994	13704.96
818.322	13588.58
818.651	13677.39
818.979	13518.3
819.307	13679.65
819.636	13564.63
819.964	13434.46
820.292	13465.87
820.62	13454.12
820.948	13470.85
821.276	13460
821.604	13411.86
821.932	13558.08
822.259	13421.58
822.587	13483.95
822.915	13395.14
823.243	13530.51
823.57	13489.38
823.898	13452.77
824.225	13370.06
824.553	13406.22
824.88	13382.49
825.207	13536.38
825.535	13371.87
825.862	13434.24
826.189	13365.31
826.516	13462.26
826.843	13440.11
827.17	13451.86
827.497	13467.46
827.824	13458.19
828.151	13428.81
828.478	13408.25
828.805	13483.5
829.131	13363.96
829.458	13388.36
829.785	13357.4
830.111	13330.29
830.438	13412.32
830.764	13394.24
831.09	13330.29
831.417	13418.19
831.743	13397.4
832.069	13447.8
832.395	13301.59
832.722	13366.67
833.048	13320.34
833.374	13248.93
833.7	13258.2
834.026	13240.57
834.351	13283.28
834.677	13234.47
835.003	13268.59
835.329	13224.75
835.654	13227.46
835.98	13180.01
836.306	13180.68
836.631	13156.5
836.956	13115.38
837.282	13148.59
837.607	13111.31
837.932	13013.01
838.258	13108.14
838.583	13050.29
838.908	12984.31
839.233	12999.22
839.558	12969.39
839.883	12972.55
840.208	12906.12
840.533	12882.84
840.858	12887.58
841.182	12886.45
841.507	12860.01
841.832	12777.98
842.156	12741.15
842.481	12795.61
842.805	12751.77
843.13	12684.2
843.454	12662.73
843.778	12627.7
844.103	12665.67
844.427	12610.53
844.751	12584.77
845.075	12610.3
845.399	12494.15
845.723	12479.91
846.047	12432.23
846.371	12336.19
846.695	12442.4
847.019	12262.52
847.343	12181.61
847.666	12145.68
847.99	12116.98
848.313	12043.54
848.637	12025.91
848.96	11986.59
849.284	11901.62
849.607	11845.58
849.931	11836.77
850.254	11753.6
850.577	11634.74
850.9	11647.62
851.223	11562.42
851.546	11536.89
851.869	11418.24
852.192	11517.9
852.515	11468.64
852.838	11317
853.161	11430
853.483	11294.63
853.806	11208.53
854.129	11336.21
854.451	11249.21
854.774	11144.58
855.096	11130.34
855.419	11118.37
855.741	11025.03
856.063	11011.7
856.385	11008.31
856.708	10951.36
857.03	10981.42
857.352	10955.21
857.674	10831.37
857.996	10900.07
858.318	10829.33
858.64	10786.62
858.961	10795.66
859.283	10782.56
859.605	10668.89
859.926	10673.86
860.248	10646.06
860.57	10636.34
860.891	10595.22
861.212	10560.64
861.534	10530.36
861.855	10506.86
862.176	10487.42
862.498	10422.79
862.819	10466.63
863.14	10399.74
863.461	10444.94
863.782	10459.63
864.103	10401.77
864.424	10308.9
864.745	10346.86
865.065	10293.3
865.386	10262.8
865.707	10248.11
866.027	10286.07
866.348	10244.26
866.668	10231.16
866.989	10118.17
867.309	10144.15
867.63	10184.83
867.95	10135.57
868.27	10095.79
868.59	10129.92
868.91	10127.66
869.23	10029.81
869.55	10021.22
869.87	10037.04
870.19	9985.06
870.51	10018.96
870.83	9992.97
871.15	9911.17
871.469	9926.76
871.789	9920.21
872.109	9920.88
872.428	9856.7
872.748	9912.52
873.067	9879.3
873.386	9909.13
873.706	9857.83
874.025	9832.52
874.344	9825.74
874.663	9862.81
874.982	9829.81
875.301	9807.89
875.62	9735.35
875.939	9726.31
876.258	9688.57
876.577	9691.96
876.896	9728.57
877.214	9629.37
877.533	9689.48
877.852	9704.62
878.17	9736.71
878.489	9618.97
878.807	9671.4
879.125	9599.31
879.444	9596.82
879.762	9511.4
880.08	9567.45
880.398	9503.72
880.716	9547.11
881.034	9507.56
881.352	9425.75
881.67	9414.68
881.988	9435.02
882.306	9395.47
882.624	9434.57
882.941	9352.76
883.259	9328.36
883.577	9334.68
883.894	9237.96
884.212	9224.86
884.529	9248.13
884.846	9265.99
885.164	9177.17
885.481	9192.31
885.798	9185.76
886.115	9118.19
886.432	9074.35
886.75	9071.19
887.067	9055.6
887.383	9071.64
887.7	8990.29
888.017	9022.15
888.334	9026.67
888.651	8983.05
888.967	8976.95
889.284	8886.79
889.6	8842.49
889.917	8835.71
890.233	8826
890.55	8818.99
890.866	8725.43
891.182	8718.65
891.498	8734.7
891.815	8644.08
892.131	8610.41
892.447	8637.53
892.763	8544.42
893.079	8562.95
893.395	8592.56
893.71	8581.48
894.026	8555.27
894.342	8444.31
894.657	8464.65
894.973	8502.16
895.289	8395.73
895.604	8408.15
895.92	8312.34
896.235	8322.06
896.55	8319.57
896.865	8259.68
897.181	8221.27
897.496	8214.26
897.811	8158.67
898.126	8162.51
898.441	8202.28
898.756	8127.94
899.071	8049.07
899.386	8108.5
899.7	7974.95
900.015	7948.51
900.33	7895.85
900.644	7903.76
900.959	7934.95
901.273	7936.75
901.588	7846.59
901.902	7767.04
902.216	7717.78
902.531	7742.41
902.845	7722.07
903.159	7653.82
903.473	7665.58
903.787	7651.79
904.101	7566.14
904.415	7577.44
904.729	7531.57
905.042	7543.54
905.356	7502.19
905.67	7466.26
905.984	7435.98
906.297	7419.93
906.611	7376.54
906.924	7371.57
907.237	7329.99
907.551	7284.34
907.864	7279.14
908.177	7261.29
908.491	7278.47
908.804	7151.92
909.117	7170
909.43	7139.71
909.743	7161.41
910.056	7111.69
910.368	7050.9
910.681	7066.95
910.994	6984.92
911.307	7005.25
911.619	6889.55
911.932	6899.04
912.244	6892.94
912.557	6887.06
912.869	6823.11
913.181	6772.94
913.494	6769.1
913.806	6701.31
914.118	6742.21
914.43	6683.91
914.742	6706.73
915.054	6636.9
915.366	6620.63
915.678	6564.36
915.99	6560.97
916.302	6527.07
916.613	6503.57
916.925	6500.86
917.236	6424.7
917.548	6380.64
917.859	6383.58
918.171	6363.91
918.482	6334.76
918.794	6288.89
919.105	6289.57
919.416	6244.82
919.727	6256.35
920.038	6247.53
920.349	6158.27
920.66	6142.68
920.971	6135.22
921.282	6107.88
921.593	6043.47
921.903	6017.26
922.214	6029.46
922.525	5961.21
922.835	5986.52
923.146	5942.23
923.456	5913.53
923.767	5892.97
924.077	5893.19
924.387	5889.35
924.697	5766.64
925.008	5811.39
925.318	5818.17
925.628	5784.27
925.938	5738.62
926.248	5707.66
926.558	5672.41
926.867	5711.28
927.177	5653.65
927.487	5620.66
927.796	5588.12
928.106	5573.2
928.416	5556.03
928.725	5539.53
929.034	5517.61
929.344	5498.4
929.653	5461.79
929.962	5465.86
930.271	5409.59
930.581	5370.04
930.89	5415.92
931.199	5309.71
931.508	5308.35
931.817	5313.55
932.125	5292.98
932.434	5274.23
932.743	5219.99
933.051	5218.41
933.36	5162.82
933.669	5185.87
933.977	5102.25
934.286	5114.91
934.594	5045.76
934.902	5093.89
935.21	5040.11
935.519	5076.94
935.827	5037.4
936.135	5000.11
936.443	4970.96
936.751	4933.67
937.059	4942.71
937.367	4908.13
937.674	4959.88
937.982	4875.14
938.29	4875.37
938.597	4880.79
938.905	4809.15
939.213	4784.52
939.52	4778.87
939.827	4843.5
940.135	4744.3
940.442	4700
940.749	4707.91
941.056	4698.42
941.363	4608.93
941.67	4617.29
941.977	4583.85
942.284	4604.86
942.591	4555.6
942.898	4595.15
943.205	4502.49
943.511	4540.46
943.818	4509.05
944.125	4475.6
944.431	4497.3
944.738	4427.02
945.044	4431.54
945.35	4388.83
945.657	4402.38
945.963	4367.58
946.269	4323.06
946.575	4361.26
946.881	4329.17
947.187	4322.16
947.493	4313.8
947.799	4298.66
948.105	4207.36
948.41	4234.03
948.716	4182.5
949.022	4171.88
949.327	4191.54
949.633	4106.8
949.938	4147.25
950.244	4142.28
950.549	4059.57
950.854	4107.48
951.16	4080.81
951.465	4022.51
951.77	4017.08
952.075	4015.05
952.38	3970.08
952.685	3963.75
952.99	3975.5
953.294	3973.92
953.599	3942.74
953.904	3926.92
954.209	3878.1
954.513	3856.64
954.818	3913.81
955.122	3793.36
955.426	3829.74
955.731	3843.08
956.035	3794.04
956.339	3796.07
956.643	3745.45
956.948	3731.22
957.252	3722.4
957.556	3736.64
957.86	3630.43
958.163	3703.65
958.467	3654.38
958.771	3683.08
959.075	3628.17
959.378	3610.09
959.682	3577.32
959.985	3582.29
960.289	3532.58
960.592	3559.69
960.896	3565.34
961.199	3530.32
961.502	3513.82
961.805	3534.38
962.108	3466.14
962.411	3463.88
962.714	3458.45
963.017	3407.83
963.32	3443.31
963.623	3430.66
963.926	3435.18
964.228	3379.81
964.531	3354.28
964.833	3336.88
965.136	3319.93
965.438	3302.98
965.741	3323.99
966.043	3285.58
966.345	3293.26
966.648	3279.93
966.95	3265.92
967.252	3236.31
967.554	3207.16
967.856	3178.46
968.158	3205.81
968.46	3193.6
968.761	3150.44
969.063	3128.97
969.365	3126.49
969.666	3135.07
969.968	3086.03
970.269	3077
970.571	3115.86
970.872	3077
971.174	3045.58
971.475	3044
971.776	3028.18
972.077	3022.76
972.378	2968.98
972.679	2973.72
972.98	2961.29
973.281	2959.48
973.582	2931.91
973.883	2952.48
974.183	2948.41
974.484	2931.46
974.785	2871.8
975.085	2909.99
975.386	2872.48
975.686	2852.59
975.986	2847.4
976.287	2808.3
976.587	2812.82
976.887	2791.81
977.187	2785.03
977.487	2796.1
977.787	2781.41
978.087	2727.85
978.387	2783.9
978.687	2721.75
978.987	2744.57
979.286	2720.85
979.586	2720.62
979.885	2694.86
980.185	2677.46
980.484	2642.66
980.784	2631.36
981.083	2665.03
981.382	2657.57
981.682	2594.07
981.981	2590.68
982.28	2598.82
982.579	2570.34
982.878	2575.54
983.177	2590
983.475	2586.84
983.774	2535.99
984.073	2547.52
984.372	2529.89
984.67	2520.17
984.969	2500.51
985.267	2517.24
985.566	2486.95
985.864	2457.35
986.162	2471.81
986.461	2429.1
986.759	2441.76
987.057	2404.02
987.355	2376.45
987.653	2393.17
987.951	2409.67
988.249	2396.79
988.547	2378.26
988.844	2328.77
989.142	2347.97
989.44	2352.04
989.737	2340.29
990.035	2316.79
990.332	2314.98
990.63	2270.91
990.927	2283.12
991.224	2294.42
991.521	2300.29
991.819	2230.24
992.116	2250.8
992.413	2222.78
992.71	2277.02
993.006	2213.97
993.303	2178.94
993.6	2189.56
993.897	2173.06
994.193	2151.82
994.49	2159.96
994.787	2166.51
995.083	2144.36
995.379	2143.01
995.676	2146.62
995.972	2127.19
996.268	2129.68
996.565	2091.48
996.861	2087.87
997.157	2071.82
997.453	2028.89
997.749	2035.21
998.044	1997.93
998.34	2070.69
998.636	1997.7
998.932	1998.61
999.227	1996.35
999.523	2024.82
999.818	1945.5
1000.114	1955.67
1000.409	1970.13
1000.704	1934.2
1001	1943.01
1001.295	1920.42
1001.59	1927.65
1001.885	1914.54
1002.18	1907.08
1002.475	1876.8
1002.77	1863.92
1003.065	1875.45
1003.359	1860.98
1003.654	1847.42
1003.949	1849.91
1004.243	1834.09
1004.538	1821.89
1004.832	1822.79
1005.127	1811.72
1005.421	1815.56
1005.715	1768.56
1006.009	1804.94
1006.304	1753.64
1006.598	1752.96
1006.892	1728.1
1007.186	1719.52
1007.48	1752.51
1007.773	1729.46
1008.067	1698.5
1008.361	1680.2
1008.655	1708.9
1008.948	1670.93
1009.242	1643.59
1009.535	1661.21
1009.829	1670.7
1010.122	1637.03
1010.415	1604.04
1010.708	1633.42
1011.001	1611.27
1011.295	1601.55
1011.588	1599.52
1011.881	1581.22
1012.173	1580.76
1012.466	1586.19
1012.759	1590.25
1013.052	1566.53
1013.344	1533.31
1013.637	1533.53
1013.93	1535.12
1014.222	1530.14
1014.514	1499.18
1014.807	1506.64
1015.099	1490.14
1015.391	1463.25
1015.683	1471.39
1015.976	1484.72
1016.268	1486.08
1016.56	1425.06
1016.851	1428.68
1017.143	1410.6
1017.435	1426.19
1017.727	1408.79
1018.018	1400.43
1018.31	1398.4
1018.602	1379.19
1018.893	1350.94
1019.185	1357.04
1019.476	1335.57
1019.767	1368.79
1020.058	1352.75
1020.35	1341.9
1020.641	1311.39
1020.932	1323.14
1021.223	1298.29
1021.514	1300.77
1021.804	1271.39
1022.095	1300.09
1022.386	1242.24
1022.677	1251.05
1022.967	1283.6
1023.258	1254.44
1023.548	1260.32
1023.839	1236.14
1024.129	1250.38
1024.419	1205.41
1024.709	1207.21
1025	1213.09
1025.29	1211.28
1025.58	1193.2
1025.87	1173.32
1026.16	1175.58
1026.449	1170.6
1026.739	1156.37
1027.029	1155.92
1027.319	1143.03
1027.608	1140.32
1027.898	1115.47
1028.187	1129.93
1028.477	1118.4
1028.766	1128.12
1029.055	1106.65
1029.344	1097.84
1029.634	1089.03
1029.923	1046.31
1030.212	1082.25
1030.501	1048.35
1030.79	1045.41
1031.078	1063.26
1031.367	1037.73
1031.656	1042.47
1031.945	1054.22
1032.233	1032.98
1032.522	1023.04
1032.81	1000.89
1033.099	997.5
1033.387	1028.69
1033.675	970.16
1033.963	980.78
1034.251	976.26
1034.54	985.52
1034.828	956.83
1035.116	961.57
1035.403	962.7
1035.691	928.35
1035.979	956.83
1036.267	926.54
1036.554	939.2
1036.842	929.48
1037.129	919.54
1037.417	904.17
1037.704	929.71
1037.992	890.39
1038.279	890.16
1038.566	884.96
1038.853	884.96
1039.14	884.96
