Data from hue_150_FLMS001491_00028.txt Node
Date: Tue Feb 07 16:53:50 GMT 2017
User: dcchb
Spectrometer: FLMS00149
Trigger mode: 0
Integration Time (sec): 2.000000E-2
Scans to average: 10
Electric dark correction enabled: true
Nonlinearity correction enabled: false
Boxcar width: 0
XAxis mode: Wavelengths
Number of Pixels in Spectrum: 2048
>>>>>Begin Spectral Data<<<<<
341.393	-17.2
341.776	-17.2
342.16	-17.2
342.543	-48.39
342.927	-41.16
343.31	-73.25
343.693	-69.86
344.077	-73.25
344.46	-58.33
344.843	-65.34
345.226	-23.76
345.61	-38.22
345.993	-24.66
346.376	-7.71
346.759	4.49
347.142	38.16
347.525	46.75
347.908	55.11
348.291	85.17
348.674	98.05
349.057	106.64
349.44	123.36
349.823	138.95
350.206	148.44
350.588	211.04
350.971	220.98
351.354	225.73
351.737	220.08
352.119	258.27
352.502	255.33
352.884	277.93
353.267	279.74
353.65	280.87
354.032	303.01
354.414	285.61
354.797	310.25
355.179	319.29
355.562	299.17
355.944	323.35
356.326	346.63
356.709	327.65
357.091	348.66
357.473	338.49
357.855	326.97
358.238	337.82
358.62	309.79
359.002	324.93
359.384	334.65
359.766	346.63
360.148	324.93
360.53	351.37
360.912	333.75
361.294	343.92
361.676	330.13
362.057	319.29
362.439	336.01
362.821	319.96
363.203	324.48
363.584	318.16
363.966	310.92
364.348	335.33
364.729	352.28
365.111	313.64
365.493	315.9
365.874	333.07
366.256	318.38
366.637	337.59
367.019	313.41
367.4	299.85
367.781	306.86
368.163	314.77
368.544	321.77
368.925	298.27
369.306	331.49
369.688	325.39
370.069	320.42
370.45	313.18
370.831	316.12
371.212	323.81
371.593	307.08
371.974	329.23
372.355	302.34
372.736	316.35
373.117	330.13
373.498	298.72
373.879	325.39
374.26	336.46
374.641	306.18
375.021	325.39
375.402	321.09
375.783	309.12
376.163	322.68
376.544	336.69
376.925	331.04
377.305	300.08
377.686	316.35
378.066	301.88
378.447	319.51
378.827	338.72
379.208	332.39
379.588	338.72
379.968	326.97
380.349	357.48
380.729	329.68
381.109	347.31
381.489	325.39
381.87	366.97
382.25	331.26
382.63	339.85
383.01	349.57
383.39	334.43
383.77	364.71
384.15	344.14
384.53	346.18
384.91	336.01
385.29	351.83
385.67	356.12
386.049	354.76
386.429	358.15
386.809	337.59
387.189	346.86
387.568	361.77
387.948	346.86
388.328	358.38
388.707	357.25
389.087	364.71
389.466	359.28
389.846	363.35
390.225	360.41
390.605	354.99
390.984	376.46
391.363	366.29
391.743	368.32
392.122	397.7
392.501	388.21
392.881	379.17
393.26	380.75
393.639	390.92
394.018	393.63
394.397	410.13
394.776	386.85
395.155	383.69
395.534	396.57
395.913	392.73
396.292	410.58
396.671	397.02
397.05	395.44
397.429	396.57
397.808	384.59
398.186	396.12
398.565	405.16
398.944	399.74
399.323	403.58
399.701	399.06
400.08	426.4
400.458	404.48
400.837	422.79
401.215	407.64
401.594	431.82
401.972	407.19
402.351	418.94
402.729	410.36
403.107	417.59
403.486	427.08
403.864	433.86
404.242	455.1
404.62	433.18
404.999	436.12
405.377	452.39
405.755	436.57
406.133	432.28
406.511	431.37
406.889	457.81
407.267	450.36
407.645	460.3
408.023	460.75
408.401	450.58
408.779	456.91
409.156	455.78
409.534	462.11
409.912	467.98
410.29	496
410.667	485.38
411.045	458.49
411.422	485.38
411.8	474.08
412.178	505.72
412.555	484.48
412.933	495.55
413.31	510.69
413.687	508.88
414.065	524.93
414.442	524.48
414.819	509.11
415.197	503.46
415.574	535.1
415.951	529.22
416.328	536.68
416.705	535.32
417.082	540.75
417.46	543.69
417.837	539.84
418.214	531.26
418.591	555.89
418.967	546.62
419.344	544.14
419.721	537.13
420.098	554.99
420.475	580.52
420.852	588.43
421.228	582.78
421.605	565.83
421.982	569.9
422.358	574.87
422.735	587.3
423.111	597.24
423.488	604.02
423.864	600.41
424.241	627.07
424.617	626.17
424.994	646.06
425.37	594.53
425.746	644.25
426.123	624.14
426.499	652.61
426.875	648.54
427.251	654.42
427.627	660.07
428.003	669.56
428.379	664.59
428.756	649.67
429.132	687.19
429.507	685.38
429.883	668.65
430.259	697.35
430.635	684.93
431.011	704.36
431.387	713.85
431.763	719.73
432.138	718.14
432.514	756.11
432.89	729.9
433.265	733.96
433.641	743.91
434.016	759.27
434.392	761.31
434.767	787.07
435.143	785.71
435.518	780.52
435.894	784.81
436.269	800.18
436.644	808.31
437.02	810.35
437.395	819.84
437.77	820.74
438.145	837.46
438.52	825.49
438.895	846.96
439.271	839.27
439.646	874.3
440.021	871.81
440.395	863.9
440.77	867.07
441.145	884.24
441.52	883.11
441.895	907.52
442.27	914.75
442.645	905.48
443.019	928.53
443.394	929.89
443.769	919.5
444.143	915.2
444.518	954.07
444.892	929.44
445.267	960.62
445.641	941.19
446.016	953.84
446.39	955.43
446.764	967.4
447.139	984.35
447.513	992.49
447.887	1010.57
448.262	1007.85
448.636	1014.41
449.01	1001.53
449.384	1008.08
449.758	1004.47
450.132	1025.26
450.506	1055.99
450.88	1038.81
451.254	1046.05
451.628	1062.77
452.002	1083.33
452.376	1096.21
452.75	1131.02
453.123	1110
453.497	1126.5
453.871	1099.83
454.244	1178.7
454.618	1175.76
454.992	1160.17
455.365	1154.07
455.739	1212.6
456.112	1229.54
456.486	1229.77
456.859	1219.6
457.232	1247.85
457.606	1247.17
457.979	1271.35
458.352	1296.43
458.725	1310.67
459.099	1348.18
459.472	1335.53
459.845	1339.6
460.218	1366.04
460.591	1380.73
460.964	1389.31
461.337	1405.58
461.71	1430.44
462.083	1448.52
462.456	1468.86
462.829	1488.75
463.201	1491.23
463.574	1508.86
463.947	1510.67
464.32	1585.24
464.692	1594.28
465.065	1615.97
465.438	1648.97
465.81	1644.45
466.183	1679.7
466.555	1702.75
466.928	1725.35
467.3	1711.11
467.672	1764.67
468.045	1823.65
468.417	1818.46
468.789	1841.28
469.161	1908.17
469.534	1884.89
469.906	1954.27
470.278	1995.4
470.65	1966.02
471.022	2042.86
471.394	2068.39
471.766	2116.3
472.138	2145.23
472.51	2202.85
472.882	2232.23
473.253	2273.36
473.625	2307.26
473.997	2385.45
474.369	2389.51
474.74	2441.94
475.112	2521.04
475.484	2543.41
475.855	2617.3
476.227	2662.27
476.598	2747.7
476.97	2801.03
477.341	2857.3
477.713	2957.18
478.084	2995.15
478.455	3117.63
478.827	3140
479.198	3243.73
479.569	3293.22
479.94	3415.25
480.311	3463.16
480.682	3606.43
481.053	3692.3
481.424	3769.59
481.795	3823.15
482.166	3953.77
482.537	4085.74
482.908	4153.53
483.279	4262.46
483.65	4352.63
484.021	4540.42
484.391	4556.46
484.762	4620.42
485.133	4786.51
485.503	4854.76
485.874	4999.39
486.244	5113.28
486.615	5244.58
486.985	5362.32
487.356	5529.32
487.726	5666.04
488.097	5755.75
488.467	5854.06
488.837	6028.74
489.207	6155.29
489.578	6352.35
489.948	6449.75
490.318	6614.26
490.688	6660.36
491.058	6801.15
491.428	7025.32
491.798	7110.07
492.168	7279.33
492.538	7388.48
492.908	7497.85
493.278	7654.23
493.648	7709.15
494.017	7932.64
494.387	8084.73
494.757	8181.68
495.126	8282.69
495.496	8404.04
495.866	8517.04
496.235	8657.15
496.605	8849.68
496.974	8870.47
497.344	9042.45
497.713	9116.34
498.082	9186.4
498.452	9396.11
498.821	9448.99
499.19	9604.92
499.559	9689.43
499.928	9780.96
500.298	9862.76
500.667	9989.54
501.036	10014.62
501.405	10209.19
501.774	10196.09
502.143	10335.97
502.512	10427.04
502.88	10522.41
503.249	10561.73
503.618	10658.9
503.987	10745.9
504.356	10832.46
504.724	10873.36
505.093	10979.57
505.462	10949.51
505.83	11109.28
506.199	11167.14
506.567	11362.16
506.936	11356.06
507.304	11518.76
507.672	11574.81
508.041	11581.81
508.409	11709.72
508.777	11835.59
509.145	11784.07
509.514	11814.12
509.882	11950.84
510.25	12031.29
510.618	12035.36
510.986	12096.38
511.354	12170.73
511.722	12310.61
512.09	12336.14
512.458	12299.76
512.826	12527.33
513.193	12534.78
513.561	12511.73
513.929	12546.53
514.297	12612.07
514.664	12673.99
515.032	12727.77
515.4	12916.24
515.767	12786.3
516.135	12870.37
516.502	12761.44
516.869	12972.74
517.237	13039.4
517.604	12880.54
517.972	13099.29
518.339	13145.84
518.706	13168.67
519.073	13166.63
519.44	13200.75
519.808	13346.97
520.175	13256.8
520.542	13347.19
520.909	13409.11
521.276	13343.58
521.643	13473.97
522.009	13483.23
522.376	13503.35
522.743	13535.89
523.11	13662.89
523.477	13789.44
523.843	13805.48
524.21	13835.31
524.577	13840.74
524.943	13880.96
525.31	13938.59
525.676	14054.52
526.043	14080.96
526.409	14080.73
526.776	14203.67
527.142	14172.25
527.508	14104.23
527.874	14126.83
528.241	14144.46
528.607	14176.77
528.973	14195.98
529.339	14234.63
529.705	14233.95
530.071	14363.89
530.437	14308.52
530.803	14231.46
531.169	14398.92
531.535	14298.8
531.901	14172.93
532.267	14268.75
532.632	14347.39
532.998	14406.37
533.364	14398.92
533.73	14306.04
534.095	14365.92
534.461	14298.58
534.826	14285.25
535.192	14276.21
535.557	14357.11
535.923	14236.43
536.288	14273.72
536.653	14285.47
537.019	14161.41
537.384	14225.36
537.749	14134.97
538.114	14166.15
538.479	14117.34
538.845	14208.64
539.21	14117.79
539.575	14114.63
539.94	14027.85
540.305	14118.47
540.67	14031.02
541.034	14052.71
541.399	13977.46
541.764	13983.56
542.129	13932.03
542.494	13943.11
542.858	13917.8
543.223	13893.17
543.587	13958.7
543.952	13812.49
544.316	13789.21
544.681	13784.24
545.045	13765.94
545.41	13796.67
545.774	13752.83
546.138	13662.21
546.503	13674.64
546.867	13614.98
547.231	13664.7
547.595	13644.81
547.959	13633.96
548.324	13486.85
548.688	13623.12
549.052	13520.97
549.416	13563.91
549.779	13501.54
550.143	13417.47
550.507	13540.41
550.871	13406.85
551.235	13402.11
551.599	13360.75
551.962	13402.56
552.326	13347.42
552.689	13383.12
553.053	13264.26
553.417	13301.09
553.78	13368.43
554.143	13212.51
554.507	13361.88
554.87	13244.37
555.234	13313.75
555.597	13231.26
555.96	13233.52
556.323	13224.71
556.686	13152.17
557.05	13249.79
557.413	13250.47
557.776	13287.31
558.139	13233.97
558.502	13184.26
558.865	13226.52
559.228	13233.07
559.59	13287.53
559.953	13273.97
560.316	13312.62
560.679	13257.7
561.041	13271.49
561.404	13250.92
561.767	13393.29
562.129	13223.8
562.492	13338.15
562.854	13303.8
563.217	13412.5
563.579	13278.72
563.941	13373.18
564.304	13396.23
564.666	13457.7
565.028	13408.43
565.39	13432.84
565.753	13520.07
566.115	13466.74
566.477	13485.49
566.839	13569.56
567.201	13534.53
567.563	13578.15
567.925	13596
568.287	13548.09
568.648	13586.96
569.01	13627.86
569.372	13715.54
569.734	13526.4
570.095	13706.05
570.457	13728.42
570.819	13714.87
571.18	13687.52
571.542	13728.65
571.903	13746.28
572.265	13711.7
572.626	13788.08
572.987	13773.17
573.349	13816.11
573.71	13885.26
574.071	13768.2
574.432	13883.22
574.794	13896.33
575.155	13896.56
575.516	13859.95
575.877	13954.63
576.238	13885.71
576.599	13924.8
576.96	13897.69
577.32	13877.8
577.681	13911.47
578.042	13918.7
578.403	13988.08
578.763	13965.71
579.124	14004.58
579.485	14018.81
579.845	14003.9
580.206	14082.09
580.566	13933.39
580.927	13979.49
581.287	13981.53
581.648	14062.43
582.008	14062.88
582.368	13988.98
582.728	14065.36
583.089	13997.8
583.449	14002.99
583.809	14042.09
584.169	13941.75
584.529	13947.85
584.889	14038.92
585.249	13935.65
585.609	13956.89
585.969	14003.9
586.329	13908.76
586.688	13918.25
587.048	13869.89
587.408	13851.81
587.768	13867.86
588.127	13800.06
588.487	13814.3
588.846	13901.08
589.206	13795.09
589.565	13858.82
589.925	13817.69
590.284	13857.01
590.643	13894.52
591.003	13918.7
591.362	13838.7
591.721	13879.61
592.08	13893.84
592.44	13854.52
592.799	13713.06
593.158	13758.93
593.517	13874.86
593.876	13836.67
594.235	13764.81
594.593	13820.4
594.952	13892.71
595.311	13796.22
595.67	13799.16
596.029	13859.27
596.387	13787.63
596.746	13909.44
597.104	13685.94
597.463	13693.4
597.822	13808.2
598.18	13760.97
598.538	13759.16
598.897	13774.3
599.255	13670.35
599.613	13854.07
599.972	13762.77
600.33	13867.63
600.688	13777.46
601.046	13781.98
601.404	13920.51
601.762	13795.99
602.12	13882.09
602.478	13828.99
602.836	13731.59
603.194	13800.06
603.552	13833.28
603.91	13798.48
604.268	13847.29
604.625	13781.3
604.983	13831.7
605.341	13814.52
605.698	13822.89
606.056	13842.32
606.413	13792.83
606.771	13845.94
607.128	13803.22
607.485	13778.59
607.843	13767.97
608.2	13888.19
608.557	13897.69
608.914	13818.59
609.272	13948.08
609.629	13864.47
609.986	13968.19
610.343	13941.98
610.7	14012.94
611.057	13937.46
611.414	13940.62
611.771	13856.33
612.127	14016.1
612.484	14009.55
612.841	14042.31
613.198	13920.28
613.554	14020.85
613.911	14115.08
614.267	14013.61
614.624	13969.77
614.98	14032.37
615.337	14052.71
615.693	14054.52
616.05	14080.96
616.406	14107.4
616.762	14120.28
617.118	14071.24
617.475	14080.73
617.831	14176.77
618.187	14151.24
618.543	14195.98
618.899	14258.13
619.255	14179.94
619.611	14186.94
619.967	14212.48
620.323	14257
620.678	14204.12
621.034	14166.38
621.39	14099.94
621.746	14108.53
622.101	14350.1
622.457	14179.49
622.812	14222.42
623.168	14301.74
623.523	14297.67
623.879	14210.9
624.234	14208.86
624.589	14208.19
624.945	14289.99
625.3	14231.01
625.655	14153.72
626.01	14163.67
626.365	14181.75
626.72	14129.77
627.075	14223.55
627.43	14225.13
627.785	14203.44
628.14	14177.9
628.495	14146.04
628.85	14178.58
629.205	14145.36
629.559	14219.03
629.914	14147.17
630.269	14067.4
630.623	14118.02
630.978	14141.52
631.332	14089.77
631.687	14160.73
632.041	14177.45
632.396	13986.5
632.75	13997.34
633.104	14045.25
633.459	13935.65
633.813	14011.58
634.167	13909.66
634.521	13917.35
634.875	13976.78
635.229	13965.71
635.583	13849.1
635.937	13831.92
636.291	13885.26
636.645	13786.28
636.999	13834.64
637.352	13868.31
637.706	13733.17
638.06	13839.83
638.413	13802.77
638.767	13786.95
639.121	13809.1
639.474	13706.5
639.828	13734.53
640.181	13705.15
640.534	13758.48
640.888	13717.35
641.241	13649.56
641.594	13661.31
641.947	13667.86
642.301	13644.13
642.654	13655.66
643.007	13570.69
643.36	13623.12
643.713	13598.94
644.066	13576.11
644.419	13547.64
644.771	13464.93
645.124	13325.95
645.477	13291.15
645.83	13227.87
646.182	13213.18
646.535	13197.36
646.888	13140.87
647.24	13041.44
647.593	13163.47
647.945	13149
648.298	13058.16
648.65	13021.1
649.002	13009.8
649.355	13145.84
649.707	13102.23
650.059	13155.78
650.411	13319.62
650.763	13338.38
651.115	13480.07
651.467	13397.81
651.819	13439.17
652.171	13402.11
652.523	13400.07
652.875	13385.16
653.227	13312.39
653.578	13452.95
653.93	13465.61
654.282	13325.95
654.633	13363.46
654.985	13380.41
655.337	13327.53
655.688	13355.1
656.039	13415.66
656.391	13299.96
656.742	13377.7
657.094	13332.95
657.445	13379.73
657.796	13393.07
658.147	13356.23
658.498	13361.65
658.849	13324.14
659.2	13327.98
659.551	13323.01
659.902	13330.92
660.253	13389.9
660.604	13372.95
660.955	13369.79
661.306	13348.77
661.656	13374.99
662.007	13478.94
662.358	13367.3
662.708	13358.94
663.059	13377.02
663.409	13289.34
663.76	13509.22
664.11	13430.13
664.461	13448.66
664.811	13379.96
665.161	13387.87
665.511	13290.92
665.862	13410.01
666.212	13459.96
666.562	13414.99
666.912	13322.79
667.262	13311.03
667.612	13389.9
667.962	13398.94
668.312	13342.22
668.662	13431.03
669.011	13438.26
669.361	13361.2
669.711	13273.52
670.06	13312.62
670.41	13383.35
670.76	13290.24
671.109	13355.78
671.459	13408.66
671.808	13271.26
672.157	13297.02
672.507	13258.83
672.856	13358.94
673.205	13277.81
673.554	13338.6
673.904	13209.79
674.253	13281.66
674.602	13319.85
674.951	13082.34
675.3	13050.7
675.649	13175.9
675.998	13193.75
676.346	13216.35
676.695	13294.99
677.044	12987.2
677.393	13201.66
677.741	13074.43
678.09	13093.86
678.438	12995.34
678.787	13090.48
679.135	13087.99
679.484	12977.26
679.832	12963.7
680.181	12970.7
680.529	12990.36
680.877	12972.96
681.225	12985.17
681.573	13044.15
681.922	12902.91
682.27	12836.92
682.618	12940.65
682.966	12868.79
683.314	12823.82
683.661	12803.48
684.009	12709.02
684.357	12749.24
684.705	12692.52
685.053	12682.35
685.4	12738.62
685.748	12600.77
686.095	12612.75
686.443	12578.4
686.79	12535.69
687.138	12565.52
687.485	12519.64
687.832	12530.04
688.18	12476.48
688.527	12440.1
688.874	12374.79
689.221	12381.12
689.568	12367.1
689.915	12302.47
690.262	12280.33
690.609	12265.19
690.956	12151.97
691.303	12201.46
691.65	12092.08
691.997	12111.74
692.344	12038.3
692.69	12004.63
693.037	11956.04
693.383	11864.97
693.73	11910.62
694.077	11822.26
694.423	11822.49
694.769	11814.12
695.116	11771.87
695.462	11694.35
695.808	11695.48
696.155	11664.75
696.501	11539.78
696.847	11600.12
697.193	11471.99
697.539	11473.12
697.885	11461.82
698.231	11434.47
698.577	11420.69
698.923	11323.29
699.269	11271.99
699.614	11240.81
699.96	11168.49
700.306	11212.56
700.651	11161.49
700.997	11130.75
701.342	11065.44
701.688	11064.54
702.033	11027.03
702.379	10972.56
702.724	10972.56
703.069	10926.92
703.415	10799.46
703.76	10767.6
704.105	10763.08
704.45	10771.21
704.795	10711.78
705.14	10699.58
705.485	10707.03
705.83	10665.91
706.175	10597.21
706.52	10521.95
706.865	10610.09
707.209	10490.54
707.554	10462.3
707.899	10557.66
708.243	10481.28
708.588	10362.41
708.932	10300.49
709.277	10324.9
709.621	10317.21
709.966	10302.75
710.31	10287.84
710.654	10225.01
710.998	10222.98
711.342	10145.92
711.687	10171.23
712.031	10131.91
712.375	10076.77
712.719	10081.29
713.063	10060.27
713.407	10047.39
713.75	10067.73
714.094	9986.83
714.438	10004.91
714.782	9992.03
715.125	9933.27
715.469	9933.27
715.812	9898.24
716.156	9776.89
716.499	9811.24
716.843	9890.33
717.186	9786.38
717.53	9843.78
717.873	9836.55
718.216	9824.8
718.559	9690.34
718.902	9712.26
719.246	9716.33
719.589	9727.4
719.932	9679.27
720.275	9690.11
720.617	9681.3
720.96	9700.96
721.303	9667.97
721.646	9690.34
721.989	9620.51
722.331	9610.34
722.674	9622.09
723.016	9599.49
723.359	9538.03
723.701	9574.41
724.044	9611.92
724.386	9491.47
724.729	9597.01
725.071	9566.73
725.413	9535.99
725.755	9491.25
726.097	9497.8
726.439	9421.19
726.782	9408.09
727.124	9465.94
727.465	9514.3
727.807	9458.25
728.149	9474.07
728.491	9405.37
728.833	9443.79
729.175	9374.64
729.516	9366.51
729.858	9415.54
730.199	9390.46
730.541	9343.23
730.882	9326.73
731.224	9350.46
731.565	9293.96
731.906	9325.83
732.248	9359.27
732.589	9352.49
732.93	9369.89
733.271	9332.61
733.612	9368.54
733.953	9340.29
734.294	9288.32
734.635	9305.72
734.976	9339.84
735.317	9305.49
735.658	9332.16
735.999	9287.86
736.339	9285.6
736.68	9336.22
737.021	9273.85
737.361	9285.38
737.702	9317.24
738.042	9231.14
738.383	9254.64
738.723	9308.88
739.063	9333.96
739.404	9385.94
739.744	9316.11
740.084	9332.83
740.424	9365.83
740.764	9392.72
741.104	9380.29
741.444	9388.88
741.784	9362.89
742.124	9400.85
742.464	9411.7
742.804	9432.49
743.143	9449.89
743.483	9476.33
743.823	9481.76
744.162	9489.44
744.502	9459.16
744.841	9499.16
745.181	9613.73
745.52	9564.24
745.86	9650.34
746.199	9635.65
746.538	9695.76
746.877	9758.59
747.216	9832.48
747.556	9792.93
747.895	9849.43
748.234	9892.37
748.573	9894.85
748.911	9913.84
749.25	9998.8
749.589	10104.34
749.928	10122.42
750.267	10225.24
750.605	10242.19
750.944	10309.76
751.283	10327.84
751.621	10489.87
751.96	10457.55
752.298	10578.45
752.636	10686.24
752.975	10765.56
753.313	10789.97
753.651	10894.37
753.989	10959.23
754.327	11107.7
754.666	11136.63
755.004	11281.48
755.342	11440.57
755.679	11529.84
756.017	11633.79
756.355	11768.48
756.693	11858.42
757.031	12039.2
757.368	12057.28
757.706	12284.39
758.044	12394.22
758.381	12528.68
758.719	12712.41
759.056	12909.01
759.394	12947.88
759.731	13162.34
760.068	13240.98
760.405	13284.37
760.743	13499.28
761.08	13724.58
761.417	13841.64
761.754	14027.63
762.091	14100.39
762.428	14217
762.765	14360.95
763.102	14588.97
763.438	14621.73
763.775	14791.22
764.112	14973.59
764.449	15191.44
764.785	15322.51
765.122	15363.41
765.458	15608.37
765.795	15673.23
766.131	15842.27
766.467	15946.67
766.804	16097.4
767.14	16112.32
767.476	16396.15
767.812	16403.38
768.148	16711.17
768.485	16620.55
768.821	16791.39
769.157	16872.3
769.492	16998.17
769.828	17108.9
770.164	17200.65
770.5	17240.65
770.836	17367.88
771.171	17418.72
771.507	17562
771.842	17488.1
772.178	17724.93
772.513	17861.87
772.849	17787.75
773.184	17827.3
773.519	18018.26
773.855	18096.9
774.19	18138.93
774.525	18194.07
774.86	18227.52
775.195	18377.34
775.53	18390.45
775.865	18287.17
776.2	18398.81
776.535	18382.99
776.87	18486.04
777.205	18486.49
777.539	18505.47
777.874	18561.97
778.209	18603.32
778.543	18561.52
778.878	18508.86
779.212	18641.74
779.547	18660.95
779.881	18707.05
780.215	18578.47
780.55	18698.01
780.884	18706.82
781.218	18662.98
781.552	18770.33
781.886	18755.18
782.22	18784.56
782.554	18796.99
782.888	18567.39
783.222	18597.45
783.556	18556.55
783.889	18574.17
784.223	18401.3
784.557	18508.41
784.89	18548.18
785.224	18382.77
785.557	18477.9
785.891	18491.69
786.224	18437.68
786.558	18501.18
786.891	18352.48
787.224	18344.57
787.557	18313.61
787.891	18353.84
788.224	18397
788.557	18293.28
788.89	18245.82
789.223	18334.4
789.556	18271.58
789.888	18198.82
790.221	18167.4
790.554	18119.27
790.887	18065.03
791.219	17973.74
791.552	18081.76
791.884	18070.68
792.217	18055.32
792.549	17948.43
792.882	17953.62
793.214	17787.98
793.546	17837.02
793.879	17794.53
794.211	17685.83
794.543	17773.06
794.875	17703.91
795.207	17773.52
795.539	17682.67
795.871	17649.68
796.203	17525.84
796.535	17500.3
796.867	17400.19
797.198	17451.26
797.53	17457.37
797.862	17378.5
798.193	17293.98
798.525	17295.11
798.856	17234.77
799.188	17088.11
799.519	17098.05
799.85	17030.48
800.182	17052.63
800.513	17053.31
800.844	16837.27
801.175	16933.76
801.506	16908
801.837	16867.1
802.168	16862.13
802.499	16836.14
802.83	16697.39
803.161	16646.31
803.491	16717.27
803.822	16617.16
804.153	16541.46
804.483	16465.08
804.814	16375.13
805.145	16379.65
805.475	16414
805.805	16339.43
806.136	16324.51
806.466	16386.66
806.796	16311.41
807.126	16221.01
807.457	16171.98
807.787	16211.97
808.117	16062.15
808.447	16060.11
808.777	16109.15
809.107	16015.82
809.436	15939.67
809.766	15963.39
810.096	15920.23
810.426	15912.55
810.755	15895.15
811.085	15818.54
811.414	15818.76
811.744	15700.8
812.073	15653.57
812.403	15671.42
812.732	15650.18
813.061	15610.86
813.39	15549.85
813.719	15564.99
814.049	15577.42
814.378	15547.13
814.707	15441.83
815.036	15472.11
815.365	15328.16
815.693	15277.54
816.022	15341.72
816.351	15345.78
816.68	15181.72
817.008	15269.4
817.337	15048.39
817.665	15136.3
817.994	15086.58
818.322	15116.86
818.651	14996.41
818.979	14992.12
819.307	15074.83
819.636	14990.31
819.964	14871.45
820.292	14970.2
820.62	14987.6
820.948	14852.69
821.276	14945.57
821.604	14875.51
821.932	14971.56
822.259	14946.92
822.587	14978.79
822.915	14828.28
823.243	14953.93
823.57	14776.98
823.898	14899.02
824.225	14803.65
824.553	14803.2
824.88	14867.6
825.207	14934.95
825.535	14859.92
825.862	14856.3
826.189	14850.65
826.516	14955.51
826.843	14910.54
827.17	14913.03
827.497	14977.88
827.824	14931.56
828.151	14988.73
828.478	14909.64
828.805	14922.52
829.131	14897.21
829.458	14883.2
829.785	14830.54
830.111	14747.61
830.438	14882.07
830.764	14886.13
831.09	14934.95
831.417	14787.15
831.743	14834.84
832.069	14853.59
832.395	14783.54
832.722	14815.18
833.048	14772.92
833.374	14812.92
833.7	14698.12
834.026	14821.73
834.351	14770.66
834.677	14762.3
835.003	14775.85
835.329	14830.09
835.654	14727.27
835.98	14652.69
836.306	14703.09
836.631	14668.74
836.956	14781.73
837.282	14761.17
837.607	14675.97
837.932	14540.61
838.258	14586.03
838.583	14535.63
838.908	14508.74
839.233	14521.17
839.558	14445.69
839.883	14433.26
840.208	14346.49
840.533	14351.23
840.858	14431.23
841.182	14399.59
841.507	14356.88
841.832	14416.77
842.156	14347.39
842.481	14347.84
842.805	14277.34
843.13	14174.74
843.454	14154.63
843.778	14129.54
844.103	14179.26
844.427	14077.57
844.751	14066.49
845.075	14040.05
845.399	14002.09
845.723	13849.78
846.047	13963.67
846.371	13765.26
846.695	13810.23
847.019	13684.13
847.343	13590.35
847.666	13591.93
847.99	13500.86
848.313	13457.92
848.637	13386.06
848.96	13406.62
849.284	13349.9
849.607	13265.61
849.931	13267.19
850.254	13152.62
850.577	13071.94
850.9	12965.51
851.223	12956.47
851.546	12965.73
851.869	12828.34
852.192	12974.55
852.515	12750.37
852.838	12803.93
853.161	12773.42
853.483	12653.65
853.806	12665.18
854.129	12528.68
854.451	12532.98
854.774	12438.97
855.096	12434.67
855.419	12418.18
855.741	12408.46
856.063	12274.68
856.385	12323.72
856.708	12177.05
857.03	12196.49
857.352	12256.15
857.674	12210.5
857.996	12149.48
858.318	12036.27
858.64	12077.39
858.961	12017.51
859.283	11955.36
859.605	11920.79
859.926	11910.62
860.248	11898.42
860.57	11830.62
860.891	11757.85
861.212	11760.34
861.534	11707.69
861.855	11711.98
862.176	11750.62
862.498	11705.43
862.819	11764.86
863.14	11620.01
863.461	11581.14
863.782	11597.86
864.103	11529.61
864.424	11540.69
864.745	11546.79
865.065	11549.95
865.386	11488.26
865.707	11436.28
866.027	11473.12
866.348	11399.45
866.668	11472.44
866.989	11399.67
867.309	11327.13
867.63	11324.19
867.95	11348.83
868.27	11279.9
868.59	11352.44
868.91	11157.42
869.23	11256.4
869.55	11179.79
869.87	11271.99
870.19	11214.14
870.51	11212.33
870.83	11297.53
871.15	11163.07
871.469	11161.03
871.789	11188.83
872.109	11082.62
872.428	11067.7
872.748	11150.19
873.067	11071.77
873.386	10987.93
873.706	10999.91
874.025	10925.11
874.344	10917.2
874.663	10935.28
874.982	10989.74
875.301	11010.98
875.62	10946.8
875.939	10844.21
876.258	10851.21
876.577	10849.4
876.896	10831.55
877.214	10762.4
877.533	10876.97
877.852	10798.11
878.17	10796.07
878.489	10770.08
878.807	10700.48
879.125	10702.52
879.444	10766.47
879.762	10723.08
880.08	10650.09
880.398	10601.5
880.716	10605.12
881.034	10520.15
881.352	10601.05
881.67	10610.31
881.988	10507.72
882.306	10549.07
882.624	10473.14
882.941	10434.95
883.259	10350.66
883.577	10355.63
883.894	10352.24
884.212	10389.98
884.529	10422.3
884.846	10300.72
885.164	10358.8
885.481	10256.2
885.798	10271.34
886.115	10220.27
886.432	10195.41
886.75	10156.54
887.067	10189.99
887.383	10050.78
887.7	10133.94
888.017	10010.78
888.334	10020.05
888.651	10030.22
888.967	9984.57
889.284	9960.39
889.6	9974.17
889.917	9898.02
890.233	9898.02
890.55	9844.23
890.866	9877.23
891.182	9778.25
891.498	9761.3
891.815	9750.68
892.131	9712.26
892.447	9659.6
892.763	9681.53
893.079	9593.17
893.395	9583.22
893.71	9623.67
894.026	9560.85
894.342	9545.03
894.657	9392.72
894.973	9418.26
895.289	9428.88
895.604	9441.31
895.92	9325.83
896.235	9273.4
896.55	9333.51
896.865	9247.41
897.181	9242.67
897.496	9171.48
897.811	9154.08
898.126	9159.96
898.441	9081.54
898.756	9074.99
899.071	9024.37
899.386	9018.04
899.7	8994.54
900.015	8934.2
900.33	8895.56
900.644	8858.5
900.959	8885.39
901.273	8873.64
901.588	8817.37
901.902	8760.19
902.216	8736.92
902.531	8592.97
902.845	8632.74
903.159	8627.99
903.473	8596.13
903.787	8531.05
904.101	8490.6
904.415	8469.13
904.729	8440.65
905.042	8396.14
905.356	8356.81
905.67	8376.7
905.984	8396.59
906.297	8252.18
906.611	8260.55
906.924	8233.65
907.237	8256.03
907.551	8171.51
907.864	8146.65
908.177	8091.74
908.491	8065.75
908.804	8038.63
909.117	8015.81
909.43	7971.51
909.743	7905.3
910.056	7901.68
910.368	7833.44
910.681	7827.56
910.994	7795.47
911.307	7812.2
911.619	7681.13
911.932	7742.14
912.244	7661.01
912.557	7639.77
912.869	7627.79
913.181	7564.74
913.494	7572.2
913.806	7519.55
914.118	7467.12
914.43	7392.32
914.742	7421.92
915.054	7399.33
915.366	7364.75
915.678	7339.44
915.99	7296.5
916.302	7258.76
916.613	7241.82
916.925	7220.8
917.236	7198.65
917.548	7152.78
917.859	7127.47
918.171	7066.45
918.482	7056.51
918.794	7025.78
919.105	7060.35
919.416	7007.47
919.727	6997.3
920.038	6911.43
920.349	6873.69
920.66	6861.49
920.971	6849.06
921.282	6849.51
921.593	6829.62
921.903	6723.86
922.214	6707.59
922.525	6704.2
922.835	6651.32
923.146	6602.51
923.456	6629.85
923.767	6616.52
924.077	6602.28
924.387	6539.91
924.697	6512.12
925.008	6437.54
925.318	6445
925.628	6440.48
925.938	6388.73
926.248	6369.75
926.558	6334.27
926.867	6332.69
927.177	6296.76
927.487	6260.37
927.796	6275.51
928.106	6175.85
928.416	6159.58
928.725	6174.72
929.034	6094.27
929.344	6132.92
929.653	6061.51
929.962	6042.98
930.271	6019.93
930.581	6073.48
930.89	5971.57
931.199	5915.3
931.508	5917.56
931.817	5938.57
932.125	5955.97
932.434	5873.94
932.743	5828.52
933.051	5804.34
933.36	5799.59
933.669	5781.51
933.977	5715.3
934.286	5734.74
934.594	5684.57
934.902	5664.23
935.21	5680.73
935.519	5680.73
935.827	5656.55
936.135	5542.88
936.443	5544.46
936.751	5563.44
937.059	5513.05
937.367	5466.72
937.674	5457.46
937.982	5447.29
938.29	5446.61
938.597	5439.83
938.905	5399.15
939.213	5346.05
939.52	5293.17
939.827	5341.07
940.135	5313.96
940.442	5259.04
940.749	5263.11
941.056	5266.95
941.363	5144.92
941.67	5158.25
941.977	5132.27
942.284	5076.22
942.591	5122.1
942.898	5056.11
943.205	5061.76
943.511	5010.01
943.818	5034.87
944.125	4976.11
944.431	4975.43
944.738	5008.43
945.044	4926.17
945.35	4914.64
945.657	4850.69
945.963	4859.73
946.269	4854.76
946.575	4833.52
946.881	4746.97
947.187	4773.41
947.493	4758.04
947.799	4747.42
948.105	4685.27
948.41	4724.82
948.716	4715.33
949.022	4681.43
949.327	4666.97
949.633	4676.68
949.938	4619.96
950.244	4555.33
950.549	4544.49
950.854	4546.07
951.16	4530.25
951.465	4499.97
951.77	4467.42
952.075	4513.53
952.38	4427.43
952.685	4461.78
952.99	4412.29
953.294	4406.64
953.599	4342.68
953.904	4387.65
954.209	4346.52
954.513	4351.5
954.818	4262.91
955.122	4284.83
955.426	4282.35
955.731	4227.43
956.035	4203.7
956.339	4244.15
956.643	4175.68
956.948	4142.69
957.252	4111.28
957.556	4122.12
957.86	4117.6
958.163	4101.78
958.467	4055.91
958.771	4073.99
959.075	4048
959.378	4035.35
959.682	4044.61
959.985	4019.75
960.289	4013.2
960.592	3966.65
960.896	3988.57
961.199	3944.05
961.502	3890.49
961.805	3883.94
962.108	3888.68
962.411	3891.17
962.714	3826.99
963.017	3823.83
963.32	3827.89
963.623	3793.77
963.926	3784.28
964.228	3765.97
964.531	3782.25
964.833	3734.11
965.136	3700.44
965.438	3721.23
965.741	3666.32
966.043	3647.56
966.345	3659.54
966.648	3602.36
966.95	3612.53
967.252	3588.35
967.554	3611.63
967.856	3581.8
968.158	3554
968.46	3582.93
968.761	3515.13
969.063	3528.69
969.365	3504.96
969.666	3460.9
969.968	3455.25
970.269	3477.62
970.571	3425.64
970.872	3430.39
971.174	3381.35
971.475	3335.48
971.776	3377.51
972.077	3364.4
972.378	3371.18
972.679	3384.29
972.98	3326.21
973.281	3341.58
973.582	3305.87
973.883	3283.73
974.183	3257.51
974.484	3263.16
974.785	3251.86
975.085	3236.27
975.386	3239.43
975.686	3206.22
975.986	3195.59
976.287	3202.6
976.587	3171.64
976.887	3093.45
977.187	3164.63
977.487	3119.44
977.787	3080.57
978.087	3091.64
978.387	3080.12
978.687	3069.95
978.987	3048.48
979.286	3042.15
979.586	3004.86
979.885	3001.25
980.185	2978.65
980.484	2985.2
980.784	2974.36
981.083	2979.55
981.382	2919.44
981.682	2909.27
981.981	2931.65
982.28	2883.96
982.579	2897.52
982.878	2869.73
983.177	2841.25
983.475	2864.98
983.774	2814.81
984.073	2813.23
984.372	2783.85
984.67	2764.42
984.969	2775.94
985.267	2731.88
985.566	2763.51
985.864	2741.59
986.162	2719
986.461	2736.4
986.759	2675.38
987.057	2656.4
987.355	2689.39
987.653	2644.87
987.951	2656.4
988.249	2678.77
988.547	2637.19
988.844	2603.07
989.142	2599.23
989.44	2572.11
989.737	2547.93
990.035	2571.2
990.332	2555.61
990.63	2556.29
990.927	2555.61
991.224	2531.66
991.521	2532.56
991.819	2525.56
992.116	2483.52
992.413	2447.37
992.71	2432.68
993.006	2466.8
993.303	2481.49
993.6	2430.87
993.897	2421.6
994.193	2412.34
994.49	2400.36
994.787	2390.64
995.083	2392.23
995.379	2376.41
995.676	2381.83
995.972	2374.15
996.268	2333.02
996.565	2334.83
996.861	2338.22
997.157	2338.22
997.453	2282.17
997.749	2294.6
998.044	2271.78
998.34	2253.7
998.636	2222.06
998.932	2251.89
999.227	2210.31
999.523	2199.69
999.818	2210.31
1000.114	2164.89
1000.409	2167.15
1000.704	2166.69
1001	2166.02
1001.295	2119.92
1001.59	2142.06
1001.885	2108.84
1002.18	2123.08
1002.475	2082.63
1002.77	2088.96
1003.065	2049.18
1003.359	2052.12
1003.654	2034.95
1003.949	2044.89
1004.243	2023.2
1004.538	2008.51
1004.832	1996.3
1005.127	2027.72
1005.421	1974.61
1005.715	1951.56
1006.009	1947.72
1006.304	1928.96
1006.598	1939.13
1006.892	1935.29
1007.186	1915.63
1007.48	1909.75
1007.773	1869.98
1008.067	1867.72
1008.361	1869.98
1008.655	1858
1008.948	1855.06
1009.242	1852.13
1009.535	1835.63
1009.829	1824.78
1010.122	1790.43
1010.415	1791.79
1010.708	1796.08
1011.001	1759.7
1011.295	1769.64
1011.588	1750.89
1011.881	1743.2
1012.173	1739.14
1012.466	1713.82
1012.759	1703.88
1013.052	1699.14
1013.344	1725.35
1013.637	1702.3
1013.93	1664.56
1014.222	1658.01
1014.514	1672.24
1014.807	1628.4
1015.099	1615.07
1015.391	1644.67
1015.683	1624.56
1015.976	1606.48
1016.268	1577.33
1016.56	1611
1016.851	1589.08
1017.143	1594.73
1017.435	1580.5
1017.727	1574.17
1018.018	1562.87
1018.31	1535.07
1018.602	1526.94
1018.893	1511.8
1019.185	1528.52
1019.476	1501.18
1019.767	1488.07
1020.058	1495.3
1020.35	1446.49
1020.641	1467.5
1020.932	1446.04
1021.223	1447.17
1021.514	1416.43
1021.804	1397.45
1022.095	1425.7
1022.386	1413.27
1022.677	1411.01
1022.967	1400.16
1023.258	1370.56
1023.548	1359.26
1023.839	1328.07
1024.129	1344.12
1024.419	1355.19
1024.709	1314.97
1025	1309.99
1025.29	1316.1
1025.58	1291.01
1025.87	1310.22
1026.16	1252.59
1026.449	1289.66
1026.739	1254.18
1027.029	1266.15
1027.319	1259.6
1027.608	1258.92
1027.898	1228.87
1028.187	1244.46
1028.477	1235.42
1028.766	1204.01
1029.055	1196.78
1029.344	1192.93
1029.634	1186.61
1029.923	1153.16
1030.212	1173.5
1030.501	1182.99
1030.79	1151.13
1031.078	1160.62
1031.367	1131.02
1031.656	1132.82
1031.945	1115.87
1032.233	1109.77
1032.522	1094.41
1032.81	1109.1
1033.099	1075.65
1033.387	1101.86
1033.675	1073.16
1033.963	1098.02
1034.251	1077.68
1034.54	1071.81
1034.828	1083.33
1035.116	1049.44
1035.403	1020.74
1035.691	1037.23
1035.979	1035.65
1036.267	1028.42
1036.554	1016.44
1036.842	998.36
1037.129	1008.98
1037.417	1016.22
1037.704	997.91
1037.992	961.98
1038.279	990.23
1038.566	996.56
1038.853	996.56
1039.14	996.56
