Data from hue_220_FLMS001491_00096.txt Node
Date: Tue Feb 07 16:40:12 GMT 2017
User: dcchb
Spectrometer: FLMS00149
Trigger mode: 0
Integration Time (sec): 2.000000E-2
Scans to average: 10
Electric dark correction enabled: true
Nonlinearity correction enabled: false
Boxcar width: 0
XAxis mode: Wavelengths
Number of Pixels in Spectrum: 2048
>>>>>Begin Spectral Data<<<<<
341.393	-16.19
341.776	-16.19
342.16	-16.19
342.543	-51.89
342.927	-73.13
343.31	-76.07
343.693	-49.86
344.077	-66.81
344.46	-67.71
344.843	-62.51
345.226	-32.46
345.61	-38.11
345.993	-12.12
346.376	-7.6
346.759	1.21
347.142	12.06
347.525	45.28
347.908	42.12
348.291	73.53
348.674	107.43
349.057	131.61
349.44	122.57
349.823	125.05
350.206	156.69
350.588	190.81
350.971	208.89
351.354	219.06
351.737	240.76
352.119	238.04
352.502	240.53
352.884	261.09
353.267	259.96
353.65	293.86
354.032	282.34
354.414	290.47
354.797	315.56
355.179	308.78
355.562	309.46
355.944	319.62
356.326	324.82
356.709	318.72
357.091	317.59
357.473	321.43
357.855	323.92
358.238	330.02
358.62	320.75
359.002	318.72
359.384	333.86
359.766	337.25
360.148	321.21
360.53	323.47
360.912	340.64
361.294	309.68
361.676	337.48
362.057	327.31
362.439	318.27
362.821	334.31
363.203	316.01
363.584	323.01
363.966	332.28
364.348	321.43
364.729	291.38
365.111	306.29
365.493	308.1
365.874	305.39
366.256	304.94
366.637	307.2
367.019	286.86
367.4	315.33
367.781	281.43
368.163	301.77
368.544	291.38
368.925	325.95
369.306	315.78
369.688	320.3
370.069	289.79
370.45	304.94
370.831	306.97
371.212	308.33
371.593	300.19
371.974	295.44
372.355	318.04
372.736	314.2
373.117	329.57
373.498	296.8
373.879	324.82
374.26	306.07
374.641	311.04
375.021	313.3
375.402	284.37
375.783	319.17
376.163	321.88
376.544	316.01
376.925	318.27
377.305	332.05
377.686	312.39
378.066	319.17
378.447	309.23
378.827	351.26
379.208	321.66
379.588	315.56
379.968	335.22
380.349	322.56
380.729	324.82
381.109	323.24
381.489	321.66
381.87	328.21
382.25	330.7
382.63	341.32
383.01	332.51
383.39	337.03
383.77	330.92
384.15	344.03
384.53	331.83
384.91	344.48
385.29	317.82
385.67	345.16
386.049	351.26
386.429	333.18
386.809	323.47
387.189	338.61
387.568	344.26
387.948	347.65
388.328	363.69
388.707	347.65
389.087	362.34
389.466	342.45
389.846	337.25
390.225	357.36
390.605	351.94
390.984	368.66
391.363	364.59
391.743	364.37
392.122	368.44
392.501	366.85
392.881	379.51
393.26	364.37
393.639	374.76
394.018	369.11
394.397	370.7
394.776	373.41
395.155	367.08
395.534	371.15
395.913	367.76
396.292	397.59
396.671	391.26
397.05	378.15
397.429	370.02
397.808	377.48
398.186	372.5
398.565	418.15
398.944	393.29
399.323	387.65
399.701	399.17
400.08	401.2
400.458	391.26
400.837	404.59
401.215	408.44
401.594	401.88
401.972	411.15
402.351	392.84
402.729	428.55
403.107	440.3
403.486	418.38
403.864	434.88
404.242	420.64
404.62	417.93
404.999	431.94
405.377	423.58
405.755	440.3
406.133	443.69
406.511	437.81
406.889	473.52
407.267	447.08
407.645	472.16
408.023	446.63
408.401	472.16
408.779	480.07
409.156	487.76
409.534	485.95
409.912	499.73
410.29	490.69
410.667	496.57
411.045	516.23
411.422	512.39
411.8	514.65
412.178	526.17
412.555	549
412.933	529.79
413.31	569.34
413.687	557.58
414.065	589.67
414.442	595.78
414.819	598.26
415.197	591.03
415.574	606.85
415.951	604.81
416.328	605.04
416.705	613.18
417.082	616.34
417.46	625.15
417.837	640.29
418.214	674.64
418.591	666.51
418.967	686.39
419.344	653.4
419.721	700.18
420.098	691.14
420.475	717.35
420.852	730.46
421.228	734.75
421.605	751.03
421.982	760.29
422.358	740.18
422.735	765.49
423.111	777.92
423.488	809.1
423.864	795.32
424.241	839.61
424.617	830.8
424.994	834.41
425.37	865.82
425.746	862.21
426.123	875.09
426.499	899.5
426.875	894.3
427.251	921.64
427.627	947.86
428.003	969.78
428.379	976.1
428.756	970.23
429.132	970.45
429.507	975.2
429.883	995.99
430.259	1026.95
430.635	1021.98
431.011	1036.89
431.387	1046.84
431.763	1050.68
432.138	1087.06
432.514	1094.52
432.89	1094.29
433.265	1134.29
433.641	1168.87
434.016	1169.55
434.392	1194.63
434.767	1248.19
435.143	1219.04
435.518	1233.05
435.894	1260.62
436.269	1283.21
436.644	1314.63
437.02	1328.64
437.395	1338.58
437.77	1371.8
438.145	1400.27
438.52	1411.12
438.895	1419.93
439.271	1449.31
439.646	1468.97
440.021	1483.66
440.395	1508.29
440.77	1532.93
441.145	1525.24
441.52	1564.11
441.895	1551.46
442.27	1603.88
442.645	1603.43
443.019	1640.49
443.394	1636.88
443.769	1650.21
444.143	1635.07
444.518	1661.51
444.892	1671.68
445.267	1680.72
445.641	1708.29
446.016	1730.89
446.39	1747.61
446.764	1751.23
447.139	1781.05
447.513	1808.62
447.887	1805.69
448.262	1819.7
448.636	1846.14
449.01	1836.19
449.384	1846.82
449.758	1833.03
450.132	1889.3
450.506	1893.82
450.88	1901.5
451.254	1894.27
451.628	1939.92
452.002	1957.32
452.376	1983.31
452.75	2021.05
453.123	1978.11
453.497	2032.57
453.871	2029.64
454.244	2093.14
454.618	2079.13
454.992	2120.71
455.365	2107.6
455.739	2184.43
456.112	2188.73
456.486	2203.64
456.859	2232.34
457.232	2290.42
457.606	2240.48
457.979	2287.48
458.352	2357.31
458.725	2334.49
459.099	2350.98
459.472	2396.86
459.845	2422.17
460.218	2427.37
460.591	2476.86
460.964	2453.58
461.337	2507.59
461.71	2517.98
462.083	2585.78
462.456	2592.33
462.829	2590.3
463.201	2644.31
463.574	2626.46
463.947	2647.7
464.32	2747.81
464.692	2767.7
465.065	2795.04
465.438	2825.77
465.81	2851.31
466.183	2861.93
466.555	2877.3
466.928	2957.3
467.3	2929.5
467.672	3002.72
468.045	3035.49
468.417	3029.16
468.789	3082.94
469.161	3119.78
469.534	3154.58
469.906	3150.74
470.278	3231.86
470.65	3243.16
471.022	3328.81
471.394	3380.56
471.766	3396.38
472.138	3405.64
472.51	3472.08
472.882	3505.3
473.253	3527.68
473.625	3574
473.997	3680.44
474.369	3682.7
474.74	3711.17
475.112	3804.5
475.484	3832.53
475.855	3914.78
476.227	3910.04
476.598	4004.73
476.97	4049.47
477.341	4094.21
477.713	4131.28
478.084	4132.41
478.455	4254.44
478.827	4271.61
479.198	4400.42
479.569	4405.84
479.94	4509.8
480.311	4587.99
480.682	4651.94
481.053	4708.21
481.424	4734.42
481.795	4835.89
482.166	4831.82
482.537	4921.09
482.908	4995.89
483.279	5037.92
483.65	5089.44
484.021	5156.79
484.391	5244.92
484.762	5256.9
485.133	5314.3
485.503	5377.8
485.874	5420.96
486.244	5506.61
486.615	5581.18
486.985	5644
487.356	5744.57
487.726	5727.84
488.097	5889.2
488.467	5914.05
488.837	6008.74
489.207	6047.84
489.578	6118.79
489.948	6154.5
490.318	6179.13
490.688	6214.61
491.058	6355.17
491.428	6379.58
491.798	6401.5
492.168	6560.36
492.538	6573.92
492.908	6586.8
493.278	6684.43
493.648	6650.76
494.017	6797.19
494.387	6787.02
494.757	6860.02
495.126	6920.81
495.496	6914.48
495.866	6929.85
496.235	7021.14
496.605	7053.46
496.974	7066.79
497.344	7123.51
497.713	7156.05
498.082	7182.04
498.452	7224.53
498.821	7280.8
499.19	7278.99
499.559	7383.62
499.928	7422.49
500.298	7395.14
500.667	7415.48
501.036	7363.51
501.405	7460.45
501.774	7475.59
502.143	7516.05
502.512	7503.16
502.88	7598.08
503.249	7565.31
503.618	7611.18
503.987	7613.67
504.356	7697.06
504.724	7713.1
505.093	7708.36
505.462	7699.54
505.83	7767.56
506.199	7745.42
506.567	7884.4
506.936	7907.67
507.304	7887.11
507.672	7935.7
508.041	7900.67
508.409	7942.02
508.777	7998.29
509.145	8045.3
509.514	8004.62
509.882	8068.12
510.25	8013.21
510.618	8026.31
510.986	8064.05
511.354	8082.13
511.722	8142.24
512.09	8190.83
512.458	8169.14
512.826	8183.6
513.193	8191.73
513.561	8190.83
513.929	8246.87
514.297	8269.7
514.664	8276.03
515.032	8278.29
515.4	8297.04
515.767	8257.72
516.135	8308.34
516.502	8248.68
516.869	8371.62
517.237	8355.57
517.604	8283.03
517.972	8332.75
518.339	8432.86
518.706	8326.19
519.073	8322.13
519.44	8392.41
519.808	8419.98
520.175	8386.98
520.542	8407.77
520.909	8463.37
521.276	8459.98
521.643	8417.94
522.009	8421.11
522.376	8529.35
522.743	8466.53
523.11	8567.32
523.477	8562.35
523.843	8572.74
524.21	8631.04
524.577	8636.69
524.943	8668.33
525.31	8647.77
525.676	8650.25
526.043	8610.93
526.409	8678.27
526.776	8718.27
527.142	8644.15
527.508	8757.59
527.874	8763.02
528.241	8751.27
528.607	8761.89
528.973	8749.69
529.339	8660.87
529.705	8759.4
530.071	8812.28
530.437	8758.95
530.803	8758.95
531.169	8790.59
531.535	8746.52
531.901	8752.85
532.267	8734.32
532.632	8729.12
532.998	8704.26
533.364	8743.36
533.73	8676.47
534.095	8751.04
534.461	8730.48
534.826	8767.99
535.192	8715.56
535.557	8765.28
535.923	8711.72
536.288	8662
536.653	8698.84
537.019	8588.56
537.384	8636.24
537.749	8684.38
538.114	8561.44
538.479	8642.57
538.845	8577.94
539.21	8538.62
539.575	8565.96
539.94	8557.83
540.305	8558.73
540.67	8545.62
541.034	8543.81
541.399	8449.13
541.764	8510.37
542.129	8475.57
542.494	8424.04
542.858	8484.16
543.223	8370.26
543.587	8402.58
543.952	8378.85
544.316	8317.83
544.681	8342.92
545.045	8392.86
545.41	8335.68
545.774	8316.25
546.138	8313.09
546.503	8285.52
546.867	8245.07
547.231	8307.44
547.595	8246.87
547.959	8206.2
548.324	8171.4
548.688	8174.79
549.052	8110.15
549.416	8190.38
549.779	8158.97
550.143	8109.25
550.507	8135.24
550.871	8144.05
551.235	8089.36
551.599	8050.72
551.962	8055.92
552.326	8004.39
552.689	8058.18
553.053	8037.84
553.417	8038.97
553.78	8008.01
554.143	7944.51
554.507	8031.96
554.87	7983.83
555.234	8059.31
555.597	7936.83
555.96	8008.01
556.323	8075.8
556.686	7976.6
557.05	7964.4
557.413	7947.45
557.776	7951.97
558.139	7972.76
558.502	7932.53
558.865	7925.3
559.228	7997.16
559.59	7973.66
559.953	7940.21
560.316	8004.39
560.679	7955.81
561.041	8028.35
561.404	7986.99
561.767	8001.68
562.129	7959.88
562.492	7966.65
562.854	7998.29
563.217	7985.41
563.579	8023.15
563.941	8031.74
564.304	7989.71
564.666	8073.54
565.028	8068.8
565.39	8050.95
565.753	8081
566.115	8085.52
566.477	8123.26
566.839	8116.48
567.201	8156.71
567.563	8146.31
567.925	8196.48
568.287	8092.98
568.648	8191.73
569.01	8168.01
569.372	8238.29
569.734	8184.5
570.095	8277.16
570.457	8257.04
570.819	8203.03
571.18	8206.65
571.542	8318.96
571.903	8271.51
572.265	8298.85
572.626	8380.66
572.987	8334.78
573.349	8371.62
573.71	8358.51
574.071	8343.82
574.432	8408.45
574.794	8466.98
575.155	8404.16
575.516	8389.02
575.877	8467.66
576.238	8482.57
576.599	8518.05
576.96	8504.27
577.32	8515.34
577.681	8605.51
578.042	8570.93
578.403	8533.42
578.763	8569.8
579.124	8558.5
579.485	8573.87
579.845	8569.12
580.206	8545.85
580.566	8613.87
580.927	8615.45
581.287	8679.18
581.648	8618.16
582.008	8752.4
582.368	8727.76
582.728	8754.66
583.089	8784.71
583.449	8745.17
583.809	8749.01
584.169	8766.63
584.529	8739.97
584.889	8844.6
585.249	8790.59
585.609	8773.41
585.969	8831.72
586.329	8789.01
586.688	8861.32
587.048	8805.95
587.408	8930.25
587.768	8843.92
588.127	8876.24
588.487	8864.26
588.846	8954.65
589.206	8882.56
589.565	8918.49
589.925	8969.79
590.284	8976.8
590.643	8971.15
591.003	9034.2
591.362	9026.97
591.721	8939.74
592.08	9011.37
592.44	9100.64
592.799	9024.25
593.158	9016.34
593.517	9061.54
593.876	9088.89
594.235	9073.07
594.593	9051.82
594.952	9106.29
595.311	9056.34
595.67	9139.05
596.029	9145.38
596.387	9085.95
596.746	9158.71
597.104	9146.96
597.463	9121.2
597.822	9153.97
598.18	9088.43
598.538	9202.33
598.897	9222.67
599.255	9113.97
599.613	9220.41
599.972	9164.36
600.33	9212.95
600.688	9156.45
601.046	9156.91
601.404	9235.32
601.762	9185.38
602.12	9240.75
602.478	9214.53
602.836	9254.76
603.194	9283.46
603.552	9263.57
603.91	9213.63
604.268	9289.11
604.625	9208.2
604.983	9280.97
605.341	9237.81
605.698	9224.47
606.056	9268.77
606.413	9224.47
606.771	9297.92
607.128	9283.23
607.485	9274.42
607.843	9195.32
608.2	9311.93
608.557	9406.17
608.914	9263.34
609.272	9318.94
609.629	9419.5
609.986	9380.86
610.343	9410.46
610.7	9407.52
611.057	9459.5
611.414	9405.26
611.771	9446.62
612.127	9421.98
612.484	9457.69
612.841	9396
613.198	9431.93
613.554	9454.75
613.911	9510.8
614.267	9489.33
614.624	9469.44
614.98	9451.14
615.337	9467.18
615.693	9457.92
616.05	9521.87
616.406	9536.78
616.762	9531.36
617.118	9498.37
617.475	9524.13
617.831	9548.76
618.187	9538.59
618.543	9652.49
618.899	9556.9
619.255	9547.63
619.611	9602.77
619.967	9587.18
620.323	9628.31
620.678	9571.36
621.034	9550.12
621.39	9558.93
621.746	9577.23
622.101	9657.23
622.457	9635.76
622.812	9578.59
623.168	9626.5
623.523	9636.22
623.879	9672.82
624.234	9586.27
624.589	9639.38
624.945	9594.86
625.3	9626.95
625.655	9573.39
626.01	9601.19
626.365	9603.45
626.72	9575.43
627.075	9610.23
627.43	9536.56
627.785	9541.98
628.14	9562.55
628.495	9606.39
628.85	9541.98
629.205	9521.87
629.559	9612.04
629.914	9551.02
630.269	9543.79
630.623	9544.69
630.978	9512.6
631.332	9504.02
631.687	9538.14
632.041	9491.36
632.396	9516.67
632.75	9497.46
633.104	9534.75
633.459	9482.77
633.813	9449.33
634.167	9508.08
634.521	9468.54
634.875	9424.47
635.229	9355.77
635.583	9350.8
635.937	9393.51
636.291	9388.54
636.645	9399.16
636.999	9390.12
637.352	9439.16
637.706	9317.35
638.06	9399.84
638.413	9316
638.767	9239.62
639.121	9234.19
639.474	9238.94
639.828	9253.17
640.181	9279.39
640.534	9254.53
640.888	9235.1
641.241	9228.32
641.594	9281.42
641.947	9274.42
642.301	9165.72
642.654	9251.82
643.007	9212.95
643.36	9205.04
643.713	9228.09
644.066	9157.13
644.419	9165.95
644.771	9084.82
645.124	9020.41
645.477	8949.91
645.83	8992.16
646.182	8925.27
646.535	8875.33
646.888	8861.55
647.24	8868.78
647.593	8933.64
647.945	8773.19
648.298	8853.86
648.65	8920.53
649.002	8882.11
649.355	8864.71
649.707	8827.42
650.059	8885.05
650.411	9017.93
650.763	8955.33
651.115	9088.66
651.467	9070.81
651.819	9033.29
652.171	9079.39
652.523	9089.11
652.875	9043.24
653.227	8984.26
653.578	9051.6
653.93	9083.46
654.282	9049.34
654.633	8950.36
654.985	9062.45
655.337	9121.65
655.688	9023.8
656.039	9113.52
656.391	8941.77
656.742	9043.91
657.094	9085.95
657.445	9090.92
657.796	8987.65
658.147	9073.29
658.498	9024.48
658.849	8992.62
659.2	9026.29
659.551	9043.24
659.902	9100.64
660.253	9038.27
660.604	9104.93
660.955	9032.84
661.306	9085.5
661.656	9008.21
662.007	9048.89
662.358	9053.86
662.708	9027.42
663.059	9123.46
663.409	9037.36
663.76	9113.07
664.11	9120.75
664.461	9112.39
664.811	9058.83
665.161	9107.19
665.511	9061.77
665.862	9105.83
666.212	9095.44
666.562	9187.19
666.912	9117.59
667.262	9118.72
667.612	9080.98
667.962	9075.33
668.312	9073.97
668.662	9102.22
669.011	9101.99
669.361	9121.65
669.711	9046.85
670.06	9058.38
670.41	9029.68
670.76	9068.77
671.109	9101.54
671.459	9005.27
671.808	9016.34
672.157	9045.72
672.507	8973.86
672.856	9050.24
673.205	9018.6
673.554	9049.34
673.904	9001.43
674.253	9031.03
674.602	8974.31
674.951	8816.35
675.3	8764.6
675.649	8971.83
675.998	8934.99
676.346	8930.47
676.695	8973.86
677.044	8928.89
677.393	8880.98
677.741	8989.45
678.09	8910.36
678.438	8891.83
678.787	8936.57
679.135	8939.06
679.484	8863.13
679.832	8952.84
680.181	8814.09
680.529	8867.65
680.877	8816.12
681.225	8747.43
681.573	8785.39
681.922	8716.92
682.27	8719.4
682.618	8738.16
682.966	8731.83
683.314	8683.47
683.661	8665.39
684.009	8673.75
684.357	8589.01
684.705	8639.18
685.053	8601.21
685.4	8624.72
685.748	8587.88
686.095	8573.87
686.443	8504.27
686.79	8518.05
687.138	8492.74
687.485	8488
687.832	8468.79
688.18	8439.18
688.527	8400.09
688.874	8400.99
689.221	8415.23
689.568	8363.03
689.915	8339.3
690.262	8366.64
690.609	8272.41
690.956	8251.39
691.303	8223.15
691.65	8207.1
691.997	8205.97
692.344	8104.73
692.69	8108.57
693.037	8069.48
693.383	8043.94
693.73	8080.1
694.077	7935.92
694.423	8015.92
694.769	7969.37
695.116	7941.12
695.462	7854.79
695.808	7858.64
696.155	7933.21
696.501	7807.79
696.847	7838.07
697.193	7788.35
697.539	7813.89
697.885	7673.33
698.231	7754.68
698.577	7642.14
698.923	7657.51
699.269	7615.03
699.614	7575.7
699.96	7545.65
700.306	7537.51
700.651	7474.69
700.997	7532.32
701.342	7433.11
701.688	7381.36
702.033	7408.25
702.379	7387.01
702.724	7360.57
703.069	7421.58
703.415	7287.58
703.76	7277.86
704.105	7278.99
704.45	7270.63
704.795	7235.83
705.14	7187.92
705.485	7164.42
705.83	7129.61
706.175	7144.76
706.52	7114.47
706.865	7128.94
707.209	7088.26
707.554	7032.44
707.899	7057.75
708.243	6980.47
708.588	7038.77
708.932	6966.68
709.277	6989.96
709.621	6944.76
709.966	6925.55
710.31	6932.33
710.654	6859.34
710.998	6808.04
711.342	6864.54
711.687	6780.25
712.031	6764.88
712.375	6782.28
712.719	6804.65
713.063	6741.6
713.407	6769.62
713.75	6711.55
714.094	6738.21
714.438	6723.75
714.782	6687.82
715.125	6701.6
715.469	6706.12
715.812	6680.81
716.156	6601.49
716.499	6651.44
716.843	6686.01
717.186	6598.78
717.53	6612.34
717.873	6623.41
718.216	6661.15
718.559	6561.27
718.902	6495.73
719.246	6548.16
719.589	6501.83
719.932	6484.89
720.275	6489.41
720.617	6489.18
720.96	6489.41
721.303	6492.57
721.646	6514.49
721.989	6512.68
722.331	6467.03
722.674	6435.17
723.016	6491.67
723.359	6439.01
723.701	6453.02
724.044	6468.16
724.386	6481.95
724.729	6479.46
725.071	6429.07
725.413	6441.27
725.755	6427.49
726.097	6333.48
726.439	6366.25
726.782	6314.04
727.124	6395.62
727.465	6352.01
727.807	6392.69
728.149	6371.44
728.491	6332.12
728.833	6333.03
729.175	6361.05
729.516	6320.14
729.858	6315.17
730.199	6346.36
730.541	6318.34
730.882	6348.84
731.224	6352.23
731.565	6338
731.906	6334.38
732.248	6330.99
732.589	6343.19
732.93	6292.35
733.271	6258.45
733.612	6345
733.953	6319.01
734.294	6309.52
734.635	6290.31
734.976	6348.17
735.317	6306.36
735.658	6314.72
735.999	6368.28
736.339	6296.42
736.68	6370.09
737.021	6359.01
737.361	6335.06
737.702	6377.09
738.042	6342.06
738.383	6424.1
738.723	6317.21
739.063	6315.62
739.404	6417.54
739.744	6395.4
740.084	6367.15
740.424	6378.67
740.764	6365.34
741.104	6430.65
741.444	6359.24
741.784	6462.29
742.124	6471.78
742.464	6479.69
742.804	6462.74
743.143	6462.29
743.483	6524.88
743.823	6500.7
744.162	6578.22
744.502	6554.71
744.841	6573.7
745.181	6585
745.52	6600.82
745.86	6672.45
746.199	6717.42
746.538	6732.34
746.877	6808.27
747.216	6867.25
747.556	6820.24
747.895	6916.06
748.234	6937.53
748.573	6909.96
748.911	6987.02
749.25	7059.56
749.589	7102.27
749.928	7226.34
750.267	7263.17
750.605	7259.1
750.944	7332.77
751.283	7444.41
751.621	7474.01
751.96	7610.73
752.298	7631.75
752.636	7724.63
752.975	7836.71
753.313	7822.03
753.651	8006.2
753.989	8083.49
754.327	8148.8
754.666	8258.17
755.004	8385.18
755.342	8452.07
755.679	8628.33
756.017	8654.55
756.355	8885.27
756.693	8961.21
757.031	9095.66
757.368	9233.97
757.706	9319.39
758.044	9509.44
758.381	9660.17
758.719	9770.22
759.056	9897.45
759.394	9992.14
759.731	10142.42
760.068	10318.23
760.405	10433.26
760.743	10558.45
761.08	10793.02
761.417	10953.02
761.754	11117.08
762.091	11279.11
762.428	11428.71
762.765	11606.11
763.102	11714.58
763.438	11884.97
763.775	12044.29
764.112	12216.94
764.449	12400.21
764.785	12572.18
765.122	12664.84
765.458	12877.26
765.795	13008.56
766.131	13177.37
766.467	13333.29
766.804	13475.21
767.14	13516.79
767.476	13671.14
767.812	13841.08
768.148	14024.35
768.485	14056.44
768.821	14311.57
769.157	14295.3
769.492	14437.9
769.828	14707.72
770.164	14641.96
770.5	14814.84
770.836	14964.89
771.171	14948.17
771.507	15164.66
771.842	15163.08
772.178	15349.74
772.513	15522.39
772.849	15558.32
773.184	15646
773.519	15727.58
773.855	15770.97
774.19	15829.5
774.525	15984.3
774.86	16132.32
775.195	16125.54
775.53	16221.13
775.865	16152.2
776.2	16237.4
776.535	16193.78
776.87	16415.47
777.205	16431.52
777.539	16363.5
777.874	16503.61
778.209	16506.32
778.543	16583.83
778.878	16548.35
779.212	16596.48
779.547	16601.91
779.881	16732.07
780.215	16684.17
780.55	16775.91
780.884	16727.33
781.218	16790.38
781.552	16813.65
781.886	16742.24
782.22	16838.74
782.554	16781.56
782.888	16688.91
783.222	16707.44
783.556	16793.09
783.889	16746.99
784.223	16724.84
784.557	16803.03
784.89	16761.45
785.224	16766.2
785.557	16698.63
785.891	16718.06
786.224	16755.35
786.558	16756.03
786.891	16680.78
787.224	16579.76
787.557	16714.22
787.891	16734.56
788.224	16680.1
788.557	16682.58
788.89	16668.8
789.223	16681.23
789.556	16657.27
789.888	16568.24
790.221	16540.21
790.554	16392.65
790.887	16485.3
791.219	16412.08
791.552	16384.96
791.884	16444.85
792.217	16448.92
792.549	16352.42
792.882	16245.53
793.214	16253.67
793.546	16362.59
793.879	16304.74
794.211	16162.6
794.543	16234.01
794.875	16244.4
795.207	16264.52
795.539	16128.02
795.871	16161.47
796.203	16041.92
796.535	15972.77
796.867	15909.27
797.198	15972.77
797.53	15950.85
797.862	15846.22
798.193	15888.25
798.525	15893.23
798.856	15942.72
799.188	15706.56
799.519	15631.99
799.85	15586.12
800.182	15723.06
800.513	15634.02
800.844	15533.91
801.175	15654.36
801.506	15592.67
801.837	15512.67
802.168	15389.28
802.499	15473.35
802.83	15352.22
803.161	15304.77
803.491	15399.23
803.822	15354.94
804.153	15302.28
804.483	15179.8
804.814	15109.97
805.145	15195.39
805.475	15101.61
805.805	15038.11
806.136	15080.59
806.466	15126.92
806.796	15058.67
807.126	14952.91
807.457	14931.9
807.787	14969.41
808.117	14892.57
808.447	14900.48
808.777	14845.57
809.107	14746.36
809.436	14734.84
809.766	14688.96
810.096	14718.34
810.426	14658.23
810.755	14625.69
811.085	14683.54
811.414	14619.14
811.744	14632.24
812.073	14475.18
812.403	14522.41
812.732	14383.44
813.061	14487.84
813.39	14333.27
813.719	14326.04
814.049	14389.99
814.378	14331.23
814.707	14333.04
815.036	14243.1
815.365	14229.09
815.693	14168.53
816.022	14158.36
816.351	14142.76
816.68	14056.44
817.008	14070
817.337	13912.04
817.665	13913.62
817.994	14011.02
818.322	13967.18
818.651	13913.62
818.979	13834.52
819.307	13978.02
819.636	13868.19
819.964	13796.11
820.292	13871.36
820.62	13798.37
820.948	13777.8
821.276	13861.64
821.604	13843.11
821.932	13800.63
822.259	13836.56
822.587	13777.8
822.915	13803.56
823.243	13857.12
823.57	13816.67
823.898	13795.43
824.225	13748.2
824.553	13787.97
824.88	13774.19
825.207	13763.11
825.535	13818.03
825.862	13912.04
826.189	13855.31
826.516	13876.33
826.843	13831.36
827.17	13788.65
827.497	13824.81
827.824	13826.84
828.151	13869.32
828.478	13797.46
828.805	13875.43
829.131	13817.35
829.458	13824.13
829.785	13812.83
830.111	13892.37
830.438	13881.53
830.764	13799.5
831.09	13893.96
831.417	13763.79
831.743	13880.17
832.069	13828.42
832.395	13778.25
832.722	13828.2
833.048	13739.38
833.374	13817.57
833.7	13730.8
834.026	13743.68
834.351	13722.89
834.677	13755.2
835.003	13740.29
835.329	13681.31
835.654	13726.5
835.98	13648.77
836.306	13673.4
836.631	13575.77
836.956	13678.14
837.282	13710.01
837.607	13496.68
837.932	13563.8
838.258	13603.12
838.583	13576.9
838.908	13541.2
839.233	13512.5
839.558	13536.45
839.883	13441.09
840.208	13399.05
840.533	13395.44
840.858	13375.78
841.182	13354.99
841.507	13410.13
841.832	13274.31
842.156	13260.08
842.481	13282.9
842.805	13265.95
843.13	13187.76
843.454	13164.71
843.778	13114.54
844.103	13045.17
844.427	13047.43
844.751	13035.67
845.075	13047.88
845.399	13033.64
845.723	12840.65
846.047	13009.46
846.371	12877.26
846.695	12839.3
847.019	12738.05
847.343	12722.01
847.666	12668.23
847.99	12572.64
848.313	12642.24
848.637	12543.26
848.96	12512.98
849.284	12432.3
849.607	12341.68
849.931	12380.55
850.254	12264.62
850.577	12181.69
850.9	12115.02
851.223	12164.51
851.546	12066.89
851.869	11960.22
852.192	12037.73
852.515	11920.9
852.838	11898.3
853.161	11929.71
853.483	11801.81
853.806	11720.45
854.129	11711.64
854.451	11644.3
854.774	11596.84
855.096	11538.76
855.419	11544.87
855.741	11496.51
856.063	11489.5
856.385	11465.32
856.708	11405.43
857.03	11369.28
857.352	11382.84
857.674	11300.58
857.996	11308.04
858.318	11221.71
858.64	11271.65
858.961	11242.95
859.283	11121.83
859.605	11139.68
859.926	11146.01
860.248	11095.84
860.57	11030.08
860.891	11078.89
861.212	10980.36
861.534	11040.02
861.855	10956.41
862.176	10981.26
862.498	10963.86
862.819	10901.94
863.14	10868.95
863.461	10864.88
863.782	10796.41
864.103	10893.81
864.424	10826.69
864.745	10764.55
865.065	10761.61
865.386	10716.87
865.707	10703.08
866.027	10773.13
866.348	10701.27
866.668	10686.81
866.989	10635.96
867.309	10524.78
867.63	10553.71
867.95	10589.41
868.27	10520.71
868.59	10499.24
868.91	10529.98
869.23	10526.81
869.55	10435.74
869.87	10512.58
870.19	10508.06
870.51	10457.66
870.83	10435.74
871.15	10403.43
871.469	10398.23
871.789	10450.66
872.109	10416.31
872.428	10388.96
872.748	10355.97
873.067	10359.81
873.386	10330.89
873.706	10260.61
874.025	10281.17
874.344	10261.74
874.663	10198.46
874.982	10167.05
875.301	10181.06
875.62	10212.92
875.939	10113.04
876.258	10172.25
876.577	10159.14
876.896	10115.75
877.214	10055.19
877.533	10054.28
877.852	10045.02
878.17	10061.06
878.489	10003.21
878.807	10030.56
879.125	9929.09
879.444	9914.17
879.762	9924.57
880.08	9963.66
880.398	9914.63
880.716	9903.55
881.034	9952.82
881.352	9830.79
881.67	9833.27
881.988	9864.91
882.306	9823.33
882.624	9798.7
882.941	9726.16
883.259	9748.75
883.577	9725.03
883.894	9723.67
884.212	9685.25
884.529	9710.56
884.846	9594.18
885.164	9668.08
885.481	9565.93
885.798	9581.3
886.115	9457.92
886.432	9529.78
886.75	9499.72
887.067	9510.12
887.383	9478.25
887.7	9430.57
888.017	9409.1
888.334	9454.98
888.651	9388.99
888.967	9393.96
889.284	9353.29
889.6	9362.78
889.917	9172.27
890.233	9200.75
890.55	9189
890.866	9151.71
891.182	9093.4
891.498	9120.3
891.815	9113.74
892.131	9076
892.447	9052.95
892.763	9027.87
893.079	9012.28
893.395	8970.24
893.71	8973.18
894.026	8901.77
894.342	8899.74
894.657	8805.73
894.973	8803.24
895.289	8807.31
895.604	8751.95
895.92	8739.52
896.235	8652.96
896.55	8676.92
896.865	8682.57
897.181	8565.51
897.496	8585.4
897.811	8552.85
898.126	8557.37
898.441	8518.73
898.756	8493.87
899.071	8424.04
899.386	8442.8
899.7	8378.17
900.015	8392.63
900.33	8281.45
900.644	8261.11
900.959	8326.87
901.273	8293.65
901.588	8202.58
901.902	8124.62
902.216	8081.91
902.531	8104.28
902.845	8039.65
903.159	8026.77
903.473	7992.64
903.787	7912.65
904.101	7888.92
904.415	7876.26
904.729	7921.68
905.042	7922.59
905.356	7828.35
905.67	7811.63
905.984	7774.8
906.297	7725.98
906.611	7691.18
906.924	7667.45
907.237	7704.29
907.551	7646.44
907.864	7616.38
908.177	7580.45
908.491	7529.15
908.804	7423.39
909.117	7449.15
909.43	7407.12
909.743	7344.07
910.056	7354.47
910.368	7314.24
910.681	7324.64
910.994	7285.32
911.307	7271.98
911.619	7186.34
911.932	7154.47
912.244	7136.17
912.557	7141.82
912.869	7050.75
913.181	7092.1
913.494	7027.02
913.806	6994.93
914.118	6976.62
914.43	6963.07
914.742	6943.18
915.054	6890.3
915.366	6899.56
915.678	6821.6
915.99	6839.45
916.302	6753.81
916.613	6756.29
916.925	6731.43
917.236	6735.05
917.548	6665.67
917.859	6692.34
918.171	6669.06
918.482	6552.68
918.794	6575.96
919.105	6558.33
919.416	6519.46
919.727	6501.38
920.038	6489.18
920.349	6441.05
920.66	6361.27
920.971	6428.16
921.282	6406.02
921.593	6382.52
921.903	6338.45
922.214	6300.26
922.525	6295.06
922.835	6210.32
923.146	6238.79
923.456	6219.36
923.767	6160.83
924.077	6206.25
924.387	6122.64
924.697	6074.73
925.008	6121.05
925.318	6080.83
925.628	5999.7
925.938	5992.24
926.248	5939.14
926.558	5899.14
926.867	5925.35
927.177	5873.6
927.487	5847.16
927.796	5811.91
928.106	5844.22
928.416	5825.47
928.725	5810.33
929.034	5741.85
929.344	5717.67
929.653	5721.74
929.962	5642.87
930.271	5634.96
930.581	5639.48
930.89	5641.97
931.199	5594.06
931.508	5534.18
931.817	5555.42
932.125	5566.27
932.434	5523.56
932.743	5469.32
933.051	5421.19
933.36	5405.37
933.669	5435.42
933.977	5398.36
934.286	5457.12
934.594	5325.14
934.902	5326.5
935.21	5288.99
935.519	5300.51
935.827	5222.32
936.135	5217.35
936.443	5175.99
936.751	5165.15
937.059	5180.51
937.367	5181.42
937.674	5122.66
937.982	5128.76
938.29	5082.89
938.597	5088.54
938.905	4966.96
939.213	4953.4
939.52	4993.63
939.827	4977.58
940.135	4958.37
940.442	4938.26
940.749	4933.06
941.056	4904.14
941.363	4898.94
941.67	4895.78
941.977	4803.12
942.284	4773.52
942.591	4802.9
942.898	4773.07
943.205	4752.28
943.511	4724.71
943.818	4746.4
944.125	4703.69
944.431	4685.61
944.738	4674.99
945.044	4676.12
945.35	4617.14
945.657	4560.87
945.963	4520.42
946.269	4551.38
946.575	4536.24
946.881	4497.14
947.187	4521.32
947.493	4480.64
947.799	4437.03
948.105	4418.95
948.41	4397.94
948.716	4405.62
949.022	4364.04
949.327	4384.38
949.633	4316.58
949.938	4333.08
950.244	4331.27
950.549	4274.32
950.854	4279.07
951.16	4249.24
951.465	4208.79
951.77	4229.13
952.075	4211.27
952.38	4181.9
952.685	4124.04
952.99	4122.24
953.294	4129.02
953.599	4112.29
953.904	4049.47
954.209	4090.82
954.513	4083.14
954.818	4022.8
955.122	4073.2
955.426	3992.97
955.731	4005.63
956.035	3947.1
956.339	3971.05
956.643	3948.23
956.948	3879.98
957.252	3904.84
957.556	3912.98
957.86	3845.18
958.163	3888.34
958.467	3844.73
958.771	3820.1
959.075	3815.35
959.378	3756.14
959.682	3751.85
959.985	3750.04
960.289	3753.21
960.592	3717.05
960.896	3701.91
961.199	3695.13
961.502	3696.71
961.805	3647.45
962.108	3661.68
962.411	3629.37
962.714	3596.83
963.017	3598.86
963.32	3597.28
963.623	3571.29
963.926	3583.04
964.228	3548.01
964.531	3509.15
964.833	3501.69
965.136	3487.9
965.438	3492.65
965.741	3440.22
966.043	3462.59
966.345	3441.8
966.648	3420.79
966.95	3388.7
967.252	3396.61
967.554	3370.62
967.856	3320
968.158	3328.81
968.46	3317.74
968.761	3328.81
969.063	3303.5
969.365	3282.71
969.666	3286.78
969.968	3218.53
970.269	3252.65
970.571	3220.34
970.872	3220.79
971.174	3186.22
971.475	3200
971.776	3179.66
972.077	3158.19
972.378	3138.99
972.679	3132.66
972.98	3127.01
973.281	3090.62
973.582	3098.53
973.883	3089.27
974.183	3058.08
974.484	3043.17
974.785	3004.3
975.085	3012.43
975.386	3028.48
975.686	3024.19
975.986	2985.09
976.287	3039.1
976.587	2961.36
976.887	2962.49
977.187	2913
977.487	2944.64
977.787	2901.25
978.087	2891.76
978.387	2905.32
978.687	2893.57
978.987	2868.26
979.286	2826.23
979.586	2875.04
979.885	2876.39
980.185	2797.98
980.484	2792.55
980.784	2766.11
981.083	2773.12
981.382	2772.44
981.682	2735.83
981.981	2736.51
982.28	2720.47
982.579	2695.83
982.878	2727.47
983.177	2687.47
983.475	2668.04
983.774	2651.77
984.073	2646.34
984.372	2660.58
984.67	2644.53
984.969	2629.62
985.267	2642.28
985.566	2597.98
985.864	2629.62
986.162	2584.88
986.461	2546.46
986.759	2510.98
987.057	2528.15
987.355	2523.86
987.653	2467.82
987.951	2492.45
988.249	2474.6
988.547	2452
988.844	2461.94
989.142	2475.27
989.44	2410.87
989.737	2436.18
990.035	2420.59
990.332	2435.05
990.63	2423.98
990.927	2411.09
991.224	2370.19
991.521	2355.73
991.819	2335.16
992.116	2354.83
992.413	2334.49
992.71	2339.46
993.006	2317.31
993.303	2313.47
993.6	2288.61
993.897	2262.17
994.193	2261.04
994.49	2249.07
994.787	2250.87
995.083	2206.13
995.379	2235.28
995.676	2219.91
995.972	2187.15
996.268	2170.42
996.565	2162.29
996.861	2189.18
997.157	2181.27
997.453	2173.13
997.749	2154.83
998.044	2118.45
998.34	2117.09
998.636	2100.82
998.932	2108.96
999.227	2083.87
999.523	2087.26
999.818	2062.18
1000.114	2039.58
1000.409	2034.38
1000.704	2036.19
1001	2018.79
1001.295	1977.43
1001.59	1979.92
1001.885	1999.35
1002.18	1974.04
1002.475	1956.64
1002.77	1971.78
1003.065	1974.95
1003.359	1932.01
1003.654	1956.19
1003.949	1904.67
1004.243	1923.65
1004.538	1882.52
1004.832	1880.71
1005.127	1903.99
1005.421	1900.6
1005.715	1871.45
1006.009	1855.86
1006.304	1828.96
1006.598	1802.52
1006.892	1815.18
1007.186	1799.13
1007.48	1821.51
1007.773	1771.34
1008.067	1787.38
1008.361	1742.41
1008.655	1765.24
1008.948	1749.87
1009.242	1730.21
1009.535	1714.39
1009.829	1707.84
1010.122	1699.25
1010.415	1688.4
1010.708	1686.14
1011.001	1680.94
1011.295	1649.31
1011.588	1648.18
1011.881	1641.62
1012.173	1625.58
1012.466	1638.69
1012.759	1631.91
1013.052	1606.6
1013.344	1588.29
1013.637	1567.95
1013.93	1571.12
1014.222	1587.84
1014.514	1548.52
1014.807	1529.54
1015.099	1543.32
1015.391	1539.93
1015.683	1530.89
1015.976	1528.41
1016.268	1521.4
1016.56	1482.76
1016.851	1504.45
1017.143	1478.92
1017.435	1463.32
1017.727	1447.96
1018.018	1485.7
1018.31	1434.62
1018.602	1430.78
1018.893	1413.83
1019.185	1410.44
1019.476	1415.19
1019.767	1410.44
1020.058	1395.53
1020.35	1356.21
1020.641	1376.77
1020.932	1364.57
1021.223	1363.21
1021.514	1344.46
1021.804	1294.06
1022.095	1317.11
1022.386	1337
1022.677	1324.34
1022.967	1308.3
1023.258	1290.9
1023.548	1284.57
1023.839	1266.49
1024.129	1255.64
1024.419	1259.26
1024.709	1244.57
1025	1252.93
1025.29	1233.5
1025.58	1220.17
1025.87	1230.56
1026.16	1245.48
1026.449	1222.2
1026.739	1191.24
1027.029	1210.22
1027.319	1179.04
1027.608	1199.83
1027.898	1177.68
1028.187	1163.44
1028.477	1141.3
1028.766	1159.6
1029.055	1155.31
1029.344	1152.82
1029.634	1117.8
1029.923	1111.02
1030.212	1101.75
1030.501	1095.65
1030.79	1088.87
1031.078	1080.96
1031.367	1082.99
1031.656	1099.72
1031.945	1056.33
1032.233	1066.5
1032.522	1047.51
1032.81	1038.02
1033.099	1028.31
1033.387	1038.7
1033.675	1023.11
1033.963	1029.21
1034.251	1031.47
1034.54	994.63
1034.828	980.62
1035.116	1007.52
1035.403	987.18
1035.691	1005.48
1035.979	978.82
1036.267	990.79
1036.554	960.06
1036.842	963.68
1037.129	941.53
1037.417	965.03
1037.704	940.62
1037.992	938.37
1038.279	942.21
1038.566	917.35
1038.853	917.35
1039.14	917.35
