Data from hue_50_FLMS001491_3.txt Node
Date: Mon Feb 06 15:09:29 GMT 2017
User: dcchb
Spectrometer: FLMS00149
Trigger mode: 0
Integration Time (sec): 2.000000E-2
Scans to average: 10
Electric dark correction enabled: true
Nonlinearity correction enabled: false
Boxcar width: 0
XAxis mode: Wavelengths
Number of Pixels in Spectrum: 2048
>>>>>Begin Spectral Data<<<<<
341.393	-7.33
341.776	-7.33
342.16	-7.33
342.543	-78.29
342.927	-59.31
343.31	-50.72
343.693	-68.57
344.077	-61.34
344.46	-66.76
344.843	-67.44
345.226	-46.43
345.61	-34.9
345.993	-25.41
346.376	5.55
346.759	3.06
347.142	34.02
347.525	42.39
347.908	53.69
348.291	69.5
348.674	96.4
349.057	116.96
349.44	138.65
349.823	142.72
350.206	180.69
350.588	190.4
350.971	211.42
351.354	236.28
351.737	243.06
352.119	238.76
352.502	280.8
352.884	292.55
353.267	288.93
353.65	297.75
354.032	304.75
354.414	328.03
354.797	324.86
355.179	335.26
355.562	330.51
355.944	345.88
356.326	349.72
356.709	344.07
357.091	341.36
357.473	366.45
357.855	346.56
358.238	339.1
358.62	336.62
359.002	359.89
359.384	343.85
359.766	341.59
360.148	335.49
360.53	373.45
360.912	355.82
361.294	357.18
361.676	316.73
362.057	344.07
362.439	335.71
362.821	332.77
363.203	333
363.584	335.49
363.966	336.39
364.348	332.32
364.729	344.75
365.111	322.6
365.493	323.06
365.874	322.6
366.256	307.92
366.637	320.8
367.019	316.28
367.4	341.36
367.781	311.53
368.163	311.31
368.544	327.12
368.925	340.91
369.306	313.79
369.688	338.42
370.069	304.75
370.45	298.65
370.831	307.01
371.212	336.39
371.593	325.09
371.974	307.92
372.355	328.93
372.736	321.02
373.117	305.66
373.498	301.59
373.879	304.3
374.26	338.42
374.641	327.8
375.021	320.8
375.402	321.25
375.783	327.58
376.163	321.47
376.544	351.08
376.925	335.03
377.305	323.96
377.686	331.87
378.066	346.11
378.447	320.34
378.827	315.6
379.208	346.33
379.588	314.47
379.968	324.19
380.349	362.83
380.729	334.58
381.109	313.57
381.489	351.98
381.87	348.59
382.25	315.37
382.63	332.77
383.01	343.85
383.39	352.66
383.77	324.41
384.15	337.29
384.53	335.94
384.91	345.65
385.29	371.64
385.67	338.65
386.049	359.89
386.429	362.15
386.809	347.01
387.189	328.93
387.568	345.88
387.948	330.29
388.328	360.57
388.707	345.43
389.087	366.22
389.466	370.74
389.846	352.43
390.225	372.32
390.605	368.25
390.984	363.96
391.363	372.55
391.743	354.02
392.122	357.63
392.501	348.14
392.881	341.59
393.26	356.5
393.639	364.19
394.018	358.31
394.397	354.92
394.776	386.33
395.155	363.96
395.534	389.27
395.913	371.87
396.292	390.4
396.671	361.47
397.05	380.91
397.429	377.07
397.808	361.7
398.186	382.04
398.565	377.52
398.944	376.61
399.323	375.26
399.701	404.18
400.08	379.78
400.458	379.1
400.837	397.18
401.215	393.34
401.594	382.49
401.972	372.55
402.351	385.88
402.729	369.83
403.107	390.4
403.486	406.9
403.864	416.16
404.242	387.24
404.62	411.42
404.999	388.82
405.377	402.6
405.755	394.69
406.133	396.95
406.511	399.66
406.889	413
407.267	407.57
407.645	434.69
408.023	409.83
408.401	413.45
408.779	394.24
409.156	414.58
409.534	425.65
409.912	428.59
410.29	425.43
410.667	443.96
411.045	407.57
411.422	416.84
411.8	437.18
412.178	430.4
412.555	433.79
412.933	438.76
413.31	452.54
413.687	441.92
414.065	447.8
414.442	455.48
414.819	451.64
415.197	456.16
415.574	456.61
415.951	475.14
416.328	474.92
416.705	474.92
417.082	461.58
417.46	472.43
417.837	497.97
418.214	460.91
418.591	465.43
418.967	481.92
419.344	488.25
419.721	485.31
420.098	492.09
420.475	474.24
420.852	489.61
421.228	497.29
421.605	497.52
421.982	502.49
422.358	519.66
422.735	509.49
423.111	505.88
423.488	512.2
423.864	528.02
424.241	509.72
424.617	519.89
424.994	495.48
425.37	543.16
425.746	517.18
426.123	532.32
426.499	515.37
426.875	531.64
427.251	523.96
427.627	532.09
428.003	563.95
428.379	561.92
428.756	531.41
429.132	565.54
429.507	565.54
429.883	551.53
430.259	552.88
430.635	580.45
431.011	570.06
431.387	575.93
431.763	595.82
432.138	573.45
432.514	598.53
432.89	577.51
433.265	592.88
433.641	609.6
434.016	599.21
434.392	605.76
434.767	608.92
435.143	624.07
435.518	628.81
435.894	634.01
436.269	622.48
436.644	634.46
437.02	644.18
437.395	631.52
437.77	639.43
438.145	631.52
438.52	646.66
438.895	658.87
439.271	661.58
439.646	681.92
440.021	681.01
440.395	678.08
440.77	685.53
441.145	677.17
441.52	702.71
441.895	688.47
442.27	684.63
442.645	701.13
443.019	705.19
443.394	703.16
443.769	682.37
444.143	689.83
444.518	721.92
444.892	737.28
445.267	735.02
445.641	728.92
446.016	719.88
446.39	727.11
446.764	739.54
447.139	737.51
447.513	752.65
447.887	739.77
448.262	761.01
448.636	741.35
449.01	756.49
449.384	756.27
449.758	744.06
450.132	724.63
450.506	758.07
450.88	772.99
451.254	766.89
451.628	785.87
452.002	805.53
452.376	804.85
452.75	797.85
453.123	801.91
453.497	808.92
453.871	829.03
454.244	830.84
454.618	843.49
454.992	829.94
455.365	843.27
455.739	875.13
456.112	901.8
456.486	872.65
456.859	891.18
457.232	882.14
457.606	885.53
457.979	911.97
458.352	912.19
458.725	923.72
459.099	967.11
459.472	960.55
459.845	984.51
460.218	977.5
460.591	982.93
460.964	975.47
461.337	979.76
461.71	1015.92
462.083	1013.21
462.456	1010.95
462.829	1030.61
463.201	1048.91
463.574	1036.94
463.947	1065.64
464.32	1120.32
464.692	1109.93
465.065	1098.86
465.438	1124.62
465.81	1144.5
466.183	1143.37
466.555	1162.58
466.928	1186.99
467.3	1190.83
467.672	1222.47
468.045	1224.05
468.417	1254.56
468.789	1238.51
469.161	1293.88
469.534	1294.33
469.906	1353.99
470.278	1344.72
470.65	1353.99
471.022	1369.58
471.394	1429.02
471.766	1466.3
472.138	1470.37
472.51	1517.15
472.882	1558.96
473.253	1570.26
473.625	1603.25
473.997	1624.49
474.369	1678.28
474.74	1655
475.112	1766.18
475.484	1738.61
475.855	1812.51
476.227	1875.56
476.598	1923.92
476.97	1925.95
477.341	2012.28
477.713	2020.64
478.084	2095.89
478.455	2145.61
478.827	2199.62
479.198	2301.08
479.569	2276.68
479.94	2380.63
480.311	2456.33
480.682	2512.83
481.053	2610
481.424	2687.74
481.795	2753.95
482.166	2801.64
482.537	2863.55
482.908	2978.13
483.279	3028.75
483.65	3109.65
484.021	3245.24
484.391	3308.29
484.762	3366.59
485.133	3489.07
485.503	3562.97
485.874	3710.09
486.244	3734.04
486.615	3879.12
486.985	3988.5
487.356	4076.63
487.726	4156.63
488.097	4279.34
488.467	4387.36
488.837	4507.13
489.207	4630.51
489.578	4787.12
489.948	4857.4
490.318	5062.82
490.688	5079.99
491.058	5247.22
491.428	5355.92
491.798	5498.74
492.168	5630.94
492.538	5724.27
492.908	5838.17
493.278	6030.7
493.648	6074.09
494.017	6227.53
494.387	6359.51
494.757	6470.01
495.126	6619.39
495.496	6691.25
495.866	6815.09
496.235	6970.79
496.605	7140.28
496.974	7180.05
497.344	7310.9
497.713	7455.3
498.082	7586.59
498.452	7730.09
498.821	7866.81
499.19	7917.21
499.559	8068.16
499.928	8203.75
500.298	8286.69
500.667	8466.57
501.036	8468.38
501.405	8653.01
501.774	8702.05
502.143	8856.84
502.512	8939.1
502.88	9025.2
503.249	9118.31
503.618	9251.64
503.987	9355.36
504.356	9507.22
504.724	9637.84
505.093	9692.08
505.462	9801.45
505.83	9973.88
506.199	10070.37
506.567	10231.72
506.936	10208.67
507.304	10363.24
507.672	10479.63
508.041	10538.16
508.409	10668.77
508.777	10809.33
509.145	10926.39
509.514	10964.81
509.882	11124.13
510.25	11196.67
510.618	11287.74
510.986	11304.01
511.354	11521.63
511.722	11633.27
512.09	11717.33
512.458	11818.12
512.826	11861.06
513.193	11921.4
513.561	12150.99
513.929	12252.91
514.297	12330.42
514.664	12483.19
515.032	12471.66
515.4	12600.25
515.767	12709.4
516.135	12777.42
516.502	12764.76
516.869	13009.05
517.237	13115.94
517.604	13068.94
517.972	13313.22
518.339	13393
518.706	13480.45
519.073	13463.05
519.44	13673.21
519.808	13862.36
520.175	13827.11
520.542	14044.73
520.909	14106.2
521.276	14166.53
521.643	14292.63
522.009	14349.35
522.376	14554.55
522.743	14584.83
523.11	14694.66
523.477	14862.79
523.843	14919.06
524.21	15065.04
524.577	15213.96
524.943	15397.01
525.31	15434.52
525.676	15499.61
526.043	15582.32
526.409	15746.83
526.776	15870.44
527.142	15996.09
527.508	16049.2
527.874	16182.53
528.241	16199.48
528.607	16241.28
528.973	16493.7
529.339	16522.86
529.705	16621.16
530.071	16803.08
530.437	16877.88
530.803	17024.76
531.169	17155.16
531.535	17074.71
531.901	17117.87
532.267	17281.48
532.632	17348.15
532.998	17418.88
533.364	17625.43
533.73	17630.17
534.095	17871.52
534.461	17826.33
534.826	17880.79
535.192	18004.17
535.557	18106.54
535.923	18123.94
536.288	18161.68
536.653	18207.33
537.019	18330.04
537.384	18319.65
537.749	18504.5
538.114	18518.96
538.479	18554.22
538.845	18655.23
539.21	18615.46
539.575	18725.06
539.94	18862.23
540.305	18976.8
540.67	18958.5
541.034	18930.02
541.399	19047.54
541.764	19183.58
542.129	19316.23
542.494	19374.53
542.858	19395.78
543.223	19450.01
543.587	19560.52
543.952	19545.15
544.316	19654.3
544.681	19703.79
545.045	19766.16
545.41	19832.37
545.774	19938.13
546.138	19910.79
546.503	20026.04
546.867	20104.91
547.231	20195.75
547.595	20232.59
547.959	20336.09
548.324	20358.46
548.688	20307.84
549.052	20600.04
549.416	20460.61
549.779	20538.57
550.143	20616.53
550.507	20780.15
550.871	20848.84
551.235	20901.05
551.599	21020.59
551.962	20979.01
552.326	21062.4
552.689	21196.63
553.053	21143.3
553.417	21220.13
553.78	21459.9
554.143	21506.23
554.507	21507.36
554.87	21621.93
555.234	21842.26
555.597	21716.39
555.96	21807.46
556.323	21826.67
556.686	21902.83
557.05	22106.44
557.413	22286.77
557.776	22184.85
558.139	22365.19
558.502	22341.01
558.865	22490.84
559.228	22588.01
559.59	22787.1
559.953	22788
560.316	22953.42
560.679	22922.46
561.041	23183.7
561.404	23174.43
561.767	23273.19
562.129	23393.18
562.492	23514.54
562.854	23492.39
563.217	23639.28
563.579	23693.06
563.941	23824.59
564.304	23836.79
564.666	24021.64
565.028	23999.5
565.39	24114.07
565.753	24284.91
566.115	24302.31
566.477	24444.91
566.839	24500.95
567.201	24618.46
567.563	24764.9
567.925	24920.6
568.287	24804.9
568.648	25001.5
569.01	25079.24
569.372	25295.51
569.734	25180.71
570.095	25382.51
570.457	25510.42
570.819	25518.78
571.18	25634.71
571.542	25770.52
571.903	25805.78
572.265	25911.99
572.626	25961.7
572.987	26094.58
573.349	26103.85
573.71	26365.99
574.071	26291.19
574.432	26532.54
574.794	26825.41
575.155	26632.65
575.516	26607.11
575.877	26806.2
576.238	26921
576.599	26996.03
576.96	27028.34
577.32	27089.13
577.681	27255.91
578.042	27331.61
578.403	27366.19
578.763	27546.75
579.124	27564.37
579.485	27722.34
579.845	27873.07
580.206	27793.29
580.566	27949.9
580.927	28012.72
581.287	28154.87
581.648	28121.42
582.008	28350.79
582.368	28468.98
582.728	28475.31
583.089	28548.08
583.449	28646.38
583.809	28676.89
584.169	28918.91
584.529	28976.54
584.889	29274.84
585.249	29186.03
585.609	29124.11
585.969	29385.8
586.329	29348.73
586.688	29554.6
587.048	29600.93
587.408	29615.39
587.768	29729.29
588.127	29802.73
588.487	29795.05
588.846	30145.1
589.206	30066.91
589.565	30079.34
589.925	30359.78
590.284	30433.9
590.643	30560.91
591.003	30758.64
591.362	30878.41
591.721	30886.77
592.08	30968.35
592.44	31146.88
592.799	31314.33
593.158	31311.62
593.517	31281.56
593.876	31562.24
594.235	31430.94
594.593	31604.72
594.952	31756.35
595.311	31770.37
595.67	31984.82
596.029	32134.88
596.387	32282.67
596.746	32316.79
597.104	32295.78
597.463	32319.5
597.822	32540.51
598.18	32518.37
598.538	32468.88
598.897	32695.31
599.255	32463
599.613	33077.45
599.972	32902.54
600.33	33157.45
600.688	32973.95
601.046	33206.49
601.404	33370.32
601.762	33395.86
602.12	33606.7
602.478	33651.9
602.836	33672.46
603.194	33615.74
603.552	33761.73
603.91	33663.87
604.268	33951.32
604.625	33920.59
604.983	34020.7
605.341	33959.46
605.698	34176.63
606.056	34335.5
606.413	34394.7
606.771	34573.68
607.128	34621.14
607.485	34487.81
607.843	34483.74
608.2	34782.49
608.557	34882.15
608.914	34779.33
609.272	35043.5
609.629	35098.87
609.986	35376.37
610.343	35187.68
610.7	35412.3
611.057	35510.83
611.414	35433.09
611.771	35512.64
612.127	35749.24
612.484	35781.79
612.841	35806.64
613.198	35763.93
613.554	35794.89
613.911	36143.36
614.267	35981.33
614.624	36099.06
614.98	36214.99
615.337	36409.79
615.693	36383.13
616.05	36412.05
616.406	36548.77
616.762	36492.95
617.118	36441.2
617.475	36551.48
617.831	36598.71
618.187	36778.6
618.543	36882.32
618.899	37017.91
619.255	37024.92
619.611	37082.32
619.967	37188.3
620.323	37232.59
620.678	37105.14
621.034	37153.95
621.39	37204.8
621.746	37032.6
622.101	37497.22
622.457	37291.58
622.812	37310.33
623.168	37553.72
623.523	37398.01
623.879	37502.64
624.234	37367.73
624.589	37520.72
624.945	37697.67
625.3	37513.49
625.655	37752.58
626.01	37654.28
626.365	37744.45
626.72	37701.28
627.075	37767.5
627.43	37749.64
627.785	37717.78
628.14	37826.03
628.495	37801.17
628.85	37798.23
629.205	37594.62
629.559	37816.53
629.914	37775.86
630.269	37826.7
630.623	37735.63
630.978	37629.65
631.332	37802.07
631.687	37933.14
632.041	37693.6
632.396	37825.57
632.75	37589.2
633.104	37694.96
633.459	37503.1
633.813	37668.52
634.167	37577.67
634.521	37687.72
634.875	37773.15
635.229	37613.15
635.583	37393.95
635.937	37595.52
636.291	37517.56
636.645	37466.49
636.999	37452.93
637.352	37670.32
637.706	37339.26
638.06	37561.17
638.413	37577.22
638.767	37447.28
639.121	37503.32
639.474	37153.73
639.828	37244.35
640.181	37226.94
640.534	37351.24
640.888	37269.43
641.241	37066.27
641.594	37138.59
641.947	37216.78
642.301	37068.08
642.654	37200.5
643.007	37220.84
643.36	37173.61
643.713	37090
644.066	37267.85
644.419	36867.41
644.771	36848.42
645.124	36394.42
645.477	36430.81
645.83	36023.13
646.182	35937.04
646.535	35936.58
646.888	35916.7
647.24	35721.45
647.593	36008.9
647.945	35862.24
648.298	35766.19
648.65	35557.16
649.002	35696.36
649.355	35888
649.707	35787.21
650.059	35752.63
650.411	36258.38
650.763	36241.21
651.115	36658.6
651.467	36542.44
651.819	36600.52
652.171	36447.53
652.523	36424.48
652.875	36390.58
653.227	36185.16
653.578	36525.04
653.93	36394.42
654.282	36356.23
654.633	36218.38
654.985	36281.88
655.337	36350.13
655.688	36252.73
656.039	36351.49
656.391	36127.99
656.742	36124.15
657.094	36163.7
657.445	36328.44
657.796	36164.6
658.147	36156.92
658.498	36101.32
658.849	36212.96
659.2	36008.22
659.551	35948.33
659.902	36143.13
660.253	36163.47
660.604	36021.78
660.955	35931.39
661.306	36041.21
661.656	36015.45
662.007	36108.56
662.358	35959.41
662.708	36013.87
663.059	35936.81
663.409	35760.32
663.76	36070.82
664.11	35983.81
664.461	36072.85
664.811	35962.57
665.161	36055.68
665.511	35904.72
665.862	35920.76
666.212	36100.42
666.562	35992.18
666.912	35942.46
667.262	35798.51
667.612	35931.84
667.962	35933.65
668.312	35899.75
668.662	36103.58
669.011	35755.57
669.361	35827.21
669.711	35816.36
670.06	35731.84
670.41	35695.46
670.76	35667.66
671.109	35799.41
671.459	35852.97
671.808	35763.03
672.157	35748.34
672.507	35531.4
672.856	35684.39
673.205	35493.21
673.554	35705.4
673.904	35550.15
674.253	35753.31
674.602	35518.06
674.951	35084.18
675.3	34930.73
675.649	35557.16
675.998	35575.01
676.346	35458.4
676.695	35602.58
677.044	35304.06
677.393	35347.45
677.741	35478.97
678.09	35295.92
678.438	35416.37
678.787	35430.16
679.135	35374.56
679.484	35049.38
679.832	35268.13
680.181	34971.86
680.529	35156.49
680.877	34989.04
681.225	34972.99
681.573	35189.03
681.922	34974.57
682.27	34957.85
682.618	34979.77
682.966	34748.37
683.314	34847.57
683.661	34732.1
684.009	34608.93
684.357	34450.75
684.705	34475.6
685.053	34545.21
685.4	34494.14
685.748	34395.83
686.095	34363.97
686.443	34197.42
686.79	34098.89
687.138	34250.75
687.485	34197.19
687.832	34201.04
688.18	34196.97
688.527	33927.37
688.874	33934.15
689.221	33784.32
689.568	33713.36
689.915	33733.48
690.262	33673.14
690.609	33600.6
690.956	33447.16
691.303	33470.21
691.65	33399.47
691.997	33299.36
692.344	33166.26
692.69	32954.97
693.037	33053.5
693.383	32860.73
693.73	32835.65
694.077	32591.81
694.423	32678.36
694.769	32656.44
695.116	32607.18
695.462	32419.39
695.808	32402.66
696.155	32446.96
696.501	32166.96
696.847	32166.74
697.193	32156.12
697.539	32194.76
697.885	31934.88
698.231	31848.78
698.577	31878.16
698.923	31698.05
699.269	31608.11
699.614	31483.37
699.96	31473.2
700.306	31484.95
700.651	31205.41
700.997	31225.29
701.342	31246.09
701.688	31244.5
702.033	31088.58
702.379	31023.04
702.724	30948.24
703.069	30835.7
703.415	30636.16
703.76	30695.37
704.105	30571.53
704.45	30476.39
704.795	30453.11
705.14	30330.63
705.485	30222.38
705.83	30221.93
706.175	30236.17
706.52	30113.91
706.865	29955.95
707.209	30073.01
707.554	29875.95
707.899	29985.78
708.243	29877.08
708.588	29710.53
708.932	29494.49
709.277	29561.84
709.621	29577.2
709.966	29334.95
710.31	29434.38
710.654	29108.97
710.998	29322.52
711.342	29182.64
711.687	29053.83
712.031	29026.71
712.375	28855.19
712.719	29002.08
713.063	28886.37
713.407	28889.76
713.75	28800.5
714.094	28710.56
714.438	28658.36
714.782	28681.63
715.125	28548.53
715.469	28588.98
715.812	28410.68
716.156	28168.65
716.499	28215.2
716.843	28393.96
717.186	28093.63
717.53	28353.51
717.873	28148.31
718.216	28238.25
718.559	28007.07
718.902	27905.16
719.246	27953.52
719.589	27776.57
719.932	27765.72
720.275	27705.61
720.617	27591.72
720.96	27692.96
721.303	27656.58
721.646	27564.37
721.989	27351.05
722.331	27599.18
722.674	27420.88
723.016	27441.67
723.359	27383.36
723.701	27438.05
724.044	27224.04
724.386	27124.61
724.729	27219.52
725.071	27088
725.413	27147.89
725.755	27130.04
726.097	27020.43
726.439	26848.91
726.782	26872.87
727.124	26963.71
727.465	26755.13
727.807	26822.02
728.149	26729.14
728.491	26722.81
728.833	26831.96
729.175	26559.88
729.516	26449.6
729.858	26518.98
730.199	26568.47
730.541	26501.13
730.882	26374.57
731.224	26471.07
731.565	26316.27
731.906	26332.54
732.248	26423.39
732.589	26180
732.93	26065.43
733.271	26116.28
733.612	26138.2
733.953	26092.1
734.294	26000.57
734.635	26026.11
734.976	26182.94
735.317	25878.77
735.658	25913.8
735.999	25918.54
736.339	25841.93
736.68	25960.57
737.021	25817.3
737.361	25608.95
737.702	25740.69
738.042	25716.74
738.383	25557.42
738.723	25552.45
739.063	25502.51
739.404	25491.21
739.744	25434.94
740.084	25425
740.424	25388.16
740.764	25387.03
741.104	25419.57
741.444	25176.64
741.784	25208.28
742.124	25287.37
742.464	25153.59
742.804	25160.6
743.143	25088.73
743.483	25113.82
743.823	25006.48
744.162	24937.78
744.502	25016.19
744.841	24875.86
745.181	24892.13
745.52	24843.77
745.86	24818.23
746.199	24829.76
746.538	24701.17
746.877	24790.44
747.216	24778.46
747.556	24688.74
747.895	24629.76
748.234	24547.96
748.573	24555.64
748.911	24499.14
749.25	24622.76
749.589	24413.04
749.928	24406.49
750.267	24345.7
750.605	24300.05
750.944	24276.78
751.283	24209.43
751.621	24219.38
751.96	24027.74
752.298	24085.14
752.636	24154.29
752.975	23978.71
753.313	23886.05
753.651	24039.95
753.989	23810.12
754.327	23810.12
754.666	23720.63
755.004	23657.81
755.342	23718.83
755.679	23581.65
756.017	23475.22
756.355	23644.03
756.693	23454.88
757.031	23496.91
757.368	23331.72
757.706	23291.49
758.044	23209.23
758.381	23239.97
758.719	23128.56
759.056	23144.83
759.394	23082.68
759.731	22904.16
760.068	22884.27
760.405	22813.09
760.743	22727.67
761.08	22875.68
761.417	22688.57
761.754	22574.22
762.091	22573.54
762.428	22449.93
762.765	22364.06
763.102	22357.51
763.438	22288.58
763.775	22111.18
764.112	22148.7
764.449	22232.08
764.785	22051.75
765.122	21955.71
765.458	21747.35
765.795	21778.31
766.131	21842.26
766.467	21722.04
766.804	21474.14
767.14	21404.76
767.476	21535.83
767.812	21440.92
768.148	21383.52
768.485	21270.3
768.821	21230.76
769.157	21096.97
769.492	21083.41
769.828	21086.35
770.164	20921.84
770.5	20770.88
770.836	20840.03
771.171	20669.87
771.507	20766.81
771.842	20648.85
772.178	20525.24
772.513	20490.21
772.849	20389.65
773.184	20342.87
773.519	20298.58
773.855	20208.18
774.19	20118.24
774.525	20048.19
774.86	19987.62
775.195	20024.01
775.53	19876.44
775.865	19732.94
776.2	19590.35
776.535	19499.05
776.87	19485.72
777.205	19553.96
777.539	19355.1
777.874	19356.91
778.209	19207.98
778.543	19111.49
778.878	19093.64
779.212	18994.66
779.547	19009.57
779.881	18995.11
780.215	18865.17
780.55	18834.89
780.884	18700.43
781.218	18711.95
781.552	18748.79
781.886	18643.48
782.22	18472.18
782.554	18359.87
782.888	18211.4
783.222	18194
783.556	18186.77
783.889	18163.49
784.223	17967.79
784.557	17911.52
784.89	17893.44
785.224	17801.47
785.557	17760.11
785.891	17716.05
786.224	17643.51
786.558	17688.02
786.891	17470.85
787.224	17437.18
787.557	17374.59
787.891	17362.83
788.224	17340.91
788.557	17266.79
788.89	17233.12
789.223	17236.96
789.556	17069.51
789.888	17007.59
790.221	16948.16
790.554	16801.95
790.887	16838.78
791.219	16653.93
791.552	16780.7
791.884	16596.53
792.217	16538.45
792.549	16446.02
792.882	16378.23
793.214	16306.14
793.546	16390.2
793.879	16324.22
794.211	16161.06
794.543	16241.51
794.875	16127.16
795.207	16147.27
795.539	15961.06
795.871	15976.2
796.203	15892.36
796.535	15806.04
796.867	15701.41
797.198	15753.16
797.53	15692.6
797.862	15615.31
798.193	15630.45
798.525	15478.36
798.856	15550.68
799.188	15355.43
799.519	15430.23
799.85	15288.31
800.182	15219.84
800.513	15227.98
800.844	15074.08
801.175	15259.84
801.506	15170.58
801.837	15119.5
802.168	15044.03
802.499	14994.99
802.83	14803.81
803.161	14847.87
803.491	14910.7
803.822	14901.66
804.153	14751.6
804.483	14661.21
804.814	14646.75
805.145	14625.28
805.475	14580.99
805.805	14572.63
806.136	14425.28
806.466	14470.71
806.796	14497.37
807.126	14373.99
807.457	14305.51
807.787	14322.46
808.117	14268
808.447	14139.42
808.777	14224.16
809.107	14175.12
809.436	14046.31
809.766	14079.3
810.096	14025.97
810.426	13885.64
810.755	13999.31
811.085	13964.51
811.414	13941.23
811.744	13797.5
812.073	13856.71
812.403	13762.93
812.732	13685.19
813.061	13706.66
813.39	13661.69
813.719	13496.95
814.049	13647.23
814.378	13601.58
814.707	13535.59
815.036	13543.05
815.365	13367.01
815.693	13373.33
816.022	13349.38
816.351	13330.85
816.68	13269.61
817.008	13252.66
817.337	13222.15
817.665	13165.88
817.994	13118.65
818.322	13131.76
818.651	13089.27
818.979	12976.96
819.307	13109.84
819.636	12936.74
819.964	12874.36
820.292	12951.42
820.62	13026
820.948	12906
821.276	12976.51
821.604	12881.82
821.932	12956.17
822.259	12878.43
822.587	12851.99
822.915	12825.78
823.243	12902.84
823.57	12835.27
823.898	12904.19
824.225	12837.08
824.553	12837.76
824.88	12830.07
825.207	12863.52
825.535	12865.55
825.862	12766.35
826.189	12699.91
826.516	12752.79
826.843	12868.04
827.17	12889.51
827.497	12907.81
827.824	12766.35
828.151	12840.69
828.478	12896.06
828.805	12834.82
829.131	12818.1
829.458	12798.66
829.785	12749.4
830.111	12772.67
830.438	12800.47
830.764	12877.75
831.09	12857.64
831.417	12724.76
831.743	12796.63
832.069	12698.78
832.395	12698.1
832.722	12767.25
833.048	12671.66
833.374	12719.11
833.7	12672.79
834.026	12659.46
834.351	12652.45
834.677	12672.11
835.003	12631.43
835.329	12698.78
835.654	12559.12
835.98	12557.54
836.306	12646.8
836.631	12506.46
836.956	12638.66
837.282	12463.98
837.607	12474.6
837.932	12396.86
838.258	12457.43
838.583	12505.56
838.908	12363.64
839.233	12383.08
839.558	12317.32
839.883	12391.44
840.208	12232.35
840.533	12286.36
840.858	12288.84
841.182	12312.35
841.507	12252.01
841.832	12217.21
842.156	12167.26
842.481	12066.7
842.805	12198.9
843.13	12043.2
843.454	11981.06
843.778	12048.17
844.103	11993.03
844.427	11969.08
844.751	12004.78
845.075	11946.71
845.399	11890.44
845.723	11741.29
846.047	11875.97
846.371	11733.15
846.695	11736.77
847.019	11644.11
847.343	11665.81
847.666	11573.16
847.99	11525.02
848.313	11482.54
848.637	11420.62
848.96	11419.04
849.284	11323.45
849.607	11235.76
849.931	11261.75
850.254	11184.01
850.577	11134.3
850.9	11088.2
851.223	11012.49
851.546	11001.87
851.869	10913.51
852.192	10985.15
852.515	10908.99
852.838	10792.39
853.161	10826.51
853.483	10782.44
853.806	10703.35
854.129	10678.49
854.451	10643.69
854.774	10561.43
855.096	10623.58
855.419	10564.37
855.741	10591.49
856.063	10497.93
856.385	10444.37
856.708	10440.3
857.03	10420.87
857.352	10303.13
857.674	10352.4
857.996	10307.88
858.318	10294.09
858.64	10207.99
858.961	10196.92
859.283	10146.75
859.605	10087.55
859.926	10107.21
860.248	10101.78
860.57	10066.98
860.891	10061.56
861.212	10022.91
861.534	9967.1
861.855	9943.59
862.176	9914.89
862.498	9964.16
862.819	9929.36
863.14	9873.99
863.461	9892.3
863.782	9841.68
864.103	9846.2
864.424	9843.94
864.745	9832.18
865.065	9777.72
865.386	9756.93
865.707	9757.16
866.027	9760.77
866.348	9709.48
866.668	9669.03
866.989	9639.2
867.309	9563.72
867.63	9675.35
867.95	9592.42
868.27	9523.49
868.59	9610.5
868.91	9554
869.23	9550.38
869.55	9565.53
869.87	9480.1
870.19	9514.45
870.51	9525.98
870.83	9512.42
871.15	9423.16
871.469	9449.14
871.789	9463.61
872.109	9467
872.428	9381.12
872.748	9394.46
873.067	9382.93
873.386	9397.62
873.706	9364.17
874.025	9257.06
874.344	9302.48
874.663	9340.67
874.982	9245.53
875.301	9249.38
875.62	9218.42
875.939	9172.99
876.258	9263.61
876.577	9181.35
876.896	9165.54
877.214	9127.57
877.533	9100
877.852	9161.92
878.17	9115.59
878.489	9127.8
878.807	9063.17
879.125	9062.26
879.444	9080.57
879.762	9022.49
880.08	9085.31
880.398	8993.34
880.716	8975.94
881.034	8964.41
881.352	8945.43
881.67	8960.12
881.988	8958.54
882.306	8922.83
882.624	8907.92
882.941	8864.53
883.259	8801.25
883.577	8820.46
883.894	8733.46
884.212	8796.51
884.529	8704.76
884.846	8617.08
885.164	8685.1
885.481	8732.1
885.798	8700.46
886.115	8636.06
886.432	8655.27
886.75	8668.15
887.067	8611.65
887.383	8532.56
887.7	8586.79
888.017	8529.62
888.334	8522.61
888.651	8538.43
888.967	8537.98
889.284	8477.42
889.6	8420.24
889.917	8335.05
890.233	8447.59
890.55	8326.24
890.866	8377.53
891.182	8337.99
891.498	8261.83
891.815	8270.19
892.131	8220.48
892.447	8214.6
892.763	8157.65
893.079	8147.71
893.395	8128.5
893.71	8089.86
894.026	8139.35
894.342	8113.36
894.657	8042.18
894.973	7988.17
895.289	8006.92
895.604	8009.63
895.92	7930.31
896.235	7922.86
896.55	7927.15
896.865	7929.64
897.181	7846.93
897.496	7811.67
897.811	7786.82
898.126	7714.73
898.441	7753.14
898.756	7735.52
899.071	7651.68
899.386	7699.81
899.7	7612.81
900.015	7560.83
900.33	7525.35
900.644	7547.27
900.959	7583.66
901.273	7537.1
901.588	7449.42
901.902	7424.11
902.216	7413.27
902.531	7388.18
902.845	7363.32
903.159	7281.97
903.473	7373.04
903.787	7288.07
904.101	7193.38
904.415	7254.17
904.729	7207.4
905.042	7138.47
905.356	7107.28
905.67	7074.29
905.984	7105.93
906.297	7078.13
906.611	7054.86
906.924	7021.64
907.237	7009.89
907.551	6969.21
907.864	6954.97
908.177	6975.99
908.491	6902.54
908.804	6823.22
909.117	6825.03
909.43	6796.33
909.743	6776.45
910.056	6722.66
910.368	6671.14
910.681	6630.91
910.994	6615.32
911.307	6630.24
911.619	6585.26
911.932	6647.64
912.244	6543.91
912.557	6523.35
912.869	6516.79
913.181	6468.21
913.494	6447.19
913.806	6452.84
914.118	6363.12
914.43	6354.31
914.742	6343.01
915.054	6246.52
915.366	6336.68
915.678	6248.55
915.99	6180.08
916.302	6185.5
916.613	6170.81
916.925	6167.65
917.236	6099.18
917.548	6104.6
917.859	6085.39
918.171	6036.58
918.482	6006.97
918.794	6037.03
919.105	5956.81
919.416	6003.81
919.727	5990.03
920.038	5924.49
920.349	5866.19
920.66	5800.65
920.971	5786.64
921.282	5797.04
921.593	5754.78
921.903	5743.48
922.214	5750.71
922.525	5735.8
922.835	5704.16
923.146	5612.18
923.456	5654.44
923.767	5584.16
924.077	5579.42
924.387	5536.25
924.697	5551.39
925.008	5534.44
925.318	5551.39
925.628	5523.37
925.938	5435.46
926.248	5444.73
926.558	5414.9
926.867	5394.34
927.177	5359.53
927.487	5310.04
927.796	5280.67
928.106	5338.07
928.416	5290.38
928.725	5298.52
929.034	5238.86
929.344	5239.09
929.653	5231.4
929.962	5134.91
930.271	5144.17
930.581	5160.22
930.89	5073.44
931.199	5061.24
931.508	5040.9
931.817	5077.96
932.125	5021.46
932.434	5028.02
932.743	4992.76
933.051	4973.33
933.36	4944.86
933.669	4895.59
933.977	4851.98
934.286	4839.1
934.594	4844.75
934.902	4823.96
935.21	4765.65
935.519	4801.81
935.827	4777.85
936.135	4740.79
936.443	4714.58
936.751	4717.97
937.059	4667.8
937.367	4659.44
937.674	4651.98
937.982	4651.76
938.29	4622.15
938.597	4571.08
938.905	4524.98
939.213	4558.2
939.52	4533.34
939.827	4518.43
940.135	4482.5
940.442	4454.93
940.749	4463.74
941.056	4438.65
941.363	4420.8
941.67	4414.7
941.977	4387.36
942.284	4314.36
942.591	4369.96
942.898	4323.86
943.205	4333.35
943.511	4308.71
943.818	4264.87
944.125	4234.37
944.431	4248.83
944.738	4204.76
945.044	4146.46
945.35	4198.21
945.657	4192.11
945.963	4147.36
946.269	4103.07
946.575	4120.24
946.881	4081.83
947.187	4080.47
947.493	4055.84
947.799	4049.51
948.105	4031.66
948.41	4045.22
948.716	4001.83
949.022	3959.8
949.327	3973.13
949.633	3908.27
949.938	3929.29
950.244	3911.44
950.549	3877.54
950.854	3872.79
951.16	3829.63
951.465	3829.86
951.77	3823.3
952.075	3812.68
952.38	3794.6
952.685	3786.02
952.99	3766.81
953.294	3785.11
953.599	3680.71
953.904	3717.77
954.209	3724.32
954.513	3697.21
954.818	3652.23
955.122	3633.93
955.426	3593.7
955.731	3601.61
956.035	3573.82
956.339	3565.91
956.643	3543.99
956.948	3543.08
957.252	3566.36
957.556	3527.04
957.86	3525.68
958.163	3520.49
958.467	3466.25
958.771	3468.06
959.075	3451.56
959.378	3440.49
959.682	3388.51
959.985	3395.07
960.289	3378.34
960.592	3396.65
960.896	3359.59
961.199	3348.74
961.502	3318.23
961.805	3318.23
962.108	3287.95
962.411	3290.21
962.714	3254.96
963.017	3261.51
963.32	3245.24
963.623	3232.81
963.926	3193.04
964.228	3199.59
964.531	3178.35
964.833	3186.03
965.136	3154.39
965.438	3115.07
965.741	3117.33
966.043	3108.07
966.345	3061.52
966.648	3100.84
966.95	3089.76
967.252	3066.49
967.554	3064
967.856	3032.82
968.158	3008.41
968.46	3044.11
968.761	3022.42
969.063	2949.88
969.365	2985.13
969.666	2986.72
969.968	2930.67
970.269	2936.32
970.571	2955.08
970.872	2939.48
971.174	2898.58
971.475	2890.45
971.776	2887.51
972.077	2881.63
972.378	2835.53
972.679	2860.62
972.98	2828.53
973.281	2813.61
973.582	2786.95
973.883	2764.57
974.183	2785.59
974.484	2779.94
974.785	2761.64
975.085	2739.26
975.386	2752.37
975.686	2752.6
975.986	2731.81
976.287	2720.28
976.587	2653.62
976.887	2657.01
977.187	2633.5
977.487	2637.8
977.787	2641.41
978.087	2602.32
978.387	2572.04
978.687	2580.85
978.987	2597.12
979.286	2599.83
979.586	2593.05
979.885	2549.66
980.185	2553.51
980.484	2528.87
980.784	2506.05
981.083	2513.51
981.382	2509.44
981.682	2448.42
981.981	2468.08
982.28	2485.71
982.579	2444.36
982.878	2462.66
983.177	2428.76
983.475	2424.47
983.774	2418.37
984.073	2423.79
984.372	2394.64
984.67	2380.4
984.969	2384.7
985.267	2398.93
985.566	2353.51
985.864	2324.13
986.162	2375.88
986.461	2339.27
986.759	2303.8
987.057	2294.98
987.355	2297.02
987.653	2301.99
987.951	2280.07
988.249	2294.3
988.547	2232.38
988.844	2221.54
989.142	2243.01
989.44	2216.34
989.737	2196.91
990.035	2177.92
990.332	2198.26
990.63	2165.72
990.927	2193.74
991.224	2174.76
991.521	2156.91
991.819	2134.31
992.116	2130.24
992.413	2130.92
992.71	2101.54
993.006	2097.7
993.303	2103.35
993.6	2089.79
993.897	2080.07
994.193	2083.46
994.49	2083.91
994.787	2085.27
995.083	2059.96
995.379	2024.48
995.676	2022.67
995.972	2015.89
996.268	1988.78
996.565	1996.23
996.861	1951.94
997.157	2018.83
997.453	1967.76
997.749	1916.23
998.044	1962.11
998.34	1954.43
998.636	1934.54
998.932	1908.78
999.227	1902
999.523	1849.8
999.818	1898.16
1000.114	1871.04
1000.409	1860.64
1000.704	1850.25
1001	1880.08
1001.295	1820.64
1001.59	1861.55
1001.885	1823.81
1002.18	1810.7
1002.475	1791.27
1002.77	1799.18
1003.065	1784.04
1003.359	1809.8
1003.654	1765.05
1003.949	1785.62
1004.243	1752.62
1004.538	1763.7
1004.832	1714.88
1005.127	1726.64
1005.421	1709.23
1005.715	1744.49
1006.009	1708.1
1006.304	1718.05
1006.598	1698.61
1006.892	1712.4
1007.186	1666.3
1007.48	1669.46
1007.773	1639.86
1008.067	1598.96
1008.361	1634.89
1008.655	1602.57
1008.948	1619.97
1009.242	1623.59
1009.535	1618.84
1009.829	1561.44
1010.122	1565.74
1010.415	1563.02
1010.708	1528.67
1011.001	1547.43
1011.295	1548.11
1011.588	1552.18
1011.881	1506.08
1012.173	1522.35
1012.466	1504.49
1012.759	1493.42
1013.052	1478.51
1013.344	1472.63
1013.637	1443.7
1013.93	1455
1014.222	1469.47
1014.514	1444.83
1014.807	1419.75
1015.099	1451.84
1015.391	1415.23
1015.683	1413.65
1015.976	1410.03
1016.268	1402.12
1016.56	1358.06
1016.851	1386.31
1017.143	1378.17
1017.435	1322.13
1017.727	1362.13
1018.018	1344.5
1018.31	1316.25
1018.602	1337.72
1018.893	1306.31
1019.185	1334.56
1019.476	1288.91
1019.767	1338.85
1020.058	1302.47
1020.35	1260.88
1020.641	1280.32
1020.932	1265.18
1021.223	1262.69
1021.514	1239.19
1021.804	1229.02
1022.095	1224.05
1022.386	1224.95
1022.677	1218.4
1022.967	1212.07
1023.258	1182.02
1023.548	1184.5
1023.839	1186.08
1024.129	1187.44
1024.419	1151.74
1024.709	1168.68
1025	1182.69
1025.29	1153.09
1025.58	1167.55
1025.87	1131.17
1026.16	1132.98
1026.449	1152.41
1026.739	1097.73
1027.029	1100.66
1027.319	1109.7
1027.608	1109.48
1027.898	1106.31
1028.187	1092.75
1028.477	1049.59
1028.766	1091.62
1029.055	1067.22
1029.344	1050.95
1029.634	1058.86
1029.923	1036.71
1030.212	1051.4
1030.501	1035.35
1030.79	1017.5
1031.078	1003.04
1031.367	987.67
1031.656	1023.6
1031.945	998.97
1032.233	992.87
1032.522	999.42
1032.81	964.62
1033.099	980.21
1033.387	949.71
1033.675	971.4
1033.963	993.32
1034.251	948.8
1034.54	925.75
1034.828	953.32
1035.116	914.91
1035.403	920.78
1035.691	921.46
1035.979	905.41
1036.267	918.97
1036.554	892.08
1036.842	891.18
1037.129	893.21
1037.417	891.18
1037.704	893.66
1037.992	897.28
1038.279	888.01
1038.566	845.3
1038.853	845.3
1039.14	845.3
