Data from hue_270_FLMS001491_00073.txt Node
Date: Tue Feb 07 15:57:40 GMT 2017
User: dcchb
Spectrometer: FLMS00149
Trigger mode: 0
Integration Time (sec): 2.000000E-2
Scans to average: 10
Electric dark correction enabled: true
Nonlinearity correction enabled: false
Boxcar width: 0
XAxis mode: Wavelengths
Number of Pixels in Spectrum: 2048
>>>>>Begin Spectral Data<<<<<
341.393	-13.4
341.776	-13.4
342.16	-13.4
342.543	-43.69
342.927	-72.61
343.31	-55.89
343.693	-67.41
344.077	-63.57
344.46	-65.61
344.843	-44.59
345.226	-25.38
345.61	-33.74
345.993	-17.25
346.376	-18.38
346.759	11.68
347.142	14.62
347.525	45.13
347.908	57.1
348.291	75.63
348.674	72.02
349.057	115.63
349.44	118.34
349.823	140.94
350.206	149.76
350.588	182.75
350.971	198.12
351.354	222.75
351.737	222.07
352.119	218.23
352.502	254.61
352.884	281.96
353.267	278.34
353.65	276.98
354.032	286.93
354.414	310.43
354.797	306.81
355.179	312.24
355.562	321.73
355.944	305.91
356.326	325.8
356.709	330.99
357.091	343.42
357.473	352.46
357.855	331.67
358.238	330.77
358.62	336.19
359.002	311.79
359.384	338.9
359.766	352.91
360.148	302.52
360.53	346.13
360.912	331.22
361.294	324.44
361.676	316.08
362.057	316.31
362.439	314.72
362.821	330.54
363.203	303.42
363.584	307.94
363.966	300.26
364.348	323.76
364.729	300.71
365.111	322.63
365.493	313.37
365.874	326.47
366.256	309.53
366.637	315.18
367.019	332.8
367.4	312.92
367.781	312.01
368.163	298
368.544	315.85
368.925	297.1
369.306	292.13
369.688	305.91
370.069	301.39
370.45	306.14
370.831	292.35
371.212	293.48
371.593	303.2
371.974	309.3
372.355	299.81
372.736	327.38
373.117	297.1
373.498	324.44
373.879	316.53
374.26	311.11
374.641	292.13
375.021	287.15
375.402	321.5
375.783	313.59
376.163	320.15
376.544	331.45
376.925	324.44
377.305	311.11
377.686	314.72
378.066	325.12
378.447	317.21
378.827	328.28
379.208	329.64
379.588	309.07
379.968	340.71
380.349	327.15
380.729	312.46
381.109	330.77
381.489	318.79
381.87	320.82
382.25	355.85
382.63	346.81
383.01	319.47
383.39	333.71
383.77	351.78
384.15	328.96
384.53	345.46
384.91	332.35
385.29	340.03
385.67	352.24
386.049	343.2
386.429	347.94
386.809	352.91
387.189	340.03
387.568	339.58
387.948	333.25
388.328	344.33
388.707	346.13
389.087	342.97
389.466	343.2
389.846	347.94
390.225	350.2
390.605	365.12
390.984	360.37
391.363	365.34
391.743	365.8
392.122	349.52
392.501	378.9
392.881	358.56
393.26	379.81
393.639	351.56
394.018	379.35
394.397	367.15
394.776	368.73
395.155	375.51
395.534	380.71
395.913	371.9
396.292	400.82
396.671	411.22
397.05	371.9
397.429	365.12
397.808	413.93
398.186	389.3
398.565	401.05
398.944	387.26
399.323	412.12
399.701	417.55
400.08	394.95
400.458	419.58
400.837	439.01
401.215	418.22
401.594	412.8
401.972	431.56
402.351	421.84
402.729	421.84
403.107	436.3
403.486	427.04
403.864	434.95
404.242	422.29
404.62	431.78
404.999	445.12
405.377	462.97
405.755	448.51
406.133	456.19
406.511	445.12
406.889	456.87
407.267	448.05
407.645	474.49
408.023	477.66
408.401	478.79
408.779	483.08
409.156	486.24
409.534	483.98
409.912	502.29
410.29	512.46
410.667	494.61
411.045	499.13
411.422	539.12
411.8	519.69
412.178	547.03
412.555	537.99
412.933	550.42
413.31	562.17
413.687	565.11
414.065	568.28
414.442	585.22
414.819	584.77
415.197	589.29
415.574	613.92
415.951	600.82
416.328	621.61
416.705	617.99
417.082	618.44
417.46	620.25
417.837	627.26
418.214	640.36
418.591	628.39
418.967	654.38
419.344	643.75
419.721	690.31
420.098	654.83
420.475	659.57
420.852	700.48
421.228	707.03
421.605	709.52
421.982	715.16
422.358	720.81
422.735	727.82
423.111	746.12
423.488	763.75
423.864	768.27
424.241	777.31
424.617	802.62
424.994	794.71
425.37	818.21
425.746	817.31
426.123	811.21
426.499	831.09
426.875	818.66
427.251	856.18
427.627	881.26
428.003	843.07
428.379	881.94
428.756	896.85
429.132	907.48
429.507	924.65
429.883	924.65
430.259	924.65
430.635	951.32
431.011	955.38
431.387	991.09
431.763	1008.04
432.138	984.31
432.514	1018.43
432.89	1022.5
433.265	1036.74
433.641	1076.96
434.016	1079.68
434.392	1095.49
434.767	1106.79
435.143	1140.01
435.518	1114.93
435.894	1157.19
436.269	1168.94
436.644	1210.52
437.02	1217.07
437.395	1184.98
437.77	1254.13
438.145	1241.93
438.52	1250.74
438.895	1267.47
439.271	1290.52
439.646	1316.28
440.021	1347.69
440.395	1329.39
440.77	1326.45
441.145	1361.02
441.52	1378.65
441.895	1362.15
442.27	1397.41
442.645	1413.9
443.019	1431.53
443.394	1438.08
443.769	1480.79
444.143	1439.44
444.518	1458.2
444.892	1479.21
445.267	1496.39
445.641	1500.91
446.016	1528.02
446.39	1518.76
446.764	1519.44
447.139	1523.51
447.513	1545.2
447.887	1532.77
448.262	1560.57
448.636	1564.86
449.01	1568.7
449.384	1577.74
449.758	1598.76
450.132	1601.02
450.506	1611.19
450.88	1640.34
451.254	1645.08
451.628	1672.43
452.002	1652.99
452.376	1681.69
452.75	1683.05
453.123	1690.28
453.497	1709.49
453.871	1748.13
454.244	1763.72
454.618	1783.39
454.992	1808.92
455.365	1785.87
455.739	1813.22
456.112	1835.81
456.486	1845.98
456.859	1884.17
457.232	1879.2
457.606	1901.12
457.979	1916.94
458.352	1972.76
458.725	1996.94
459.099	1984.28
459.472	2002.14
459.845	2027.45
460.218	2053.43
460.591	2078.29
460.964	2039.65
461.337	2116.48
461.71	2117.39
462.083	2132.08
462.456	2169.36
462.829	2161.68
463.201	2208.68
463.574	2223.83
463.947	2202.13
464.32	2251.62
464.692	2290.72
465.065	2296.59
465.438	2332.3
465.81	2369.81
466.183	2364.16
466.555	2417.72
466.928	2419.07
467.3	2444.38
467.672	2457.94
468.045	2535.46
468.417	2518.51
468.789	2497.94
469.161	2548.34
469.534	2577.04
469.906	2679.63
470.278	2662.46
470.65	2646.87
471.022	2738.61
471.394	2767.77
471.766	2757.37
472.138	2790.36
472.51	2844.37
472.882	2876.01
473.253	2904.03
473.625	2922.34
473.997	2983.13
474.369	2979.74
474.74	3013.41
475.112	3071.71
475.484	3099.96
475.855	3137.7
476.227	3149.68
476.598	3231.26
476.97	3242.78
477.341	3315.1
477.713	3377.47
478.084	3351.48
478.455	3443.45
478.827	3461.99
479.198	3550.12
479.569	3506.5
479.94	3584.02
480.311	3663.56
480.682	3727.29
481.053	3796.89
481.424	3819.94
481.795	3828.53
482.166	3911.01
482.537	3937
482.908	3985.81
483.279	4042.53
483.65	4063.78
484.021	4080.5
484.391	4152.59
484.762	4211.8
485.133	4252.47
485.503	4277.11
485.874	4364.56
486.244	4428.74
486.615	4406.37
486.985	4469.64
487.356	4558.91
487.726	4544.44
488.097	4626.02
488.467	4665.8
488.837	4779.92
489.207	4754.83
489.578	4836.64
489.948	4888.16
490.318	4889.29
490.688	4950.08
491.058	4970.87
491.428	5038.67
491.798	5072.34
492.168	5152.34
492.538	5161.83
492.908	5196.18
493.278	5282.5
493.648	5232.79
494.017	5318.89
494.387	5336.96
494.757	5399.79
495.126	5416.74
495.496	5423.74
495.866	5485.89
496.235	5505.55
496.605	5585.32
496.974	5596.39
497.344	5575.6
497.713	5660.57
498.082	5679.78
498.452	5667.13
498.821	5706.22
499.19	5715.26
499.559	5703.73
499.928	5816.73
500.298	5762.49
500.667	5833
501.036	5863.5
501.405	5859.89
501.774	5842.26
502.143	5932.43
502.512	5922.49
502.88	6013.78
503.249	6003.39
503.618	6039.32
503.987	6013.78
504.356	6040.45
504.724	6072.09
505.093	6144.4
505.462	6063.27
505.83	6147.11
506.199	6148.47
506.567	6205.42
506.936	6200.22
507.304	6267.34
507.672	6255.36
508.041	6339.65
508.409	6295.36
508.777	6301.01
509.145	6381.68
509.514	6333.77
509.882	6333.77
510.25	6316.6
510.618	6445.41
510.986	6390.72
511.354	6431.62
511.722	6515.92
512.09	6445.18
512.458	6435.24
512.826	6522.24
513.193	6556.82
513.561	6608.57
513.929	6552.75
514.297	6638.62
514.664	6656.93
515.032	6613.54
515.4	6678.85
515.767	6663.26
516.135	6675.91
516.502	6614.22
516.869	6718.62
517.237	6733.09
517.604	6705.06
517.972	6790.71
518.339	6715.91
518.706	6722.24
519.073	6732.18
519.44	6789.36
519.808	6785.97
520.175	6812.86
520.542	6883.14
520.909	6914.32
521.276	6822.12
521.643	6966.53
522.009	6964.72
522.376	6922.01
522.743	6931.5
523.11	7001.33
523.477	7080.65
523.843	7060.31
524.21	7125.84
524.577	7138.05
524.943	7096.69
525.31	7129.69
525.676	7164.71
526.043	7175.79
526.409	7183.7
526.776	7290.36
527.142	7224.15
527.508	7240.42
527.874	7294.88
528.241	7356.57
528.607	7340.75
528.973	7363.13
529.339	7342.56
529.705	7398.6
530.071	7399.06
530.437	7468.43
530.803	7463.69
531.169	7495.1
531.535	7434.54
531.901	7500.52
532.267	7509.79
532.632	7521.77
532.998	7494.42
533.364	7578.49
533.73	7557.92
534.095	7597.24
534.461	7596.57
534.826	7615.32
535.192	7636.56
535.557	7690.12
535.923	7620.29
536.288	7635.21
536.653	7654.64
537.019	7676.79
537.384	7674.98
537.749	7646.06
538.114	7648.54
538.479	7639.95
538.845	7670.01
539.21	7754.75
539.575	7702.55
539.94	7732.16
540.305	7728.99
540.67	7709.33
541.034	7708.65
541.399	7763.12
541.764	7718.82
542.129	7761.08
542.494	7751.36
542.858	7779.84
543.223	7714.3
543.587	7830.01
543.952	7726.96
544.316	7802.44
544.681	7818.93
545.045	7850.8
545.41	7844.47
545.774	7822.32
546.138	7841.98
546.503	7846.5
546.867	7830.01
547.231	7867.52
547.595	7899.83
547.959	7843.79
548.324	7830.91
548.688	7869.33
549.052	7866.16
549.416	7891.25
549.779	7857.58
550.143	7890.57
550.507	7902.77
550.871	7891.02
551.235	7891.25
551.599	7943.9
551.962	7922.21
552.326	7892.38
552.689	7989.78
553.053	7947.07
553.417	7931.7
553.78	8024.58
554.143	7952.26
554.507	8007.85
554.87	7980.96
555.234	8020.51
555.597	8063.22
555.96	8147.96
556.323	8061.86
556.686	8095.99
557.05	8157
557.413	8087.85
557.776	8137.34
558.139	8214.18
558.502	8052.6
558.865	8116.55
559.228	8209.43
559.59	8202.88
559.953	8159.49
560.316	8279.94
560.679	8294.85
561.041	8357
561.404	8300.5
561.767	8347.96
562.129	8308.86
562.492	8406.04
562.854	8419.14
563.217	8396.77
563.579	8389.77
563.941	8477.45
564.304	8529.42
564.666	8603.09
565.028	8573.94
565.39	8555.64
565.753	8640.61
566.115	8637.44
566.477	8705.01
566.839	8672.47
567.201	8692.13
567.563	8679.93
567.925	8801.28
568.287	8773.26
568.648	8832.69
569.01	8832.92
569.372	8869.75
569.734	8927.6
570.095	8953.82
570.457	8923.99
570.819	9064.1
571.18	8983.2
571.542	9013.25
571.903	9057.54
572.265	9113.36
572.626	9119.01
572.987	9155.39
573.349	9185.45
573.71	9211.21
574.071	9223.64
574.432	9251.66
574.794	9310.87
575.155	9316.97
575.516	9279.23
575.877	9335.96
576.238	9351.1
576.599	9393.81
576.96	9437.2
577.32	9439.23
577.681	9518.1
578.042	9491.66
578.403	9506.8
578.763	9547.47
579.124	9519.91
579.485	9637.64
579.845	9673.35
580.206	9686.23
580.566	9715.15
580.927	9743.4
581.287	9766.9
581.648	9812.33
582.008	9835.83
582.368	9895.26
582.728	9831.54
583.089	9895.71
583.449	9898.2
583.809	9952.66
584.169	10049.38
584.529	10026.78
584.889	10042.38
585.249	10048.25
585.609	10005.77
585.969	10094.58
586.329	10030.85
586.688	10170.74
587.048	10118.53
587.408	10168.25
587.768	10147.46
588.127	10144.97
588.487	10210.73
588.846	10271.52
589.206	10251.41
589.565	10422.48
589.925	10396.49
590.284	10407.57
590.643	10359.43
591.003	10478.75
591.362	10535.25
591.721	10402.14
592.08	10562.14
592.44	10564.17
592.799	10608.92
593.158	10538.41
593.517	10608.46
593.876	10667.22
594.235	10580.44
594.593	10656.6
594.952	10661.57
595.311	10677.84
595.67	10624.73
596.029	10746.31
596.387	10749.7
596.746	10804.17
597.104	10727.33
597.463	10781.11
597.822	10910.38
598.18	10859.3
598.538	10864.73
598.897	10820.66
599.255	10842.13
599.613	10977.27
599.972	10930.72
600.33	10978.4
600.688	10910.83
601.046	10955.57
601.404	11077.38
601.762	11060.66
602.12	11018.17
602.478	11013.88
602.836	11085.29
603.194	11008.45
603.552	11028.34
603.91	11049.58
604.268	11061.56
604.625	10962.13
604.983	11075.57
605.341	11036.48
605.698	11150.6
606.056	11082.35
606.413	11106.76
606.771	11213.65
607.128	11183.14
607.485	11104.95
607.843	11139.98
608.2	11171.16
608.557	11170.94
608.914	11159.64
609.272	11230.59
609.629	11251.16
609.986	11299.07
610.343	11214.55
610.7	11277.82
611.057	11354.21
611.414	11309.69
611.771	11335.9
612.127	11386.75
612.484	11300.88
612.841	11450.02
613.198	11309.01
613.554	11332.29
613.911	11395.11
614.267	11393.98
614.624	11389.01
614.98	11414.54
615.337	11524.37
615.693	11436.69
616.05	11433.75
616.406	11546.07
616.762	11375
617.118	11435.11
617.475	11437.37
617.831	11464.49
618.187	11505.62
618.543	11527.08
618.899	11629.68
619.255	11517.82
619.611	11489.34
619.967	11609.79
620.323	11620.41
620.678	11590.59
621.034	11544.26
621.39	11563.02
621.746	11623.58
622.101	11640.98
622.457	11643.47
622.812	11684.82
623.168	11694.09
623.523	11594.2
623.879	11620.41
624.234	11591.71
624.589	11591.94
624.945	11634.65
625.3	11635.78
625.655	11636.46
626.01	11604.37
626.365	11621.77
626.72	11676.91
627.075	11580.42
627.43	11579.74
627.785	11593.52
628.14	11510.36
628.495	11578.16
628.85	11559.63
629.205	11491.38
629.559	11539.29
629.914	11532.06
630.269	11466.07
630.623	11464.94
630.978	11440.08
631.332	11520.3
631.687	11497.03
632.041	11455.9
632.396	11517.14
632.75	11423.81
633.104	11437.82
633.459	11374.55
633.813	11451.61
634.167	11409.57
634.521	11453.19
634.875	11367.09
635.229	11333.64
635.583	11318.95
635.937	11380.2
636.291	11359.18
636.645	11335.45
636.999	11223.82
637.352	11398.27
637.706	11229.24
638.06	11364.83
638.413	11219.52
638.767	11215.91
639.121	11282.57
639.474	11217.94
639.828	11119.41
640.181	11182.69
640.534	11232.4
640.888	11215.68
641.241	11178.39
641.594	11160.31
641.947	11274.21
642.301	11155.12
642.654	11149.24
643.007	11245.51
643.36	11121.22
643.713	11120.31
644.066	11132.29
644.419	11078.96
644.771	11005.52
645.124	10967.78
645.477	10916.93
645.83	10924.16
646.182	10801.45
646.535	10751.29
646.888	10756.03
647.24	10716.03
647.593	10730.95
647.945	10684.17
648.298	10730.72
648.65	10696.82
649.002	10628.35
649.355	10753.54
649.707	10705.64
650.059	10742.7
650.411	10868.8
650.763	10926.65
651.115	11015.46
651.467	10936.82
651.819	10968.23
652.171	10984.05
652.523	10975.69
652.875	10919.64
653.227	10936.59
653.578	10982.47
653.93	11019.53
654.282	10926.2
654.633	10942.69
654.985	10968
655.337	11010.94
655.688	10970.71
656.039	10934.78
656.391	10895.01
656.742	10933.88
657.094	10976.36
657.445	10967.32
657.796	10914.22
658.147	10899.76
658.498	10982.47
658.849	11004.84
659.2	10908.12
659.551	10924.16
659.902	10930.26
660.253	10902.47
660.604	10946.99
660.955	10857.72
661.306	10905.63
661.656	10866.31
662.007	10922.35
662.358	10911.51
662.708	10903.37
663.059	10882.81
663.409	10922.35
663.76	11000.77
664.11	10993.54
664.461	10976.36
664.811	10993.76
665.161	10934.11
665.511	10918.06
665.862	10967.32
666.212	10976.36
666.562	11037.83
666.912	10970.49
667.262	10925.52
667.612	10891.62
667.962	10993.54
668.312	10939.75
668.662	11056.36
669.011	10916.48
669.361	10904.05
669.711	10916.48
670.06	10933.2
670.41	10868.12
670.76	10908.57
671.109	10953.99
671.459	10892.3
671.808	10888
672.157	10918.06
672.507	10846.2
672.856	10804.62
673.205	10845.07
673.554	10803.71
673.904	10803.71
674.253	10940.43
674.602	10870.38
674.951	10701.57
675.3	10623.38
675.649	10842.81
675.998	10763.94
676.346	10794.67
676.695	10787.44
677.044	10701.79
677.393	10789.25
677.741	10837.84
678.09	10689.37
678.438	10765.75
678.787	10751.06
679.135	10751.74
679.484	10675.81
679.832	10660.44
680.181	10657.5
680.529	10578.63
680.877	10613.89
681.225	10605.53
681.573	10703.15
681.922	10507
682.27	10499.99
682.618	10525.08
682.966	10482.37
683.314	10567.56
683.661	10465.42
684.009	10457.28
684.357	10426.32
684.705	10384.29
685.053	10380.9
685.4	10387
685.748	10365.76
686.095	10332.54
686.443	10321.24
686.79	10297.29
687.138	10278.3
687.485	10311.52
687.832	10190.85
688.18	10231.75
688.527	10097.97
688.874	10100.68
689.221	10062.94
689.568	10056.16
689.915	10060.23
690.262	9971.42
690.609	9926.45
690.956	9944.98
691.303	9978.2
691.65	9909.73
691.997	9869.95
692.344	9881.25
692.69	9859.78
693.037	9883.74
693.383	9749.96
693.73	9781.14
694.077	9767.36
694.423	9658.43
694.769	9646
695.116	9596.51
695.462	9589.28
695.808	9568.27
696.155	9580.24
696.501	9424.31
696.847	9409.85
697.193	9429.74
697.539	9393.58
697.885	9331.66
698.231	9312.45
698.577	9277.65
698.923	9311.1
699.269	9233.81
699.614	9196.75
699.96	9177.54
700.306	9178.45
700.651	9128.28
700.997	9055.96
701.342	9102.29
701.688	9051.44
702.033	8923.99
702.379	9041.73
702.724	8928.73
703.069	8949.98
703.415	8859.58
703.76	8890.77
704.105	8860.49
704.45	8822.75
704.795	8778.68
705.14	8771
705.485	8698.68
705.83	8687.16
706.175	8658.68
706.52	8629.31
706.865	8621.85
707.209	8550.89
707.554	8547.5
707.899	8600.38
708.243	8521.74
708.588	8502.08
708.932	8406.49
709.277	8421.18
709.621	8417.11
709.966	8440.16
710.31	8359.03
710.654	8339.15
710.998	8326.72
711.342	8286.49
711.687	8314.06
712.031	8288.98
712.375	8266.15
712.719	8288.3
713.063	8228.41
713.407	8267.73
713.75	8170.11
714.094	8179.6
714.438	8179.15
714.782	8130.79
715.125	8068.64
715.469	8109.55
715.812	8119.94
716.156	8084.24
716.499	8063.67
716.843	8054.41
717.186	8045.59
717.53	7979.38
717.873	8005.14
718.216	8021.41
718.559	8006.72
718.902	7927.4
719.246	7932.83
719.589	7896.22
719.932	7917.69
720.275	7887.41
720.617	7871.59
720.96	7893.06
721.303	7832.04
721.646	7879.72
721.989	7895.99
722.331	7858.03
722.674	7827.52
723.016	7911.36
723.359	7922.66
723.701	7835.66
724.044	7751.14
724.386	7725.15
724.729	7820.74
725.071	7759.27
725.413	7833.17
725.755	7779.16
726.097	7730.8
726.439	7757.24
726.782	7712.49
727.124	7760.18
727.465	7682.89
727.807	7693.74
728.149	7673.85
728.491	7672.5
728.833	7701.42
729.175	7707.98
729.516	7604.7
729.858	7637.69
730.199	7727.18
730.541	7654.64
730.882	7692.61
731.224	7629.79
731.565	7625.49
731.906	7673.63
732.248	7635.66
732.589	7684.02
732.93	7538.94
733.271	7571.93
733.612	7652.84
733.953	7691.25
734.294	7603.8
734.635	7658.26
734.976	7642.21
735.317	7597.92
735.658	7656
735.999	7609.45
736.339	7640.18
736.68	7624.59
737.021	7628.88
737.361	7635.66
737.702	7656.68
738.042	7630.92
738.383	7603.35
738.723	7653.51
739.063	7577.13
739.404	7688.54
739.744	7620.75
740.084	7648.09
740.424	7683.57
740.764	7673.17
741.104	7746.84
741.444	7719.27
741.784	7693.29
742.124	7703
742.464	7683.34
742.804	7704.81
743.143	7750.01
743.483	7816.67
743.823	7764.25
744.162	7803.11
744.502	7807.41
744.841	7825.03
745.181	7922.66
745.52	7878.14
745.86	7971.7
746.199	7930.34
746.538	7972.83
746.877	8030.45
747.216	8080.17
747.556	8122.43
747.895	8211.01
748.234	8155.87
748.573	8167.85
748.911	8286.04
749.25	8306.6
749.589	8374.17
749.928	8396.54
750.267	8517.22
750.605	8590.66
750.944	8599.7
751.283	8618.91
751.621	8783.88
751.96	8866.59
752.298	8851.67
752.636	8908.62
752.975	9023.42
753.313	9092.12
753.651	9274.04
753.989	9260.25
754.327	9432.22
754.666	9488.95
755.004	9651.43
755.342	9709.96
755.679	9857.3
756.017	9875.83
756.355	10091.19
756.693	10185.42
757.031	10385.19
757.368	10418.64
757.706	10621.35
758.044	10704.05
758.381	10875.12
758.719	10942.24
759.056	11110.6
759.394	11232.63
759.731	11308.78
760.068	11522.11
760.405	11619.74
760.743	11799.17
761.08	11964.36
761.417	11927.53
761.754	12240.51
762.091	12349.89
762.428	12494.52
762.765	12678.01
763.102	12851.34
763.438	12980.38
763.775	13120.49
764.112	13234.61
764.449	13463.76
764.785	13547.6
765.122	13655.62
765.458	13824.65
765.795	13959.56
766.131	14071.2
766.467	14262.15
766.804	14310.74
767.14	14456.72
767.476	14670.73
767.812	14689.26
768.148	14910.05
768.485	15004.28
768.821	15084.05
769.157	15239.3
769.492	15310.49
769.828	15415.12
770.164	15506.19
770.5	15573.31
770.836	15644.04
771.171	15804.49
771.507	15954.09
771.842	15919.96
772.178	16112.27
772.513	16131.48
772.849	16232.72
773.184	16294.64
773.519	16287.86
773.855	16511.36
774.19	16509.55
774.525	16585.03
774.86	16660.96
775.195	16763.33
775.53	16729.66
775.865	16877.9
776.2	16749.77
776.535	16798.58
776.87	16836.1
777.205	16964.91
777.539	16909.32
777.874	17080.16
778.209	17081.06
778.543	17007.62
778.878	17095.53
779.212	17188.63
779.547	17114.73
779.881	17263.2
780.215	17169.87
780.55	17326.48
780.884	17239.02
781.218	17206.26
781.552	17267.72
781.886	17229.31
782.22	17234.05
782.554	17270.44
782.888	17159.93
783.222	17124.22
783.556	17200.16
783.889	17099.14
784.223	17131.68
784.557	17125.58
784.89	17237.22
785.224	17113.83
785.557	17130.55
785.891	17096.88
786.224	17197.9
786.558	17070.89
786.891	17091.23
787.224	16975.98
787.557	16945.02
787.891	16998.8
788.224	17058.92
788.557	17076.99
788.89	17084
789.223	16957.68
789.556	16884.91
789.888	16922.2
790.221	16893.04
790.554	16797.91
790.887	16766.95
791.219	16805.36
791.552	16794.52
791.884	16740.96
792.217	16738.47
792.549	16684.69
792.882	16605.82
793.214	16561.75
793.546	16660.51
793.879	16492.38
794.211	16459.16
794.543	16415.99
794.875	16370.57
795.207	16562.21
795.539	16414.87
795.871	16500.06
796.203	16263.91
796.535	16214.42
796.867	16277.24
797.198	16100.52
797.53	16235.66
797.862	16103.91
798.193	16140.97
798.525	16035.89
798.856	16107.98
799.188	15943.01
799.519	15915.67
799.85	15813.52
800.182	15938.27
800.513	15866.86
800.844	15809.23
801.175	15867.31
801.506	15852.39
801.837	15755.22
802.168	15648.78
802.499	15674.32
802.83	15585.96
803.161	15584.15
803.491	15555.9
803.822	15514.1
804.153	15489.47
804.483	15392.52
804.814	15382.8
805.145	15379.86
805.475	15315.23
805.805	15253.54
806.136	15300.09
806.466	15242.24
806.796	15168.57
807.126	15049.93
807.457	15077.95
807.787	15155.92
808.117	15034.11
808.447	14999.99
808.777	15053.77
809.107	15002.47
809.436	14931.06
809.766	14999.53
810.096	14901.68
810.426	14850.84
810.755	14877.05
811.085	14744.17
811.414	14794.12
811.744	14688.36
812.073	14653.56
812.403	14791.86
812.732	14578.76
813.061	14634.35
813.39	14563.16
813.719	14501.69
814.049	14608.58
814.378	14500.79
814.707	14522.49
815.036	14391.64
815.365	14532.2
815.693	14324.98
816.022	14339.67
816.351	14250.63
816.68	14243.17
817.008	14316.62
817.337	14115.49
817.665	14135.6
817.994	14193.68
818.322	14190.29
818.651	14102.61
818.979	13998.21
819.307	14141.93
819.636	14038.66
819.964	13961.14
820.292	14065.1
820.62	14021.93
820.948	14012.22
821.276	14054.93
821.604	13909.39
821.932	14022.84
822.259	13989.84
822.587	13894.71
822.915	13908.04
823.243	13935.61
823.57	13948.26
823.898	13937.87
824.225	13906.23
824.553	13889.96
824.88	13953.23
825.207	13971.31
825.535	13972.9
825.862	13938.32
826.189	13884.76
826.516	14004.31
826.843	13990.07
827.17	13908.94
827.497	13999.79
827.824	14117.75
828.151	14092.89
828.478	14099.9
828.805	14127.69
829.131	14010.86
829.458	14010.63
829.785	14005.89
830.111	14033.23
830.438	14052.67
830.764	13981.93
831.09	14042.27
831.417	13917.53
831.743	14034.59
832.069	13970.41
832.395	13906.68
832.722	13989.17
833.048	13922.05
833.374	13900.58
833.7	13855.38
834.026	13877.53
834.351	13901.94
834.677	13878.66
835.003	13849.51
835.329	13837.98
835.654	13809.28
835.98	13841.6
836.306	13832.79
836.631	13774.48
836.956	13792.56
837.282	13766.35
837.607	13726.35
837.932	13718.21
838.258	13757.08
838.583	13682.51
838.908	13593.24
839.233	13652.23
839.558	13564.54
839.883	13562.96
840.208	13507.6
840.533	13476.64
840.858	13499.46
841.182	13480.25
841.507	13536.07
841.832	13444.1
842.156	13422.63
842.481	13474.38
842.805	13362.29
843.13	13400.71
843.454	13368.17
843.778	13212.92
844.103	13176.98
844.427	13258.56
844.751	13244.33
845.075	13198.68
845.399	13128.17
845.723	13082.75
846.047	13046.37
846.371	12898.35
846.695	12992.36
847.019	12859.03
847.343	12810.21
847.666	12678.92
847.99	12704.68
848.313	12680.73
848.637	12579.49
848.96	12593.04
849.284	12562.31
849.607	12452.94
849.931	12360.51
850.254	12339.94
850.577	12260.17
850.9	12149.67
851.223	12181.98
851.546	12080.97
851.869	12021.76
852.192	12132.27
852.515	11994.19
852.838	11921.42
853.161	12019.27
853.483	11867.19
853.806	11830.35
854.129	11801.2
854.451	11750.35
854.774	11745.61
855.096	11713.97
855.419	11661.09
855.741	11574.09
856.063	11584.48
856.385	11556.46
856.708	11529.8
857.03	11519.63
857.352	11414.09
857.674	11470.81
857.996	11416.13
858.318	11308.11
858.64	11269.24
858.961	11304.72
859.283	11243.25
859.605	11264.94
859.926	11223.36
860.248	11203.02
860.57	11170.03
860.891	11153.99
861.212	11165.29
861.534	11097.94
861.855	10997.61
862.176	11103.59
862.498	11046.42
862.819	11043.71
863.14	10947.89
863.461	10992.63
863.782	10973.43
864.103	10998.51
864.424	10906.08
864.745	10866.08
865.065	10828.8
865.386	10799.65
865.707	10801.23
866.027	10810.49
866.348	10768.01
866.668	10800.1
866.989	10711.74
867.309	10659.76
867.63	10660.21
867.95	10655.47
868.27	10638.75
868.59	10662.25
868.91	10624.96
869.23	10567.34
869.55	10529.14
869.87	10602.81
870.19	10505.42
870.51	10558.07
870.83	10594.91
871.15	10487.56
871.469	10480.11
871.789	10505.87
872.109	10503.16
872.428	10412.31
872.748	10464.29
873.067	10459.77
873.386	10381.35
873.706	10326.89
874.025	10316.95
874.344	10326.44
874.663	10336.83
874.982	10355.36
875.301	10316.49
875.62	10304.29
875.939	10241.02
876.258	10215.48
876.577	10231.52
876.896	10149.94
877.214	10179.77
877.533	10171.64
877.852	10185.42
878.17	10193.56
878.489	10172.77
878.807	10098.87
879.125	10080.57
879.444	10110.17
879.762	10041.47
880.08	10011.19
880.398	10008.25
880.716	9978.65
881.034	9948.37
881.352	10011.87
881.67	9864.3
881.988	9951.08
882.306	9937.07
882.624	9933.45
882.941	9802.38
883.259	9794.93
883.577	9786.56
883.894	9734.36
884.212	9744.53
884.529	9781.82
884.846	9682.39
885.164	9667.02
885.481	9603.74
885.798	9576.17
886.115	9570.53
886.432	9578.89
886.75	9579.11
887.067	9577.08
887.383	9545.44
887.7	9533.01
888.017	9451.21
888.334	9439.46
888.651	9453.47
888.967	9431.77
889.284	9401.72
889.6	9395.16
889.917	9293.02
890.233	9321.72
890.55	9284.43
890.866	9298.22
891.182	9173.02
891.498	9216.86
891.815	9172.34
892.131	9143.19
892.447	9119.46
892.763	9103.19
893.079	9064.55
893.395	9072.91
893.71	8980.94
894.026	8961.05
894.342	8992.01
894.657	8826.59
894.973	8865.23
895.289	8850.77
895.604	8861.39
895.92	8767.83
896.235	8788.85
896.55	8713.6
896.865	8758.34
897.181	8682.41
897.496	8676.09
897.811	8626.14
898.126	8567.16
898.441	8585.01
898.756	8486.94
899.071	8524.23
899.386	8510.44
899.7	8413.95
900.015	8417.11
900.33	8349.31
900.644	8341.4
900.959	8309.09
901.273	8323.1
901.588	8197.68
901.902	8199.71
902.216	8173.73
902.531	8138.7
902.845	8198.58
903.159	8103.9
903.473	8023.9
903.787	8039.27
904.101	7964.01
904.415	7952.04
904.729	7912.04
905.042	7909.55
905.356	7815.77
905.67	7858.48
905.984	7784.36
906.297	7759.05
906.611	7745.26
906.924	7777.13
907.237	7700.07
907.551	7752.49
907.864	7666.85
908.177	7641.99
908.491	7604.93
908.804	7576
909.117	7497.13
909.43	7439.28
909.743	7414.42
910.056	7442.9
910.368	7434.99
910.681	7356.12
910.994	7322.22
911.307	7298.04
911.619	7273.86
911.932	7268.89
912.244	7162.23
912.557	7155.45
912.869	7151.61
913.181	7101.66
913.494	7073.19
913.806	7092.85
914.118	6999.07
914.43	7029.12
914.742	6935.11
915.054	6933.98
915.366	6977.83
915.678	6906.19
915.99	6891.05
916.302	6807.89
916.613	6790.26
916.925	6756.59
917.236	6812.86
917.548	6719.07
917.859	6711.84
918.171	6644.5
918.482	6670.26
918.794	6598.85
919.105	6618.06
919.416	6582.58
919.727	6554.33
920.038	6522.02
920.349	6462.81
920.66	6471.4
920.971	6450.61
921.282	6398.41
921.593	6432.53
921.903	6340.78
922.214	6372.64
922.525	6275.7
922.835	6307.33
923.146	6230.5
923.456	6214.46
923.767	6181.01
924.077	6214.23
924.387	6185.08
924.697	6090.84
925.008	6158.86
925.318	6134.23
925.628	6065.98
925.938	6059.43
926.248	5966.55
926.558	5944.18
926.867	5945.08
927.177	5916.84
927.487	5861.92
927.796	5888.36
928.106	5848.82
928.416	5828.25
928.725	5847.23
929.034	5762.72
929.344	5817.4
929.653	5743.28
929.962	5667.13
930.271	5687.01
930.581	5654.92
930.89	5647.46
931.199	5570.63
931.508	5593.45
931.817	5600.69
932.125	5585.77
932.434	5554.81
932.743	5520.46
933.051	5460.8
933.36	5456.06
933.669	5426.45
933.977	5426.91
934.286	5376.74
934.594	5380.58
934.902	5310.52
935.21	5340.81
935.519	5292.22
935.827	5321.37
936.135	5294.03
936.443	5251.54
936.751	5186.23
937.059	5193.01
937.367	5201.6
937.674	5132.9
937.982	5153.69
938.29	5149.85
938.597	5063.3
938.905	5042.51
939.213	5010.42
939.52	4998.67
939.827	4985.56
940.135	5009.06
940.442	4976.75
940.749	4963.64
941.056	4934.04
941.363	4856.75
941.67	4887.03
941.977	4851.78
942.284	4814.27
942.591	4833.93
942.898	4819.24
943.205	4768.39
943.511	4762.52
943.818	4730.65
944.125	4691.78
944.431	4706.92
944.738	4641.39
945.044	4625.8
945.35	4630.99
945.657	4595.74
945.963	4582.86
946.269	4572.69
946.575	4595.29
946.881	4495.4
947.187	4513.26
947.493	4498.34
947.799	4459.25
948.105	4426.93
948.41	4437.33
948.716	4425.8
949.022	4393.71
949.327	4383.09
949.633	4380.15
949.938	4311.68
950.244	4348.97
950.549	4285.69
950.854	4245.69
951.16	4300.61
951.465	4258.35
951.77	4249.99
952.075	4184.9
952.38	4154.17
952.685	4177.67
952.99	4131.57
953.294	4117.11
953.599	4122.31
953.904	4079.37
954.209	4048.18
954.513	4075.08
954.818	4056.55
955.122	4047.51
955.426	3992.82
955.731	4000.28
956.035	3997.34
956.339	3952.59
956.643	3982.2
956.948	3941.07
957.252	3899.26
957.556	3948.98
957.86	3854.07
958.163	3873.73
958.467	3871.47
958.771	3820.62
959.075	3836.21
959.378	3813.84
959.682	3750.11
959.985	3774.07
960.289	3752.15
960.592	3723.22
960.896	3742.2
961.199	3699.27
961.502	3696.1
961.805	3670.79
962.108	3654.3
962.411	3621.53
962.714	3631.25
963.017	3595.09
963.32	3611.36
963.623	3605.71
963.926	3578.82
964.228	3531.14
964.531	3504.47
964.833	3553.73
965.136	3476.45
965.438	3473.96
965.741	3470.35
966.043	3422.21
966.345	3451.36
966.648	3405.49
966.95	3433.06
967.252	3425.83
967.554	3385.6
967.856	3372.27
968.158	3334.3
968.46	3342.89
968.761	3306.06
969.063	3288.66
969.365	3290.24
969.666	3280.97
969.968	3278.94
970.269	3226.06
970.571	3255.66
970.872	3248.66
971.174	3221.31
971.475	3209.79
971.776	3204.14
972.077	3190.35
972.378	3159.62
972.679	3151.71
972.98	3168.43
973.281	3109.45
973.582	3095.22
973.883	3104.48
974.183	3071.71
974.484	3061.54
974.785	3036.23
975.085	3052.05
975.386	3013.64
975.686	3003.01
975.986	3003.69
976.287	2957.59
976.587	2967.99
976.887	2960.08
977.187	2921.21
977.487	2941.09
977.787	2912.4
978.087	2900.19
978.387	2896.12
978.687	2869.46
978.987	2883.24
979.286	2830.82
979.586	2826.97
979.885	2840.76
980.185	2821.78
980.484	2805.28
980.784	2750.59
981.083	2804.38
981.382	2791.04
981.682	2792.62
981.981	2730.03
982.28	2732.51
982.579	2703.36
982.878	2697.94
983.177	2683.7
983.475	2652.06
983.774	2670.14
984.073	2625.4
984.372	2605.06
984.67	2638.5
984.969	2593.76
985.267	2601.22
985.566	2597.38
985.864	2531.39
986.162	2586.3
986.461	2561.9
986.759	2548.79
987.057	2543.37
987.355	2549.92
987.653	2525.96
987.951	2450.03
988.249	2520.77
988.547	2471.28
988.844	2456.36
989.142	2480.77
989.44	2446.64
989.737	2424.05
990.035	2391.28
990.332	2417.49
990.63	2391.96
990.927	2405.06
991.224	2381.56
991.521	2395.12
991.819	2381.79
992.116	2365.29
992.413	2361.68
992.71	2327.78
993.006	2327.1
993.303	2285.07
993.6	2283.49
993.897	2300.89
994.193	2255.69
994.49	2269.7
994.787	2222.7
995.083	2222.47
995.379	2251.4
995.676	2226.76
995.972	2172.98
996.268	2182.92
996.565	2151.96
996.861	2177.5
997.157	2139.31
997.453	2119.65
997.749	2179.31
998.044	2100.44
998.34	2103.83
998.636	2097.28
998.932	2086.88
999.227	2047.79
999.523	2080.78
999.818	2054.11
1000.114	2034.9
1000.409	2022.25
1000.704	2006.88
1001	2038.29
1001.295	2035.81
1001.59	2031.97
1001.885	1967.34
1002.18	1959.88
1002.475	1969.14
1002.77	1937.05
1003.065	1943.83
1003.359	1928.69
1003.654	1918.07
1003.949	1923.04
1004.243	1894.79
1004.538	1892.53
1004.832	1836.04
1005.127	1853.44
1005.421	1855.02
1005.715	1826.55
1006.009	1855.25
1006.304	1819.09
1006.598	1829.94
1006.892	1782.93
1007.186	1785.65
1007.48	1810.05
1007.773	1789.03
1008.067	1761.69
1008.361	1764.18
1008.655	1768.7
1008.948	1758.3
1009.242	1735.25
1009.535	1727.34
1009.829	1716.04
1010.122	1710.39
1010.415	1669.72
1010.708	1678.76
1011.001	1672.2
1011.295	1694.35
1011.588	1653.67
1011.881	1638.08
1012.173	1651.64
1012.466	1613.67
1012.759	1612.09
1013.052	1654.58
1013.344	1569.38
1013.637	1569.83
1013.93	1578.42
1014.222	1573.22
1014.514	1547.69
1014.807	1566.44
1015.099	1502.49
1015.391	1541.13
1015.683	1506.1
1015.976	1486.9
1016.268	1495.94
1016.56	1500.23
1016.851	1485.09
1017.143	1467.91
1017.435	1460.68
1017.727	1478.31
1018.018	1442.6
1018.31	1415.03
1018.602	1432.66
1018.893	1435.82
1019.185	1402.38
1019.476	1401.02
1019.767	1379.1
1020.058	1358.09
1020.35	1379.78
1020.641	1368.48
1020.932	1343.85
1021.223	1334.58
1021.514	1354.02
1021.804	1347.24
1022.095	1321.48
1022.386	1329.61
1022.677	1304.53
1022.967	1311.76
1023.258	1314.02
1023.548	1275.6
1023.839	1296.62
1024.129	1265.21
1024.419	1255.72
1024.709	1247.13
1025	1243.96
1025.29	1246.22
1025.58	1230.41
1025.87	1211.87
1026.16	1214.36
1026.449	1196.51
1026.739	1221.82
1027.029	1216.17
1027.319	1190.41
1027.608	1197.86
1027.898	1168.94
1028.187	1159.22
1028.477	1152.67
1028.766	1143.18
1029.055	1110.41
1029.344	1119.9
1029.634	1121.71
1029.923	1119.22
1030.212	1121.26
1030.501	1097.53
1030.79	1105.66
1031.078	1065.66
1031.367	1075.83
1031.656	1068.6
1031.945	1079
1032.233	1078.55
1032.522	1049.39
1032.81	1044.2
1033.099	1046.46
1033.387	1025.21
1033.675	1031.77
1033.963	1025.21
1034.251	1021.37
1034.54	993.58
1034.828	996.29
1035.116	1017.53
1035.403	983.18
1035.691	969.4
1035.979	954.03
1036.267	968.04
1036.554	972.33
1036.842	935.95
1037.129	939.34
1037.417	920.36
1037.704	953.8
1037.992	934.37
1038.279	921.04
1038.566	889.62
1038.853	889.62
1039.14	889.62
