Data from hue_20_FLMS001491_56.txt Node
Date: Mon Feb 06 15:34:19 GMT 2017
User: dcchb
Spectrometer: FLMS00149
Trigger mode: 0
Integration Time (sec): 2.000000E-2
Scans to average: 10
Electric dark correction enabled: true
Nonlinearity correction enabled: false
Boxcar width: 0
XAxis mode: Wavelengths
Number of Pixels in Spectrum: 2048
>>>>>Begin Spectral Data<<<<<
341.393	5.59
341.776	5.59
342.16	5.59
342.543	-66.72
342.927	-57.23
343.31	-64.24
343.693	-78.25
344.077	-82.09
344.46	-58.81
344.843	-66.95
345.226	-42.54
345.61	-31.02
345.993	-14.75
346.376	21.64
346.759	13.73
347.142	27.74
347.525	28.87
347.908	53.95
348.291	93.27
348.674	86.95
349.057	112.48
349.44	126.27
349.823	140.96
350.206	159.49
350.588	199.94
350.971	215.31
351.354	227.28
351.737	239.26
352.119	263.89
352.502	255.98
352.884	294.85
353.267	282.2
353.65	309.09
354.032	286.49
354.414	308.64
354.797	297.56
355.179	325.13
355.562	318.81
355.944	336.43
356.326	329.2
356.709	325.58
357.091	339.37
357.473	347.96
357.855	373.49
358.238	347.96
358.62	335.53
359.002	349.54
359.384	362.42
359.766	339.6
360.148	339.14
360.53	350.67
360.912	368.75
361.294	342.76
361.676	334.85
362.057	321.29
362.439	330.33
362.821	343.44
363.203	340.73
363.584	348.86
363.966	315.87
364.348	331.46
364.729	324.68
365.111	323.32
365.493	314.96
365.874	333.49
366.256	323.32
366.637	321.97
367.019	336.21
367.4	334.17
367.781	325.58
368.163	334.17
368.544	334.17
368.925	318.81
369.306	333.04
369.688	337.79
370.069	320.61
370.45	334.17
370.831	314.96
371.212	309.77
371.593	312.48
371.974	322.42
372.355	334.17
372.736	327.17
373.117	311.8
373.498	314.96
373.879	332.59
374.26	326.26
374.641	339.6
375.021	333.49
375.402	342.31
375.783	325.13
376.163	346.38
376.544	345.7
376.925	349.54
377.305	321.52
377.686	341.18
378.066	352.25
378.447	352.25
378.827	367.39
379.208	343.44
379.588	319.71
379.968	339.14
380.349	344.34
380.729	334.17
381.109	366.49
381.489	364.23
381.87	348.86
382.25	352.25
382.63	346.38
383.01	362.42
383.39	358.13
383.77	360.61
384.15	345.92
384.53	348.86
384.91	355.64
385.29	379.37
385.67	356.32
386.049	339.6
386.429	371.23
386.809	373.49
387.189	371.23
387.568	361.52
387.948	389.76
388.328	399.48
388.707	349.09
389.087	391.57
389.466	363.78
389.846	365.36
390.225	378.69
390.605	381.4
390.984	376.43
391.363	387.96
391.743	397
392.122	368.3
392.501	369.2
392.881	393.61
393.26	398.35
393.639	379.37
394.018	384.11
394.397	393.61
394.776	376.66
395.155	386.6
395.534	384.34
395.913	400.84
396.292	406.49
396.671	405.36
397.05	392.25
397.429	401.51
397.808	401.06
398.186	406.49
398.565	399.03
398.944	420.05
399.323	427.05
399.701	413.04
400.08	405.81
400.458	403.77
400.837	428.86
401.215	406.71
401.594	413.49
401.972	413.04
402.351	430.44
402.729	418.46
403.107	426.82
403.486	423.44
403.864	418.46
404.242	452.36
404.62	436.77
404.999	426.6
405.377	421.85
405.755	432.7
406.133	450.1
406.511	445.58
406.889	462.76
407.267	456.65
407.645	431.57
408.023	445.36
408.401	458.69
408.779	485.81
409.156	475.19
409.534	481.06
409.912	458.69
410.29	462.53
410.667	471.8
411.045	477.45
411.422	460.5
411.8	482.19
412.178	473.83
412.555	494.39
412.933	496.65
413.31	480.61
413.687	514.28
414.065	498.69
414.442	500.04
414.819	526.94
415.197	506.6
415.574	519.25
415.951	523.55
416.328	514.28
416.705	502.53
417.082	533.04
417.46	528.97
417.837	532.36
418.214	551.12
418.591	559.25
418.967	535.97
419.344	548.18
419.721	544.56
420.098	533.04
420.475	585.46
420.852	545.24
421.228	561.96
421.605	566.48
421.982	587.27
422.358	576.65
422.735	581.4
423.111	581.85
423.488	583.88
423.864	583.43
424.241	611
424.617	617.1
424.994	600.83
425.37	596.31
425.746	572.13
426.123	610.32
426.499	620.27
426.875	623.88
427.251	631.57
427.627	627.27
428.003	618.23
428.379	659.36
428.756	625.01
429.132	643.54
429.507	657.78
429.883	682.64
430.259	673.6
430.635	669.3
431.011	672.69
431.387	686.25
431.763	698.91
432.138	707.72
432.514	696.87
432.89	696.87
433.265	689.64
433.641	732.58
434.016	698.68
434.392	718.34
434.767	727.38
435.143	709.53
435.518	744.56
435.894	727.16
436.269	748.85
436.644	745.69
437.02	754.5
437.395	794.27
437.77	776.87
438.145	770.09
438.52	781.84
438.895	804.89
439.271	778.45
439.646	824.1
440.021	814.39
440.395	837.44
440.77	824.78
441.145	817.1
441.52	809.64
441.895	839.92
442.27	850.32
442.645	808.06
443.019	843.76
443.394	861.62
443.769	857.1
444.143	841.5
444.518	874.72
444.892	871.78
445.267	863.65
445.641	874.5
446.016	909.98
446.39	885.34
446.764	893.48
447.139	878.34
447.513	913.82
447.887	886.25
448.262	901.84
448.636	921.05
449.01	941.84
449.384	923.54
449.758	927.38
450.132	957.66
450.506	959.47
450.88	965.34
451.254	977.09
451.628	967.38
452.002	997.88
452.376	1004.89
452.75	990.88
453.123	1003.31
453.497	999.01
453.871	1024.1
454.244	1050.76
454.618	1054.15
454.992	1049.18
455.365	1059.58
455.739	1079.92
456.112	1097.54
456.486	1088.5
456.859	1073.14
457.232	1125.56
457.606	1124.21
457.979	1118.78
458.352	1158.11
458.725	1162.4
459.099	1155.39
459.472	1158.56
459.845	1187.71
460.218	1208.27
460.591	1225.67
460.964	1229.97
461.337	1243.53
461.71	1247.14
462.083	1270.42
462.456	1281.94
462.829	1290.98
463.201	1285.79
463.574	1312.9
463.947	1323.07
464.32	1336.18
464.692	1374.14
465.065	1373.24
465.438	1364.65
465.81	1390.87
466.183	1414.82
466.555	1426.57
466.928	1433.13
467.3	1429.74
467.672	1450.98
468.045	1500.7
468.417	1492.56
468.789	1516.29
469.161	1528.49
469.534	1576.17
469.906	1594.03
470.278	1615.27
470.65	1642.16
471.022	1667.47
471.394	1654.82
471.766	1697.07
472.138	1730.29
472.51	1730.97
472.882	1779.33
473.253	1797.64
473.625	1810.29
473.997	1869.05
474.369	1869.05
474.74	1909.72
475.112	1962.83
475.484	1969.84
475.855	2002.38
476.227	2002.15
476.598	2058.87
476.97	2121.02
477.341	2137.74
477.713	2138.42
478.084	2171.86
478.455	2232.88
478.827	2260.45
479.198	2306.78
479.569	2318.98
479.94	2417.06
480.311	2422.25
480.682	2477.62
481.053	2532.98
481.424	2588.12
481.795	2633.09
482.166	2642.59
482.537	2669.93
482.908	2721
483.279	2830.15
483.65	2837.61
484.021	2876.03
484.391	2944.27
484.762	2948.34
485.133	3006.42
485.503	3036.02
485.874	3138.17
486.244	3160.99
486.615	3195.34
486.985	3251.61
487.356	3330.93
487.726	3366.63
488.097	3386.07
488.467	3423.58
488.837	3540.42
489.207	3554.65
489.578	3595.1
489.948	3637.14
490.318	3697.02
490.688	3741.54
491.058	3758.94
491.428	3803.91
491.798	3882.1
492.168	3945.83
492.538	3971.36
492.908	4025.83
493.278	4104.69
493.648	4124.35
494.017	4129.33
494.387	4174.07
494.757	4213.62
495.126	4314.63
495.496	4323.67
495.866	4361.64
496.235	4388.53
496.605	4404.12
496.974	4457.23
497.344	4527.51
497.713	4553.04
498.082	4580.39
498.452	4614.74
498.821	4678.92
499.19	4645.7
499.559	4719.82
499.928	4762.08
500.298	4729.31
500.667	4834.17
501.036	4845.69
501.405	4868.97
501.774	4906.03
502.143	4939.25
502.512	4933.6
502.88	4975.18
503.249	4992.13
503.618	5022.86
503.987	5034.39
504.356	5085.01
504.724	5128.62
505.093	5093.14
505.462	5202.07
505.83	5178.56
506.199	5236.87
506.567	5270.54
506.936	5313.25
507.304	5320.93
507.672	5350.31
508.041	5374.49
508.409	5445
508.777	5454.04
509.145	5489.29
509.514	5431.89
509.882	5498.33
510.25	5551.66
510.618	5539.46
510.986	5580.59
511.354	5668.72
511.722	5690.64
512.09	5727.02
512.458	5738.1
512.826	5775.38
513.193	5809.28
513.561	5827.36
513.929	5864.2
514.297	5910.52
514.664	5915.27
515.032	5939.9
515.4	6031.65
515.767	6000.69
516.135	5988.49
516.502	5992.55
516.869	6103.74
517.237	6100.8
517.604	6070.07
517.972	6150.52
518.339	6134.25
518.706	6170.4
519.073	6194.36
519.44	6291.98
519.808	6306.22
520.175	6348.93
520.542	6372.66
520.909	6430.06
521.276	6407.23
521.643	6417.4
522.009	6481.13
522.376	6533.78
522.743	6515.93
523.11	6604.06
523.477	6670.28
523.843	6694.23
524.21	6735.59
524.577	6832.31
524.943	6858.29
525.31	6865.75
525.676	6848.13
526.043	6908.24
526.409	6945.52
526.776	6973.55
527.142	7049.93
527.508	7027.33
527.874	7137.83
528.241	7149.36
528.607	7197.95
528.973	7285.4
529.339	7221.22
529.705	7320.65
530.071	7347.77
530.437	7388
530.803	7367.21
531.169	7446.75
531.535	7475.23
531.901	7536.92
532.267	7574.21
532.632	7595.22
532.998	7632.51
533.364	7697.59
533.73	7726.97
534.095	7778.27
534.461	7775.11
534.826	7816.69
535.192	7861.88
535.557	7924.93
535.923	7832.51
536.288	7982.78
536.653	7970.36
537.019	7981.65
537.384	7990.47
537.749	8061.65
538.114	8066.4
538.479	8111.14
538.845	8133.29
539.21	8120.63
539.575	8175.77
539.94	8275.88
540.305	8297.35
540.67	8272.72
541.034	8273.17
541.399	8352.94
541.764	8346.84
542.129	8438.14
542.494	8479.72
542.858	8485.6
543.223	8469.1
543.587	8594.97
543.952	8578.48
544.316	8608.98
544.681	8651.92
545.045	8641.3
545.41	8769.2
545.774	8725.82
546.138	8690.79
546.503	8795.42
546.867	8776.21
547.231	8869.99
547.595	8884
547.959	8930.78
548.324	8949.54
548.688	8901.86
549.052	8970.78
549.416	9014.17
549.779	9072.93
550.143	9085.58
550.507	9140.04
550.871	9140.27
551.235	9208.74
551.599	9192.24
551.962	9275.63
552.326	9262.07
552.689	9314.27
553.053	9286.25
553.417	9358.34
553.78	9416.19
554.143	9447.83
554.507	9475.17
554.87	9468.17
555.234	9561.27
555.597	9524.44
555.96	9576.87
556.323	9636.98
556.686	9666.58
557.05	9708.61
557.413	9770.76
557.776	9785.45
558.139	9840.81
558.502	9873.13
558.865	9817.31
559.228	10012.79
559.59	9942.73
559.953	9964.88
560.316	10003.07
560.679	10005.33
561.041	10103.63
561.404	10194.7
561.767	10196.74
562.129	10124.42
562.492	10348.15
562.854	10281.48
563.217	10302.27
563.579	10349.28
563.941	10361.25
564.304	10450.29
564.666	10448.48
565.028	10446.22
565.39	10545.88
565.753	10547.24
566.115	10575.94
566.477	10658.65
566.839	10624.75
567.201	10792.88
567.563	10773.22
567.925	10803.73
568.287	10886.89
568.648	10900
569.01	11011.86
569.372	10980.67
569.734	10969.6
570.095	11035.81
570.457	11157.16
570.819	11135.47
571.18	11262.47
571.542	11231.29
571.903	11269.25
572.265	11355.13
572.626	11379.53
572.987	11349.93
573.349	11446.87
573.71	11464.5
574.071	11518.06
574.432	11693.65
574.794	11758.73
575.155	11766.64
575.516	11794.89
575.877	11925.73
576.238	11905.85
576.599	12025.84
576.96	12003.7
577.32	12114.88
577.681	12202.79
578.042	12341.54
578.403	12340.41
578.763	12446.85
579.124	12521.2
579.485	12639.84
579.845	12787.18
580.206	12817.46
580.566	12908.3
580.927	13021.52
581.287	13151.01
581.648	13194.85
582.008	13379.7
582.368	13445.24
582.728	13639.13
583.089	13746.7
583.449	13837.09
583.809	14106.69
584.169	14286.8
584.529	14258.78
584.889	14617.86
585.249	14719.56
585.609	14793.23
585.969	15096.04
586.329	15165.42
586.688	15387.34
587.048	15629.82
587.408	15819.64
587.768	16052.18
588.127	16207.43
588.487	16377.59
588.846	16776.9
589.206	16873.4
589.565	17018.48
589.925	17506.83
590.284	17573.49
590.643	17910.66
591.003	18125.79
591.362	18470.64
591.721	18585.67
592.08	18967.81
592.44	19154.02
592.799	19488.47
593.158	19740.89
593.517	19951.06
593.876	20271.73
594.235	20503.81
594.593	20858.6
594.952	21053.18
595.311	21322.77
595.67	21561.64
596.029	22033.94
596.387	22339.24
596.746	22725.22
597.104	22731.1
597.463	23132.67
597.822	23581.47
598.18	23682.71
598.538	24111.63
598.897	24522.24
599.255	24537.83
599.613	25147.3
599.972	25274.53
600.33	25639.27
600.688	25775.08
601.046	26263.21
601.404	26613.93
601.762	26823.87
602.12	27143.41
602.478	27391.99
602.836	27683.51
603.194	27791.08
603.552	28085.53
603.91	28268.8
604.268	28695.46
604.625	28944.27
604.983	29189.68
605.341	29508.32
605.698	29823.34
606.056	30100.85
606.413	30276.44
606.771	30758.91
607.128	30893.82
607.485	30947.38
607.843	31219.91
608.2	31493.13
608.557	31970.85
608.914	32082.72
609.272	32366.1
609.629	32656.71
609.986	33024.61
610.343	33054.89
610.7	33417.14
611.057	33638.61
611.414	33783.01
611.771	34015.09
612.127	34411.02
612.484	34457.12
612.841	34627.73
613.198	34791.8
613.554	35018.01
613.911	35497.99
614.267	35429.52
614.624	35584.77
614.98	35810.53
615.337	36163.06
615.693	36163.74
616.05	36281.25
616.406	36586.1
616.762	36720.11
617.118	36864.51
617.475	36940.89
617.831	37129.14
618.187	37345.63
618.543	37549.24
618.899	37840.3
619.255	37810.25
619.611	37951.26
619.967	38304.25
620.323	38312.16
620.678	38328.88
621.034	38434.64
621.39	38615.65
621.746	38579.27
622.101	39160.72
622.457	38920.28
622.812	39146.94
623.168	39242.08
623.523	39377.21
623.879	39560.03
624.234	39350.1
624.589	39705.79
624.945	39740.82
625.3	39763.64
625.655	39839.57
626.01	39974.94
626.365	40123.41
626.72	40087.48
627.075	40148.27
627.43	39968.61
627.785	40075.27
628.14	40300.35
628.495	40421.48
628.85	40330.18
629.205	40387.13
629.559	40621.02
629.914	40516.39
630.269	40660.34
630.623	40521.59
630.978	40566.79
631.332	40746.22
631.687	40824.86
632.041	40774.24
632.396	40880.9
632.75	40585.77
633.104	40846.55
633.459	40587.58
633.813	40643.62
634.167	40760.68
634.521	40742.38
634.875	40892.43
635.229	40963.39
635.583	40776.95
635.937	40703.96
636.291	40732.21
636.645	40851.98
636.999	40871.41
637.352	40929.04
637.706	40766.1
638.06	40823.28
638.413	40852.88
638.767	40754.13
639.121	40868.25
639.474	40566.79
639.828	40668.93
640.181	40778.31
640.534	40884.07
640.888	40646.78
641.241	40561.81
641.594	40651.3
641.947	40824.86
642.301	40750.06
642.654	40623.51
643.007	40842.26
643.36	40599.1
643.713	40579.89
644.066	40828.25
644.419	40414.47
644.771	40326.11
645.124	39954.15
645.477	40024.88
645.83	39856.07
646.182	39631.9
646.535	39598.9
646.888	39608.85
647.24	39398.46
647.593	39559.13
647.945	39558.9
648.298	39320.27
648.65	39294.96
649.002	39277.33
649.355	39464.44
649.707	39322.07
650.059	39535.18
650.411	40023.75
650.763	40030.98
651.115	40541.93
651.467	40252.9
651.819	40269.39
652.171	40175.16
652.523	40184.2
652.875	40146.01
653.227	39896.52
653.578	40109.85
653.93	40094.93
654.282	40054.94
654.633	39982.4
654.985	39967.25
655.337	39905.56
655.688	40002.96
656.039	40078.21
656.391	39630.54
656.742	39849.52
657.094	39929.06
657.445	40050.64
657.796	39943.3
658.147	39656.75
658.498	39787.37
658.849	39926.58
659.2	39802.06
659.551	39790.99
659.902	39897.2
660.253	39802.06
660.604	39991.89
660.955	39538.79
661.306	39772.01
661.656	39655.62
662.007	39747.6
662.358	39653.36
662.708	39798.67
663.059	39877.77
663.409	39546.47
663.76	39722.74
664.11	39727.26
664.461	39842.96
664.811	39759.58
665.161	39720.03
665.511	39646.81
665.862	39676.19
666.212	39869.18
666.562	39803.42
666.912	39732.68
667.262	39634.38
667.612	39511.45
667.962	39646.58
668.312	39595.74
668.662	39760.93
669.011	39694.72
669.361	39684.1
669.711	39547.6
670.06	39611.11
670.41	39571.78
670.76	39416.99
671.109	39441.62
671.459	39436.87
671.808	39443.2
672.157	39530.43
672.507	39343.99
672.856	39369.98
673.205	39363.2
673.554	39517.55
673.904	39293.15
674.253	39416.76
674.602	39416.08
674.951	38939.94
675.3	38662.2
675.649	39290.21
675.998	39210.21
676.346	39280.49
676.695	39406.36
677.044	39079.59
677.393	39214.51
677.741	39188.29
678.09	39071.01
678.438	39079.37
678.787	39170.66
679.135	39181.29
679.484	38937.9
679.832	39089.09
680.181	38723.45
680.529	39010.22
680.877	38747.63
681.225	38737.23
681.573	38792.82
681.922	38690.9
682.27	38624.01
682.618	38491.59
682.966	38489.33
683.314	38577.46
683.661	38464.24
684.009	38207.07
684.357	38224.7
684.705	38275.77
685.053	38164.14
685.4	38290.01
685.748	37836.46
686.095	38083.69
686.443	37760.53
686.79	37713.98
687.138	37887.53
687.485	37833.52
687.832	37659.29
688.18	37770.02
688.527	37484.61
688.874	37472.4
689.221	37575.68
689.568	37382.92
689.915	37335.01
690.262	37279.87
690.609	37167.1
690.956	37059.53
691.303	37015.02
691.65	36898.86
691.997	36950.38
692.344	36494.58
692.69	36545.65
693.037	36547.68
693.383	36367.57
693.73	36483.28
694.077	36185.66
694.423	36304.75
694.769	36093.68
695.116	35991.77
695.462	36130.74
695.808	35893.46
696.155	35895.27
696.501	35607.59
696.847	35580.25
697.193	35398.11
697.539	35584.32
697.885	35354.49
698.231	35208.51
698.577	35181.84
698.923	35018.46
699.269	34908.86
699.614	34817.11
699.96	34799.48
700.306	34694.62
700.651	34620.73
700.997	34566.04
701.342	34406.04
701.688	34418.25
702.033	34337.8
702.379	34237.91
702.724	34091.02
703.069	34185.94
703.415	33740.75
703.76	33817.36
704.105	33878.83
704.45	33843.35
704.795	33616.01
705.14	33528.55
705.485	33501.44
705.83	33348.67
706.175	33484.71
706.52	33220.76
706.865	33170.37
707.209	33152.74
707.554	33034.56
707.899	33027.55
708.243	32951.39
708.588	32853.77
708.932	32536.04
709.277	32749.59
709.621	32591.4
709.966	32484.74
710.31	32484.29
710.654	32175.59
710.998	32256.95
711.342	32211.53
711.687	32090.85
712.031	31921.14
712.375	31843.63
712.719	31945.09
713.063	31847.69
713.407	31988.25
713.75	31813.57
714.094	31723.18
714.438	31634.82
714.782	31735.15
715.125	31504.88
715.469	31468.72
715.812	31461.72
716.156	31320.93
716.499	31309.85
716.843	31305.34
717.186	31151.21
717.53	31238.44
717.873	31271.66
718.216	31156.41
718.559	31022.18
718.902	30863.76
719.246	30934.27
719.589	30841.84
719.932	30774.5
720.275	30807.72
720.617	30767.04
720.96	30529.99
721.303	30595.98
721.646	30578.57
721.989	30237.11
722.331	30509.88
722.674	30337.9
723.016	30492.7
723.359	30272.37
723.701	30311.69
724.044	30050.23
724.386	30043.67
724.729	30202.99
725.071	29971.36
725.413	29867.18
725.755	29902.43
726.097	29937.69
726.439	29643.01
726.782	29697.24
727.124	29789.22
727.465	29624.93
727.807	29585.38
728.149	29555.32
728.491	29497.7
728.833	29549.9
729.175	29330.47
729.516	29306.52
729.858	29265.16
730.199	29360.08
730.541	29229.91
730.882	29134.54
731.224	29249.57
731.565	29115.79
731.906	29080.53
732.248	29158.5
732.589	28866.98
732.93	28884.16
733.271	28941.78
733.612	28928.9
733.953	28917.83
734.294	28877.6
734.635	28663.6
734.976	28853.2
735.317	28617.04
735.658	28671.73
735.999	28702.47
736.339	28620.66
736.68	28614.78
737.021	28512.41
737.361	28364.17
737.702	28601.68
738.042	28655.91
738.383	28387.22
738.723	28360.78
739.063	28348.12
739.404	28325.98
739.744	28163.72
740.084	28157.85
740.424	28140.67
740.764	28035.36
741.104	28218.64
741.444	27896.61
741.784	27921.7
742.124	27902.26
742.464	27890.96
742.804	27858.65
743.143	27854.35
743.483	27883.05
743.823	27764.41
744.162	27730.51
744.502	27809.38
744.841	27554.47
745.181	27692.1
745.52	27530.07
745.86	27452.56
746.199	27501.37
746.538	27530.75
746.877	27548.15
747.216	27429.05
747.556	27412.78
747.895	27326
748.234	27279.9
748.573	27287.81
748.911	27133.47
749.25	27230.41
749.589	27041.27
749.928	27072.68
750.267	27141.38
750.605	27081.04
750.944	26924.89
751.283	26857.99
751.621	26956.75
751.96	26872.23
752.298	26903.64
752.636	26792.23
752.975	26768.28
753.313	26604.44
753.651	26681.05
753.989	26487.38
754.327	26657.32
754.666	26372.36
755.004	26361.06
755.342	26377.56
755.679	26276.99
756.017	26186.83
756.355	26290.1
756.693	26145.24
757.031	26214.85
757.368	26004.68
757.706	25957
758.044	25959.26
758.381	25974.63
758.719	25763.11
759.056	25832.71
759.394	25817.57
759.731	25616.67
760.068	25527.63
760.405	25501.42
760.743	25470.23
761.08	25420.97
761.417	25305.04
761.754	25355.89
762.091	25246.06
762.428	25136.01
762.765	24926.52
763.102	24988.89
763.438	24859.4
763.775	24802.91
764.112	24849.46
764.449	24941.43
764.785	24753.64
765.122	24597.26
765.458	24571.05
765.795	24396.14
766.131	24371.51
766.467	24249.02
766.804	24133.55
767.14	24163.15
767.476	24101.68
767.812	24052.19
768.148	23958.86
768.485	23798.87
768.821	23741.24
769.157	23702.15
769.492	23599.55
769.828	23562.94
770.164	23325.66
770.5	23371.76
770.836	23365.88
771.171	23296.96
771.507	23155.94
771.842	22910.98
772.178	22989.85
772.513	23059.45
772.849	22847.25
773.184	22786.46
773.519	22825.56
773.855	22572.46
774.19	22612
774.525	22515.74
774.86	22432.12
775.195	22433.03
775.53	22236.42
775.865	22098.12
776.2	22108.97
776.535	21968.86
776.87	21930.44
777.205	21724.12
777.539	21799.37
777.874	21742.87
778.209	21474.41
778.543	21428.08
778.878	21384.24
779.212	21391.92
779.547	21198.03
779.881	21353.51
780.215	20986.74
780.55	21153.51
780.884	20946.74
781.218	20948.32
781.552	20963.69
781.886	20834.65
782.22	20658.84
782.554	20652.28
782.888	20505.85
783.222	20421.78
783.556	20320.09
783.889	20284.38
784.223	20124.39
784.557	20070.83
784.89	20059.3
785.224	20036.25
785.557	19976.82
785.891	19909.02
786.224	19816.37
786.558	19777.05
786.891	19687.79
787.224	19459.54
787.557	19488.7
787.891	19511.75
788.224	19343.84
788.557	19428.81
788.89	19318.08
789.223	19236.73
789.556	19152.43
789.888	19145.88
790.221	19050.29
790.554	18869.96
790.887	18854.36
791.219	18810.52
791.552	18796.06
791.884	18638.55
792.217	18570.98
792.549	18567.36
792.882	18380.25
793.214	18384.09
793.546	18441.49
793.879	18266.81
794.211	18077.21
794.543	18173.93
794.875	18113.59
795.207	18140.03
795.539	18098.68
795.871	17903.65
796.203	17773.94
796.535	17774.62
796.867	17700.72
797.198	17612.36
797.53	17726.94
797.862	17440.16
798.193	17496.21
798.525	17477.45
798.856	17495.98
799.188	17288.98
799.519	17245.82
799.85	17090.34
800.182	17161.07
800.513	17094.64
800.844	17012.83
801.175	17051.02
801.506	17034.75
801.837	16968.76
802.168	16980.06
802.499	16835.89
802.83	16696
803.161	16808.09
803.491	16780.75
803.822	16725.61
804.153	16667.75
804.483	16449.23
804.814	16481.77
805.145	16471.37
805.475	16390.25
805.805	16337.37
806.136	16382.79
806.466	16349.8
806.796	16294.66
807.126	16200.2
807.457	16096.47
807.787	15996.81
808.117	16051.95
808.447	15882.92
808.777	15938.96
809.107	15802.01
809.436	15837.95
809.766	15850.15
810.096	15756.37
810.426	15659.19
810.755	15760.66
811.085	15687.21
811.414	15661
811.744	15488.8
812.073	15577.39
812.403	15510.5
812.732	15434.11
813.061	15401.12
813.39	15253.1
813.719	15238.86
814.049	15344.17
814.378	15279.32
814.707	15239.77
815.036	15143.73
815.365	15155.48
815.693	14960
816.022	14968.82
816.351	14887.46
816.68	14875.03
817.008	14884.52
817.337	14734.25
817.665	14713.23
817.994	14742.83
818.322	14717.07
818.651	14677.75
818.979	14685.66
819.307	14674.59
819.636	14623.06
819.964	14512.78
820.292	14617.64
820.62	14527.92
820.948	14563.4
821.276	14519.11
821.604	14490.64
821.932	14477.08
822.259	14504.87
822.587	14388.49
822.915	14375.38
823.243	14510.97
823.57	14416.97
823.898	14436.85
824.225	14338.1
824.553	14348.27
824.88	14422.39
825.207	14431.65
825.535	14372.67
825.862	14376.97
826.189	14339.91
826.516	14430.07
826.843	14506.45
827.17	14459.22
827.497	14392.56
827.824	14464.65
828.151	14418.32
828.478	14412.9
828.805	14488.6
829.131	14438.66
829.458	14313.24
829.785	14355.95
830.111	14368.61
830.438	14360.24
830.764	14466.23
831.09	14400.69
831.417	14361.15
831.743	14370.87
832.069	14375.84
832.395	14292.68
832.722	14363.18
833.048	14226.91
833.374	14265.11
833.7	14148.05
834.026	14178.1
834.351	14267.82
834.677	14283.64
835.003	14290.64
835.329	14216.97
835.654	14164.77
835.98	14077.54
836.306	14122.74
836.631	14009.97
836.956	14102.17
837.282	14083.42
837.607	14013.81
837.932	14049.52
838.258	13964.1
838.583	13957.77
838.908	13898.11
839.233	13925.23
839.558	13940.37
839.883	13817.21
840.208	13818.34
840.533	13885.91
840.858	13713.71
841.182	13786.02
841.507	13775.17
841.832	13620.15
842.156	13659.92
842.481	13716.64
842.805	13607.04
843.13	13552.58
843.454	13581.06
843.778	13578.34
844.103	13504.67
844.427	13523.88
844.751	13431.45
845.075	13406.6
845.399	13340.84
845.723	13305.58
846.047	13343.1
846.371	13225.13
846.695	13197.79
847.019	13176.32
847.343	13092.48
847.666	13044.12
847.99	12942.65
848.313	12971.35
848.637	12839.61
848.96	12784.92
849.284	12790.79
849.607	12826.72
849.931	12639.84
850.254	12527.52
850.577	12515.09
850.9	12436.23
851.223	12398.49
851.546	12409.56
851.869	12252.5
852.192	12338.38
852.515	12233.97
852.838	12206.63
853.161	12225.16
853.483	12123.69
853.806	12001.89
854.129	12022.45
854.451	12023.13
854.774	11975.45
855.096	11880.08
855.419	11880.99
855.741	11858.61
856.063	11782.46
856.385	11740.65
856.708	11699.07
857.03	11688.9
857.352	11656.59
857.674	11620.43
857.996	11602.35
858.318	11516.02
858.64	11577.94
858.961	11489.81
859.283	11476.03
859.605	11391.73
859.926	11435.58
860.248	11351.96
860.57	11299.76
860.891	11358.06
861.212	11271.96
861.534	11212.76
861.855	11240.78
862.176	11186.32
862.498	11191.06
862.819	11280.55
863.14	11087.34
863.461	11070.84
863.782	11073.78
864.103	11057.96
864.424	11008.24
864.745	11080.56
865.065	10968.69
865.386	10919.2
865.707	10974.34
866.027	10973.44
866.348	10945.19
866.668	10894.35
866.989	10841.92
867.309	10826.33
867.63	10839.88
867.95	10799.21
868.27	10746.1
868.59	10756.27
868.91	10733.67
869.23	10751.3
869.55	10694.58
869.87	10723.5
870.19	10690.51
870.51	10768.7
870.83	10751.75
871.15	10623.17
871.469	10606.67
871.789	10721.24
872.109	10625.2
872.428	10578.87
872.748	10548.14
873.067	10581.81
873.386	10665.88
873.706	10584.75
874.025	10521.47
874.344	10412.55
874.663	10461.14
874.982	10437.18
875.301	10431.76
875.62	10391.76
875.939	10327.13
876.258	10395.6
876.577	10240.13
876.896	10338.2
877.214	10220.69
877.533	10363.74
877.852	10288.49
878.17	10225.44
878.489	10220.69
878.807	10294.81
879.125	10229.73
879.444	10184.08
879.762	10236.28
880.08	10200.58
880.398	10153.8
880.716	10130.07
881.034	10123.97
881.352	10068.83
881.67	10055.27
881.988	10056.18
882.306	10032.67
882.624	10010.53
882.941	9950.42
883.259	9994.48
883.577	9941.38
883.894	9891.66
884.212	9913.58
884.529	9885.79
884.846	9756.3
885.164	9832.91
885.481	9725.34
885.798	9768.5
886.115	9669.29
886.432	9711.55
886.75	9709.07
887.067	9717.65
887.383	9703.42
887.7	9678.11
888.017	9588.84
888.334	9596.75
888.651	9500.71
888.967	9508.17
889.284	9450.77
889.6	9458.9
889.917	9349.98
890.233	9437.89
890.55	9309.76
890.866	9402.41
891.182	9405.12
891.498	9275.86
891.815	9307.27
892.131	9212.81
892.447	9232.02
892.763	9227.95
893.079	9198.12
893.395	9140.95
893.71	9119.7
894.026	9154.73
894.342	9044.9
894.657	9034.28
894.973	9029.99
895.289	9035.41
895.604	8957.9
895.92	8895.98
896.235	8821.18
896.55	8887.39
896.865	8818.92
897.181	8801.52
897.496	8892.59
897.811	8735.31
898.126	8733.27
898.441	8677.91
898.756	8675.42
899.071	8639.72
899.386	8635.87
899.7	8517.69
900.015	8525.37
900.33	8515.88
900.644	8477.91
900.959	8432.49
901.273	8370.8
901.588	8393.62
901.902	8319.5
902.216	8349.78
902.531	8276.56
902.845	8311.59
903.159	8139.16
903.473	8256.68
903.787	8157.92
904.101	8085.15
904.415	8145.72
904.729	8054.2
905.042	8040.18
905.356	8052.39
905.67	8012.84
905.984	7992.73
906.297	7995.44
906.611	7885.61
906.924	7877.02
907.237	7866.86
907.551	7877.02
907.864	7775.11
908.177	7771.26
908.491	7742.11
908.804	7715.22
909.117	7632.74
909.43	7594.09
909.743	7577.15
910.056	7567.88
910.368	7580.08
910.681	7450.82
910.994	7513.42
911.307	7466.41
911.619	7377.83
911.932	7441.56
912.244	7389.58
912.557	7332.18
912.869	7291.28
913.181	7290.37
913.494	7266.19
913.806	7168.34
914.118	7171.73
914.43	7129.47
914.742	7159.08
915.054	7059.19
915.366	7057.84
915.678	6997.73
915.99	6991.4
916.302	6950.72
916.613	6951.63
916.925	6936.71
917.236	6890.38
917.548	6872.08
917.859	6900.55
918.171	6826.43
918.482	6771.74
918.794	6767.45
919.105	6724.96
919.416	6719.54
919.727	6652.88
920.038	6682.71
920.349	6589.37
920.66	6628.24
920.971	6613.55
921.282	6522.71
921.593	6508.25
921.903	6461.02
922.214	6483.84
922.525	6447.46
922.835	6398.19
923.146	6364.75
923.456	6328.59
923.767	6338.99
924.077	6325.65
924.387	6277.97
924.697	6255.37
925.008	6225.32
925.318	6182.61
925.628	6173.79
925.938	6134.47
926.248	6071.65
926.558	6025.1
926.867	6077.52
927.177	6013.12
927.487	6026
927.796	5976.51
928.106	5953.23
928.416	5886.34
928.725	5905.78
929.034	5843.63
929.344	5856.51
929.653	5857.64
929.962	5807.7
930.271	5822.84
930.581	5708.04
930.89	5721.37
931.199	5702.17
931.508	5723.86
931.817	5670.08
932.125	5656.07
932.434	5648.61
932.743	5561.61
933.051	5530.65
933.36	5548.95
933.669	5496.07
933.977	5453.81
934.286	5488.39
934.594	5436.64
934.902	5382.85
935.21	5376.75
935.519	5384.21
935.827	5327.71
936.135	5329.29
936.443	5281.16
936.751	5287.49
937.059	5283.87
937.367	5216.3
937.674	5218.56
937.982	5186.93
938.29	5173.82
938.597	5181.28
938.905	5127.72
939.213	5063.31
939.52	5077.55
939.827	5060.6
940.135	5021.28
940.442	5024.67
940.749	5006.59
941.056	5008.4
941.363	4931.34
941.67	4922.53
941.977	4921.62
942.284	4850.66
942.591	4902.64
942.898	4919.36
943.205	4802.76
943.511	4792.81
943.818	4775.41
944.125	4764.11
944.431	4755.52
944.738	4728.41
945.044	4695.64
945.35	4674.62
945.657	4660.39
945.963	4667.39
946.269	4599.14
946.575	4637.11
946.881	4604.34
947.187	4576.77
947.493	4588.3
947.799	4537.68
948.105	4514.18
948.41	4495.87
948.716	4470.11
949.022	4453.16
949.327	4441.18
949.633	4414.52
949.938	4401.41
950.244	4380.17
950.549	4353.28
950.854	4318.02
951.16	4358.7
951.465	4306.95
951.77	4275.09
952.075	4217.01
952.38	4245.26
952.685	4221.75
952.99	4218.36
953.294	4247.52
953.599	4177.46
953.904	4178.82
954.209	4116.22
954.513	4127.29
954.818	4058.59
955.122	4103.79
955.426	4028.76
955.731	4083.23
956.035	4014.08
956.339	3987.86
956.643	3989.44
956.948	3958.94
957.252	3974.08
957.556	3922.1
957.86	3968.65
958.163	3953.29
958.467	3905.15
958.771	3897.24
959.075	3896.79
959.378	3867.19
959.682	3839.16
959.985	3783.12
960.289	3783.12
960.592	3786.06
960.896	3749.45
961.199	3750.58
961.502	3692.73
961.805	3679.39
962.108	3693.63
962.411	3701.54
962.714	3660.86
963.017	3607.53
963.32	3650.47
963.623	3608.21
963.926	3632.84
964.228	3572.05
964.531	3552.84
964.833	3570.7
965.136	3521.66
965.438	3496.57
965.741	3478.04
966.043	3509.68
966.345	3516.69
966.648	3448.89
966.95	3459.06
967.252	3419.06
967.554	3438.05
967.856	3414.32
968.158	3390.59
968.46	3374.09
968.761	3340.65
969.063	3312.85
969.365	3306.3
969.666	3315.56
969.968	3327.99
970.269	3282.12
970.571	3269.69
970.872	3282.57
971.174	3266.3
971.475	3269.01
971.776	3259.97
972.077	3235.56
972.378	3219.97
972.679	3233.3
972.98	3182.68
973.281	3169.13
973.582	3137.26
973.883	3165.28
974.183	3073.08
974.484	3126.41
974.785	3050.48
975.085	3052.52
975.386	3066.76
975.686	3020.66
975.986	3026.98
976.287	2998.28
976.587	2968
976.887	2964.39
977.187	2965.74
977.487	2953.99
977.787	2962.35
978.087	2934.1
978.387	2904.05
978.687	2886.87
978.987	2885.74
979.286	2880.55
979.586	2903.14
979.885	2852.3
980.185	2830.6
980.484	2826.08
980.784	2817.95
981.083	2811.4
981.382	2807.78
981.682	2796.71
981.981	2771.62
982.28	2760.32
982.579	2738.85
982.878	2756.93
983.177	2737.5
983.475	2731.62
983.774	2704.73
984.073	2670.83
984.372	2681
984.67	2651.4
984.969	2655.69
985.267	2632.87
985.566	2640.1
985.864	2624.73
986.162	2605.3
986.461	2606.2
986.759	2598.75
987.057	2558.07
987.355	2534.79
987.653	2534.11
987.951	2549.48
988.249	2530.72
988.547	2533.89
988.844	2492.76
989.142	2509.48
989.44	2490.73
989.737	2483.04
990.035	2439.88
990.332	2465.87
990.63	2431.52
990.927	2434
991.224	2410.5
991.521	2403.04
991.819	2397.62
992.116	2389.26
992.413	2390.39
992.71	2379.32
993.006	2360.79
993.303	2307.23
993.6	2300.45
993.897	2345.42
994.193	2299.32
994.49	2286.21
994.787	2269.94
995.083	2287.79
995.379	2270.17
995.676	2245.53
995.972	2242.6
996.268	2250.73
996.565	2238.3
996.861	2180.45
997.157	2206.21
997.453	2203.05
997.749	2167.57
998.044	2168.7
998.34	2163.5
998.636	2176.38
998.932	2149.27
999.227	2131.86
999.523	2116.72
999.818	2125.76
1000.114	2089.38
1000.409	2082.37
1000.704	2090.74
1001	2013
1001.295	2004.64
1001.59	2029.72
1001.885	2027.46
1002.18	2011.87
1002.475	2001.47
1002.77	2005.54
1003.065	1993.34
1003.359	1964.64
1003.654	1979.1
1003.949	1948.59
1004.243	1915.37
1004.538	1921.93
1004.832	1931.64
1005.127	1942.49
1005.421	1894.36
1005.715	1889.84
1006.009	1857.75
1006.304	1855.04
1006.598	1821.59
1006.892	1830.18
1007.186	1803.74
1007.48	1826.56
1007.773	1801.7
1008.067	1814.81
1008.361	1793.57
1008.655	1818.43
1008.948	1796.51
1009.242	1782.04
1009.535	1731.2
1009.829	1744.08
1010.122	1741.82
1010.415	1733.46
1010.708	1725.32
1011.001	1708.83
1011.295	1688.03
1011.588	1700.92
1011.881	1693.68
1012.173	1680.35
1012.466	1650.07
1012.759	1631.77
1013.052	1660.69
1013.344	1639
1013.637	1652.33
1013.93	1601.03
1014.222	1616.4
1014.514	1605.33
1014.807	1585.21
1015.099	1577.08
1015.391	1591.77
1015.683	1548.83
1015.976	1544.08
1016.268	1542.73
1016.56	1534.14
1016.851	1502.95
1017.143	1518.1
1017.435	1519.68
1017.727	1504.08
1018.018	1485.78
1018.31	1480.58
1018.602	1471.32
1018.893	1459.79
1019.185	1461.83
1019.476	1431.77
1019.767	1440.81
1020.058	1418.21
1020.35	1426.57
1020.641	1421.15
1020.932	1406.23
1021.223	1393.13
1021.514	1373.69
1021.804	1343.86
1022.095	1367.14
1022.386	1353.35
1022.677	1343.19
1022.967	1340.47
1023.258	1331.21
1023.548	1306.12
1023.839	1324.43
1024.129	1296.18
1024.419	1288.95
1024.709	1257.31
1025	1274.94
1025.29	1260.48
1025.58	1257.31
1025.87	1276.75
1026.16	1243.07
1026.449	1234.26
1026.739	1228.39
1027.029	1242.85
1027.319	1190.42
1027.608	1206.92
1027.898	1195.62
1028.187	1166.69
1028.477	1191.78
1028.766	1162.62
1029.055	1155.62
1029.344	1168.95
1029.634	1145.9
1029.923	1155.85
1030.212	1147.03
1030.501	1156.07
1030.79	1162.17
1031.078	1112.68
1031.367	1107.94
1031.656	1081.27
1031.945	1121.95
1032.233	1091.67
1032.522	1066.58
1032.81	1073.59
1033.099	1072.68
1033.387	1054.38
1033.675	1058.22
1033.963	1048.96
1034.251	1067.94
1034.54	1032.23
1034.828	1037.66
1035.116	1011.22
1035.403	1011.89
1035.691	1014.61
1035.979	991.33
1036.267	999.24
1036.554	992.46
1036.842	971.22
1037.129	966.92
1037.417	976.42
1037.704	978
1037.992	964.66
1038.279	954.95
1038.566	928.05
1038.853	928.05
1039.14	928.05
