Data from hue_340_FLMS001491_65.txt Node
Date: Mon Feb 06 15:43:26 GMT 2017
User: dcchb
Spectrometer: FLMS00149
Trigger mode: 0
Integration Time (sec): 2.000000E-2
Scans to average: 10
Electric dark correction enabled: true
Nonlinearity correction enabled: false
Boxcar width: 0
XAxis mode: Wavelengths
Number of Pixels in Spectrum: 2048
>>>>>Begin Spectral Data<<<<<
341.393	-14.12
341.776	-14.12
342.16	-14.12
342.543	-88.7
342.927	-69.49
343.31	-73.56
343.693	-63.61
344.077	-68.36
344.46	-63.84
344.843	-43.28
345.226	-54.12
345.61	-18.42
345.993	-14.12
346.376	-14.12
346.759	15.03
347.142	24.97
347.525	41.24
347.908	46.21
348.291	68.59
348.674	97.96
349.057	119.43
349.44	112.43
349.823	153.1
350.206	163.95
350.588	175.7
350.971	188.81
351.354	216.38
351.737	230.84
352.119	232.88
352.502	257.73
352.884	278.98
353.267	282.82
353.65	279.88
354.032	300.22
354.414	292.99
354.797	300.22
355.179	325.75
355.562	310.16
355.944	322.82
356.326	317.17
356.709	340.89
357.091	318.3
357.473	321.23
357.855	345.64
358.238	342.93
358.62	326.43
359.002	338.86
359.384	318.07
359.766	335.7
360.148	343.83
360.53	340.89
360.912	329.14
361.294	323.27
361.676	307.9
362.057	319.43
362.439	324.85
362.821	330.05
363.203	331.63
363.584	310.16
363.966	328.47
364.348	317.17
364.729	322.59
365.111	304.51
365.493	309.48
365.874	321.23
366.256	307.9
366.637	298.86
367.019	307.9
367.4	314
367.781	299.99
368.163	280.33
368.544	325.3
368.925	315.13
369.306	302.48
369.688	300.67
370.069	298.18
370.45	323.72
370.831	321.46
371.212	326.21
371.593	293.66
371.974	336.83
372.355	312.87
372.736	309.48
373.117	339.09
373.498	312.2
373.879	309.48
374.26	309.94
374.641	319.2
375.021	323.72
375.402	306.55
375.783	309.26
376.163	311.97
376.544	302.7
376.925	320.33
377.305	313.78
377.686	308.13
378.066	310.16
378.447	321.46
378.827	320.33
379.208	324.4
379.588	340.22
379.968	333.21
380.349	318.97
380.729	330.5
381.109	318.52
381.489	326.21
381.87	345.41
382.25	319.88
382.63	320.56
383.01	331.4
383.39	344.06
383.77	332.76
384.15	309.48
384.53	343.38
384.91	354.91
385.29	334.12
385.67	332.99
386.049	349.26
386.429	323.72
386.809	362.36
387.189	356.49
387.568	339.99
387.948	326.88
388.328	350.84
388.707	350.16
389.087	360.33
389.466	361.69
389.846	342.93
390.225	360.56
390.605	348.8
390.984	335.92
391.363	358.3
391.743	363.95
392.122	352.42
392.501	361.69
392.881	365.3
393.26	365.53
393.639	363.49
394.018	360.56
394.397	373.89
394.776	393.55
395.155	375.02
395.534	388.13
395.913	364.62
396.292	376.15
396.671	361.69
397.05	361.23
397.429	391.29
397.808	367.33
398.186	385.41
398.565	372.08
398.944	378.86
399.323	378.41
399.701	390.39
400.08	375.24
400.458	382.02
400.837	394.68
401.215	386.77
401.594	381.35
401.972	397.16
402.351	393.32
402.729	396.03
403.107	399.65
403.486	407.11
403.864	384.74
404.242	412.08
404.62	431.29
404.999	390.16
405.377	418.18
405.755	404.62
406.133	402.36
406.511	414.57
406.889	430.38
407.267	427.67
407.645	433.55
408.023	412.31
408.401	430.61
408.779	426.99
409.156	451.63
409.534	432.19
409.912	452.98
410.29	465.19
410.667	436.26
411.045	437.62
411.422	441.68
411.8	446.2
412.178	434.23
412.555	453.89
412.933	482.81
413.31	477.61
413.687	468.8
414.065	471.29
414.442	481.23
414.819	463.6
415.197	475.35
415.574	501.12
415.951	496.6
416.328	497.5
416.705	505.86
417.082	534.79
417.46	521.46
417.837	503.6
418.214	516.26
418.591	525.07
418.967	534.11
419.344	557.61
419.721	513.32
420.098	531.85
420.475	555.13
420.852	546.31
421.228	552.19
421.605	553.54
421.982	561.23
422.358	561.45
422.735	564.84
423.111	580.89
423.488	572.08
423.864	568.91
424.241	582.47
424.617	599.19
424.994	589.93
425.37	603.49
425.746	595.13
426.123	588.8
426.499	609.59
426.875	625.41
427.251	628.8
427.627	616.59
428.003	614.11
428.379	635.35
428.756	639.64
429.132	629.47
429.507	666.99
429.883	654.56
430.259	655.69
430.635	669.93
431.011	670.15
431.387	688.91
431.763	676.25
432.138	691.85
432.514	733.65
432.89	678.29
433.265	710.15
433.641	731.85
434.016	725.29
434.392	709.25
434.767	744.5
435.143	714.9
435.518	744.05
435.894	752.64
436.269	763.71
436.644	772.07
437.02	769.58
437.395	770.04
437.77	760.54
438.145	782.69
438.52	800.32
438.895	775.23
439.271	805.97
439.646	802.8
440.021	840.54
440.395	800.32
440.77	784.5
441.145	818.17
441.52	831.73
441.895	831.96
442.27	841.9
442.645	836.48
443.019	864.5
443.394	841.9
443.769	873.54
444.143	876.25
444.518	871.73
444.892	862.69
445.267	862.01
445.641	852.29
446.016	866.08
446.39	860.88
446.764	882.58
447.139	848
447.513	899.98
447.887	890.94
448.262	884.16
448.636	902.24
449.01	910.82
449.384	932.52
449.758	928.9
450.132	899.3
450.506	921.22
450.88	928.45
451.254	923.7
451.628	927.77
452.002	938.62
452.376	950.82
452.75	956.7
453.123	960.77
453.497	981.33
453.871	958.96
454.244	955.12
454.618	991.73
454.992	965.29
455.365	1004.61
455.739	1002.12
456.112	1020.65
456.486	1042.57
456.859	1029.92
457.232	1066.07
457.606	1060.2
457.979	1053.42
458.352	1073.98
458.725	1077.37
459.099	1077.82
459.472	1099.07
459.845	1091.16
460.218	1119.63
460.591	1104.49
460.964	1125.28
461.337	1141.1
461.71	1140.42
462.083	1163.25
462.456	1149.91
462.829	1148.78
463.201	1182.68
463.574	1178.84
463.947	1193.08
464.32	1212.74
464.692	1240.53
465.065	1236.69
465.438	1252.51
465.81	1249.57
466.183	1270.81
466.555	1303.58
466.928	1287.99
467.3	1264.94
467.672	1309.46
468.045	1357.82
468.417	1346.97
468.789	1342.68
469.161	1375.44
469.534	1372.28
469.906	1401.21
470.278	1394.2
470.65	1422.9
471.022	1437.36
471.394	1465.61
471.766	1464.71
472.138	1456.57
472.51	1544.93
472.882	1527.76
473.253	1528.66
473.625	1564.59
473.997	1587.64
474.369	1589.68
474.74	1614.31
475.112	1615.66
475.484	1667.64
475.855	1670.35
476.227	1675.55
476.598	1726.62
476.97	1713.51
477.341	1761.2
477.713	1799.61
478.084	1792.16
478.455	1803.91
478.827	1876
479.198	1876.45
479.569	1915.32
479.94	1925.94
480.311	1945.37
480.682	2024.47
481.053	2040.29
481.424	2058.36
481.795	2110.79
482.166	2108.98
482.537	2139.49
482.908	2177
483.279	2202.31
483.65	2273.5
484.021	2277.79
484.391	2293.39
484.762	2320.96
485.133	2310.56
485.503	2355.31
485.874	2422.2
486.244	2423.33
486.615	2459.71
486.985	2491.12
487.356	2532.02
487.726	2557.79
488.097	2574.96
488.467	2603.43
488.837	2648.18
489.207	2657.9
489.578	2688.63
489.948	2700.38
490.318	2788.97
490.688	2786.93
491.058	2809.53
491.428	2797.33
491.798	2872.81
492.168	2923.2
492.538	2894.95
492.908	2944.44
493.278	3009.3
493.648	3033.03
494.017	3022.18
494.387	3053.59
494.757	3024.44
495.126	3091.56
495.496	3084.33
495.866	3151.44
496.235	3167.04
496.605	3197.09
496.974	3183.08
497.344	3220.37
497.713	3278.22
498.082	3272.8
498.452	3301.5
498.821	3291.33
499.19	3339.69
499.559	3359.57
499.928	3334.04
500.298	3387.59
500.667	3437.99
501.036	3404.32
501.405	3448.61
501.774	3440.47
502.143	3491.77
502.512	3505.78
502.88	3530.19
503.249	3474.82
503.618	3542.39
503.987	3559.12
504.356	3560.92
504.724	3564.77
505.093	3563.64
505.462	3608.83
505.83	3630.3
506.199	3657.87
506.567	3724.76
506.936	3672.56
507.304	3696.51
507.672	3745.55
508.041	3734.7
508.409	3737.64
508.777	3745.55
509.145	3762.27
509.514	3783.29
509.882	3767.25
510.25	3803.85
510.618	3823.74
510.986	3859.9
511.354	3870.29
511.722	3877.75
512.09	3904.42
512.458	3893.34
512.826	3883.85
513.193	3914.81
513.561	3916.62
513.929	3949.16
514.297	4034.81
514.664	4024.41
515.032	3988.71
515.4	4039.33
515.767	4039.55
516.135	4055.6
516.502	4027.8
516.869	4036.39
517.237	4087.01
517.604	4064.41
517.972	4110.51
518.339	4027.8
518.706	4161.81
519.073	4141.7
519.44	4195.03
519.808	4215.6
520.175	4199.78
520.542	4247.46
520.909	4285.2
521.276	4251.98
521.643	4239.55
522.009	4310.06
522.376	4276.61
522.743	4278.87
523.11	4315.93
523.477	4385.31
523.843	4326.33
524.21	4400.22
524.577	4412.65
524.943	4410.17
525.31	4442.03
525.676	4451.3
526.043	4557.06
526.409	4546.21
526.776	4578.52
527.142	4556.6
527.508	4654.23
527.874	4616.26
528.241	4630.95
528.607	4671.85
528.973	4684.51
529.339	4682.48
529.705	4749.37
530.071	4744.62
530.437	4747.56
530.803	4756.82
531.169	4797.05
531.535	4816.26
531.901	4831.85
532.267	4826.2
532.632	4912.53
532.998	4846.54
533.364	4953.2
533.73	4911.62
534.095	4970.6
534.461	4970.38
534.826	5034.1
535.192	5020.77
535.557	5046.08
535.923	5051.28
536.288	5085.63
536.653	5103.48
537.019	5130.15
537.384	5119.75
537.749	5159.75
538.114	5147.77
538.479	5152.29
538.845	5241.11
539.21	5204.27
539.575	5202.46
539.94	5272.97
540.305	5271.84
540.67	5309.58
541.034	5370.82
541.399	5351.61
541.764	5362.46
542.129	5387.99
542.494	5385.51
542.858	5439.74
543.223	5485.84
543.587	5496.47
543.952	5451.04
544.316	5518.61
544.681	5447.43
545.045	5618.04
545.41	5576.46
545.774	5556.58
546.138	5607.88
546.503	5677.48
546.867	5631.38
547.231	5671.6
547.595	5726.29
547.959	5778.04
548.324	5725.16
548.688	5728.55
549.052	5772.62
549.416	5754.09
549.779	5788.21
550.143	5850.13
550.507	5841.54
550.871	5863.69
551.235	5868.89
551.599	5940.3
551.962	5937.81
552.326	5899.17
552.689	6013.51
553.053	5996.34
553.417	5964.02
553.78	6058.71
554.143	6012.61
554.507	6061.87
554.87	6094.42
555.234	6135.77
555.597	6113.62
555.96	6150.01
556.323	6146.84
556.686	6199.5
557.05	6152.95
557.413	6254.19
557.776	6179.61
558.139	6295.54
558.502	6226.39
558.865	6291.25
559.228	6338.93
559.59	6329.44
559.953	6361.75
560.316	6425.48
560.679	6381.19
561.041	6504.8
561.404	6450.56
561.767	6506.38
562.129	6473.39
562.492	6559.94
562.854	6543.44
563.217	6512.48
563.579	6569.43
563.941	6578.7
564.304	6662.54
564.666	6684.91
565.028	6707.28
565.39	6686.94
565.753	6675.87
566.115	6743.89
566.477	6705.93
566.839	6772.59
567.201	6801.06
567.563	6800.61
567.925	6858.46
568.287	6863.66
568.648	6888.07
569.01	6938.69
569.372	6991.57
569.734	6985.01
570.095	6993.38
570.457	7065.92
570.819	7028.85
571.18	7073.83
571.542	7195.18
571.903	7174.39
572.265	7196.08
572.626	7239.7
572.987	7291.22
573.349	7333.03
573.71	7349.75
574.071	7419.8
574.432	7426.58
574.794	7612.34
575.155	7641.04
575.516	7547.49
575.877	7587.03
576.238	7724.2
576.599	7797.87
576.96	7867.93
577.32	7875.39
577.681	7991.77
578.042	7998.77
578.403	8068.15
578.763	8132.55
579.124	8277.64
579.485	8408.71
579.845	8475.6
580.206	8501.58
580.566	8613.67
580.927	8681.01
581.287	8802.82
581.648	8890.73
582.008	9108.57
582.368	9205.97
582.728	9270.6
583.089	9359.41
583.449	9575.91
583.809	9714.43
584.169	9900.64
584.529	9948.55
584.889	10233.97
585.249	10351.48
585.609	10471.48
585.969	10664.24
586.329	10833.73
586.688	11082.31
587.048	11176.54
587.408	11434.84
587.768	11578.34
588.127	11807.71
588.487	11983.98
588.846	12393.46
589.206	12496.06
589.565	12729.5
589.925	13043.16
590.284	13173.33
590.643	13463.71
591.003	13727.44
591.362	14037.71
591.721	14234.54
592.08	14550.69
592.44	14726.51
592.799	15122.43
593.158	15290.11
593.517	15561.51
593.876	15900.49
594.235	16077.66
594.593	16343.19
594.952	16684.42
595.311	16899.33
595.67	17146.33
596.029	17510.16
596.387	17816.37
596.746	18110.37
597.104	18371.83
597.463	18552.85
597.822	18924.36
598.18	19215.43
598.538	19487.06
598.897	19830.78
599.255	19864.45
599.613	20522.06
599.972	20660.36
600.33	20913.24
600.688	21145.32
601.046	21561.81
601.404	21838.63
601.762	22028.46
602.12	22467.32
602.478	22710.93
602.836	22897.59
603.194	23161.31
603.552	23400.85
603.91	23595.2
604.268	23940.05
604.625	24043.1
604.983	24362.41
605.341	24496.19
605.698	24919.91
606.056	25114.48
606.413	25363.29
606.771	25642.38
607.128	25893.9
607.485	25929.6
607.843	26267.9
608.2	26550.38
608.557	26896.81
608.914	27008.67
609.272	27454.76
609.629	27606.84
609.986	27808.2
610.343	27864.47
610.7	28325.92
611.057	28381.29
611.414	28627.16
611.771	28710.32
612.127	29092
612.484	29356.4
612.841	29536.96
613.198	29587.13
613.554	29770.4
613.911	30090.85
614.267	30252.88
614.624	30241.58
614.98	30456.71
615.337	30792.75
615.693	30829.81
616.05	30955.68
616.406	31337.82
616.762	31196.81
617.118	31370.81
617.475	31660.07
617.831	31835.43
618.187	31853.29
618.543	32054.64
618.899	32396.32
619.255	32436.77
619.611	32601.29
619.967	32733.72
620.323	32721.96
620.678	32871.34
621.034	32914.95
621.39	33050.77
621.746	33051
622.101	33590.42
622.457	33429.29
622.812	33530.98
623.168	33731.2
623.523	33766.91
623.879	33982.27
624.234	33916.74
624.589	34014.81
624.945	34204.86
625.3	34074.47
625.655	34159.89
626.01	34236.95
626.365	34487.12
626.72	34580.67
627.075	34472.65
627.43	34555.14
627.785	34531.63
628.14	34693.66
628.495	34693.44
628.85	34754.23
629.205	34815.02
629.559	35012.07
629.914	34788.8
630.269	34928.91
630.623	34935.01
630.978	35059.98
631.332	35163.26
631.687	35338.39
632.041	35246.64
632.396	35295
632.75	35180.2
633.104	35192.63
633.459	35074.22
633.813	35156.02
634.167	35156.02
634.521	35215.68
634.875	35316.7
635.229	35213.2
635.583	35138.17
635.937	35169.13
636.291	35268.11
636.645	35205.51
636.999	35112.86
637.352	35313.76
637.706	35209.13
638.06	35340.88
638.413	35157.15
638.767	35157.83
639.121	35251.62
639.474	35190.15
639.828	35030.38
640.181	35322.57
640.534	35333.65
640.888	35174.33
641.241	35201
641.594	35223.59
641.947	35237.38
642.301	35168.68
642.654	35174.33
643.007	35340.65
643.36	35251.62
643.713	35143.14
644.066	35197.83
644.419	35155.57
644.771	34805.53
645.124	34576.15
645.477	34470.85
645.83	34468.81
646.182	34219.78
646.535	34151.08
646.888	34334.58
647.24	34059.1
647.593	34380
647.945	34177.07
648.298	34010.07
648.65	34110.4
649.002	33887.81
649.355	34135.26
649.707	34061.14
650.059	34075.15
650.411	34535.48
650.763	34610.73
651.115	34900.44
651.467	34826.09
651.819	34814.34
652.171	34787.45
652.523	34823.38
652.875	34711.06
653.227	34560.33
653.578	34737.5
653.93	34689.37
654.282	34545.65
654.633	34504.29
654.985	34577.28
655.337	34611.18
655.688	34600.79
656.039	34762.59
656.391	34487.34
656.742	34528.24
657.094	34488.92
657.445	34732.08
657.796	34542.48
658.147	34515.36
658.498	34410.28
658.849	34640.78
659.2	34514.23
659.551	34480.56
659.902	34572.54
660.253	34411.64
660.604	34547.45
660.955	34422.71
661.306	34407.57
661.656	34336.61
662.007	34516.72
662.358	34533.22
662.708	34477.17
663.059	34458.64
663.409	34196.28
663.76	34507.45
664.11	34381.36
664.461	34530.28
664.811	34459.77
665.161	34418.19
665.511	34197.63
665.862	34419.09
666.212	34440.56
666.562	34522.14
666.912	34386.55
667.262	34377.06
667.612	34422.94
667.962	34415.71
668.312	34309.49
668.662	34532.09
669.011	34458.64
669.361	34321.02
669.711	34291.41
670.06	34296.84
670.41	34282.38
670.76	34277.63
671.109	34386.55
671.459	34292.32
671.808	34192.89
672.157	34340.68
672.507	34096.39
672.856	34126.22
673.205	34112.89
673.554	34272.43
673.904	34138.88
674.253	34264.3
674.602	34038.77
674.951	33582.51
675.3	33470.87
675.649	34011.87
675.998	34060.23
676.346	33942.72
676.695	34058.65
677.044	33876.74
677.393	33903.85
677.741	34050.52
678.09	33901.59
678.438	33888.94
678.787	33830.18
679.135	33874.25
679.484	33653.01
679.832	33782.28
680.181	33662.5
680.529	33650.75
680.877	33484.2
681.225	33635.39
681.573	33759.9
681.922	33562.39
682.27	33516.29
682.618	33469.29
682.966	33467.26
683.314	33479.01
683.661	33394.26
684.009	33206.7
684.357	33130.99
684.705	33207.6
685.053	33121.73
685.4	33154.72
685.748	32942.3
686.095	32950.43
686.443	32891.9
686.79	32882.41
687.138	32859.14
687.485	32833.83
687.832	32749.08
688.18	32749.31
688.527	32563.32
688.874	32594.74
689.221	32400.62
689.568	32425.25
689.915	32365.36
690.262	32395.87
690.609	32218.02
690.956	32083.34
691.303	32159.95
691.65	32030.91
691.997	31949.33
692.344	31819.16
692.69	31772.61
693.037	31778.71
693.383	31557.48
693.73	31759.05
694.077	31434.31
694.423	31538.72
694.769	31390.25
695.116	31426.18
695.462	31269.57
695.808	31033.65
696.155	31205.17
696.501	31010.82
696.847	31060.09
697.193	30682.7
697.539	31062.35
697.885	30770.38
698.231	30616.26
698.577	30610.61
698.923	30565.86
699.269	30401.35
699.614	30195.03
699.96	30149.15
700.306	30242.48
700.651	30072.99
700.997	29992.32
701.342	30002.71
701.688	29870.29
702.033	29870.51
702.379	29740.57
702.724	29642.05
703.069	29894.47
703.415	29456.29
703.76	29417.87
704.105	29464.2
704.45	29438.43
704.795	29123.19
705.14	29229.85
705.485	29144.43
705.83	29029.63
706.175	28953.48
706.52	28968.84
706.865	28812.01
707.209	28878.45
707.554	28677.55
707.899	28829.64
708.243	28595.29
708.588	28542.87
708.932	28329.31
709.277	28352.81
709.621	28357.33
709.966	28256.32
710.31	28262.65
710.654	28067.85
710.998	28181.74
711.342	28133.84
711.687	27984.69
712.031	27940.62
712.375	27836.44
712.719	27909.89
713.063	27832.15
713.407	27890.23
713.75	27649.1
714.094	27630.12
714.438	27651.82
714.782	27612.27
715.125	27391.48
715.469	27470.35
715.812	27394.19
716.156	27171.15
716.499	27214.54
716.843	27225.16
717.186	27041.21
717.53	27291.15
717.873	27198.49
718.216	26998.27
718.559	27034.66
718.902	26806.87
719.246	26944.72
719.589	26734.78
719.932	26714.21
720.275	26714.89
720.617	26687.09
720.96	26528
721.303	26587.21
721.646	26668.11
721.989	26353.77
722.331	26493.43
722.674	26327.33
723.016	26395.35
723.359	26359.65
723.701	26342.02
724.044	26130.27
724.386	26026.77
724.729	26224.96
725.071	26039.65
725.413	26073.78
725.755	25963.95
726.097	25951.07
726.439	25836.72
726.782	25848.02
727.124	25881.01
727.465	25748.36
727.807	25768.93
728.149	25731.87
728.491	25558.99
728.833	25631.08
729.175	25690.96
729.516	25539.78
729.858	25539.33
730.199	25609.61
730.541	25609.16
730.882	25413.91
731.224	25491.42
731.565	25338.66
731.906	25343.63
732.248	25299.11
732.589	25142.95
732.93	25195.61
733.271	25116.29
733.612	25138.21
733.953	25285.32
734.294	25018.21
734.635	25031.09
734.976	25036.74
735.317	24766.24
735.658	24919.46
735.999	24828.16
736.339	24856.18
736.68	24850.53
737.021	24766.92
737.361	24665.45
737.702	24792.91
738.042	24726.69
738.383	24580.26
738.723	24700.03
739.063	24549.98
739.404	24619.13
739.744	24560.82
740.084	24470.66
740.424	24578.9
740.764	24371.9
741.104	24526.02
741.444	24342.98
741.784	24352.69
742.124	24298.91
742.464	24235.18
742.804	24240.38
743.143	24219.36
743.483	24233.6
743.823	24074.73
744.162	24058.69
744.502	24065.02
744.841	23939.6
745.181	24148.18
745.52	23909.77
745.86	24009.43
746.199	23926.72
746.538	23801.75
746.877	23910.22
747.216	23841.97
747.556	23772.6
747.895	23874.51
748.234	23786.83
748.573	23637.91
748.911	23609.21
749.25	23612.6
749.589	23487.41
749.928	23535.31
750.267	23583.67
750.605	23439.27
750.944	23417.35
751.283	23308.88
751.621	23367.18
751.96	23157.24
752.298	23269.33
752.636	23135.55
752.975	23027.3
753.313	22988.89
753.651	23145.49
753.989	22957.02
754.327	22904.82
754.666	22714.54
755.004	22913.41
755.342	22925.39
755.679	22701.66
756.017	22692.17
756.355	22762.68
756.693	22633.19
757.031	22607.65
757.368	22433.87
757.706	22303.93
758.044	22365.63
758.381	22410.15
758.719	22226.2
759.056	22304.16
759.394	22199.3
759.731	22051.96
760.068	21968.8
760.405	22005.41
760.743	21904.62
761.08	21982.59
761.417	21800.67
761.754	21777.85
762.091	21769.03
762.428	21668.24
762.765	21453.56
763.102	21623.95
763.438	21384.41
763.775	21356.16
764.112	21362.72
764.449	21373.34
764.785	21183.28
765.122	21127.69
765.458	20985.78
765.795	20946
766.131	21064.64
766.467	20931.77
766.804	20826.23
767.14	20699.68
767.476	20780.36
767.812	20628.95
768.148	20621.27
768.485	20515.73
768.821	20451.78
769.157	20329.52
769.492	20221.05
769.828	20236.64
770.164	20136.53
770.5	20113.26
770.836	20025.12
771.171	19960.27
771.507	19972.7
771.842	19804.79
772.178	19818.8
772.513	19638.69
772.849	19779.93
773.184	19519.83
773.519	19581.97
773.855	19462.65
774.19	19374.74
774.525	19299.94
774.86	19381.07
775.195	19186.5
775.53	19130.01
775.865	19070.8
776.2	18902.44
776.535	18758.94
776.87	18845.49
777.205	18747.87
777.539	18654.31
777.874	18805.95
778.209	18549.91
778.543	18464.49
778.878	18393.08
779.212	18376.13
779.547	18314.43
779.881	18223.14
780.215	18161.67
780.55	18127.09
780.884	18128
781.218	18050.03
781.552	17989.02
781.886	17846.2
782.22	17776.82
782.554	17755.58
782.888	17533.89
783.222	17542.25
783.556	17450.5
783.889	17394.23
784.223	17249.38
784.557	17233.78
784.89	17322.6
785.224	17144.07
785.557	17121.7
785.891	17067.46
786.224	17121.92
786.558	16980.46
786.891	16875.38
787.224	16827.02
787.557	16747.24
787.891	16792.89
788.224	16635.61
788.557	16589.73
788.89	16550.19
789.223	16673.12
789.556	16388.83
789.888	16387.93
790.221	16352.45
790.554	16222.74
790.887	16220.93
791.219	16112.91
791.552	16133.7
791.884	15992.91
792.217	16073.81
792.549	15903.65
792.882	15869.3
793.214	15739.81
793.546	15749.53
793.879	15722.19
794.211	15683.09
794.543	15589.31
794.875	15545.24
795.207	15490.78
795.539	15469.08
795.871	15541.85
796.203	15314.74
796.535	15222.99
796.867	15230
797.198	15206.27
797.53	15172.14
797.862	15079.49
798.193	15078.13
798.525	14983
798.856	14968.98
799.188	14825.49
799.519	14748.65
799.85	14694.19
800.182	14707.52
800.513	14691.48
800.844	14531.48
801.175	14713.4
801.506	14608.54
801.837	14512.27
802.168	14535.32
802.499	14432.73
802.83	14324.93
803.161	14416.91
803.491	14346.85
803.822	14252.85
804.153	14199.29
804.483	14167.2
804.814	14034.09
805.145	14111.15
805.475	14008.78
805.805	14044.94
806.136	14030.93
806.466	13991.84
806.796	13918.84
807.126	13828.22
807.457	13782.12
807.787	13826.64
808.117	13719.75
808.447	13689.47
808.777	13758.4
809.107	13600.21
809.436	13540.77
809.766	13567.89
810.096	13536.03
810.426	13439.99
810.755	13523.15
811.085	13440.66
811.414	13474.11
811.744	13290.61
812.073	13245.64
812.403	13294
812.732	13143.72
813.061	13223.04
813.39	13138.75
813.719	13168.13
814.049	13208.58
814.378	13061.92
814.707	13062.59
815.036	12971.75
815.365	12951.86
815.693	12821.7
816.022	12891.75
816.351	12831.41
816.68	12729.5
817.008	12794.8
817.337	12697.41
817.665	12669.84
817.994	12657.18
818.322	12704.64
818.651	12575.6
818.979	12517.3
819.307	12619.89
819.636	12533.57
819.964	12474.59
820.292	12498.09
820.62	12496.06
820.948	12490.41
821.276	12447.47
821.604	12474.14
821.932	12379.45
822.259	12480.91
822.587	12389.84
822.915	12345.78
823.243	12493.12
823.57	12405.66
823.898	12419.9
824.225	12392.56
824.553	12390.3
824.88	12401.37
825.207	12483.85
825.535	12312.33
825.862	12370.86
826.189	12373.12
826.516	12434.14
826.843	12420.8
827.17	12456.73
827.497	12473.91
827.824	12445.66
828.151	12409.96
828.478	12377.41
828.805	12425.55
829.131	12385.78
829.458	12306.91
829.785	12328.83
830.111	12349.62
830.438	12404.98
830.764	12324.53
831.09	12378.32
831.417	12303.07
831.743	12334.93
832.069	12287.47
832.395	12290.64
832.722	12315.27
833.048	12210.41
833.374	12243.18
833.7	12129.96
834.026	12239.34
834.351	12229.62
834.677	12235.95
835.003	12240.47
835.329	12312.56
835.654	12194.14
835.98	12158.44
836.306	12231.2
836.631	12074.15
836.956	12096.29
837.282	12130.19
837.607	12019.46
837.932	12062.17
838.258	12077.54
838.583	12036.86
838.908	11904.21
839.233	11925.45
839.558	11968.61
839.883	11831.67
840.208	11944.21
840.533	11937.65
840.858	11807.94
841.182	11766.81
841.507	11808.39
841.832	11720.03
842.156	11766.13
842.481	11738.56
842.805	11656.3
843.13	11629.64
843.454	11678.22
843.778	11601.16
844.103	11509.41
844.427	11626.93
844.751	11508.28
845.075	11522.97
845.399	11408.17
845.723	11358.01
846.047	11407.72
846.371	11311.45
846.695	11349.65
847.019	11268.52
847.343	11169.54
847.666	11074.62
847.99	11117.56
848.313	11095.41
848.637	11061.74
848.96	10985.59
849.284	10998.69
849.607	10908.75
849.931	10903.56
850.254	10822.65
850.577	10731.58
850.9	10683
851.223	10673.5
851.546	10676.89
851.869	10553.06
852.192	10584.02
852.515	10510.35
852.838	10495.2
853.161	10441.65
853.483	10392.83
853.806	10344.7
854.129	10334.98
854.451	10322.33
854.774	10281.88
855.096	10179.51
855.419	10208.88
855.741	10173.86
856.063	10190.81
856.385	10178.15
856.708	10078.04
857.03	10054.54
857.352	10026.52
857.674	10014.99
857.996	9944.94
858.318	9900.19
858.64	9964.37
858.961	9895.9
859.283	9851.38
859.605	9747.65
859.926	9811.61
860.248	9770.93
860.57	9708.11
860.891	9755.11
861.212	9678.73
861.534	9685.51
861.855	9714.43
862.176	9733.87
862.498	9674.21
862.819	9607.77
863.14	9586.53
863.461	9565.74
863.782	9531.84
864.103	9538.39
864.424	9457.49
864.745	9573.19
865.065	9486.87
865.386	9468.34
865.707	9418.85
866.027	9458.85
866.348	9404.84
866.668	9363.48
866.989	9344.05
867.309	9283.26
867.63	9230.15
867.95	9315.8
868.27	9280.55
868.59	9264.28
868.91	9242.13
869.23	9280.09
869.55	9176.59
869.87	9281.9
870.19	9291.39
870.51	9130.04
870.83	9186.99
871.15	9067.45
871.469	9176.37
871.789	9179.98
872.109	9094.34
872.428	9018.86
872.748	9112.64
873.067	9129.59
873.386	9116.26
873.706	9060.67
874.025	9016.6
874.344	8979.54
874.663	9031.51
874.982	8990.61
875.301	8988.13
875.62	8896.6
875.939	8888.24
876.258	8925.75
876.577	8902.25
876.896	8935.25
877.214	8839.43
877.533	8860.67
877.852	8791.52
878.17	8890.73
878.489	8758.75
878.807	8840.11
879.125	8745.19
879.444	8780
879.762	8740
880.08	8738.64
880.398	8703.61
880.716	8711.07
881.034	8631.07
881.352	8624.07
881.67	8636.27
881.988	8613.22
882.306	8586.78
882.624	8573.45
882.941	8537.29
883.259	8517.18
883.577	8480.79
883.894	8475.14
884.212	8400.12
884.529	8498.19
884.846	8493.67
885.164	8457.74
885.481	8389.95
885.798	8421.13
886.115	8388.37
886.432	8385.66
886.75	8317.18
887.067	8360.12
887.383	8269.95
887.7	8259.1
888.017	8246
888.334	8250.07
888.651	8180.24
888.967	8181.14
889.284	8154.93
889.6	8166
889.917	8124.87
890.233	8129.39
890.55	8045.78
890.866	8095.27
891.182	8078.32
891.498	7998.55
891.815	7946.8
892.131	7960.13
892.447	7914.48
892.763	7920.36
893.079	7852.56
893.395	7798.78
893.71	7828.38
894.026	7802.39
894.342	7805.78
894.657	7756.29
894.973	7744.99
895.289	7777.31
895.604	7718.78
895.92	7633.36
896.235	7604.43
896.55	7622.96
896.865	7605.79
897.181	7577.31
897.496	7586.13
897.811	7513.59
898.126	7468.62
898.441	7475.62
898.756	7416.42
899.071	7372.12
899.386	7336.19
899.7	7369.86
900.015	7330.32
900.33	7275.63
900.644	7312.01
900.959	7243.54
901.273	7207.16
901.588	7224.33
901.902	7189.3
902.216	7210.09
902.531	7233.14
902.845	7106.59
903.159	7116.76
903.473	7001.28
903.787	7046.03
904.101	6973.26
904.415	6966.71
904.729	6950.66
905.042	6910.67
905.356	6922.87
905.67	6890.1
905.984	6898.91
906.297	6867.28
906.611	6717
906.924	6776.88
907.237	6743.21
907.551	6705.7
907.864	6733.27
908.177	6704.57
908.491	6733.27
908.804	6633.84
909.117	6595.65
909.43	6600.62
909.743	6519.49
910.056	6528.3
910.368	6523.11
910.681	6512.71
910.994	6408.53
911.307	6443.79
911.619	6396.55
911.932	6380.06
912.244	6286.73
912.557	6298.48
912.869	6282.66
913.181	6220.74
913.494	6280.4
913.806	6239.72
914.118	6225.49
914.43	6135.77
914.742	6147.75
915.054	6092.16
915.366	6145.71
915.678	6108.65
915.99	6005.6
916.302	5931.26
916.613	5980.75
916.925	5974.87
917.236	5990.01
917.548	5906.62
917.859	5904.82
918.171	5838.6
918.482	5830.69
918.794	5843.35
919.105	5736.46
919.416	5732.62
919.727	5741.43
920.038	5743.46
920.349	5704.6
920.66	5698.72
920.971	5681.77
921.282	5625.05
921.593	5554.32
921.903	5587.08
922.214	5541.44
922.525	5549.35
922.835	5562.45
923.146	5463.02
923.456	5461.44
923.767	5452.4
924.077	5463.25
924.387	5464.15
924.697	5375.11
925.008	5404.94
925.318	5367.43
925.628	5332.18
925.938	5297.37
926.248	5204.72
926.558	5252.86
926.867	5220.31
927.177	5195.23
927.487	5221.67
927.796	5131.28
928.106	5132.41
928.416	5107.32
928.725	5107.32
929.034	5136.48
929.344	5071.84
929.653	5099.19
929.962	5015.57
930.271	4976.25
930.581	4964.5
930.89	4959.53
931.199	4915.46
931.508	4889.7
931.817	4914.56
932.125	4862.13
932.434	4824.62
932.743	4763.6
933.051	4793.89
933.36	4741.23
933.669	4707.33
933.977	4735.13
934.286	4751.85
934.594	4672.31
934.902	4668.24
935.21	4705.3
935.519	4652.87
935.827	4604.51
936.135	4574
936.443	4551.63
936.751	4558.19
937.059	4557.28
937.367	4572.42
937.674	4512.76
937.982	4475.93
938.29	4483.16
938.597	4470.5
938.905	4377.63
939.213	4403.84
939.52	4378.53
939.827	4353.67
940.135	4356.61
940.442	4365.2
940.749	4353.67
941.056	4323.16
941.363	4344.86
941.67	4263.28
941.977	4257.4
942.284	4233.45
942.591	4214.01
942.898	4213.79
943.205	4201.36
943.511	4186.22
943.818	4166.56
944.125	4109.16
944.431	4155.48
944.738	4113.23
945.044	4080.46
945.35	4072.32
945.657	4060.12
945.963	4001.82
946.269	3983.29
946.575	4005.66
946.881	3968.37
947.187	3944.87
947.493	3941.48
947.799	3967.24
948.105	3900.35
948.41	3840.24
948.716	3862.16
949.022	3836.4
949.327	3813.57
949.633	3807.02
949.938	3799.11
950.244	3830.97
950.549	3780.8
950.854	3729.05
951.16	3741.71
951.465	3725.89
951.77	3722.05
952.075	3638.21
952.38	3714.37
952.685	3688.83
952.99	3645.89
953.294	3671.43
953.599	3637.76
953.904	3607.02
954.209	3616.97
954.513	3556.18
954.818	3584.65
955.122	3540.58
955.426	3533.58
955.731	3518.66
956.035	3529.29
956.339	3484.54
956.643	3495.61
956.948	3466.69
957.252	3426.69
957.556	3430.31
957.86	3392.11
958.163	3414.26
958.467	3389.85
958.771	3365.22
959.075	3362.28
959.378	3341.95
959.682	3344.43
959.985	3291.55
960.289	3315.51
960.592	3278.9
960.896	3274.6
961.199	3235.28
961.502	3226.69
961.805	3198
962.108	3168.17
962.411	3200.71
962.714	3167.26
963.017	3146.24
963.32	3188.5
963.623	3119.13
963.926	3124.32
964.228	3071.22
964.531	3101.27
964.833	3099.69
965.136	3091.11
965.438	3045
965.741	3000.49
966.043	3029.41
966.345	3025.8
966.648	3013.82
966.95	3012.46
967.252	2958.91
967.554	2942.86
967.856	2979.02
968.158	2950.54
968.46	2894.5
968.761	2918.91
969.063	2880.04
969.365	2880.26
969.666	2879.13
969.968	2829.64
970.269	2838
970.571	2813.6
970.872	2849.76
971.174	2836.65
971.475	2847.04
971.776	2833.26
972.077	2800.04
972.378	2769.76
972.679	2789.64
972.98	2736.76
973.281	2725.47
973.582	2728.18
973.883	2689.99
974.183	2697.67
974.484	2714.39
974.785	2673.94
975.085	2700.83
975.386	2689.08
975.686	2662.87
975.986	2631.91
976.287	2607.73
976.587	2615.64
976.887	2578.12
977.187	2587.39
977.487	2582.64
977.787	2558.46
978.087	2571.57
978.387	2563.66
978.687	2525.92
978.987	2530.44
979.286	2519.82
979.586	2514.17
979.885	2486.6
980.185	2475.75
980.484	2455.19
980.784	2471.91
981.083	2465.58
981.382	2467.84
981.682	2457.22
981.981	2417.45
982.28	2400.05
982.579	2378.81
982.878	2411.58
983.177	2368.41
983.475	2339.26
983.774	2332.03
984.073	2348.75
984.372	2326.38
984.67	2331.13
984.969	2343.33
985.267	2302.2
985.566	2327.51
985.864	2308.07
986.162	2284.12
986.461	2282.76
986.759	2259.49
987.057	2233.73
987.355	2223.33
987.653	2190.79
987.951	2223.11
988.249	2218.81
988.547	2187.17
988.844	2188.3
989.142	2165.93
989.44	2152.15
989.737	2126.84
990.035	2179.04
990.332	2138.14
990.63	2141.98
990.927	2109.89
991.224	2093.84
991.521	2108.31
991.819	2065.14
992.116	2069.89
992.413	2067.63
992.71	2065.37
993.006	2048.65
993.303	2041.19
993.6	2026.73
993.897	2054.75
994.193	2031.47
994.49	1985.6
994.787	2009.78
995.083	1990.34
995.379	1984.92
995.676	1963.23
995.972	1977.46
996.268	1925.26
996.565	1957.8
996.861	1937.46
997.157	1929.1
997.453	1932.49
997.749	1909.44
998.044	1915.99
998.34	1883.23
998.636	1901.76
998.932	1871.48
999.227	1850.46
999.523	1846.17
999.818	1860.86
1000.114	1842.32
1000.409	1807.52
1000.704	1810.69
1001	1788.31
1001.295	1781.76
1001.59	1814.08
1001.885	1768.65
1002.18	1754.42
1002.475	1744.25
1002.77	1762.55
1003.065	1764.81
1003.359	1728.43
1003.654	1742.89
1003.949	1708.77
1004.243	1720.07
1004.538	1685.72
1004.832	1671.26
1005.127	1642.78
1005.421	1659.28
1005.715	1638.04
1006.009	1649.56
1006.304	1664.7
1006.598	1642.78
1006.892	1631.71
1007.186	1626.06
1007.48	1612.73
1007.773	1615.66
1008.067	1613.63
1008.361	1580.18
1008.655	1535.44
1008.948	1561.2
1009.242	1553.07
1009.535	1525.72
1009.829	1538.83
1010.122	1531.37
1010.415	1523.91
1010.708	1511.49
1011.001	1516.46
1011.295	1519.4
1011.588	1471.49
1011.881	1480.75
1012.173	1454.09
1012.466	1460.64
1012.759	1463.35
1013.052	1460.87
1013.344	1411.6
1013.637	1431.94
1013.93	1419.28
1014.222	1387.2
1014.514	1402.56
1014.807	1396.01
1015.099	1370.47
1015.391	1372.96
1015.683	1385.16
1015.976	1349.68
1016.268	1361.43
1016.56	1356.69
1016.851	1333.64
1017.143	1325.28
1017.435	1349
1017.727	1331.38
1018.018	1319.85
1018.31	1321.89
1018.602	1314.43
1018.893	1307.42
1019.185	1258.84
1019.476	1311.04
1019.767	1280.53
1020.058	1257.93
1020.35	1265.84
1020.641	1224.71
1020.932	1237.37
1021.223	1236.69
1021.514	1203.47
1021.804	1216.8
1022.095	1179.07
1022.386	1215.22
1022.677	1194.21
1022.967	1196.69
1023.258	1180.65
1023.548	1173.64
1023.839	1156.01
1024.129	1149.24
1024.419	1156.92
1024.709	1145.62
1025	1131.83
1025.29	1122.8
1025.58	1106.07
1025.87	1133.19
1026.16	1094.77
1026.449	1104.94
1026.739	1086.86
1027.029	1097.49
1027.319	1088.9
1027.608	1083.93
1027.898	1071.95
1028.187	1073.53
1028.477	1030.14
1028.766	1031.72
1029.055	1052.51
1029.344	1018.62
1029.634	1027.88
1029.923	1026.98
1030.212	1001.89
1030.501	994.89
1030.79	1001.89
1031.078	1014.1
1031.367	997.6
1031.656	994.44
1031.945	984.95
1032.233	972.97
1032.522	998.28
1032.81	961.44
1033.099	951.5
1033.387	934.55
1033.675	937.94
1033.963	921.22
1034.251	940.2
1034.54	949.47
1034.828	920.09
1035.116	891.16
1035.403	895.46
1035.691	912.18
1035.979	890.49
1036.267	888.68
1036.554	881.67
1036.842	880.32
1037.129	880.54
1037.417	873.99
1037.704	869.92
1037.992	861.11
1038.279	839.41
1038.566	838.06
1038.853	838.06
1039.14	838.06
