Data from hue_160_FLMS001491_00051.txt Node
Date: Tue Feb 07 16:51:22 GMT 2017
User: dcchb
Spectrometer: FLMS00149
Trigger mode: 0
Integration Time (sec): 2.000000E-2
Scans to average: 10
Electric dark correction enabled: true
Nonlinearity correction enabled: false
Boxcar width: 0
XAxis mode: Wavelengths
Number of Pixels in Spectrum: 2048
>>>>>Begin Spectral Data<<<<<
341.393	-10.58
341.776	-10.58
342.16	-10.58
342.543	-60.75
342.927	-40.86
343.31	-75.89
343.693	-64.59
344.077	-51.48
344.46	-51.71
344.843	-53.74
345.226	-41.31
345.61	-48.54
345.993	-11.03
346.376	-24.82
346.759	2.08
347.142	26.03
347.525	55.63
347.908	83.88
348.291	59.7
348.674	85.24
349.057	110.55
349.44	122.75
349.823	146.03
350.206	166.14
350.588	196.42
350.971	224.22
351.354	218.34
351.737	262.41
352.119	266.02
352.502	265.12
352.884	263.76
353.267	264.89
353.65	306.25
354.032	286.59
354.414	314.84
354.797	332.46
355.179	350.32
355.562	328.62
355.944	310.54
356.326	343.99
356.709	325.23
357.091	340.15
357.473	341.28
357.855	341.5
358.238	333.82
358.62	329.53
359.002	339.92
359.384	344.89
359.766	332.01
360.148	339.92
360.53	337.89
360.912	355.97
361.294	325.01
361.676	330.2
362.057	315.51
362.439	327.49
362.821	334.72
363.203	325.01
363.584	339.47
363.966	333.37
364.348	346.93
364.729	312.35
365.111	314.84
365.493	331.11
365.874	338.56
366.256	296.98
366.637	312.35
367.019	312.35
367.4	320.26
367.781	318
368.163	297.21
368.544	294.72
368.925	321.16
369.306	340.82
369.688	325.46
370.069	306.47
370.45	306.25
370.831	333.37
371.212	305.57
371.593	298.79
371.974	329.3
372.355	322.75
372.736	306.25
373.117	324.1
373.498	289.75
373.879	306.93
374.26	319.13
374.641	326.14
375.021	320.71
375.402	324.1
375.783	311.67
376.163	296.76
376.544	334.27
376.925	333.82
377.305	331.79
377.686	331.11
378.066	310.99
378.447	341.05
378.827	327.49
379.208	306.7
379.588	331.33
379.968	317.55
380.349	353.93
380.729	320.94
381.109	313.48
381.489	339.24
381.87	342.18
382.25	341.5
382.63	336.3
383.01	337.43
383.39	333.82
383.77	344.44
384.15	331.33
384.53	357.1
384.91	326.59
385.29	336.76
385.67	362.74
386.049	338.56
386.429	329.3
386.809	349.64
387.189	344.89
387.568	342.41
387.948	334.27
388.328	339.02
388.707	348.28
389.087	344.89
389.466	357.1
389.846	373.59
390.225	379.69
390.605	361.16
390.984	359.13
391.363	359.58
391.743	386.02
392.122	385.12
392.501	372.24
392.881	375.85
393.26	387.6
393.639	384.67
394.018	376.76
394.397	386.7
394.776	398.45
395.155	384.21
395.534	372.01
395.913	364.33
396.292	371.56
396.671	386.47
397.05	387.38
397.429	385.34
397.808	411.33
398.186	392.8
398.565	407.26
398.944	405.46
399.323	385.57
399.701	412.01
400.08	402.29
400.458	402.07
400.837	396.42
401.215	413.82
401.594	431.44
401.972	408.39
402.351	421.27
402.729	415.85
403.107	419.24
403.486	409.3
403.864	434.16
404.242	419.69
404.62	417.66
404.999	435.29
405.377	417.66
405.755	448.17
406.133	442.52
406.511	429.41
406.889	430.09
407.267	443.42
407.645	441.16
408.023	434.16
408.401	440.26
408.779	437.32
409.156	439.13
409.534	465.79
409.912	442.52
410.29	461.73
410.667	459.01
411.045	479.35
411.422	463.31
411.8	445
412.178	469.41
412.555	452.46
412.933	472.57
413.31	489.3
413.687	478.9
414.065	488.39
414.442	514.38
414.819	480.03
415.197	491.78
415.574	489.52
415.951	515.74
416.328	506.24
416.705	513.93
417.082	525.45
417.46	506.7
417.837	512.35
418.214	510.09
418.591	519.35
418.967	519.8
419.344	525.45
419.721	522.29
420.098	556.86
420.475	539.69
420.852	529.29
421.228	557.32
421.605	547.82
421.982	567.94
422.358	558.67
422.735	573.81
423.111	567.94
423.488	564.77
423.864	577.2
424.241	569.52
424.617	579.91
424.994	564.1
425.37	595.96
425.746	584.89
426.123	604.09
426.499	597.54
426.875	587.6
427.251	605.9
427.627	620.14
428.003	627.6
428.379	639.12
428.756	628.05
429.132	633.02
429.507	637.31
429.883	645
430.259	649.29
430.635	667.6
431.011	670.53
431.387	668.95
431.763	676.41
432.138	686.8
432.514	712.11
432.89	691.32
433.265	710.53
433.641	697.65
434.016	683.41
434.392	721.61
434.767	725.22
435.143	715.5
435.518	729.51
435.894	747.59
436.269	735.62
436.644	746.92
437.02	750.53
437.395	753.47
437.77	785.11
438.145	779.46
438.52	763.86
438.895	783.75
439.271	784.88
439.646	817.42
440.021	829.63
440.395	811.77
440.77	799.8
441.145	826.69
441.52	844.54
441.895	837.53
442.27	854.94
442.645	835.05
443.019	869.17
443.394	864.65
443.769	882.05
444.143	871.66
444.518	888.83
444.892	867.14
445.267	876.18
445.641	928.61
446.016	898.32
446.39	914.82
446.764	900.36
447.139	916.63
447.513	943.75
447.887	922.73
448.262	938.1
448.636	932.67
449.01	929.28
449.384	941.26
449.758	973.35
450.132	962.05
450.506	984.65
450.88	986.68
451.254	989.39
451.628	976.51
452.002	981.71
452.376	1022.61
452.75	1037.53
453.123	1054.48
453.497	1048.6
453.871	1053.12
454.244	1054.48
454.618	1082.27
454.992	1074.59
455.365	1075.49
455.739	1103.74
456.112	1118.88
456.486	1141.48
456.859	1154.59
457.232	1183.97
457.606	1191.42
457.979	1154.81
458.352	1206.11
458.725	1202.27
459.099	1216.51
459.472	1248.15
459.845	1250.63
460.218	1286.79
460.591	1304.64
460.964	1263.29
461.337	1280.01
461.71	1315.94
462.083	1363.85
462.456	1359.1
462.829	1353
463.201	1413.11
463.574	1393.23
463.947	1406.79
464.32	1447.69
464.692	1479.78
465.065	1504.86
465.438	1502.83
465.81	1537.4
466.183	1548.25
466.555	1584.63
466.928	1577.4
467.3	1618.76
467.672	1660.11
468.045	1705.31
468.417	1682.94
468.789	1711.64
469.161	1732.43
469.534	1765.87
469.906	1825.98
470.278	1855.13
470.65	1893.33
471.022	1934.45
471.394	1969.26
471.766	1992.53
472.138	2011.74
472.51	2057.16
472.882	2102.36
473.253	2137.84
473.625	2176.71
473.997	2251.51
474.369	2270.27
474.74	2253.99
475.112	2373.99
475.484	2426.65
475.855	2485.4
476.227	2494.44
476.598	2616.47
476.97	2667.54
477.341	2733.53
477.713	2808.78
478.084	2838.39
478.455	2941.21
478.827	2994.31
479.198	3093.75
479.569	3140.07
479.94	3228.66
480.311	3337.81
480.682	3420.29
481.053	3508.65
481.424	3599.04
481.795	3668.42
482.166	3771.69
482.537	3834.52
482.908	4022.99
483.279	4112.02
483.65	4197.9
484.021	4279.25
484.391	4435.86
484.762	4461.39
485.133	4557.66
485.503	4677.89
485.874	4845.79
486.244	4944.55
486.615	5096.18
486.985	5157.65
487.356	5339.11
487.726	5441.71
488.097	5544.53
488.467	5635.6
488.837	5871.98
489.207	5962.15
489.578	6092.99
489.948	6227.22
490.318	6348.8
490.688	6429.7
491.058	6626.08
491.428	6756.47
491.798	6839.18
492.168	7019.97
492.538	7079.86
492.908	7233.75
493.278	7399.62
493.648	7538.6
494.017	7689.56
494.387	7776.56
494.757	7908.31
495.126	7988.53
495.496	8133.16
495.866	8251.35
496.235	8441.4
496.605	8462.64
496.974	8572.02
497.344	8687.27
497.713	8781.28
498.082	8937.21
498.452	9023.76
498.821	9090.88
499.19	9212.68
499.559	9350.76
499.928	9370.19
500.298	9476.18
500.667	9649.73
501.036	9632.33
501.405	9804.08
501.774	9843.85
502.143	9920.01
502.512	9993.9
502.88	10065.77
503.249	10062.83
503.618	10195.93
503.987	10369.49
504.356	10379.43
504.724	10416.49
505.093	10470.95
505.462	10546.66
505.83	10616.71
506.199	10731.96
506.567	10832.98
506.936	10889.25
507.304	11019.19
507.672	11019.64
508.041	11064.61
508.409	11187.09
508.777	11223.02
509.145	11277.49
509.514	11310.25
509.882	11420.08
510.25	11458.05
510.618	11487.2
510.986	11497.14
511.354	11626.86
511.722	11660.3
512.09	11737.13
512.458	11717.47
512.826	11804.48
513.193	11896.45
513.561	11963.12
513.929	11938.71
514.297	11990.01
514.664	11998.14
515.032	12129.44
515.4	12220.06
515.767	12188.65
516.135	12228.87
516.502	12229.1
516.869	12334.63
517.237	12329.66
517.604	12223.68
517.972	12365.82
518.339	12394.52
518.706	12370.11
519.073	12441.98
519.44	12419.83
519.808	12546.15
520.175	12544.8
520.542	12592.48
520.909	12637.9
521.276	12610.11
521.643	12725.36
522.009	12745.02
522.376	12805.58
522.743	12777.79
523.11	12820.95
523.477	12861.17
523.843	12950.44
524.21	12916.76
524.577	13044.67
524.943	13050.09
525.31	13066.37
525.676	13140.94
526.043	13100.26
526.409	13134.84
526.776	13136.42
527.142	13225.23
527.508	13109.75
527.874	13258.22
528.241	13229.75
528.607	13169.87
528.973	13264.33
529.339	13232.01
529.705	13324.89
530.071	13341.61
530.437	13292.57
530.803	13256.19
531.169	13352.91
531.535	13206.02
531.901	13231.78
532.267	13249.86
532.632	13258
532.998	13260.03
533.364	13312.23
533.73	13241.73
534.095	13267.49
534.461	13201.73
534.826	13175.74
535.192	13201.73
535.557	13155.18
535.923	13171.45
536.288	13192.01
536.653	13221.39
537.019	13062.07
537.384	13168.96
537.749	13102.97
538.114	13049.19
538.479	12961.51
538.845	12979.14
539.21	12935.75
539.575	12910.21
539.94	12876.99
540.305	12945.69
540.67	12887.39
541.034	12799.93
541.399	12797.9
541.764	12782.98
542.129	12765.13
542.494	12709.54
542.858	12664.57
543.223	12611.01
543.587	12624.34
543.952	12580.28
544.316	12588.86
544.681	12541.41
545.045	12525.81
545.41	12593.16
545.774	12422.77
546.138	12370.56
546.503	12323.33
546.867	12325.14
547.231	12335.54
547.595	12385.93
547.959	12294.41
548.324	12231.59
548.688	12190.23
549.052	12274.3
549.416	12191.36
549.779	12149.78
550.143	12135.77
550.507	12120.18
550.871	12094.19
551.235	12063.45
551.599	11981.87
551.962	12008.09
552.326	11954.98
552.689	11931.71
553.053	11875.21
553.417	11818.26
553.78	11855.32
554.143	11813.74
554.507	11856.91
554.87	11773.29
555.234	11789.34
555.597	11728.77
555.96	11769.68
556.323	11711.82
556.686	11719.51
557.05	11653.3
557.413	11692.84
557.776	11720.19
558.139	11688.55
558.502	11650.13
558.865	11650.81
559.228	11699.17
559.59	11712.73
559.953	11668.21
560.316	11683.8
560.679	11652.17
561.041	11777.36
561.404	11677.25
561.767	11714.54
562.129	11678.83
562.492	11745.5
562.854	11670.47
563.217	11717.7
563.579	11726.51
563.941	11761.09
564.304	11792.05
564.666	11713.86
565.028	11689.9
565.39	11707.31
565.753	11777.13
566.115	11835.66
566.477	11754.08
566.839	11834.53
567.201	11786.17
567.563	11769.9
567.925	11833.63
568.287	11806.74
568.648	11715.44
569.01	11878.37
569.372	11848.54
569.734	11764.7
570.095	11884.48
570.457	11889.9
570.819	11870.69
571.18	11865.49
571.542	11854.19
571.903	11951.14
572.265	11934.42
572.626	11951.82
572.987	11961.99
573.349	12032.95
573.71	11967.19
574.071	11979.16
574.432	12022.1
574.794	12084.7
575.155	12000.86
575.516	11945.94
575.877	12035.43
576.238	12017.58
576.599	12001.76
576.96	12026.39
577.32	12058.71
577.681	12059.84
578.042	12093.51
578.403	12112.04
578.763	12011.25
579.124	12072.04
579.485	12104.58
579.845	12154.3
580.206	12083.11
580.566	12003.34
580.927	12063.91
581.287	12118.14
581.648	12075.21
582.008	12106.84
582.368	12065.26
582.728	11995.66
583.089	12054.87
583.449	12099.84
583.809	12033.17
584.169	12038.14
584.529	11932.16
584.889	12139.38
585.249	11984.81
585.609	11934.42
585.969	11998.6
586.329	12021.42
586.688	12010.35
587.048	11923.12
587.408	11919.05
587.768	11841.31
588.127	11927.19
588.487	11885.38
588.846	11994.76
589.206	11804.7
589.565	11874.98
589.925	11955.89
590.284	11831.6
590.643	11875.89
591.003	11866.4
591.362	11935.32
591.721	11844.25
592.08	11853.29
592.44	11917.02
592.799	11904.36
593.158	11808.55
593.517	11778.26
593.876	11823.69
594.235	11801.77
594.593	11785.95
594.952	11817.13
595.311	11852.61
595.67	11841.54
596.029	11888.09
596.387	11810.13
596.746	11845.83
597.104	11753.41
597.463	11779.17
597.822	11832.5
598.18	11733.29
598.538	11753.86
598.897	11822.1
599.255	11726.51
599.613	11915.21
599.972	11752.95
600.33	11757.25
600.688	11753.41
601.046	11769.68
601.404	11841.09
601.762	11806.06
602.12	11821.65
602.478	11807.19
602.836	11824.14
603.194	11754.08
603.552	11721.32
603.91	11683.8
604.268	11726.74
604.625	11698.94
604.983	11827.98
605.341	11737.81
605.698	11761.77
606.056	11772.61
606.413	11787.76
606.771	11846.51
607.128	11793.18
607.485	11784.14
607.843	11772.39
608.2	11820.75
608.557	11836.12
608.914	11788.21
609.272	11848.09
609.629	11859.39
609.986	11830.24
610.343	11876.79
610.7	11925.15
611.057	11931.25
611.414	11942.33
611.771	11891.93
612.127	11932.16
612.484	11858.04
612.841	11929.22
613.198	11819.17
613.554	11888.09
613.911	11925.83
614.267	11969.22
614.624	11930.35
614.98	12015.32
615.337	12062.55
615.693	11983
616.05	11966.28
616.406	12082.44
616.762	12047.18
617.118	11962.44
617.475	11944.81
617.831	12078.37
618.187	12056.9
618.543	12066.39
618.899	12082.66
619.255	12038.6
619.611	12056.45
619.967	12110.46
620.323	12120.63
620.678	12119.27
621.034	12088.76
621.39	12110.68
621.746	12036.56
622.101	12245.6
622.457	12040.18
622.812	12102.77
623.168	12108.42
623.523	12182.55
623.879	12228.65
624.234	12152.04
624.589	12161.08
624.945	12091.25
625.3	12070.01
625.655	12128.99
626.01	12128.09
626.365	12222.55
626.72	12115.2
627.075	12100.29
627.43	12146.62
627.785	12095.32
628.14	12089.44
628.495	12030.46
628.85	12116.33
629.205	12047.18
629.559	12087.41
629.914	12066.62
630.269	12079.27
630.623	12013.51
630.978	11981.42
631.332	12044.92
631.687	12083.57
632.041	12057.8
632.396	12023
632.75	11956.34
633.104	11955.66
633.459	11956.34
633.813	11881.54
634.167	11938.94
634.521	11933.97
634.875	11895.1
635.229	11896.68
635.583	11918.83
635.937	11792.27
636.291	11762.44
636.645	11848.09
636.999	11777.59
637.352	11843.8
637.706	11783.24
638.06	11803.12
638.413	11773.07
638.767	11750.02
639.121	11753.86
639.474	11700.98
639.828	11710.47
640.181	11752.73
640.534	11650.58
640.888	11627.76
641.241	11584.14
641.594	11651.94
641.947	11590.7
642.301	11627.08
642.654	11650.81
643.007	11657.81
643.36	11694.88
643.713	11594.99
644.066	11671.6
644.419	11553.86
644.771	11421.44
645.124	11468.22
645.477	11434.54
645.83	11338.73
646.182	11303.47
646.535	11221.67
646.888	11280.65
647.24	11145.74
647.593	11274.1
647.945	11247.43
648.298	11228.45
648.65	11172.18
649.002	11151.39
649.355	11190.71
649.707	11206.53
650.059	11350.7
650.411	11364.94
650.763	11419.18
651.115	11520.64
651.467	11508.67
651.819	11470.25
652.171	11445.17
652.523	11478.16
652.875	11445.62
653.227	11354.32
653.578	11508.44
653.93	11456.24
654.282	11374.66
654.633	11368.56
654.985	11456.92
655.337	11399.52
655.688	11447.2
656.039	11461.89
656.391	11346.86
656.742	11405.17
657.094	11464.83
657.445	11456.46
657.796	11414.88
658.147	11486.97
658.498	11530.81
658.849	11399.52
659.2	11509.8
659.551	11474.09
659.902	11499.4
660.253	11511.38
660.604	11447.2
660.955	11435.67
661.306	11480.87
661.656	11404.26
662.007	11436.13
662.358	11488.33
662.708	11478.84
663.059	11503.02
663.409	11330.82
663.76	11458.27
664.11	11459.4
664.461	11527.42
664.811	11511.38
665.161	11457.59
665.511	11450.36
665.862	11443.81
666.212	11482
666.562	11496.69
666.912	11484.26
667.262	11483.81
667.612	11468.67
667.962	11544.82
668.312	11496.92
668.662	11524.71
669.011	11425.96
669.361	11484.03
669.711	11489.01
670.06	11444.04
670.41	11447.88
670.76	11482.23
671.109	11493.75
671.459	11486.07
671.808	11412.85
672.157	11404.49
672.507	11416.01
672.856	11401.32
673.205	11413.75
673.554	11439.52
673.904	11420.31
674.253	11486.07
674.602	11375.79
674.951	11266.19
675.3	11205.17
675.649	11417.6
675.998	11393.64
676.346	11376.47
676.695	11395.45
677.044	11209.01
677.393	11366.98
677.741	11312.74
678.09	11282.01
678.438	11191.16
678.787	11274.77
679.135	11295.34
679.484	11189.13
679.832	11190.93
680.181	11153.2
680.529	11228
680.877	11200.43
681.225	11185.28
681.573	11239.97
681.922	11121.56
682.27	11060.09
682.618	11078.17
682.966	11007.44
683.314	11106.87
683.661	11014.89
684.009	10958.85
684.357	10849.02
684.705	10956.82
685.053	10872.07
685.4	10938.51
685.748	10801.34
686.095	10803.83
686.443	10848.12
686.79	10756.14
687.138	10798.63
687.485	10773.32
687.832	10719.08
688.18	10749.14
688.527	10674.56
688.874	10671.4
689.221	10561.35
689.568	10548.69
689.915	10595.92
690.262	10600.44
690.609	10494.46
690.956	10445.19
691.303	10458.52
691.65	10437.96
691.997	10394.57
692.344	10362.93
692.69	10261.47
693.037	10266.44
693.383	10182.37
693.73	10275.48
694.077	10112.32
694.423	10157.06
694.769	10105.77
695.116	10134.24
695.462	10027.35
695.808	10034.35
696.155	10038.87
696.501	9922.72
696.847	9951.65
697.193	9814.25
697.539	9946.45
697.885	9758.2
698.231	9813.12
698.577	9746.9
698.923	9782.84
699.269	9705.55
699.614	9641.37
699.96	9668.71
700.306	9633.91
700.651	9566.57
700.997	9552.56
701.342	9541.03
701.688	9484.54
702.033	9392.79
702.379	9438.21
702.724	9442.28
703.069	9368.38
703.415	9294.71
703.76	9304.66
704.105	9233.92
704.45	9232.34
704.795	9180.37
705.14	9060.82
705.485	9136.98
705.83	9080.26
706.175	9115.06
706.52	9027.83
706.865	8953.93
707.209	9005.23
707.554	8993.03
707.899	8983.99
708.243	8885.46
708.588	8904.22
708.932	8813.6
709.277	8808.17
709.621	8799.59
709.966	8701.51
710.31	8811.34
710.654	8752.35
710.998	8734.5
711.342	8718.68
711.687	8715.97
712.031	8642.98
712.375	8572.02
712.719	8619.93
713.063	8643.88
713.407	8618.8
713.75	8582.87
714.094	8565.01
714.438	8518.01
714.782	8516.43
715.125	8482.08
715.469	8519.82
715.812	8483.44
716.156	8499.93
716.499	8516.88
716.843	8377.22
717.186	8386.04
717.53	8412.93
717.873	8440.05
718.216	8372.48
718.559	8383.55
718.902	8359.14
719.246	8414.51
719.589	8296.55
719.932	8257.23
720.275	8280.73
720.617	8307.62
720.96	8301.97
721.303	8276.89
721.646	8256.77
721.989	8276.89
722.331	8249.32
722.674	8226.49
723.016	8216.32
723.359	8235.31
723.701	8265.81
724.044	8176.32
724.386	8177.91
724.729	8170.67
725.071	8172.93
725.413	8178.81
725.755	8144.01
726.097	8138.13
726.439	8131.35
726.782	8072.6
727.124	8129.32
727.465	8108.98
727.807	8060.4
728.149	8123.9
728.491	8081.64
728.833	8075.99
729.175	8060.17
729.516	8019.49
729.858	8082.54
730.199	8064.92
730.541	8087.51
730.882	8059.04
731.224	8100.62
731.565	8060.62
731.906	8060.85
732.248	8033.05
732.589	7981.53
732.93	8003.9
733.271	8037.8
733.612	8083.45
733.953	8010.68
734.294	8057.23
734.635	8027.18
734.976	8019.04
735.317	7954.64
735.658	8036.44
735.999	8076.44
736.339	8057.01
736.68	8037.8
737.021	8053.84
737.361	7999.61
737.702	8130.22
738.042	8059.72
738.383	8006.16
738.723	8100.17
739.063	8057.01
739.404	8121.86
739.744	8069.21
740.084	8109.21
740.424	8118.7
740.764	8082.32
741.104	8191.24
741.444	8108.76
741.784	8176.1
742.124	8159.6
742.464	8190.34
742.804	8186.04
743.143	8260.84
743.483	8226.27
743.823	8212.93
744.162	8238.92
744.502	8315.3
744.841	8301.74
745.181	8335.87
745.52	8379.48
745.86	8400.5
746.199	8389.65
746.538	8454.06
746.877	8574.73
747.216	8558.69
747.556	8623.32
747.895	8668.74
748.234	8678.23
748.573	8707.84
748.911	8751.9
749.25	8843.43
749.589	8900.6
749.928	8991.67
750.267	9070.99
750.605	9078.67
750.944	9166.58
751.283	9229.4
751.621	9346.92
751.96	9428.5
752.298	9486.57
752.636	9574.71
752.975	9646.34
753.313	9725.21
753.651	9831.2
753.989	9899.44
754.327	10037.97
754.666	10070.74
755.004	10281.13
755.342	10394.35
755.679	10557.73
756.017	10600.44
756.355	10801.11
756.693	10876.37
757.031	11054.89
757.368	11104.61
757.706	11264.6
758.044	11402.23
758.381	11553.18
758.719	11697.14
759.056	11822.33
759.394	12058.26
759.731	12102.77
760.068	12313.39
760.405	12389.32
760.743	12553.84
761.08	12792.7
761.417	12835.86
761.754	13094.39
762.091	13236.76
762.428	13344.1
762.765	13525.34
763.102	13650.98
763.438	13856.63
763.775	14011.88
764.112	14127.58
764.449	14352.89
764.785	14524.18
765.122	14576.83
765.458	14688.7
765.795	14846.88
766.131	15013.43
766.467	15078.29
766.804	15198.06
767.14	15424.04
767.476	15527.09
767.812	15641.44
768.148	15764.6
768.485	15923.01
768.821	16014.08
769.157	16095.44
769.492	16178.37
769.828	16436.45
770.164	16390.35
770.5	16591.92
770.836	16647.74
771.171	16627.63
771.507	16858.13
771.842	16914.4
772.178	16991.46
772.513	17021.06
772.849	17143.09
773.184	17138.57
773.519	17313.94
773.855	17393.03
774.19	17375.4
774.525	17464.22
774.86	17492.01
775.195	17703.98
775.53	17607.94
775.865	17661.95
776.2	17610.65
776.535	17604.55
776.87	17649.3
777.205	17748.5
777.539	17794.6
777.874	17865.79
778.209	17808.16
778.543	17805.22
778.878	17842.29
779.212	17914.6
779.547	17905.11
779.881	18104.2
780.215	17936.29
780.55	18050.42
780.884	17964.77
781.218	17986.91
781.552	18050.19
781.886	18046.8
782.22	17995.5
782.554	17952.56
782.888	17943.53
783.222	17886.13
783.556	17903.07
783.889	17985.78
784.223	17993.69
784.557	17955.73
784.89	17946.01
785.224	17879.8
785.557	17920.02
785.891	17897.65
786.224	17848.61
786.558	17979.46
786.891	17735.62
787.224	17756.19
787.557	17692.68
787.891	17709.18
788.224	17780.14
788.557	17678.22
788.89	17681.61
789.223	17730.42
789.556	17677.77
789.888	17657.43
790.221	17554.16
790.554	17495.18
790.887	17448.4
791.219	17407.72
791.552	17415.18
791.884	17436.19
792.217	17452.24
792.549	17380.38
792.882	17241.17
793.214	17234.39
793.546	17249.76
793.879	17175.86
794.211	17099.03
794.543	17144.22
794.875	17149.2
795.207	17154.17
795.539	17088.41
795.871	17030.56
796.203	16833.5
796.535	16939.26
796.867	16915.3
797.198	16813.39
797.53	16921.18
797.862	16753.5
798.193	16825.14
798.525	16692.94
798.856	16628.76
799.188	16584.92
799.519	16483.9
799.85	16464.24
800.182	16559.38
800.513	16519.83
800.844	16321.87
801.175	16394.41
801.506	16390.35
801.837	16277.35
802.168	16275.32
802.499	16260.86
802.83	16171.14
803.161	16117.36
803.491	16068.55
803.822	16167.75
804.153	15978.83
804.483	15913.97
804.814	15927.76
805.145	15869.46
805.475	15919.62
805.805	15909.23
806.136	15914.65
806.466	15834.88
806.796	15796.92
807.126	15683.25
807.457	15672.62
807.787	15643.7
808.117	15580.65
808.447	15497.04
808.777	15529.8
809.107	15532.97
809.436	15442.12
809.766	15512.18
810.096	15359.64
810.426	15352.18
810.755	15372.07
811.085	15324.61
811.414	15355.8
811.744	15180.66
812.073	15210.49
812.403	15149.02
812.732	15076.93
813.061	15077.16
813.39	15031.51
813.719	15009.14
814.049	15004.62
814.378	14969.59
814.707	15017.5
815.036	14959.65
815.365	14840.78
815.693	14790.84
816.022	14826.32
816.351	14743.38
816.68	14717.62
817.008	14695.7
817.337	14676.04
817.665	14653.22
817.994	14697.06
818.322	14634.91
818.651	14513.56
818.979	14517.4
819.307	14613.67
819.636	14499.32
819.964	14433.79
820.292	14547.91
820.62	14503.62
820.948	14461.58
821.276	14576.16
821.604	14436.27
821.932	14476.72
822.259	14501.58
822.587	14481.02
822.915	14460
823.243	14427.23
823.57	14398.99
823.898	14387.01
824.225	14311.98
824.553	14309.72
824.88	14469.49
825.207	14472.88
825.535	14485.99
825.862	14436.72
826.189	14333.45
826.516	14580.45
826.843	14514.69
827.17	14502.71
827.497	14455.93
827.824	14452.32
828.151	14498.42
828.478	14456.84
828.805	14550.17
829.131	14480.79
829.458	14427.23
829.785	14331.87
830.111	14424.52
830.438	14523.73
830.764	14445.09
831.09	14522.82
831.417	14406.44
831.743	14486.67
832.069	14398.08
832.395	14382.04
832.722	14319.67
833.048	14400.34
833.374	14399.44
833.7	14333.22
834.026	14334.81
834.351	14309.04
834.677	14309.5
835.003	14357.18
835.329	14254.36
835.654	14297.07
835.98	14234.02
836.306	14187.24
836.631	14244.87
836.956	14204.87
837.282	14213.23
837.607	14239.44
837.932	14142.27
838.258	14121.93
838.583	14114.25
838.908	14080.12
839.233	14086.45
839.558	14054.36
839.883	14019.79
840.208	13878.55
840.533	14002.61
840.858	13963.52
841.182	13933.69
841.507	13935.04
841.832	13878.32
842.156	13900.92
842.481	13834.71
842.805	13775.27
843.13	13753.58
843.454	13788.83
843.778	13682.62
844.103	13662.73
844.427	13615.28
844.751	13623.64
845.075	13556.07
845.399	13526.01
845.723	13452.34
846.047	13545.67
846.371	13359.01
846.695	13322.4
847.019	13247.83
847.343	13211.45
847.666	13142.52
847.99	13031.79
848.313	13139.58
848.637	13060.72
848.96	12997.44
849.284	12978.46
849.607	12847.61
849.931	12887.84
850.254	12775.3
850.577	12766.49
850.9	12627.05
851.223	12643.33
851.546	12494.18
851.869	12494.86
852.192	12554.74
852.515	12355.65
852.838	12344.58
853.161	12317.01
853.483	12289.21
853.806	12177.58
854.129	12205.82
854.451	12135.09
854.774	12152.94
855.096	12059.39
855.419	12040.86
855.741	12025.49
856.063	11991.59
856.385	11898.71
856.708	11870.69
857.03	11786.17
857.352	11916.34
857.674	11793.86
857.996	11716.34
858.318	11750.69
858.64	11712.05
858.961	11646.97
859.283	11611.94
859.605	11587.31
859.926	11660.98
860.248	11475.45
860.57	11535.56
860.891	11517.71
861.212	11484.49
861.534	11385.96
861.855	11397.93
862.176	11312.74
862.498	11373.53
862.819	11368.33
863.14	11297.37
863.461	11329.69
863.782	11285.85
864.103	11245.17
864.424	11187.09
864.745	11169.01
865.065	11123.59
865.386	11118.62
865.707	11158.17
866.027	11112.29
866.348	11066.87
866.668	11133.31
866.989	11098.96
867.309	11022.58
867.63	11025.52
867.95	11039.75
868.27	10994.56
868.59	10933.99
868.91	10896.03
869.23	10892.86
869.55	10845.63
869.87	10935.57
870.19	10887.44
870.51	10953.43
870.83	10943.71
871.15	10846.54
871.469	10850.15
871.789	10874.56
872.109	10857.16
872.428	10687.44
872.748	10666.88
873.067	10731.51
873.386	10777.84
873.706	10742.81
874.025	10726.77
874.344	10669.59
874.663	10647.67
874.982	10643.83
875.301	10613.55
875.62	10648.12
875.939	10611.74
876.258	10608.58
876.577	10483.16
876.896	10587.11
877.214	10454
877.533	10492.2
877.852	10411.52
878.17	10496.26
878.489	10468.69
878.807	10420.11
879.125	10429.82
879.444	10365.87
879.762	10342.14
880.08	10311.64
880.398	10339.21
880.716	10258.3
881.034	10256.27
881.352	10315.03
881.67	10244.97
881.988	10241.81
882.306	10154.35
882.624	10214.92
882.941	10109.16
883.259	10167.46
883.577	10110.96
883.894	10077.74
884.212	10107.8
884.529	10082.04
884.846	10056.05
885.164	10042.94
885.481	9919.33
885.798	9975.37
886.115	9910.29
886.432	9942.61
886.75	9852.21
887.067	9821.03
887.383	9807.69
887.7	9797.98
888.017	9743.29
888.334	9780.35
888.651	9723.4
888.967	9720.46
889.284	9695.38
889.6	9623.52
889.917	9608.6
890.233	9583.52
890.55	9560.92
890.866	9517.31
891.182	9541.94
891.498	9489.96
891.815	9493.58
892.131	9382.17
892.447	9393.69
892.763	9373.58
893.079	9434.14
893.395	9300.36
893.71	9299.91
894.026	9237.99
894.342	9203.64
894.657	9140.59
894.973	9151.44
895.289	9126.81
895.604	9229.63
895.92	9043.65
896.235	9054.27
896.55	9082.74
896.865	9026.92
897.181	8995.74
897.496	8964.55
897.811	8911.9
898.126	8897.44
898.441	8869.41
898.756	8875.97
899.071	8815.4
899.386	8782.18
899.7	8686.14
900.015	8706.71
900.33	8649.53
900.644	8560.27
900.959	8589.2
901.273	8578.35
901.588	8491.8
901.902	8496.77
902.216	8425.13
902.531	8446.83
902.845	8384.23
903.159	8369.31
903.473	8337.9
903.787	8260.16
904.101	8247.28
904.415	8259.49
904.729	8145.59
905.042	8119.83
905.356	8127.96
905.67	8144.69
905.984	8135.2
906.297	8089.77
906.611	8015.65
906.924	7983.79
907.237	8008.65
907.551	7959.83
907.864	7923.45
908.177	7908.76
908.491	7863.56
908.804	7811.14
909.117	7714.19
909.43	7720.74
909.743	7744.47
910.056	7687.75
910.368	7687.98
910.681	7608.66
910.994	7616.57
911.307	7538.6
911.619	7506.96
911.932	7497.25
912.244	7441.65
912.557	7427.64
912.869	7432.16
913.181	7381.32
913.494	7372.73
913.806	7319.17
914.118	7263.81
914.43	7227.2
914.742	7211.83
915.054	7224.26
915.366	7140.65
915.678	7155.79
915.99	7139.06
916.302	7057.94
916.613	7033.76
916.925	6975.45
917.236	6995.34
917.548	6984.49
917.859	6932.97
918.171	6892.74
918.482	6869.92
918.794	6833.76
919.105	6885.51
919.416	6779.75
919.727	6759.64
920.038	6728.23
920.349	6695.23
920.66	6703.59
920.971	6657.04
921.282	6683.71
921.593	6568.23
921.903	6546.54
922.214	6559.64
922.525	6499.76
922.835	6481.91
923.146	6476.26
923.456	6412.98
923.767	6384.96
924.077	6373.43
924.387	6313.55
924.697	6336.15
925.008	6290.95
925.318	6272.19
925.628	6236.04
925.938	6252.53
926.248	6191.29
926.558	6168.02
926.867	6171.63
927.177	6106.55
927.487	6122.37
927.796	6114.91
928.106	6045.76
928.416	6024.97
928.725	6043.5
929.034	5939.55
929.344	6018.64
929.653	5960.56
929.962	5951.3
930.271	5900.45
930.581	5839.21
930.89	5811.64
931.199	5803.73
931.508	5751.76
931.817	5816.16
932.125	5725.32
932.434	5746.56
932.743	5707.46
933.051	5688.93
933.36	5616.84
933.669	5586.34
933.977	5597.86
934.286	5585.43
934.594	5578.88
934.902	5519.22
935.21	5474.93
935.519	5523.96
935.827	5477.41
936.135	5497.3
936.443	5410.75
936.751	5421.82
937.059	5366.45
937.367	5339.79
937.674	5337.76
937.982	5319.22
938.29	5271.99
938.597	5218.89
938.905	5257.53
939.213	5176.18
939.52	5183.41
939.827	5140.92
940.135	5170.53
940.442	5119.91
940.749	5092.56
941.056	5103.86
941.363	5050.08
941.67	5089.63
941.977	5057.31
942.284	5011.66
942.591	4966.47
942.898	4956.07
943.205	5029.29
943.511	4917.43
943.818	4921.27
944.125	4866.36
944.431	4822.97
944.738	4843.98
945.044	4836.53
945.35	4786.81
945.657	4735.51
945.963	4795.85
946.269	4697.55
946.575	4723.08
946.881	4642.41
947.187	4653.71
947.493	4664.78
947.799	4614.84
948.105	4557.89
948.41	4538
948.716	4603.76
949.022	4539.58
949.327	4558.79
949.633	4473.15
949.938	4480.83
950.244	4477.89
950.549	4430.66
950.854	4445.35
951.16	4405.35
951.465	4412.58
951.77	4378.68
952.075	4356.99
952.38	4315.41
952.685	4325.8
952.99	4302.53
953.294	4300.27
953.599	4265.92
953.904	4244.45
954.209	4276.54
954.513	4218.69
954.818	4186.15
955.122	4164.23
955.426	4186.37
955.731	4174.62
956.035	4138.24
956.339	4140.5
956.643	4134.62
956.948	4067.73
957.252	4071.35
957.556	4066.15
957.86	4029.09
958.163	4017.11
958.467	3997.9
958.771	4001.75
959.075	3978.24
959.378	3945.7
959.682	3932.37
959.985	3922.43
960.289	3867.74
960.592	3847.4
960.896	3898.92
961.199	3885.36
961.502	3857.12
961.805	3777.8
962.108	3816.21
962.411	3782.32
962.714	3749.32
963.017	3759.27
963.32	3748.87
963.623	3735.09
963.926	3704.8
964.228	3679.72
964.531	3648.08
964.833	3663.67
965.136	3579.16
965.438	3621.42
965.741	3568.76
966.043	3586.16
966.345	3555.88
966.648	3553.62
966.95	3568.08
967.252	3486.96
967.554	3508.2
967.856	3519.05
968.158	3460.97
968.46	3491.93
968.761	3443.12
969.063	3451.03
969.365	3421.87
969.666	3430.91
969.968	3377.13
970.269	3386.39
970.571	3349.33
970.872	3379.84
971.174	3277.92
971.475	3317.02
971.776	3321.76
972.077	3282.67
972.378	3282.22
972.679	3230.92
972.98	3222.56
973.281	3243.57
973.582	3231.6
973.883	3194.31
974.183	3200.64
974.484	3173.07
974.785	3167.19
975.085	3171.03
975.386	3104.59
975.686	3088.32
975.986	3085.61
976.287	3100.98
976.587	3074.09
976.887	3066.85
977.187	3051.49
977.487	3030.92
977.787	3009.68
978.087	2969.68
978.387	3010.36
978.687	2976.91
978.987	2954.09
979.286	2941.43
979.586	2986.63
979.885	2938.04
980.185	2932.62
980.484	2882.45
980.784	2876.8
981.083	2879.29
981.382	2856.92
981.682	2849.46
981.981	2810.14
982.28	2852.62
982.579	2791.83
982.878	2798.61
983.177	2767.65
983.475	2783.47
983.774	2762.68
984.073	2721.55
984.372	2702.57
984.67	2727.2
984.969	2723.36
985.267	2707.09
985.566	2686.3
985.864	2701.21
986.162	2673.19
986.461	2618.96
986.759	2628
987.057	2618.05
987.355	2571.5
987.653	2627.77
987.951	2617.6
988.249	2628
988.547	2565.85
988.844	2539.86
989.142	2557.49
989.44	2526.3
989.737	2506.19
990.035	2533.99
990.332	2525.85
990.63	2505.74
990.927	2489.92
991.224	2443.59
991.521	2465.06
991.819	2440.2
992.116	2446.76
992.413	2438.4
992.71	2427.55
993.006	2408.57
993.303	2396.36
993.6	2406.31
993.897	2384.61
994.193	2372.18
994.49	2352.97
994.787	2315.01
995.083	2329.92
995.379	2310.04
995.676	2298.74
995.972	2258.29
996.268	2289.47
996.565	2276.14
996.861	2274.33
997.157	2229.59
997.453	2225.29
997.749	2203.83
998.044	2204.73
998.34	2183.49
998.636	2211.96
998.932	2182.58
999.227	2149.14
999.523	2148.01
999.818	2160.44
1000.114	2132.42
1000.409	2121.12
1000.704	2114.56
1001	2111.63
1001.295	2068.69
1001.59	2057.62
1001.885	2095.35
1002.18	2034.79
1002.475	2053.1
1002.77	2036.82
1003.065	1991.4
1003.359	1989.82
1003.654	1993.44
1003.949	1983.04
1004.243	1964.74
1004.538	1957.05
1004.832	1968.13
1005.127	1963.83
1005.421	1912.31
1005.715	1920.44
1006.009	1905.75
1006.304	1918.64
1006.598	1884.74
1006.892	1894
1007.186	1844.29
1007.48	1844.97
1007.773	1861.24
1008.067	1827.79
1008.361	1787.11
1008.655	1821.46
1008.948	1807.9
1009.242	1796.38
1009.535	1800.67
1009.829	1757.28
1010.122	1762.26
1010.415	1732.65
1010.708	1728.13
1011.001	1729.94
1011.295	1745.99
1011.588	1740.11
1011.881	1696.27
1012.173	1707.79
1012.466	1715.03
1012.759	1661.47
1013.052	1655.59
1013.344	1657.85
1013.637	1624.18
1013.93	1640.23
1014.222	1608.36
1014.514	1616.5
1014.807	1613.56
1015.099	1593.22
1015.391	1581.02
1015.683	1575.82
1015.976	1600.9
1016.268	1585.09
1016.56	1550.96
1016.851	1556.39
1017.143	1555.03
1017.435	1524.3
1017.727	1512.09
1018.018	1532.43
1018.31	1489.49
1018.602	1500.34
1018.893	1469.61
1019.185	1497.4
1019.476	1459.67
1019.767	1461.02
1020.058	1461.92
1020.35	1464.86
1020.641	1430.74
1020.932	1418.76
1021.223	1398.88
1021.514	1404.07
1021.804	1377.41
1022.095	1378.31
1022.386	1382.15
1022.677	1378.09
1022.967	1352.78
1023.258	1330.4
1023.548	1348.48
1023.839	1330.18
1024.129	1317.52
1024.419	1304.87
1024.709	1308.93
1025	1310.29
1025.29	1297.18
1025.58	1312.32
1025.87	1253.79
1026.16	1262.83
1026.449	1262.61
1026.739	1221.48
1027.029	1237.07
1027.319	1245.43
1027.608	1217.64
1027.898	1199.11
1028.187	1207.92
1028.477	1183.97
1028.766	1175.38
1029.055	1162.72
1029.344	1164.53
1029.634	1149.16
1029.923	1183.51
1030.212	1151.65
1030.501	1153.68
1030.79	1127.02
1031.078	1140.8
1031.367	1118.66
1031.656	1117.3
1031.945	1099.45
1032.233	1079.34
1032.522	1069.84
1032.81	1087.47
1033.099	1082.27
1033.387	1059.45
1033.675	1073.01
1033.963	1059.68
1034.251	1076.17
1034.54	1055.38
1034.828	1044.31
1035.116	1024.87
1035.403	1025.1
1035.691	1031.43
1035.979	1012.9
1036.267	1010.64
1036.554	997.76
1036.842	969.06
1037.129	989.85
1037.417	960.02
1037.704	986.01
1037.992	945.33
1038.279	957.53
1038.566	933.8
1038.853	933.8
1039.14	933.8
