Data from hue_70_FLMS001491_75.txt Node
Date: Mon Feb 06 15:21:25 GMT 2017
User: dcchb
Spectrometer: FLMS00149
Trigger mode: 0
Integration Time (sec): 2.000000E-2
Scans to average: 10
Electric dark correction enabled: true
Nonlinearity correction enabled: false
Boxcar width: 0
XAxis mode: Wavelengths
Number of Pixels in Spectrum: 2048
>>>>>Begin Spectral Data<<<<<
341.393	-22.98
341.776	-22.98
342.16	-22.98
342.543	-45.13
342.927	-67.27
343.31	-32.7
343.693	-69.76
344.077	-55.52
344.46	-64.79
344.843	-71.11
345.226	-47.84
345.61	-22.53
345.993	-15.97
346.376	-2.19
346.759	9.56
347.142	23.12
347.525	30.8
347.908	60.18
348.291	85.94
348.674	70.35
349.057	102.44
349.44	125.04
349.823	153.74
350.206	179.95
350.588	189.67
350.971	205.04
351.354	215.88
351.737	241.65
352.119	240.06
352.502	274.19
352.884	278.26
353.267	289.1
353.65	287.29
354.032	300.63
354.414	301.76
354.797	322.55
355.179	347.86
355.562	328.65
355.944	327.97
356.326	326.62
356.709	322.55
357.091	352.6
357.473	349.89
357.855	351.7
358.238	334.07
358.62	339.04
359.002	332.94
359.384	351.25
359.766	349.89
360.148	353.28
360.53	366.16
360.912	348.76
361.294	339.72
361.676	344.92
362.057	332.94
362.439	336.78
362.821	324.36
363.203	339.27
363.584	306.96
363.966	306.5
364.348	320.74
364.729	338.82
365.111	317.35
365.493	321.87
365.874	333.62
366.256	324.58
366.637	313.51
367.019	327.52
367.4	313.28
367.781	294.07
368.163	318.48
368.544	332.94
368.925	305.37
369.306	329.1
369.688	320.29
370.069	323.9
370.45	318.93
370.831	322.77
371.212	336.33
371.593	304.47
371.974	311.7
372.355	326.84
372.736	303.57
373.117	339.04
373.498	308.99
373.879	323.68
374.26	314.64
374.641	314.41
375.021	319.16
375.402	311.02
375.783	317.58
376.163	324.81
376.544	315.77
376.925	311.47
377.305	330.23
377.686	309.67
378.066	337.91
378.447	299.05
378.827	317.8
379.208	313.73
379.588	315.99
379.968	327.97
380.349	316.9
380.729	346.95
381.109	345.6
381.489	354.86
381.87	333.62
382.25	310.12
382.63	355.54
383.01	333.85
383.39	351.47
383.77	359.61
384.15	358.71
384.53	342.21
384.91	345.82
385.29	348.54
385.67	348.76
386.049	341.76
386.429	343.11
386.809	349.67
387.189	353.28
387.568	330.01
387.948	348.54
388.328	342.21
388.707	358.25
389.087	362.55
389.466	371.36
389.846	357.35
390.225	388.31
390.605	380.17
390.984	364.81
391.363	367.52
391.743	348.99
392.122	361.87
392.501	354.64
392.881	368.42
393.26	371.13
393.639	397.35
394.018	363.45
394.397	385.37
394.776	380.85
395.155	376.78
395.534	355.77
395.913	381.76
396.292	378.37
396.671	384.69
397.05	394.64
397.429	359.61
397.808	381.08
398.186	349.67
398.565	358.71
398.944	401.42
399.323	407.29
399.701	387.63
400.08	377.69
400.458	390.12
400.837	373.85
401.215	383.11
401.594	387.86
401.972	383.34
402.351	374.98
402.729	395.54
403.107	399.16
403.486	400.96
403.864	390.57
404.242	374.07
404.62	401.42
404.999	396.22
405.377	412.72
405.755	414.07
406.133	406.16
406.511	399.16
406.889	436.44
407.267	417.91
407.645	403.22
408.023	429.66
408.401	422.66
408.779	438.25
409.156	416.78
409.534	434.18
409.912	435.99
410.29	446.39
410.667	442.32
411.045	428.31
411.422	463.56
411.8	438.93
412.178	436.44
412.555	438.03
412.933	451.81
413.31	448.87
413.687	449.78
414.065	444.58
414.442	476.22
414.819	450.45
415.197	457.46
415.574	472.6
415.951	465.37
416.328	455.43
416.705	475.09
417.082	466.95
417.46	462.43
417.837	478.7
418.214	476.67
418.591	459.27
418.967	485.71
419.344	470.34
419.721	490.23
420.098	479.15
420.475	501.98
420.852	494.07
421.228	519.83
421.605	498.59
421.982	506.05
422.358	530
422.735	487.29
423.111	513.05
423.488	535.65
423.864	532.71
424.241	533.16
424.617	518.48
424.994	536.1
425.37	519.38
425.746	539.72
426.123	526.38
426.499	541.98
426.875	540.4
427.251	568.64
427.627	565.71
428.003	561.86
428.379	564.58
428.756	555.76
429.132	559.15
429.507	583.33
429.883	551.47
430.259	558.25
430.635	588.98
431.011	580.17
431.387	583.11
431.763	610.22
432.138	615.65
432.514	621.07
432.89	591.02
433.265	604.35
433.641	591.24
434.016	636.66
434.392	637.79
434.767	652.93
435.143	639.15
435.518	629.21
435.894	662.2
436.269	665.82
436.644	667.85
437.02	655.19
437.395	661.52
437.77	675.31
438.145	695.19
438.52	684.12
438.895	684.8
439.271	676.66
439.646	687.28
440.021	707.62
440.395	711.92
440.77	694.06
441.145	723.22
441.52	710.33
441.895	722.54
442.27	726.61
442.645	728.87
443.019	750.33
443.394	752.14
443.769	746.04
444.143	729.09
444.518	736.55
444.892	732.71
445.267	735.42
445.641	775.19
446.016	745.36
446.39	775.19
446.764	760.95
447.139	758.24
447.513	802.54
447.887	791.24
448.262	789.2
448.636	798.92
449.01	788.07
449.384	774.74
449.758	796.43
450.132	802.99
450.506	820.39
450.88	822.42
451.254	823.1
451.628	830.78
452.002	852.7
452.376	830.11
452.75	844.79
453.123	864.23
453.497	868.97
453.871	890.44
454.244	868.52
454.618	871.23
454.992	907.17
455.365	889.99
455.739	911.69
456.112	936.77
456.486	932.48
456.859	918.24
457.232	943.1
457.606	962.53
457.979	944.68
458.352	959.37
458.725	965.69
459.099	967.28
459.472	1017.9
459.845	1008.63
460.218	1020.83
460.591	1037.78
460.964	1065.58
461.337	1078.46
461.71	1072.36
462.083	1077.33
462.456	1094.28
462.829	1108.52
463.201	1111.68
463.574	1134.96
463.947	1154.84
464.32	1137.22
464.692	1176.76
465.065	1175.63
465.438	1191.68
465.81	1236.2
466.183	1237.1
466.555	1253.6
466.928	1251.79
467.3	1279.81
467.672	1294.05
468.045	1330.43
468.417	1339.7
468.789	1314.61
469.161	1352.13
469.534	1420.15
469.906	1429.64
470.278	1450.65
470.65	1463.76
471.022	1503.99
471.394	1522.97
471.766	1553.25
472.138	1560.26
472.51	1596.86
472.882	1647.48
473.253	1681.61
473.625	1680.48
473.997	1750.08
474.369	1752.11
474.74	1804.99
475.112	1850.42
475.484	1907.37
475.855	1900.59
476.227	1996.63
476.598	2028.49
476.97	2070.07
477.341	2137.19
477.713	2171.54
478.084	2197.07
478.455	2309.84
478.827	2379.67
479.198	2453.34
479.569	2488.82
479.94	2549.38
480.311	2581.7
480.682	2695.14
481.053	2788.25
481.424	2870.5
481.795	2925.87
482.166	3013.55
482.537	3107.56
482.908	3227.56
483.279	3261.68
483.65	3400.21
484.021	3461.67
484.391	3502.35
484.762	3631.84
485.133	3719.07
485.503	3806.75
485.874	3981.89
486.244	4031.83
486.615	4174.2
486.985	4305.04
487.356	4418.26
487.726	4541.65
488.097	4680.63
488.467	4750.91
488.837	4967.17
489.207	5008.75
489.578	5130.56
489.948	5301.17
490.318	5433.6
490.688	5538
491.058	5679.92
491.428	5801.73
491.798	5918.56
492.168	6115.84
492.538	6190.19
492.908	6387.7
493.278	6488.49
493.648	6558.54
494.017	6716.73
494.387	6907.69
494.757	6989.49
495.126	7138.64
495.496	7294.12
495.866	7434.68
496.235	7519.65
496.605	7687.33
496.974	7838.06
497.344	8030.82
497.713	8169.57
498.082	8287.99
498.452	8430.81
498.821	8563.91
499.19	8648.66
499.559	8808.88
499.928	8951.47
500.298	8999.16
500.667	9137.46
501.036	9256.55
501.405	9441.18
501.774	9492.02
502.143	9678.69
502.512	9713.26
502.88	9960.94
503.249	10071.22
503.618	10110.77
503.987	10282.51
504.356	10298.78
504.724	10433.02
505.093	10521.38
505.462	10711.88
505.83	10815.38
506.199	10981.02
506.567	11107.8
506.936	11093.56
507.304	11323.84
507.672	11423.5
508.041	11543.72
508.409	11543.27
508.777	11715.24
509.145	11889.25
509.514	11921.34
509.882	11989.81
510.25	12122.46
510.618	12207.43
510.986	12284.95
511.354	12430.03
511.722	12602.23
512.09	12684.48
512.458	12705.27
512.826	12812.16
513.193	12959.28
513.561	13044.93
513.929	13119.95
514.297	13209.89
514.664	13357.69
515.032	13396.33
515.4	13548.64
515.767	13680.16
516.135	13667.28
516.502	13650.79
516.869	13903.89
517.237	14027.27
517.604	13895.75
517.972	14141.62
518.339	14253.93
518.706	14365.12
519.073	14343.42
519.44	14465.23
519.808	14652.79
520.175	14575.28
520.542	14822.96
520.909	14897.31
521.276	14851.43
521.643	15063.63
522.009	15078.32
522.376	15279.67
522.743	15320.57
523.11	15447.35
523.477	15596.95
523.843	15627.23
524.21	15894.34
524.577	15851.63
524.943	15929.37
525.31	16029.48
525.676	16183.37
526.043	16312.18
526.409	16380.2
526.776	16442.58
527.142	16528.9
527.508	16503.14
527.874	16694.77
528.241	16733.42
528.607	16752.62
528.973	16956.69
529.339	16857.25
529.705	17095.67
530.071	17214.08
530.437	17117.81
530.803	17202.33
531.169	17337.02
531.535	17328.2
531.901	17346.51
532.267	17419.5
532.632	17521.42
532.998	17528.65
533.364	17653.17
533.73	17733.62
534.095	17755.31
534.461	17791.02
534.826	17782.2
535.192	17888.41
535.557	18025.59
535.923	18035.53
536.288	18097.22
536.653	18065.81
537.019	17991.91
537.384	18098.35
537.749	18143.55
538.114	18090.89
538.479	18113.04
538.845	18162.53
539.21	18119.14
539.575	18291.57
539.94	18222.64
540.305	18429.87
540.67	18259.93
541.034	18424.22
541.399	18430.09
541.764	18322.3
542.129	18445.69
542.494	18426.03
542.858	18446.14
543.223	18495.4
543.587	18605.46
543.952	18501.28
544.316	18597.32
544.681	18513.71
545.045	18546.48
545.41	18673.03
545.774	18708.05
546.138	18688.62
546.503	18758.45
546.867	18680.03
547.231	18842.96
547.595	18787.15
547.959	18783.53
548.324	18803.19
548.688	18828.28
549.052	18861.27
549.416	18861.95
549.779	18883.42
550.143	18873.7
550.507	18966.13
550.871	18959.35
551.235	18952.57
551.599	19011.32
551.962	19020.81
552.326	19115.95
552.689	19183.52
553.053	19022.62
553.417	19140.36
553.78	19334.93
554.143	19243.41
554.507	19293.35
554.87	19337.19
555.234	19432.78
555.597	19279.11
555.96	19343.06
556.323	19459.67
556.686	19450.18
557.05	19495.38
557.413	19552.32
557.776	19642.72
558.139	19581.48
558.502	19675.49
558.865	19637.75
559.228	19849.04
559.59	19787.35
559.953	19820.79
560.316	20005.87
560.679	19913.45
561.041	20070.73
561.404	20121.8
561.767	20084.29
562.129	20150.95
562.492	20277.05
562.854	20308.46
563.217	20260.1
563.579	20220.1
563.941	20455.8
564.304	20492.19
564.666	20558.63
565.028	20608.57
565.39	20682.24
565.753	20713.88
566.115	20857.38
566.477	20800.43
566.839	20814.21
567.201	20999.07
567.563	21006.07
567.925	21189.34
568.287	21219.17
568.648	21137.82
569.01	21277.48
569.372	21328.32
569.734	21249.91
570.095	21454.87
570.457	21475.66
570.819	21433.41
571.18	21424.59
571.542	21652.16
571.903	21551.37
572.265	21649.22
572.626	21778.26
572.987	21734.41
573.349	21846.73
573.71	21960.62
574.071	21972.83
574.432	22012.6
574.794	22138.02
575.155	22037.01
575.516	22073.39
575.877	22077
576.238	22105.48
576.599	22164.91
576.96	22226.6
577.32	22116.55
577.681	22324.23
578.042	22291.46
578.403	22308.41
578.763	22317.45
579.124	22321.97
579.485	22549.99
579.845	22415.07
580.206	22478.8
580.566	22307.05
580.927	22387.96
581.287	22620.27
581.648	22415.3
582.008	22499.37
582.368	22449.42
582.728	22556.77
583.089	22552.92
583.449	22513.38
583.809	22543.43
584.169	22524.22
584.529	22605.13
584.889	22617.56
585.249	22532.81
585.609	22539.14
585.969	22553.6
586.329	22516.54
586.688	22651
587.048	22588.86
587.408	22511.12
587.768	22526.26
588.127	22478.8
588.487	22444.68
588.846	22714.28
589.206	22423.21
589.565	22515.18
589.925	22571.68
590.284	22561.51
590.643	22648.74
591.003	22646.25
591.362	22574.39
591.721	22587.05
592.08	22559.03
592.44	22589.99
592.799	22646.93
593.158	22533.94
593.517	22572.36
593.876	22617.78
594.235	22591.34
594.593	22539.59
594.952	22584.11
595.311	22544.79
595.67	22580.49
596.029	22701.39
596.387	22724.67
596.746	22811
597.104	22597.22
597.463	22609.87
597.822	22699.13
598.18	22631.57
598.538	22579.36
598.897	22720.15
599.255	22493.94
599.613	22914.72
599.972	22732.81
600.33	22780.49
600.688	22603.32
601.046	22784.56
601.404	22780.71
601.762	22840.15
602.12	22920.37
602.478	22908.85
602.836	22921.5
603.194	22700.26
603.552	22760.15
603.91	22712.69
604.268	22875.18
604.625	22875.18
604.983	22943.65
605.341	22709.76
605.698	22948.17
606.056	23061.39
606.413	22941.84
606.771	23041.72
607.128	23119.91
607.485	22914.5
607.843	22980.48
608.2	23148.16
608.557	23083.08
608.914	23126.69
609.272	23194.94
609.629	23321.72
609.986	23320.14
610.343	23293.02
610.7	23419.79
611.057	23403.07
611.414	23359.23
611.771	23405.78
612.127	23456.4
612.484	23457.08
612.841	23589.28
613.198	23464.99
613.554	23505.89
613.911	23576.4
614.267	23571.88
614.624	23567.59
614.98	23700.24
615.337	23708.37
615.693	23608.49
616.05	23738.66
616.406	23878.54
616.762	23724.64
617.118	23748.15
617.475	23868.6
617.831	23857.75
618.187	23890.29
618.543	23935.94
618.899	23980.01
619.255	23951.08
619.611	23970.74
619.967	24035.37
620.323	24046.9
620.678	24010.51
621.034	23942.27
621.39	24105.43
621.746	24022.04
622.101	24179.32
622.457	24037.4
622.812	24148.81
623.168	24289.83
623.523	24090.28
623.879	24201.24
624.234	24225.42
624.589	24192.65
624.945	24221.13
625.3	24231.07
625.655	24197.85
626.01	24132.32
626.365	24260
626.72	24170.73
627.075	24213.22
627.43	24174.12
627.785	24185.65
628.14	24282.14
628.495	24158.76
628.85	24272.2
629.205	24057.74
629.559	24212.32
629.914	24026.56
630.269	24201.47
630.623	24058.65
630.978	24027.46
631.332	24124.86
631.687	24269.04
632.041	24130.06
632.396	24020.68
632.75	24107.69
633.104	24045.99
633.459	23943.4
633.813	23915.83
634.167	23843.74
634.521	23942.27
634.875	23945.43
635.229	23959.44
635.583	23789.5
635.937	23848.03
636.291	23800.35
636.645	23798.77
636.999	23698.43
637.352	23814.13
637.706	23683.06
638.06	23723.06
638.413	23741.14
638.767	23621.37
639.121	23766.23
639.474	23503.18
639.828	23515.61
640.181	23633.35
640.534	23575.72
640.888	23559
641.241	23517.87
641.594	23576.85
641.947	23480.58
642.301	23454.82
642.654	23520.36
643.007	23506.12
643.36	23529.17
643.713	23337.31
644.066	23562.16
644.419	23397.42
644.771	23229.06
645.124	23020.93
645.477	22992.23
645.83	22908.85
646.182	22803.09
646.535	22794.5
646.888	22826.59
647.24	22678.8
647.593	22800.15
647.945	22750.88
648.298	22618.68
648.65	22612.58
649.002	22623.66
649.355	22556.77
649.707	22594.73
650.059	22598.35
650.411	22974.16
650.763	22977.55
651.115	23169.63
651.467	23133.25
651.819	23190.65
652.171	23128.05
652.523	23015.96
652.875	23064.32
653.227	22970.77
653.578	23146.58
653.93	23107.49
654.282	23016.41
654.633	22892.8
654.985	23006.25
655.337	23055.28
655.688	23039.92
656.039	23114.27
656.391	23045.57
656.742	23006.47
657.094	22988.62
657.445	23130.31
657.796	23093.93
658.147	23010.54
658.498	22886.93
658.849	22978.68
659.2	22959.24
659.551	22942.74
659.902	22979.13
660.253	22992.91
660.604	22981.16
660.955	22802.41
661.306	22987.26
661.656	23062.52
662.007	22970.09
662.358	23034.95
662.708	22915.4
663.059	22893.25
663.409	22888.96
663.76	23035.62
664.11	23035.4
664.461	23008.05
664.811	22944.78
665.161	22907.94
665.511	22904.33
665.862	22949.07
666.212	22996.98
666.562	22999.47
666.912	23082.4
667.262	22983.42
667.612	22967.38
667.962	22974.83
668.312	22960.14
668.662	23018.45
669.011	23081.5
669.361	22958.34
669.711	23006.25
670.06	22844.22
670.41	22864.55
670.76	22674.5
671.109	22967.83
671.459	22796.99
671.808	22853.71
672.157	22848.28
672.507	22771.68
672.856	22710.21
673.205	22726.7
673.554	22829.3
673.904	22753.6
674.253	22904.33
674.602	22791.56
674.951	22560.16
675.3	22392.93
675.649	22680.38
675.998	22744.33
676.346	22613.49
676.695	22821.39
677.044	22651
677.393	22724.67
677.741	22769.87
678.09	22616.88
678.438	22473.38
678.787	22565.35
679.135	22668.4
679.484	22431.12
679.832	22436.09
680.181	22506.37
680.529	22472.7
680.877	22375.75
681.225	22295.08
681.573	22529.42
681.922	22266.83
682.27	22263.89
682.618	22257.34
682.966	22133.27
683.314	22141.64
683.661	22057.34
684.009	22080.62
684.357	21940.96
684.705	21947.97
685.053	22002.43
685.4	21923.34
685.748	21885.14
686.095	21733.51
686.443	21669.56
686.79	21671.59
687.138	21714.3
687.485	21668.88
687.832	21549.33
688.18	21592.05
688.527	21442.67
688.874	21454.87
689.221	21422.33
689.568	21377.36
689.915	21300.98
690.262	21281.54
690.609	21200.87
690.956	21185.5
691.303	21205.84
691.65	20982.12
691.997	21074.54
692.344	20896.47
692.69	20947.54
693.037	20884.27
693.383	20709.81
693.73	20737.83
694.077	20598.85
694.423	20584.39
694.769	20443.83
695.116	20434.79
695.462	20552.75
695.808	20399.99
696.155	20430.72
696.501	20231.63
696.847	20266.66
697.193	20076.83
697.539	20130.16
697.885	20055.14
698.231	19825.09
698.577	19950.73
698.923	19898.76
699.269	19838.42
699.614	19680.46
699.96	19586
700.306	19598.65
700.651	19474.13
700.997	19474.13
701.342	19470.52
701.688	19404.76
702.033	19275.95
702.379	19187.81
702.724	19167.7
703.069	19156.86
703.415	18976.07
703.76	19028.5
704.105	19016.52
704.45	18899.69
704.795	18920.03
705.14	18789.63
705.485	18773.59
705.83	18607.72
706.175	18680.48
706.52	18547.15
706.865	18521.62
707.209	18421.51
707.554	18492.92
707.899	18493.6
708.243	18373.37
708.588	18276.65
708.932	18153.72
709.277	18199.37
709.621	18085.47
709.966	18040.27
710.31	18115.75
710.654	17920.05
710.998	17964.34
711.342	17989.88
711.687	17932.25
712.031	17844.8
712.375	17790.11
712.719	17877.34
713.063	17720.06
713.407	17839.38
713.75	17670.57
714.094	17781.52
714.438	17563
714.782	17614.3
715.125	17491.36
715.469	17541.08
715.812	17458.14
716.156	17370.91
716.499	17333.17
716.843	17391.03
717.186	17333.17
717.53	17357.13
717.873	17216.57
718.216	17235.55
718.559	17270.8
718.902	17165.27
719.246	17168.21
719.589	17094.76
719.932	17020.41
720.275	17012.96
720.617	17050.24
720.96	16960.75
721.303	17031.04
721.646	16962.56
721.989	16937.03
722.331	16937.93
722.674	16999.62
723.016	16952.39
723.359	16872.4
723.701	16919.4
724.044	16712.17
724.386	16609.8
724.729	16714.66
725.071	16691.84
725.413	16787.2
725.755	16739.29
726.097	16618.16
726.439	16598.96
726.782	16537.71
727.124	16667.65
727.465	16582.69
727.807	16536.58
728.149	16480.54
728.491	16567.09
728.833	16552.63
729.175	16488.45
729.516	16370.26
729.858	16383.59
730.199	16475.8
730.541	16375.91
730.882	16417.94
731.224	16444.38
731.565	16304.27
731.906	16314.44
732.248	16405.29
732.589	16252.98
732.93	16283.94
733.271	16302.92
733.612	16391.28
733.953	16331.39
734.294	16217.27
734.635	16261.79
734.976	16302.69
735.317	16243.26
735.658	16220.89
735.999	16171.4
736.339	16121.23
736.68	16297.04
737.021	16291.17
737.361	16209.14
737.702	16177.5
738.042	16165.07
738.383	16127.33
738.723	16153.32
739.063	16032.19
739.404	16206.88
739.744	16178.63
740.084	16137.95
740.424	16173.66
740.764	16121.68
741.104	16174.79
741.444	16055.02
741.784	16015.92
742.124	16129.82
742.464	16123.04
742.804	16123.49
743.143	16143.37
743.483	16184.96
743.823	16128.69
744.162	16099.08
744.502	16171.62
744.841	16168.69
745.181	16299.3
745.52	16243.03
745.86	16235.8
746.199	16279.87
746.538	16245.75
746.877	16335.23
747.216	16330.71
747.556	16332.97
747.895	16451.16
748.234	16434.67
748.573	16461.11
748.911	16382.92
749.25	16430.15
749.589	16434.89
749.928	16607.54
750.267	16583.36
750.605	16619.97
750.944	16591.95
751.283	16727.77
751.621	16753.75
751.96	16733.64
752.298	16820.42
752.636	16871.72
752.975	16894.77
753.313	16932.05
753.651	17083.69
753.989	17038.04
754.327	17149.68
754.666	17111.94
755.004	17302.44
755.342	17313.06
755.679	17357.13
756.017	17440.06
756.355	17433.96
756.693	17594.86
757.031	17624.69
757.368	17663.11
757.706	17668.53
758.044	17742.88
758.381	17992.82
758.719	17809.77
759.056	18024.68
759.394	18037.56
759.731	18074.85
760.068	18204.11
760.405	18184.9
760.743	18230.33
761.08	18316.2
761.417	18339.25
761.754	18319.14
762.091	18402.75
762.428	18490.21
762.765	18360.72
763.102	18565.01
763.438	18501.28
763.775	18598.9
764.112	18708.96
764.449	18723.65
764.785	18721.16
765.122	18665.57
765.458	18680.71
765.795	18783.31
766.131	18826.69
766.467	18871.44
766.804	18835.96
767.14	18700.14
767.476	18905.11
767.812	18903.75
768.148	18971.1
768.485	18856.3
768.821	18883.64
769.157	18909.86
769.492	18761.16
769.828	18827.82
770.164	18750.09
770.5	18758.67
770.836	18873.7
771.171	18773.59
771.507	18761.16
771.842	18705.79
772.178	18709.64
772.513	18708.51
772.849	18727.49
773.184	18646.81
773.519	18709.18
773.855	18636.64
774.19	18617.43
774.525	18588.73
774.86	18611.56
775.195	18555.74
775.53	18467.83
775.865	18448.63
776.2	18289.31
776.535	18280.27
776.87	18195.3
777.205	18192.13
777.539	18174.51
777.874	18221.96
778.209	18074.17
778.543	18064.45
778.878	18071.01
779.212	18106.71
779.547	17988.3
779.881	18019.03
780.215	17827.17
780.55	17908.53
780.884	17779.04
781.218	17791.92
781.552	17891.8
781.886	17724.8
782.22	17719.83
782.554	17586.5
782.888	17478.48
783.222	17416.56
783.556	17426.96
783.889	17323.68
784.223	17272.38
784.557	17320.97
784.89	17308.32
785.224	17160.52
785.557	17127.53
785.891	17114.2
786.224	17067.42
786.558	17141.99
786.891	16858.38
787.224	16789.91
787.557	16788.78
787.891	16793.75
788.224	16679.18
788.557	16821.1
788.89	16706.3
789.223	16628.56
789.556	16509.02
789.888	16546.98
790.221	16406.19
790.554	16282.81
790.887	16393.09
791.219	16415.91
791.552	16219.08
791.884	16142.92
792.217	16211.85
792.549	16070.16
792.882	15920.78
793.214	16000.55
793.546	15934.34
793.879	15752.2
794.211	15782.03
794.543	15819.99
794.875	15721.24
795.207	15760.79
795.539	15683.05
795.871	15672.88
796.203	15450.51
796.535	15503.17
796.867	15411.19
797.198	15357.41
797.53	15441.7
797.862	15277.86
798.193	15316.28
798.525	15233.57
798.856	15239.22
799.188	15083.52
799.519	14973.69
799.85	14932.56
800.182	15011.2
800.513	14942.95
800.844	14789.29
801.175	14981.6
801.506	14884.2
801.837	14707.71
802.168	14766.24
802.499	14773.69
802.83	14645.34
803.161	14616.41
803.491	14673.13
803.822	14573.02
804.153	14486.7
804.483	14412.12
804.814	14403.53
805.145	14339.81
805.475	14343.42
805.805	14288.51
806.136	14321.05
806.466	14326.25
806.796	14188.4
807.126	14072.47
807.457	14113.82
807.787	14112.92
808.117	14003.09
808.447	13935.07
808.777	14013.49
809.107	13949.99
809.436	13841.97
809.766	13867.28
810.096	13894.17
810.426	13723.55
810.755	13808.52
811.085	13732.36
811.414	13684.46
811.744	13582.54
812.073	13667.73
812.403	13557.45
812.732	13509.09
813.061	13490.79
813.39	13493.5
813.719	13406.95
814.049	13470
814.378	13459.38
814.707	13232.04
815.036	13338.25
815.365	13301.87
815.693	13170.8
816.022	13149.33
816.351	13067.3
816.68	12992.05
817.008	13092.16
817.337	12940.75
817.665	12915.66
817.994	13081.99
818.322	12975.77
818.651	12855.33
818.979	12871.37
819.307	12913.86
819.636	12816.23
819.964	12817.81
820.292	12792.5
820.62	12847.19
820.948	12849.22
821.276	12841.09
821.604	12684.03
821.932	12831.15
822.259	12794.31
822.587	12698.49
822.915	12674.99
823.243	12732.17
823.57	12709.57
823.898	12697.59
824.225	12717.48
824.553	12653.07
824.88	12741.2
825.207	12749.57
825.535	12699.85
825.862	12700.75
826.189	12704.6
826.516	12708.66
826.843	12758.61
827.17	12785.27
827.497	12738.72
827.824	12753.63
828.151	12731.49
828.478	12653.75
828.805	12770.13
829.131	12678.83
829.458	12674.99
829.785	12627.31
830.111	12682.67
830.438	12695.33
830.764	12667.76
831.09	12661.21
831.417	12736.46
831.743	12706.4
832.069	12721.09
832.395	12620.53
832.722	12633.86
833.048	12624.82
833.374	12520.87
833.7	12482.91
834.026	12587.08
834.351	12515
834.677	12594.99
835.003	12575.33
835.329	12570.36
835.654	12575.79
835.98	12525.84
836.306	12511.38
836.631	12414.43
836.956	12455.11
837.282	12442.68
837.607	12416.24
837.932	12366.3
838.258	12330.14
838.583	12394.1
838.908	12338.73
839.233	12378.5
839.558	12241.56
839.883	12250.6
840.208	12223.25
840.533	12178.73
840.858	12158.62
841.182	12227.55
841.507	12164.04
841.832	12066.87
842.156	12117.49
842.481	12024.61
842.805	12107.77
843.13	12022.81
843.454	12006.99
843.778	11972.86
844.103	11914.33
844.427	11907.78
844.751	11898.74
845.075	11885.86
845.399	11871.17
845.723	11822.81
846.047	11747.78
846.371	11678.63
846.695	11663.04
847.019	11652.87
847.343	11531.52
847.666	11464.4
847.99	11382.37
848.313	11359.77
848.637	11393.67
848.96	11354.12
849.284	11288.36
849.607	11205.65
849.931	11251.3
850.254	11164.52
850.577	11109.61
850.9	11055.15
851.223	11027.35
851.546	10963.4
851.869	10915.72
852.192	11008.37
852.515	10837.07
852.838	10700.58
853.161	10763.18
853.483	10734.48
853.806	10675.5
854.129	10671.2
854.451	10646.57
854.774	10545.78
855.096	10554.82
855.419	10522.51
855.741	10511.43
856.063	10444.09
856.385	10404.99
856.708	10444.77
857.03	10336.52
857.352	10295.17
857.674	10222.63
857.996	10262.17
858.318	10136.75
858.64	10223.53
858.961	10089.75
859.283	10119.8
859.605	10066.25
859.926	10120.26
860.248	10074.83
860.57	10039.81
860.891	10027.83
861.212	9936.53
861.534	9968.62
861.855	9941.73
862.176	9941.05
862.498	9903.09
862.819	9878.45
863.14	9851.79
863.461	9761.85
863.782	9771.57
864.103	9801.17
864.424	9785.8
864.745	9783.77
865.065	9672.13
865.386	9691.12
865.707	9698.12
866.027	9690.66
866.348	9639.14
866.668	9641.17
866.989	9631.91
867.309	9604.79
867.63	9598.01
867.95	9598.01
868.27	9493.38
868.59	9465.13
868.91	9537.45
869.23	9539.03
869.55	9405.7
869.87	9450.44
870.19	9422.65
870.51	9428.07
870.83	9441.18
871.15	9420.61
871.469	9403.89
871.789	9361.86
872.109	9368.86
872.428	9352.59
872.748	9360.73
873.067	9267.4
873.386	9344.23
873.706	9243.9
874.025	9318.02
874.344	9256.1
874.663	9247.29
874.982	9226.72
875.301	9217.91
875.62	9191.92
875.939	9172.03
876.258	9206.38
876.577	9153.28
876.896	9138.36
877.214	9074.18
877.533	9110.79
877.852	9104.92
878.17	9141.53
878.489	9122.09
878.807	9099.04
879.125	9073.28
879.444	9079.61
879.762	9061.98
880.08	8990.12
880.398	8990.57
880.716	8919.61
881.034	8996.22
881.352	8908.08
881.67	8913.73
881.988	8925.26
882.306	8850.91
882.624	8864.47
882.941	8856.56
883.259	8764.13
883.577	8759.61
883.894	8754.64
884.212	8712.16
884.529	8666.74
884.846	8692.5
885.164	8721.88
885.481	8652.72
885.798	8696.11
886.115	8535.67
886.432	8645.04
886.75	8560.07
887.067	8556.91
887.383	8452.05
887.7	8535.67
888.017	8456.8
888.334	8495.67
888.651	8449.34
888.967	8447.53
889.284	8417.93
889.6	8387.42
889.917	8316.91
890.233	8283.02
890.55	8277.59
890.866	8286.41
891.182	8282.56
891.498	8238.95
891.815	8296.8
892.131	8207.31
892.447	8173.19
892.763	8122.12
893.079	8115.34
893.395	8085.51
893.71	8101.33
894.026	8075.56
894.342	8081.89
894.657	7981.1
894.973	8006.19
895.289	7956.92
895.604	8003.7
895.92	7873.76
896.235	7868.56
896.55	7867.66
896.865	7793.09
897.181	7854.33
897.496	7787.21
897.811	7763.93
898.126	7694.11
898.441	7735.01
898.756	7634.9
899.071	7637.84
899.386	7667.21
899.7	7569.14
900.015	7500.89
900.33	7529.59
900.644	7492.98
900.959	7505.18
901.273	7466.77
901.588	7469.03
901.902	7363.04
902.216	7352.65
902.531	7328.47
902.845	7317.17
903.159	7240.56
903.473	7216.83
903.787	7218.41
904.101	7222.48
904.415	7228.13
904.729	7147.91
905.042	7149.26
905.356	7026.33
905.67	7002.82
905.984	7049.38
906.297	7079.88
906.611	6945.42
906.924	6941.58
907.237	6967.12
907.551	6911.98
907.864	6924.63
908.177	6832.66
908.491	6862.94
908.804	6815.71
909.117	6769.61
909.43	6764.41
909.743	6728.48
910.056	6735.49
910.368	6674.92
910.681	6680.57
910.994	6666.79
911.307	6607.13
911.619	6565.1
911.932	6571.88
912.244	6482.16
912.557	6513.12
912.869	6464.76
913.181	6418.43
913.494	6442.61
913.806	6387.7
914.118	6394.93
914.43	6323.29
914.742	6281.94
915.054	6256.63
915.366	6247.14
915.678	6221.15
915.99	6246.23
916.302	6177.31
916.613	6104.99
916.925	6133.24
917.236	6146.58
917.548	6087.82
917.859	6069.29
918.171	6002.85
918.482	5949.29
918.794	5939.12
919.105	5977.31
919.416	5961.27
919.727	5950.42
920.038	5914.72
920.349	5850.99
920.66	5825
920.971	5865
921.282	5777.32
921.593	5769.64
921.903	5722.63
922.214	5683.09
922.525	5710.2
922.835	5627.72
923.146	5648.28
923.456	5619.13
923.767	5602.41
924.077	5573.94
924.387	5538.23
924.697	5561.96
925.008	5493.94
925.318	5513.6
925.628	5496.2
925.938	5480.6
926.248	5393.83
926.558	5396.76
926.867	5384.79
927.177	5383.21
927.487	5340.95
927.796	5309.99
928.106	5275.64
928.416	5286.71
928.725	5287.39
929.034	5231.57
929.344	5256.88
929.653	5228.63
929.962	5163.55
930.271	5139.37
930.581	5112.48
930.89	5113.16
931.199	5058.69
931.508	5072.48
931.817	5074.06
932.125	5008.75
932.434	4990.67
932.743	4993.84
933.051	4940.28
933.36	4931.24
933.669	4871.58
933.977	4874.97
934.286	4799.04
934.594	4831.58
934.902	4769.44
935.21	4779.38
935.519	4772.15
935.827	4802.66
936.135	4727.4
936.443	4707.52
936.751	4690.12
937.059	4707.52
937.367	4650.12
937.674	4658.03
937.982	4640.85
938.29	4587.52
938.597	4577.58
938.905	4571.25
939.213	4523.12
939.52	4466.85
939.827	4525.15
940.135	4481.76
940.442	4414.87
940.749	4486.28
941.056	4463.23
941.363	4395.89
941.67	4376
941.977	4369.67
942.284	4357.02
942.591	4350.69
942.898	4319.28
943.205	4301.2
943.511	4253.29
943.818	4285.83
944.125	4225.72
944.431	4202.22
944.738	4181.2
945.044	4163.12
945.35	4187.76
945.657	4157.93
945.963	4166.29
946.269	4163.8
946.575	4086.52
946.881	4092.62
947.187	4054.88
947.493	4031.83
947.799	4069.34
948.105	3998.38
948.41	3993.41
948.716	3982.56
949.022	3997.48
949.327	3970.81
949.633	3935.33
949.938	3896.92
950.244	3898.73
950.549	3903.92
950.854	3829.35
951.16	3836.13
951.465	3866.64
951.77	3816.47
952.075	3804.49
952.38	3757.26
952.685	3786.86
952.99	3746.64
953.294	3706.41
953.599	3690.14
953.904	3690.6
954.209	3690.14
954.513	3712.06
954.818	3671.16
955.122	3644.95
955.426	3631.39
955.731	3609.69
956.035	3583.03
956.339	3584.16
956.643	3571.05
956.948	3568.34
957.252	3526.31
957.556	3503.26
957.86	3519.07
958.163	3496.02
958.467	3466.65
958.771	3461.45
959.075	3484.5
959.378	3440.88
959.682	3449.25
959.985	3386.2
960.289	3374.67
960.592	3362.47
960.896	3356.14
961.199	3343.71
961.502	3327.21
961.805	3326.76
962.108	3286.31
962.411	3262.58
962.714	3286.54
963.017	3226.2
963.32	3238.4
963.623	3207.22
963.926	3253.54
964.228	3175.81
964.531	3161.34
964.833	3187.11
965.136	3151.4
965.438	3151.63
965.741	3123.15
966.043	3133.32
966.345	3106.2
966.648	3093.77
966.95	3092.87
967.252	3041.57
967.554	3074.79
967.856	3061.23
968.158	3037.05
968.46	3022.59
968.761	2986.88
969.063	2951.63
969.365	2966.55
969.666	2960.67
969.968	2959.09
970.269	2878.64
970.571	2891.75
970.872	2919.77
971.174	2885.87
971.475	2889.26
971.776	2879.77
972.077	2879.54
972.378	2842.93
972.679	2837.28
972.98	2862.82
973.281	2802.48
973.582	2789.6
973.883	2779.88
974.183	2765.42
974.484	2780.34
974.785	2733.33
975.085	2715.93
975.386	2748.47
975.686	2727.46
975.986	2713.45
976.287	2717.06
976.587	2683.84
976.887	2648.59
977.187	2669.83
977.487	2666.89
977.787	2651.53
978.087	2616.05
978.387	2601.13
978.687	2605.43
978.987	2607.01
979.286	2564.75
979.586	2600.45
979.885	2574.92
980.185	2535.6
980.484	2545.99
980.784	2551.19
981.083	2483.17
981.382	2515.94
981.682	2493.11
981.981	2494.47
982.28	2469.38
982.579	2453.34
982.878	2462.83
983.177	2445.2
983.475	2423.51
983.774	2368.82
984.073	2417.18
984.372	2408.59
984.67	2398.43
984.969	2391.87
985.267	2369.05
985.566	2389.39
985.864	2358.43
986.162	2318.43
986.461	2350.97
986.759	2330.86
987.057	2306
987.355	2296.06
987.653	2291.76
987.951	2207.92
988.249	2267.58
988.547	2264.19
988.844	2261.93
989.142	2216.74
989.44	2207.24
989.737	2223.74
990.035	2219
990.332	2191.88
990.63	2188.26
990.927	2208.6
991.224	2165.44
991.521	2168.83
991.819	2125.66
992.116	2158.88
992.413	2096.06
992.71	2105.1
993.006	2108.26
993.303	2093.8
993.6	2094.93
993.897	2066
994.193	2080.92
994.49	2039.57
994.787	2051.77
995.083	2016.97
995.379	2019
995.676	2016.29
995.972	2016.06
996.268	2026.68
996.565	1996.63
996.861	1964.54
997.157	2000.47
997.453	1966.35
997.749	1951.66
998.044	1948.72
998.34	1952.56
998.636	1930.42
998.932	1906.24
999.227	1916.4
999.523	1881.83
999.818	1910.3
1000.114	1878.44
1000.409	1885.67
1000.704	1857.65
1001	1871.21
1001.295	1850.42
1001.59	1844.09
1001.885	1839.12
1002.18	1790.31
1002.475	1803.19
1002.77	1790.08
1003.065	1781.27
1003.359	1786.92
1003.654	1769.74
1003.949	1743.53
1004.243	1730.65
1004.538	1729.74
1004.832	1742.85
1005.127	1727.71
1005.421	1699.69
1005.715	1712.34
1006.009	1704.88
1006.304	1701.04
1006.598	1651.78
1006.892	1663.3
1007.186	1652.46
1007.48	1638.67
1007.773	1644.1
1008.067	1626.02
1008.361	1646.81
1008.655	1608.39
1008.948	1589.18
1009.242	1622.63
1009.535	1577.2
1009.829	1572.23
1010.122	1579.01
1010.415	1551.67
1010.708	1561.16
1011.001	1547.15
1011.295	1532.23
1011.588	1518.22
1011.881	1524.1
1012.173	1519.58
1012.466	1520.03
1012.759	1495.85
1013.052	1478.68
1013.344	1466.92
1013.637	1468.51
1013.93	1462.86
1014.222	1466.25
1014.514	1462.63
1014.807	1443.87
1015.099	1430.77
1015.391	1432.8
1015.683	1412.01
1015.976	1398.68
1016.268	1390.32
1016.56	1360.94
1016.851	1365.91
1017.143	1371.33
1017.435	1393.48
1017.727	1365.68
1018.018	1357.55
1018.31	1340.37
1018.602	1348.96
1018.893	1320.04
1019.185	1307.61
1019.476	1322.52
1019.767	1321.62
1020.058	1261.96
1020.35	1281.62
1020.641	1258.34
1020.932	1283.88
1021.223	1265.8
1021.514	1240.72
1021.804	1221.06
1022.095	1236.2
1022.386	1237.78
1022.677	1232.81
1022.967	1190.32
1023.258	1207.72
1023.548	1209.76
1023.839	1188.97
1024.129	1214.5
1024.419	1202.75
1024.709	1148.06
1025	1160.04
1025.29	1173.6
1025.58	1141.28
1025.87	1159.81
1026.16	1134.5
1026.449	1127.5
1026.739	1109.19
1027.029	1127.95
1027.319	1117.78
1027.608	1116.2
1027.898	1111.23
1028.187	1075.97
1028.477	1080.72
1028.766	1058.57
1029.055	1065.58
1029.344	1064
1029.634	1054.96
1029.923	1048.4
1030.212	1039.37
1030.501	1044.79
1030.79	1027.39
1031.078	1034.62
1031.367	1017.44
1031.656	988.52
1031.945	969.76
1032.233	992.59
1032.522	987.16
1032.81	1004.79
1033.099	954.4
1033.387	988.07
1033.675	951.91
1033.963	944.23
1034.251	947.16
1034.54	942.87
1034.828	952.36
1035.116	956.43
1035.403	919.59
1035.691	920.95
1035.979	910.1
1036.267	924.11
1036.554	915.75
1036.842	897.67
1037.129	917.11
1037.417	900.84
1037.704	898.13
1037.992	876.66
1038.279	889.99
1038.566	872.14
1038.853	872.14
1039.14	872.14
