Data from hue_270_FLMS001491_00068.txt Node
Date: Tue Feb 07 15:57:33 GMT 2017
User: dcchb
Spectrometer: FLMS00149
Trigger mode: 0
Integration Time (sec): 2.000000E-2
Scans to average: 10
Electric dark correction enabled: true
Nonlinearity correction enabled: false
Boxcar width: 0
XAxis mode: Wavelengths
Number of Pixels in Spectrum: 2048
>>>>>Begin Spectral Data<<<<<
341.393	-3.02
341.776	-3.02
342.16	-3.02
342.543	-58.39
342.927	-74.43
343.31	-51.38
343.693	-69.01
344.077	-72.4
344.46	-67.88
344.843	-42.12
345.226	-44.15
345.61	-18.62
345.993	-23.13
346.376	-5.28
346.759	2.63
347.142	11.67
347.525	48.95
347.908	63.64
348.291	75.17
348.674	77.88
349.057	114.04
349.44	126.92
349.823	124.66
350.206	174.37
350.588	195.84
350.971	231.77
351.354	211.21
351.737	231.1
352.119	247.59
352.502	238.1
352.884	274.26
353.267	277.87
353.65	292.34
354.032	301.6
354.414	311.09
354.797	301.15
355.179	296.18
355.562	326.46
355.944	320.58
356.326	316.97
356.709	324.88
357.091	326.01
357.473	316.29
357.855	333.47
358.238	320.81
358.62	339.79
359.002	345.67
359.384	326.91
359.766	333.01
360.148	313.81
360.53	335.05
360.912	315.84
361.294	333.01
361.676	336.4
362.057	327.82
362.439	319.91
362.821	327.14
363.203	330.3
363.584	311.09
363.966	346.8
364.348	316.07
364.729	332.34
365.111	326.23
365.493	309.29
365.874	298.21
366.256	303.86
366.637	339.79
367.019	302.51
367.4	326.91
367.781	310.87
368.163	302.96
368.544	305.44
368.925	304.77
369.306	318.32
369.688	295.95
370.069	307.03
370.45	328.04
370.831	307.48
371.212	320.36
371.593	299.57
371.974	295.95
372.355	294.6
372.736	321.71
373.117	302.96
373.498	315.84
373.879	317.87
374.26	311.32
374.641	312.22
375.021	315.39
375.402	319
375.783	317.87
376.163	316.97
376.544	314.26
376.925	307.7
377.305	337.53
377.686	337.76
378.066	314.26
378.447	340.47
378.827	332.11
379.208	334.82
379.588	337.53
379.968	316.52
380.349	337.53
380.729	335.5
381.109	323.3
381.489	329.85
381.87	344.99
382.25	328.04
382.63	341.15
383.01	332.79
383.39	334.37
383.77	352.22
384.15	359.68
384.53	341.15
384.91	339.79
385.29	358.78
385.67	344.31
386.049	359.91
386.429	358.78
386.809	329.4
387.189	354.26
387.568	361.49
387.948	337.53
388.328	371.88
388.707	359.45
389.087	363.3
389.466	347.7
389.846	375.27
390.225	357.65
390.605	350.64
390.984	384.31
391.363	361.71
391.743	363.52
392.122	352.9
392.501	380.47
392.881	389.74
393.26	385.89
393.639	390.19
394.018	387.02
394.397	380.47
394.776	361.71
395.155	395.16
395.534	385.89
395.913	387.93
396.292	409.17
396.671	392
397.05	393.13
397.429	396.97
397.808	399.9
398.186	393.35
398.565	409.4
398.944	403.52
399.323	408.27
399.701	387.02
400.08	403.52
400.458	415.27
400.837	435.61
401.215	409.17
401.594	415.95
401.972	413.46
402.351	399.68
402.729	431.77
403.107	429.96
403.486	413.69
403.864	446.68
404.242	439
404.62	437.64
404.999	442.39
405.377	444.2
405.755	451.2
406.133	445.55
406.511	438.77
406.889	459.56
407.267	469.73
407.645	471.09
408.023	493.91
408.401	476.06
408.779	484.42
409.156	488.04
409.534	508.83
409.912	490.3
410.29	495.04
410.667	511.31
411.045	535.72
411.422	531.43
411.8	523.07
412.178	525.33
412.555	560.58
412.933	548.38
413.31	563.97
413.687	567.13
414.065	581.37
414.442	573.23
414.819	591.31
415.197	590.63
415.574	597.87
415.951	593.35
416.328	613.46
416.705	599.9
417.082	613.68
417.46	634.7
417.837	622.27
418.214	667.24
418.591	624.53
418.967	660.69
419.344	657.98
419.721	654.81
420.098	662.72
420.475	674.47
420.852	688.71
421.228	683.06
421.605	715.38
421.982	714.92
422.358	714.7
422.735	707.24
423.111	728.94
423.488	754.25
423.864	766
424.241	782.27
424.617	774.58
424.994	800.8
425.37	806
425.746	792.89
426.123	823.4
426.499	816.62
426.875	817.07
427.251	846.22
427.627	866.33
428.003	842.15
428.379	878.54
428.756	861.36
429.132	878.76
429.507	893.23
429.883	899.78
430.259	939.33
430.635	925.31
431.011	928.93
431.387	962.83
431.763	954.47
432.138	958.76
432.514	1011.19
432.89	991.3
433.265	1037.85
433.641	1043.5
434.016	1046.67
434.392	1098.87
434.767	1088.25
435.143	1108.59
435.518	1110.85
435.894	1125.99
436.269	1171.86
436.644	1141.13
437.02	1161.24
437.395	1191.52
437.77	1211.63
438.145	1216.83
438.52	1221.8
438.895	1265.19
439.271	1243.72
439.646	1291.41
440.021	1297.06
440.395	1317.62
440.77	1295.93
441.145	1299.32
441.52	1348.81
441.895	1348.13
442.27	1357.62
442.645	1365.53
443.019	1389.03
443.394	1393.1
443.769	1388.81
444.143	1448.01
444.518	1446.43
444.892	1433.78
445.267	1450.5
445.641	1464.74
446.016	1473.1
446.39	1463.61
446.764	1468.13
447.139	1502.7
447.513	1505.41
447.887	1518.29
448.262	1492.76
448.636	1519.42
449.01	1535.47
449.384	1527.33
449.758	1587.44
450.132	1581.34
450.506	1588.8
450.88	1596.03
451.254	1559.65
451.628	1615.69
452.002	1638.74
452.376	1618.86
452.75	1638.52
453.123	1645.07
453.497	1697.95
453.871	1708.34
454.244	1693.66
454.618	1709.93
454.992	1730.94
455.365	1733.65
455.739	1771.62
456.112	1805.74
456.486	1811.62
456.859	1825.18
457.232	1848.68
457.606	1821.79
457.979	1843.48
458.352	1872.86
458.725	1932.75
459.099	1923.71
459.472	1951.73
459.845	1968.68
460.218	1971.84
460.591	1989.24
460.964	2012.07
461.337	2038.51
461.71	2079.18
462.083	2082.57
462.456	2083.48
462.829	2095.23
463.201	2133.42
463.574	2106.53
463.947	2123.7
464.32	2186.07
464.692	2203.7
465.065	2222.68
465.438	2272.62
465.81	2275.56
466.183	2312.62
466.555	2355.56
466.928	2346.52
467.3	2351.49
467.672	2380.42
468.045	2436.01
468.417	2425.61
468.789	2443.01
469.161	2462.45
469.534	2500.64
469.906	2527.53
470.278	2528.44
470.65	2584.71
471.022	2604.14
471.394	2643.46
471.766	2681.65
472.138	2699.73
472.51	2752.39
472.882	2775.21
473.253	2780.18
473.625	2829.22
473.997	2854.3
474.369	2832.61
474.74	2899.73
475.112	2962.32
475.484	2977.69
475.855	3054.07
476.227	3048.65
476.598	3115.54
476.97	3148.76
477.341	3197.12
477.713	3237.57
478.084	3255.2
478.455	3304.01
478.827	3350.11
479.198	3375.19
479.569	3409.09
479.94	3489.99
480.311	3487.73
480.682	3538.58
481.053	3628.52
481.424	3671.01
481.795	3692.7
482.166	3753.71
482.537	3737.9
482.908	3835.07
483.279	3837.33
483.65	3877.55
484.021	3992.13
484.391	3997.78
484.762	4059.24
485.133	4011.11
485.503	4134.04
485.874	4155.06
486.244	4174.72
486.615	4231.67
486.985	4264.89
487.356	4319.8
487.726	4417.43
488.097	4423.3
488.467	4466.92
488.837	4544.43
489.207	4591.43
489.578	4610.87
489.948	4656.29
490.318	4701.03
490.688	4740.81
491.058	4750.75
491.428	4827.58
491.798	4847.02
492.168	4924.98
492.538	4871.88
492.908	5014.25
493.278	5011.53
493.648	5026.22
494.017	5108.26
494.387	5062.61
494.757	5177.86
495.126	5221.25
495.496	5236.61
495.866	5264.64
496.235	5296.95
496.605	5307.35
496.974	5316.16
497.344	5325.2
497.713	5402.26
498.082	5454.69
498.452	5443.39
498.821	5475.48
499.19	5500.56
499.559	5526.32
499.928	5559.77
500.298	5550.96
500.667	5617.62
501.036	5606.77
501.405	5616.04
501.774	5620.11
502.143	5719.76
502.512	5702.14
502.88	5705.08
503.249	5753.66
503.618	5726.54
503.987	5744.17
504.356	5810.84
504.724	5802.7
505.093	5843.15
505.462	5804.96
505.83	5848.58
506.199	5912.98
506.567	5947.78
506.936	5915.01
507.304	5975.35
507.672	6026.88
508.041	5979.87
508.409	6034.11
508.777	6062.81
509.145	6084.05
509.514	6125.18
509.882	6066.65
510.25	6070.94
510.618	6106.87
510.986	6133.31
511.354	6164.5
511.722	6215.57
512.09	6211.28
512.458	6213.54
512.826	6257.38
513.193	6275.68
513.561	6288.34
513.929	6340.54
514.297	6292.18
514.664	6386.87
515.032	6361.56
515.4	6395
515.767	6376.92
516.135	6369.01
516.502	6321.33
516.869	6475.23
517.237	6450.82
517.604	6400.65
517.972	6492.85
518.339	6491.27
518.706	6460.31
519.073	6464.38
519.44	6515.22
519.808	6560.65
520.175	6532.17
520.542	6577.37
520.909	6605.84
521.276	6521.78
521.643	6640.19
522.009	6576.24
522.376	6625.28
522.743	6620.53
523.11	6675.45
523.477	6682.23
523.843	6787.76
524.21	6792.96
524.577	6820.3
524.943	6817.36
525.31	6823.92
525.676	6904.14
526.043	6950.92
526.409	6870.24
526.776	6978.94
527.142	6938.26
527.508	6980.3
527.874	6996.57
528.241	7053.97
528.607	7036.57
528.973	7151.59
529.339	6997.92
529.705	7097.36
530.071	7175.32
530.437	7184.13
530.803	7173.06
531.169	7198.82
531.535	7222.1
531.901	7201.76
532.267	7217.58
532.632	7270.68
532.998	7225.04
533.364	7285.15
533.73	7248.54
534.095	7345.71
534.461	7293.73
534.826	7319.04
535.192	7376.67
535.557	7417.12
535.923	7355.88
536.288	7371.25
536.653	7425.26
537.019	7375.31
537.384	7333.73
537.749	7386.84
538.114	7409.89
538.479	7423.67
538.845	7516.55
539.21	7378.48
539.575	7451.24
539.94	7440.17
540.305	7427.52
540.67	7427.97
541.034	7488.98
541.399	7524.69
541.764	7506.84
542.129	7506.84
542.494	7537.57
542.858	7528.08
543.223	7559.94
543.587	7527.17
543.952	7493.05
544.316	7583.22
544.681	7561.98
545.045	7596.33
545.41	7613.5
545.774	7666.38
546.138	7599.26
546.503	7589.09
546.867	7610.79
547.231	7672.48
547.595	7637.45
547.959	7637.45
548.324	7621.86
548.688	7633.16
549.052	7652.82
549.416	7727.4
549.779	7691.46
550.143	7690.56
550.507	7697.79
550.871	7713.84
551.235	7749.77
551.599	7736.43
551.962	7789.54
552.326	7766.49
552.689	7814.63
553.053	7764.23
553.417	7778.47
553.78	7889.2
554.143	7798.58
554.507	7824.57
554.87	7867.05
555.234	7907.73
555.597	7820.95
555.96	7900.05
556.323	7892.82
556.686	7907.05
557.05	7949.31
557.413	7950.44
557.776	7938.92
558.139	7999.7
558.502	7998.8
558.865	8014.62
559.228	8002.64
559.59	8039.48
559.953	8119.48
560.316	8164.45
560.679	8184.78
561.041	8207.38
561.404	8211.22
561.767	8296.87
562.129	8146.37
562.492	8263.88
562.854	8293.71
563.217	8294.84
563.579	8311.34
563.941	8356.53
564.304	8365.57
564.666	8411.45
565.028	8459.13
565.39	8444.44
565.753	8460.71
566.115	8519.01
566.477	8518.34
566.839	8545.68
567.201	8599.01
567.563	8614.15
567.925	8667.94
568.287	8651.21
568.648	8719.23
569.01	8746.8
569.372	8759.91
569.734	8773.24
570.095	8815.73
570.457	8899.57
570.819	8841.04
571.18	8811.89
571.542	8904.31
571.903	8979.34
572.265	8968.27
572.626	8966.46
572.987	9000.58
573.349	9059.11
573.71	9111.31
574.071	9121.48
574.432	9169.84
574.794	9195.38
575.155	9136.17
575.516	9212.1
575.877	9263.85
576.238	9252.1
576.599	9369.16
576.96	9288.71
577.32	9375.04
577.681	9434.7
578.042	9402.61
578.403	9458.88
578.763	9469.27
579.124	9498.42
579.485	9483.06
579.845	9573.22
580.206	9540.68
580.566	9655.25
580.927	9648.7
581.287	9697.51
581.648	9647.57
582.008	9797.17
582.368	9683.5
582.728	9848.47
583.089	9839.66
583.449	9752.88
583.809	9861.8
584.169	9916.94
584.529	9894.34
584.889	10021.57
585.249	9963.27
585.609	9977.73
585.969	9993.55
586.329	9947.22
586.688	10013.21
587.048	9988.13
587.408	10086.43
587.768	10113.77
588.127	10118.07
588.487	10125.98
588.846	10292.75
589.206	10170.27
589.565	10275.13
589.925	10297.95
590.284	10293.2
590.643	10330.49
591.003	10351.06
591.362	10388.79
591.721	10337.72
592.08	10422.92
592.44	10437.83
592.799	10468.79
593.158	10481
593.517	10464.72
593.876	10513.76
594.235	10531.62
594.593	10527.1
594.952	10541.78
595.311	10548.11
595.67	10563.25
596.029	10684.83
596.387	10646.41
596.746	10726.64
597.104	10670.82
597.463	10690.93
597.822	10706.07
598.18	10692.74
598.538	10695.23
598.897	10852.96
599.255	10745.85
599.613	10892.06
599.972	10768.67
600.33	10918.95
600.688	10812.06
601.046	10861.55
601.404	10932.51
601.762	10885.5
602.12	10917.37
602.478	10934.99
602.836	10930.93
603.194	10873.75
603.552	10931.83
603.91	10960.98
604.268	11020.19
604.625	10941.55
604.983	10981.55
605.341	10938.84
605.698	11000.76
606.056	10966.86
606.413	11004.37
606.771	11059.74
607.128	11094.31
607.485	11022.9
607.843	11001.21
608.2	11048.44
608.557	11180.86
608.914	11050.92
609.272	11099.96
609.629	11134.09
609.986	11238.49
610.343	11213.18
610.7	11283.23
611.057	11252.5
611.414	11110.81
611.771	11322.1
612.127	11230.58
612.484	11286.85
612.841	11316.23
613.198	11265.83
613.554	11244.14
613.911	11319.84
614.267	11315.1
614.624	11367.75
614.98	11338.15
615.337	11410.91
615.693	11413.4
616.05	11375.89
616.406	11457.69
616.762	11424.02
617.118	11388.77
617.475	11442.78
617.831	11378.37
618.187	11494.75
618.543	11469.22
618.899	11532.95
619.255	11521.87
619.611	11416.79
619.967	11485.26
620.323	11522.78
620.678	11526.62
621.034	11456.11
621.39	11480.74
621.746	11450.24
622.101	11681.19
622.457	11546.73
622.812	11560.29
623.168	11561.87
623.523	11577.24
623.879	11506.51
624.234	11422.44
624.589	11554.41
624.945	11542.66
625.3	11636.45
625.655	11567.75
626.01	11536.34
626.365	11511.03
626.72	11505.83
627.075	11542.89
627.43	11524.81
627.785	11449.11
628.14	11487.3
628.495	11443
628.85	11505.6
629.205	11448.88
629.559	11567.75
629.914	11476.9
630.269	11452.04
630.623	11486.17
630.978	11415.89
631.332	11553.06
631.687	11495.88
632.041	11448.2
632.396	11410.24
632.75	11354.42
633.104	11403.91
633.459	11373.63
633.813	11383.8
634.167	11369.11
634.521	11296.12
634.875	11342.89
635.229	11343.35
635.583	11236.23
635.937	11311.03
636.291	11209.34
636.645	11316
636.999	11173.18
637.352	11269
637.706	11174.31
638.06	11185.38
638.413	11181.99
638.767	11140.64
639.121	11208.21
639.474	11198.26
639.828	11124.59
640.181	11136.57
640.534	11184.93
640.888	11119.85
641.241	11094.54
641.594	11102.67
641.947	11169.11
642.301	11134.99
642.654	11035.56
643.007	11066.97
643.36	11100.19
643.713	11078.95
644.066	11129.11
644.419	10979.97
644.771	10958.5
645.124	10822.46
645.477	10767.54
645.83	10735.23
646.182	10704.27
646.535	10749.92
646.888	10714.21
647.24	10650.26
647.593	10758.95
647.945	10679.41
648.298	10629.69
648.65	10606.19
649.002	10660.2
649.355	10627.21
649.707	10654.78
650.059	10663.59
650.411	10852.51
650.763	10815.22
651.115	10993.75
651.467	10957.14
651.819	10932.51
652.171	10880.76
652.523	10814.09
652.875	10870.14
653.227	10783.13
653.578	10904.26
653.93	10885.5
654.282	10812.51
654.633	10782
654.985	10843.47
655.337	10819.29
655.688	10786.3
656.039	10852.51
656.391	10792.17
656.742	10841.66
657.094	10818.16
657.445	10873.3
657.796	10853.87
658.147	10845.28
658.498	10768.67
658.849	10868.78
659.2	10800.08
659.551	10807.77
659.902	10882.57
660.253	10822.23
660.604	10817.03
660.955	10773.64
661.306	10834.88
661.656	10782.68
662.007	10772.74
662.358	10842.12
662.708	10906.52
663.059	10852.29
663.409	10791.95
663.76	10877.14
664.11	10834.21
664.461	10881.44
664.811	10839.63
665.161	10807.31
665.511	10792.17
665.862	10865.84
666.212	10827.2
666.562	10822
666.912	10860.87
667.262	10835.34
667.612	10816.35
667.962	10855.45
668.312	10807.31
668.662	10892.96
669.011	10816.58
669.361	10813.42
669.711	10820.2
670.06	10742.01
670.41	10764.15
670.76	10807.54
671.109	10860.87
671.459	10810.25
671.808	10693.65
672.157	10782.23
672.507	10718.05
672.856	10751.72
673.205	10719.18
673.554	10776.36
673.904	10676.92
674.253	10737.03
674.602	10727.09
674.951	10623.59
675.3	10563.71
675.649	10680.09
675.998	10650.71
676.346	10650.48
676.695	10715.79
677.044	10633.31
677.393	10639.86
677.741	10735.23
678.09	10547.66
678.438	10629.92
678.787	10560.77
679.135	10604.16
679.484	10556.7
679.832	10540.43
680.181	10559.41
680.529	10490.03
680.877	10481.9
681.225	10484.39
681.573	10543.37
681.922	10367.1
682.27	10369.13
682.618	10436.93
682.966	10372.52
683.314	10360.55
683.661	10313.99
684.009	10305.41
684.357	10342.02
684.705	10300.66
685.053	10305.18
685.4	10279.64
685.748	10221.12
686.095	10153.09
686.443	10191.96
686.79	10196.48
687.138	10219.99
687.485	10151.29
687.832	10126.43
688.18	10158.74
688.527	10064.74
688.874	10057.73
689.221	10155.81
689.568	9984.51
689.915	9994
690.262	9995.58
690.609	9924.85
690.956	9805.53
691.303	9868.36
691.65	9765.53
691.997	9811.41
692.344	9733.9
692.69	9667.46
693.037	9729.15
693.383	9589.95
693.73	9657.97
694.077	9596.73
694.423	9609.61
694.769	9561.92
695.116	9518.54
695.462	9491.42
695.808	9455.49
696.155	9539.55
696.501	9401.93
696.847	9413
697.193	9322.16
697.539	9364.41
697.885	9277.41
698.231	9217.53
698.577	9238.32
698.923	9243.06
699.269	9146.34
699.614	9091.88
699.96	9131.43
700.306	9061.15
700.651	9069.28
700.997	9012.56
701.342	8971.2
701.688	8969.4
702.033	8949.74
702.379	8925.78
702.724	8915.16
703.069	8895.05
703.415	8747.71
703.76	8776.18
704.105	8794.49
704.45	8751.55
704.795	8763.75
705.14	8707.26
705.485	8739.35
705.83	8614.83
706.175	8685.11
706.52	8580.25
706.865	8599.01
707.209	8548.17
707.554	8579.35
707.899	8531.67
708.243	8432.46
708.588	8456.87
708.932	8451.9
709.277	8414.38
709.621	8451.44
709.966	8337.32
710.31	8330.77
710.654	8300.94
710.998	8310.88
711.342	8310.21
711.687	8267.72
712.031	8277.66
712.375	8224.78
712.719	8226.37
713.063	8196.08
713.407	8189.53
713.75	8188.85
714.094	8205.12
714.438	8118.8
714.782	8095.75
715.125	8093.94
715.469	8167.61
715.812	8094.84
716.156	8053.71
716.499	8091.91
716.843	7974.17
717.186	7957.45
717.53	8011.46
717.873	7996.32
718.216	8008.07
718.559	7978.91
718.902	7871.35
719.246	7962.64
719.589	7855.98
719.932	7886.94
720.275	7876.32
720.617	7948.63
720.96	7885.58
721.303	7830.44
721.646	7849.88
721.989	7846.94
722.331	7829.54
722.674	7818.24
723.016	7841.74
723.359	7847.62
723.701	7844.91
724.044	7749.32
724.386	7690.33
724.729	7756.32
725.071	7768.07
725.413	7756.32
725.755	7802.87
726.097	7708.41
726.439	7739.82
726.782	7720.39
727.124	7705.25
727.465	7775.98
727.807	7746.38
728.149	7685.81
728.491	7726.94
728.833	7723.1
729.175	7668.87
729.516	7648.98
729.858	7688.53
730.199	7717
730.541	7651.24
730.882	7704.8
731.224	7706.15
731.565	7638.13
731.906	7608.98
732.248	7610.34
732.589	7612.82
732.93	7599.94
733.271	7572.37
733.612	7652.82
733.953	7629.55
734.294	7620.51
734.635	7569.66
734.976	7623.9
735.317	7582.54
735.658	7553.39
735.999	7624.57
736.339	7665.25
736.68	7625.48
737.021	7628.64
737.361	7567.63
737.702	7616.44
738.042	7617.57
738.383	7586.83
738.723	7610.79
739.063	7616.21
739.404	7621.64
739.744	7612.6
740.084	7697.11
740.424	7634.29
740.764	7695.31
741.104	7731.69
741.444	7625.93
741.784	7634.52
742.124	7703.44
742.464	7673.39
742.804	7726.49
743.143	7737.79
743.483	7710
743.823	7701.63
744.162	7698.24
744.502	7778.92
744.841	7773.5
745.181	7842.19
745.52	7823.44
745.86	7853.72
746.199	7906.6
746.538	7923.1
746.877	7967.84
747.216	8000.38
747.556	8018.91
747.895	8028.86
748.234	8000.83
748.573	8117.67
748.911	8142.07
749.25	8207.61
749.589	8221.17
749.928	8291.45
750.267	8385.23
750.605	8422.52
750.944	8522.4
751.283	8516.53
751.621	8694.83
751.96	8647.37
752.298	8747.93
752.636	8817.31
752.975	8934.82
753.313	8960.58
753.651	9059.11
753.989	9197.41
754.327	9204.64
754.666	9260.69
755.004	9372.1
755.342	9551.98
755.679	9673.56
756.017	9762.37
756.355	9920.56
756.693	9999.2
757.031	10039.65
757.368	10215.24
757.706	10333.43
758.044	10393.77
758.381	10647.54
758.719	10703.81
759.056	10884.6
759.394	11043.69
759.731	11113.52
760.068	11240.98
760.405	11335.44
760.743	11463.12
761.08	11673.96
761.417	11788.76
761.754	11992.14
762.091	12068.52
762.428	12216.09
762.765	12402.75
763.102	12588.06
763.438	12762.52
763.775	12818.56
764.112	12954.15
764.449	13300.36
764.785	13354.37
765.122	13507.36
765.458	13568.82
765.795	13731.08
766.131	13962.49
766.467	13983.5
766.804	14231.41
767.14	14320.89
767.476	14319.09
767.812	14511.17
768.148	14649.93
768.485	14780.77
768.821	14921.78
769.157	15043.59
769.492	15163.58
769.828	15334.65
770.164	15368.55
770.5	15461.66
770.836	15559.51
771.171	15661.2
771.507	15837.01
771.842	15799.05
772.178	15909.1
772.513	15997.91
772.849	16084.69
773.184	16088.08
773.519	16311.12
773.855	16323.55
774.19	16430.44
774.525	16552.93
774.86	16625.92
775.195	16684.45
775.53	16689.87
775.865	16740.72
776.2	16749.76
776.535	16764.45
776.87	16933.03
777.205	16943.2
777.539	16933.03
777.874	17038.11
778.209	17032.24
778.543	17072.91
778.878	17069.3
779.212	17104.32
779.547	17115.85
779.881	17186.13
780.215	17052.35
780.55	17231.78
780.884	17220.48
781.218	17286.69
781.552	17286.69
781.886	17362.4
782.22	17257.99
782.554	17227.26
782.888	17255.28
783.222	17180.25
783.556	17220.25
783.889	17210.54
784.223	17152.91
784.557	17233.59
784.89	17366.92
785.224	17165.11
785.557	17205.11
785.891	17133.02
786.224	17198.33
786.558	17142.52
786.891	17045.12
787.224	17089.64
787.557	17060.03
787.891	17031.78
788.224	17143.65
788.557	17145.68
788.89	17093.7
789.223	17070.43
789.556	17038.11
789.888	17025
790.221	17036.98
790.554	16942.97
790.887	16948.17
791.219	16964.21
791.552	16829.76
791.884	16801.28
792.217	16819.13
792.549	16796.08
792.882	16737.33
793.214	16579.82
793.546	16740.72
793.879	16663.43
794.211	16587.05
794.543	16629.08
794.875	16578.46
795.207	16647.16
795.539	16560.84
795.871	16557.67
796.203	16445.81
796.535	16350.9
796.867	16342.31
797.198	16320.62
797.53	16286.27
797.862	16099.83
798.193	16261.86
798.525	16138.47
798.856	16233.16
799.188	16048.53
799.519	16010.12
799.85	16094.86
800.182	16004.92
800.513	16018.93
800.844	15927.18
801.175	16002.66
801.506	15945.94
801.837	15814.87
802.168	15861.87
802.499	15840.63
802.83	15800.86
803.161	15748.43
803.491	15716.11
803.822	15667.3
804.153	15644.25
804.483	15527.42
804.814	15482.67
805.145	15519.96
805.475	15521.54
805.805	15404.03
806.136	15339.85
806.466	15442
806.796	15331.26
807.126	15283.81
807.457	15303.47
807.787	15224.37
808.117	15177.14
808.447	15139.18
808.777	15248.33
809.107	15147.09
809.436	15147.09
809.766	15075.9
810.096	15083.59
810.426	15040.65
810.755	15016.47
811.085	14997.94
811.414	15007.43
811.744	14860.54
812.073	14791.39
812.403	14913.2
812.732	14697.61
813.061	14833.65
813.39	14804.05
813.719	14713.43
814.049	14808.34
814.378	14731.51
814.707	14602.92
815.036	14642.24
815.365	14581.9
815.693	14470.5
816.022	14500.55
816.351	14419.42
816.68	14366.54
817.008	14405.41
817.337	14263.04
817.665	14290.61
817.994	14348.46
818.322	14309.14
818.651	14272.08
818.979	14138.98
819.307	14306.66
819.636	14241.35
819.964	14230.5
820.292	14218.75
820.62	14178.98
820.948	14117.74
821.276	14195.93
821.604	14172.2
821.932	14196.6
822.259	14158.19
822.587	14171.07
822.915	14152.99
823.243	14169.03
823.57	14127.45
823.898	14085.19
824.225	14057.4
824.553	14100.11
824.88	14096.95
825.207	14209.94
825.535	14107.34
825.862	14153.44
826.189	14077.74
826.516	14147.34
826.843	14230.73
827.17	14173.1
827.497	14203.38
827.824	14164.29
828.151	14216.49
828.478	14138.3
828.805	14278.18
829.131	14182.59
829.458	14131.07
829.785	14088.58
830.111	14102.6
830.438	14170.16
830.764	14158.19
831.09	14193.21
831.417	14128.58
831.743	14208.81
832.069	14136.27
832.395	14055.14
832.722	14149.83
833.048	14123.61
833.374	14157.74
833.7	14000.9
834.026	14041.35
834.351	14131.75
834.677	14090.62
835.003	14069.38
835.329	14025.99
835.654	13995.71
835.98	13976.72
836.306	13983.05
836.631	13999.77
836.956	14019.89
837.282	13976.27
837.607	13910.06
837.932	13912.54
838.258	13926.78
838.583	13838.42
838.908	13856.95
839.233	13884.07
839.558	13834.13
839.883	13728.37
840.208	13671.19
840.533	13685.21
840.858	13672.78
841.182	13745.32
841.507	13632.55
841.832	13675.49
842.156	13531.08
842.481	13562.72
842.805	13510.29
843.13	13529.28
843.454	13486.34
843.778	13540.12
844.103	13426.91
844.427	13372.9
844.751	13369.51
845.075	13356.85
845.399	13368.15
845.723	13225.78
846.047	13275.27
846.371	13129.06
846.695	13033.24
847.019	13003.42
847.343	13026.69
847.666	12922.06
847.99	12793.48
848.313	12801.16
848.637	12785.57
848.96	12755.96
849.284	12674.16
849.607	12640.49
849.931	12541.05
850.254	12481.62
850.577	12509.64
850.9	12431.45
851.223	12375.18
851.546	12383.09
851.869	12212.48
852.192	12308.97
852.515	12199.37
852.838	12090.67
853.161	12147.39
853.483	12098.81
853.806	12000.28
854.129	12014.97
854.451	11995.08
854.774	11937.45
855.096	11870.79
855.419	11839.83
855.741	11870.56
856.063	11744.01
856.385	11695.2
856.708	11771.13
857.03	11668.31
857.352	11666.28
857.674	11581.53
857.996	11610.91
858.318	11487.52
858.64	11445.26
858.961	11434.64
859.283	11421.54
859.605	11468.09
859.926	11387.19
860.248	11334.31
860.57	11266.06
860.891	11288.43
861.212	11259.05
861.534	11221.32
861.855	11105.84
862.176	11179.06
862.498	11165.72
862.819	11116.23
863.14	11094.31
863.461	11112.62
863.782	11055.67
864.103	11092.5
864.424	11060.64
864.745	11049.12
865.065	10963.92
865.386	10913.98
865.707	10877.37
866.027	10906.07
866.348	10903.36
866.668	10946.07
866.989	10875.79
867.309	10809.35
867.63	10830.59
867.95	10750.82
868.27	10772.06
868.59	10779.52
868.91	10748.79
869.23	10727.09
869.55	10667.43
869.87	10712.63
870.19	10706.53
870.51	10722.35
870.83	10653.87
871.15	10594.66
871.469	10602.35
871.789	10727.77
872.109	10672.18
872.428	10567.32
872.748	10519.64
873.067	10499.3
873.386	10523.93
873.706	10508.79
874.025	10509.7
874.344	10472.63
874.663	10450.26
874.982	10416.82
875.301	10445.74
875.62	10323.94
875.939	10401.9
876.258	10382.92
876.577	10271.96
876.896	10361.45
877.214	10286.65
877.533	10351.28
877.852	10333.43
878.17	10290.27
878.489	10267.22
878.807	10215.69
879.125	10205.3
879.444	10231.96
879.762	10224.28
880.08	10203.94
880.398	10174.34
880.716	10106.54
881.034	10097.95
881.352	10076.49
881.67	9996.94
881.988	10029.48
882.306	9935.02
882.624	9959.43
882.941	9928.92
883.259	9890.5
883.577	9956.49
883.894	9897.06
884.212	9903.16
884.529	9883.5
884.846	9830.39
885.164	9793.78
885.481	9797.85
885.798	9888.92
886.115	9671.3
886.432	9764.4
886.75	9710.62
887.067	9706.55
887.383	9637.63
887.7	9569.38
888.017	9657.51
888.334	9603.73
888.651	9564.86
888.967	9447.35
889.284	9445.77
889.6	9481.47
889.917	9358.31
890.233	9431.08
890.55	9385.43
890.866	9374.58
891.182	9351.31
891.498	9306.79
891.815	9320.35
892.131	9217.53
892.447	9255.27
892.763	9165.32
893.079	9099.56
893.395	9207.58
893.71	9100.24
894.026	9059.79
894.342	9071.32
894.657	8976.4
894.973	8951.54
895.289	9016.85
895.604	9020.47
895.92	8879
896.235	8832.23
896.55	8849.85
896.865	8792.23
897.181	8781.15
897.496	8727.82
897.811	8705
898.126	8718.78
898.441	8696.86
898.756	8670.2
899.071	8566.7
899.386	8650.31
899.7	8500.71
900.015	8479.47
900.33	8434.95
900.644	8463.65
900.959	8380.94
901.273	8387.49
901.588	8342.07
901.902	8266.82
902.216	8268.17
902.531	8292.58
902.845	8273.6
903.159	8165.12
903.473	8093.71
903.787	8104.33
904.101	8111.11
904.415	8027.95
904.729	8009.42
905.042	8005.81
905.356	7949.54
905.67	7937.11
905.984	7945.92
906.297	7839.48
906.611	7849.88
906.924	7889.65
907.237	7814.4
907.551	7823.21
907.864	7729.66
908.177	7759.94
908.491	7675.42
908.804	7649.88
909.117	7636.55
909.43	7599.26
909.743	7514.97
910.056	7482.43
910.368	7515.42
910.681	7499.38
910.994	7381.42
911.307	7397.69
911.619	7299.38
911.932	7355.88
912.244	7304.13
912.557	7222.1
912.869	7216.9
913.181	7173.06
913.494	7228.88
913.806	7107.52
914.118	7153.63
914.43	7081.08
914.742	7094.64
915.054	7008.54
915.366	6984.36
915.678	6992.73
915.99	6939.62
916.302	6905.5
916.613	6852.16
916.925	6857.81
917.236	6874.31
917.548	6781.66
917.859	6785.27
918.171	6707.54
918.482	6702.56
918.794	6675.45
919.105	6635.45
919.416	6638.61
919.727	6599.97
920.038	6598.84
920.349	6581.21
920.66	6519.29
920.971	6516.58
921.282	6481.33
921.593	6388
921.903	6387.32
922.214	6448.79
922.525	6428.22
922.835	6390.26
923.146	6315.23
923.456	6234.1
923.767	6263.03
924.077	6323.59
924.387	6251.73
924.697	6211.28
925.008	6203.82
925.318	6166.76
925.628	6113.88
925.938	6150.71
926.248	6103.71
926.558	6043.37
926.867	6016.71
927.177	5987.33
927.487	6002.47
927.796	5933.09
928.106	5936.71
928.416	5888.57
928.725	5907.33
929.034	5854
929.344	5903.71
929.653	5832.08
929.962	5742.14
930.271	5768.35
930.581	5693.78
930.89	5701.91
931.199	5664.63
931.508	5673.44
931.817	5614.91
932.125	5640.67
932.434	5616.94
932.743	5536.49
933.051	5536.94
933.36	5529.94
933.669	5465.99
933.977	5478.19
934.286	5457.85
934.594	5416.95
934.902	5402.49
935.21	5336.95
935.519	5356.84
935.827	5380.79
936.135	5316.84
936.443	5291.98
936.751	5285.65
937.059	5250.85
937.367	5232.55
937.674	5227.57
937.982	5222.83
938.29	5181.02
938.597	5188.48
938.905	5113.23
939.213	5105.54
939.52	5087.69
939.827	5059.22
940.135	5061.93
940.442	5011.99
940.749	5011.53
941.056	4999.56
941.363	4985.09
941.67	4949.84
941.977	4900.13
942.284	4849.28
942.591	4856.51
942.898	4852.67
943.205	4809.28
943.511	4808.83
943.818	4770.19
944.125	4776.74
944.431	4677.76
944.738	4690.64
945.044	4700.13
945.35	4653.8
945.657	4607.25
945.963	4635.95
946.269	4604.77
946.575	4583.75
946.881	4568.38
947.187	4607.7
947.493	4540.81
947.799	4582.62
948.105	4537.65
948.41	4452.68
948.716	4448.39
949.022	4440.93
949.327	4438.67
949.633	4442.06
949.938	4400.7
950.244	4386.24
950.549	4380.37
950.854	4344.89
951.16	4333.59
951.465	4303.76
951.77	4308.05
952.075	4260.37
952.38	4275.06
952.685	4215.62
952.99	4206.81
953.294	4230.99
953.599	4148.96
953.904	4159.81
954.209	4144.67
954.513	4172.46
954.818	4146.92
955.122	4101.73
955.426	4053.82
955.731	4021.28
956.035	4041.62
956.339	4007.27
956.643	4050.2
956.948	3982.41
957.252	4000.71
957.556	3933.37
957.86	3940.6
958.163	3885.46
958.467	3909.42
958.771	3854.5
959.075	3847.95
959.378	3859.25
959.682	3841.62
959.985	3833.03
960.289	3857.44
960.592	3816.99
960.896	3781.74
961.199	3783.09
961.502	3748.97
961.805	3722.08
962.108	3682.53
962.411	3666.03
962.714	3707.16
963.017	3677.33
963.32	3666.49
963.623	3639.82
963.926	3636.88
964.228	3590.33
964.531	3614.28
964.833	3584.68
965.136	3549.43
965.438	3529.31
965.741	3497.9
966.043	3469.43
966.345	3524.34
966.648	3455.87
966.95	3470.33
967.252	3419.03
967.554	3428.53
967.856	3401.41
968.158	3383.33
968.46	3381.75
968.761	3366.61
969.063	3359.83
969.365	3353.73
969.666	3328.19
969.968	3311.24
970.269	3317.12
970.571	3271.69
970.872	3261.75
971.174	3263.56
971.475	3241.41
971.776	3256.33
972.077	3245.71
972.378	3209.1
972.679	3236.21
972.98	3182.43
973.281	3178.81
973.582	3158.02
973.883	3150.79
974.183	3113.96
974.484	3051.59
974.785	3071.7
975.085	3106.73
975.386	3063.56
975.686	3104.69
975.986	3015.2
976.287	3015.2
976.587	2997.35
976.887	2970.91
977.187	2977.24
977.487	2935.43
977.787	2963
978.087	2932.49
978.387	2924.81
978.687	2901.08
978.987	2911.48
979.286	2872.61
979.586	2889.56
979.885	2864.25
980.185	2838.03
980.484	2838.48
980.784	2817.92
981.083	2766.4
981.382	2761.65
981.682	2793.29
981.981	2756
982.28	2793.29
982.579	2737.47
982.878	2744.48
983.177	2707.19
983.475	2762.55
983.774	2722.78
984.073	2687.53
984.372	2653.4
984.67	2656.79
984.969	2684.59
985.267	2615.67
985.566	2640.75
985.864	2644.37
986.162	2630.35
986.461	2570.7
986.759	2584.25
987.057	2550.13
987.355	2558.49
987.653	2537.25
987.951	2529.79
988.249	2526.4
988.547	2494.54
988.844	2463.35
989.142	2469
989.44	2457.7
989.737	2441.88
990.035	2444.14
990.332	2467.42
990.63	2430.13
990.927	2393.52
991.224	2352.62
991.521	2405.73
991.819	2352.4
992.116	2374.99
992.413	2349.01
992.71	2344.71
993.006	2331.38
993.303	2334.54
993.6	2321.21
993.897	2293.87
994.193	2300.65
994.49	2276.24
994.787	2280.31
995.083	2248.44
995.379	2273.98
995.676	2244.15
995.972	2224.49
996.268	2226.3
996.565	2184.04
996.861	2191.5
997.157	2187.2
997.453	2182.23
997.749	2165.96
998.044	2159.63
998.34	2165.51
998.636	2146.75
998.932	2069.92
999.227	2102.68
999.523	2082.57
999.818	2114.89
1000.114	2048
1000.409	2043.48
1000.704	2051.61
1001	2056.81
1001.295	2004.16
1001.59	2028.79
1001.885	2014.1
1002.18	2005.06
1002.475	1967.1
1002.77	1983.14
1003.065	1977.94
1003.359	1976.13
1003.654	1970.94
1003.949	1916.02
1004.243	1927.55
1004.538	1891.62
1004.832	1918.73
1005.127	1880.09
1005.421	1901.33
1005.715	1873.54
1006.009	1870.37
1006.304	1851.17
1006.598	1834.67
1006.892	1834.9
1007.186	1810.26
1007.48	1818.17
1007.773	1822.01
1008.067	1770.26
1008.361	1750.38
1008.655	1779.08
1008.948	1766.65
1009.242	1748.57
1009.535	1710.83
1009.829	1735.69
1010.122	1746.08
1010.415	1707.21
1010.708	1697.95
1011.001	1687.1
1011.295	1672.87
1011.588	1657.95
1011.881	1667.22
1012.173	1658.4
1012.466	1631.06
1012.759	1635.35
1013.052	1624.51
1013.344	1591.74
1013.637	1606.65
1013.93	1575.92
1014.222	1591.29
1014.514	1549.71
1014.807	1560.78
1015.099	1562.59
1015.391	1556.26
1015.683	1568.01
1015.976	1539.08
1016.268	1535.69
1016.56	1525.75
1016.851	1492.53
1017.143	1469.26
1017.435	1496.83
1017.727	1469.48
1018.018	1474.23
1018.31	1455.02
1018.602	1452.31
1018.893	1456.6
1019.185	1433.55
1019.476	1436.49
1019.767	1397.17
1020.058	1384.74
1020.35	1378.86
1020.641	1377.28
1020.932	1365.53
1021.223	1381.57
1021.514	1337.73
1021.804	1339.09
1022.095	1321.24
1022.386	1326.21
1022.677	1307.45
1022.967	1328.24
1023.258	1299.54
1023.548	1322.59
1023.839	1292.31
1024.129	1285.98
1024.419	1244.4
1024.709	1286.21
1025	1248.02
1025.29	1246.66
1025.58	1242.37
1025.87	1223.61
1026.16	1220.22
1026.449	1234.46
1026.739	1210.73
1027.029	1188.81
1027.319	1189.04
1027.608	1187
1027.898	1180.9
1028.187	1167.34
1028.477	1153.78
1028.766	1179.55
1029.055	1144.52
1029.344	1148.81
1029.634	1124.63
1029.923	1134.35
1030.212	1145.2
1030.501	1110.62
1030.79	1088.47
1031.078	1070.62
1031.367	1070.4
1031.656	1083.05
1031.945	1059.55
1032.233	1072.66
1032.522	1066.55
1032.81	1033.11
1033.099	1054.8
1033.387	1035.37
1033.675	1046.67
1033.963	1023.17
1034.251	1012.32
1034.54	1016.61
1034.828	1011.87
1035.116	1021.58
1035.403	1003.73
1035.691	989.04
1035.979	996.95
1036.267	963.05
1036.554	966.9
1036.842	973.67
1037.129	964.41
1037.417	938.42
1037.704	941.59
1037.992	931.64
1038.279	959.44
1038.566	952.88
1038.853	952.88
1039.14	952.88
