Data from hue_38_FLMS001491_00078.txt Node
Date: Tue Feb 07 17:31:58 GMT 2017
User: dcchb
Spectrometer: FLMS00149
Trigger mode: 0
Integration Time (sec): 2.000000E-2
Scans to average: 10
Electric dark correction enabled: true
Nonlinearity correction enabled: false
Boxcar width: 0
XAxis mode: Wavelengths
Number of Pixels in Spectrum: 2048
>>>>>Begin Spectral Data<<<<<
341.393	-0
341.776	-0
342.16	-0
342.543	-55.59
342.927	-62.15
343.31	-65.76
343.693	-75.7
344.077	-75.93
344.46	-87.23
344.843	-41.58
345.226	-39.77
345.61	-30.96
345.993	-24.18
346.376	-7.91
346.759	17.4
347.142	14.24
347.525	65.08
347.908	46.33
348.291	84.52
348.674	103.05
349.057	118.41
349.44	138.53
349.823	134.91
350.206	159.09
350.588	195.02
350.971	218.3
351.354	232.31
351.737	246.1
352.119	260.56
352.502	289.94
352.884	281.35
353.267	294
353.65	306.43
354.032	314.79
354.414	315.7
354.797	317.96
355.179	319.09
355.562	329.03
355.944	321.57
356.326	344.4
356.709	336.04
357.091	353.44
357.473	356.37
357.855	342.36
358.238	316.15
358.62	349.37
359.002	328.58
359.384	349.14
359.766	357.5
360.148	346.66
360.53	356.83
360.912	341.01
361.294	358.86
361.676	351.18
362.057	325.19
362.439	325.42
362.821	354.34
363.203	322.03
363.584	334.68
363.966	333.78
364.348	315.47
364.729	314.12
365.111	337.39
365.493	334.23
365.874	315.7
366.256	326.77
366.637	310.27
367.019	329.71
367.4	331.06
367.781	330.39
368.163	321.8
368.544	321.35
368.925	323.61
369.306	338.3
369.688	303.72
370.069	326.55
370.45	322.7
370.831	311.4
371.212	326.32
371.593	310.5
371.974	345.53
372.355	315.7
372.736	329.26
373.117	327
373.498	319.99
373.879	313.44
374.26	335.58
374.641	343.72
375.021	341.69
375.402	333.1
375.783	345.08
376.163	338.3
376.544	362.25
376.925	322.48
377.305	347.56
377.686	358.18
378.066	332.19
378.447	355.92
378.827	346.43
379.208	313.66
379.588	333.32
379.968	323.61
380.349	349.6
380.729	346.88
381.109	344.17
381.489	331.74
381.87	324.29
382.25	339.43
382.63	355.7
383.01	342.36
383.39	339.2
383.77	338.3
384.15	328.13
384.53	360.44
384.91	362.25
385.29	368.35
385.67	355.47
386.049	351.18
386.429	351.86
386.809	370.39
387.189	358.86
387.568	370.16
387.948	373.32
388.328	353.21
388.707	381.68
389.087	376.04
389.466	354.57
389.846	378.07
390.225	367
390.605	377.17
390.984	388.24
391.363	379.65
391.743	396.6
392.122	380.78
392.501	377.17
392.881	356.6
393.26	384.62
393.639	393.21
394.018	358.86
394.397	396.15
394.776	380.78
395.155	387.33
395.534	398.18
395.913	382.59
396.292	380.33
396.671	389.37
397.05	392.98
397.429	399.54
397.808	395.47
398.186	364.74
398.565	406.32
398.944	397.28
399.323	396.6
399.701	399.99
400.08	424.4
400.458	411.51
400.837	401.12
401.215	418.75
401.594	420.1
401.972	410.61
402.351	409.48
402.729	420.1
403.107	416.49
403.486	395.47
403.864	425.98
404.242	422.14
404.62	417.39
404.999	445.41
405.377	423.49
405.755	435.92
406.133	433.66
406.511	426.88
406.889	444.73
407.267	455.13
407.645	433.66
408.023	445.19
408.401	465.98
408.779	432.53
409.156	448.12
409.534	444.96
409.912	457.39
410.29	460.55
410.667	440.44
411.045	494.9
411.422	476.82
411.8	475.02
412.178	460.1
412.555	473.89
412.933	485.64
413.31	497.16
413.687	487.22
414.065	489.48
414.442	502.59
414.819	487.44
415.197	505.07
415.574	494.22
415.951	508.46
416.328	494
416.705	505.3
417.082	486.99
417.46	529.03
417.837	530.83
418.214	520.66
418.591	533.55
418.967	520.66
419.344	535.13
419.721	522.02
420.098	539.87
420.475	557.27
420.852	525.86
421.228	533.09
421.605	570.38
421.982	538.52
422.358	540.32
422.735	576.26
423.111	548.46
423.488	575.58
423.864	552.53
424.241	579.65
424.617	566.54
424.994	574.22
425.37	587.78
425.746	584.17
426.123	587.33
426.499	583.26
426.875	616.48
427.251	598.18
427.627	589.82
428.003	612.19
428.379	639.31
428.756	615.13
429.132	621.68
429.507	614.67
429.883	647.67
430.259	643.15
430.635	642.24
431.011	639.98
431.387	652.64
431.763	648.57
432.138	670.94
432.514	665.75
432.89	652.64
433.265	695.12
433.641	680.66
434.016	679.3
434.392	687.89
434.767	699.64
435.143	715.69
435.518	718.63
435.894	724.27
436.269	703.03
436.644	728.57
437.02	734.44
437.395	725.4
437.77	723.82
438.145	765.18
438.52	742.35
438.895	753.43
439.271	745.74
439.646	776.93
440.021	784.61
440.395	795.23
440.77	757.49
441.145	781.45
441.52	783.93
441.895	793.2
442.27	812.63
442.645	804.05
443.019	799.08
443.394	826.87
443.769	832.07
444.143	825.97
444.518	820.32
444.892	837.49
445.267	833.2
445.641	821
446.016	838.62
446.39	843.82
446.764	860.32
447.139	852.63
447.513	850.15
447.887	856.7
448.262	875.01
448.636	874.78
449.01	903.03
449.384	898.51
449.758	880.43
450.132	899.41
450.506	880.43
450.88	908.68
451.254	893.99
451.628	915.91
452.002	932.4
452.376	901.9
452.75	934.44
453.123	962.23
453.497	934.66
453.871	966.98
454.244	986.87
454.618	956.59
454.992	1005.17
455.365	983.02
455.739	989.8
456.112	1022.35
456.486	1012.63
456.859	1046.98
457.232	1070.03
457.606	1086.98
457.979	1064.6
458.352	1083.81
458.725	1085.17
459.099	1094.43
459.472	1121.78
459.845	1125.62
460.218	1130.14
460.591	1127.43
460.964	1161.1
461.337	1188.22
461.71	1173.98
462.083	1212.62
462.456	1235.45
462.829	1221.44
463.201	1217.82
463.574	1235.9
463.947	1269.8
464.32	1307.99
464.692	1277.93
465.065	1305.95
465.438	1303.24
465.81	1342.11
466.183	1365.39
466.555	1394.09
466.928	1432.28
467.3	1408.32
467.672	1389.34
468.045	1456.46
468.417	1464.37
468.789	1482.67
469.161	1516.12
469.534	1535.55
469.906	1552.5
470.278	1571.03
470.65	1587.53
471.022	1628.88
471.394	1699.62
471.766	1690.35
472.138	1713.85
472.51	1756.56
472.882	1747.3
473.253	1800.18
473.625	1823.45
473.997	1875.2
474.369	1893.51
474.74	1960.63
475.112	1997.01
475.484	2015.31
475.855	2061.19
476.227	2055.77
476.598	2151.36
476.97	2182.32
477.341	2234.97
477.713	2321.07
478.084	2330.56
478.455	2411.01
478.827	2432.48
479.198	2561.74
479.569	2562.42
479.94	2659.59
480.311	2698.23
480.682	2781.4
481.053	2818
481.424	2957.21
481.795	2992.01
482.166	3045.34
482.537	3108.39
482.908	3208.73
483.279	3284.21
483.65	3385.9
484.021	3427.03
484.391	3539.79
484.762	3576.4
485.133	3677.19
485.503	3759.22
485.874	3876.73
486.244	3963.74
486.615	4034.47
486.985	4111.3
487.356	4220.68
487.726	4315.37
488.097	4427.23
488.467	4513.33
488.837	4652.76
489.207	4718.29
489.578	4864.05
489.948	4937.72
490.318	5090.94
490.688	5148.57
491.058	5252.97
491.428	5400.31
491.798	5436.69
492.168	5575.45
492.538	5706.29
492.908	5790.36
493.278	5887.08
493.648	5993.74
494.017	6118.03
494.387	6157.58
494.757	6254.75
495.126	6435.54
495.496	6461.07
495.866	6602.09
496.235	6702.2
496.605	6796.88
496.974	6871.46
497.344	6987.84
497.713	7051.11
498.082	7163.88
498.452	7315.29
498.821	7393.03
499.19	7452.23
499.559	7564.77
499.928	7666.92
500.298	7747.37
500.667	7847.48
501.036	7887.02
501.405	7982.39
501.774	8002.95
502.143	8142.16
502.512	8258.99
502.88	8344.41
503.249	8374.7
503.618	8461.92
503.987	8572.2
504.356	8663.73
504.724	8737.85
505.093	8776.72
505.462	8841.35
505.83	8938.3
506.199	9016.26
506.567	9140.32
506.936	9170.15
507.304	9301.45
507.672	9345.29
508.041	9391.84
508.409	9529.69
508.777	9641.55
509.145	9720.42
509.514	9708.22
509.882	9843.81
510.25	9906.41
510.618	9945.05
510.986	9962.9
511.354	10146.85
511.722	10136.23
512.09	10368.54
512.458	10324.02
512.826	10402.21
513.193	10515.2
513.561	10465.26
513.929	10660.28
514.297	10734.63
514.664	10799.04
515.032	10828.64
515.4	10958.36
515.767	10933.72
516.135	11041.74
516.502	11064.57
516.869	11184.11
517.237	11229.99
517.604	11196.99
517.972	11452.58
518.339	11443.09
518.706	11487.16
519.073	11547.49
519.44	11595.63
519.808	11734.83
520.175	11714.27
520.542	11883.98
520.909	11972.34
521.276	11881.5
521.643	12104.31
522.009	12119.91
522.376	12220.02
522.743	12328.49
523.11	12464.98
523.477	12515.83
523.843	12571.42
524.21	12788.59
524.577	12876.05
524.943	12857.06
525.31	12991.07
525.676	13011.64
526.043	13087.57
526.409	13183.61
526.776	13298.63
527.142	13314.45
527.508	13453.43
527.874	13510.15
528.241	13545.41
528.607	13606.87
528.973	13746.31
529.339	13730.71
529.705	13847.55
530.071	13998.05
530.437	13993.76
530.803	14142.9
531.169	14214.09
531.535	14228.55
531.901	14276.46
532.267	14379.73
532.632	14463.35
532.998	14603.46
533.364	14585.83
533.73	14618.37
534.095	14701.99
534.461	14758.48
534.826	14827.63
535.192	14939.72
535.557	15037.34
535.923	15011.13
536.288	15047.29
536.653	15217.45
537.019	15170.9
537.384	15273.72
537.749	15349.43
538.114	15355.98
538.479	15408.86
538.845	15479.14
539.21	15460.84
539.575	15634.17
539.94	15639.59
540.305	15738.57
540.67	15714.16
541.034	15768.85
541.399	15872.13
541.764	15982.4
542.129	15991.44
542.494	16084.1
542.858	16226.01
543.223	16127.94
543.587	16223.3
543.952	16314.6
544.316	16294.26
544.681	16365.45
545.045	16506.46
545.41	16563.18
545.774	16644.08
546.138	16577.42
546.503	16687.92
546.867	16708.26
547.231	16892.66
547.595	16863.51
547.959	17015.15
548.324	17023.96
548.688	16996.62
549.052	17040
549.416	17201.13
549.779	17171.75
550.143	17243.16
550.507	17404.29
550.871	17471.63
551.235	17373.55
551.599	17534.91
551.962	17510.95
552.326	17557.96
552.689	17762.47
553.053	17612.42
553.417	17802.92
553.78	17996.14
554.143	17868.46
554.507	17951.17
554.87	18056.93
555.234	18215.34
555.597	18143.03
555.96	18187.09
556.323	18232.06
556.686	18257.83
557.05	18471.38
557.413	18545.05
557.776	18514.09
558.139	18636.57
558.502	18652.84
558.865	18706.63
559.228	18833.18
559.59	18886.74
559.953	18963.12
560.316	19088.31
560.679	19170.34
561.041	19128.76
561.404	19260.96
561.767	19443.56
562.129	19406.72
562.492	19636.55
562.854	19592.03
563.217	19512.93
563.579	19631.35
563.941	19589.54
564.304	19799.25
564.666	19959.7
565.028	19952.02
565.39	20007.84
565.753	20112.01
566.115	20222.52
566.477	20222.52
566.839	20343.42
567.201	20546.8
567.563	20552.45
567.925	20690.76
568.287	20631.1
568.648	20656.86
569.01	20798.32
569.372	20908.38
569.734	20890.52
570.095	20998.77
570.457	21188.6
570.819	21264.75
571.18	21241.48
571.542	21358.31
571.903	21440.11
572.265	21504.29
572.626	21583.84
572.987	21720.56
573.349	21833.78
573.71	21931.63
574.071	21982.92
574.432	22101.11
574.794	22270.15
575.155	22276.7
575.516	22381.78
575.877	22499.97
576.238	22609.35
576.599	22770.93
576.96	22816.58
577.32	22923.01
577.681	22956.68
578.042	23176.57
578.403	23344.47
578.763	23483.68
579.124	23627.85
579.485	23736.1
579.845	23861.52
580.206	24017.22
580.566	24086.6
580.927	24270.77
581.287	24537.66
581.648	24489.07
582.008	24846.58
582.368	24865.11
582.728	25165.89
583.089	25277.53
583.449	25404.53
583.809	25527.24
584.169	25600.68
584.529	25863.27
584.889	26206.99
585.249	26277.73
585.609	26431.4
585.969	26732.63
586.329	26822.12
586.688	27018.5
587.048	27216.69
587.408	27310.69
587.768	27585.26
588.127	27875.2
588.487	28027.96
588.846	28384.11
589.206	28515.63
589.565	28631.34
589.925	28911.33
590.284	29111.78
590.643	29280.81
591.003	29523.52
591.362	29802.83
591.721	30015.26
592.08	30157.85
592.44	30345.87
592.799	30637.84
593.158	30829.92
593.517	30860.21
593.876	31226.75
594.235	31275.34
594.593	31601.88
594.952	31746.06
595.311	31880.74
595.67	32220.62
596.029	32579.48
596.387	32735.41
596.746	32954.84
597.104	32988.96
597.463	33109.19
597.822	33605.67
598.18	33412.45
598.538	33798.43
598.897	34062.61
599.255	34011.31
599.613	34563.61
599.972	34489.26
600.33	34667.79
600.688	34861.68
601.046	35056.25
601.404	35312.07
601.762	35482.46
602.12	35637.26
602.478	35917.7
602.836	35994.08
603.194	35933.29
603.552	36177.13
603.91	36258.48
604.268	36583.9
604.625	36604.91
604.983	36980.72
605.341	36864.12
605.698	37269.53
606.056	37407.38
606.413	37378.45
606.771	37668.61
607.128	37737.31
607.485	37655.51
607.843	37848.5
608.2	38183.18
608.557	38333.23
608.914	38356.28
609.272	38622.49
609.629	38658.19
609.986	38917.62
610.343	38867.23
610.7	39172.76
611.057	39281.68
611.414	39332.75
611.771	39459.75
612.127	39680.09
612.484	39748.79
612.841	39989.91
613.198	39862.45
613.554	40038.5
613.911	40284.59
614.267	40367.75
614.624	40305.38
614.98	40582.44
615.337	40750.57
615.693	40741.53
616.05	40771.58
616.406	41109.65
616.762	41023.78
617.118	41020.39
617.475	41168.64
617.831	41395.52
618.187	41420.15
618.543	41497.44
618.899	41672.8
619.255	41691.11
619.611	41753.48
619.967	41813.36
620.323	41864.44
620.678	41965
621.034	41667.83
621.39	41868.73
621.746	41977.2
622.101	42472.56
622.457	42176.29
622.812	42213.13
623.168	42427.36
623.523	42456.74
623.879	42572.67
624.234	42449.28
624.589	42570.41
624.945	42538.32
625.3	42715.04
625.655	42645.43
626.01	42679.78
626.365	42817.63
626.72	42720.91
627.075	42786.9
627.43	42795.94
627.785	42726.56
628.14	42872.32
628.495	42875.26
628.85	42784.41
629.205	42777.41
629.559	43083.16
629.914	42950.51
630.269	42926.1
630.623	42896.95
630.978	42839.55
631.332	43176.49
631.687	43098.3
632.041	42968.14
632.396	42985.76
632.75	42900.57
633.104	42934.92
633.459	42753.68
633.813	42892.43
634.167	42877.52
634.521	42783.51
634.875	42953.9
635.229	42923.62
635.583	42727.24
635.937	42807.46
636.291	42741.25
636.645	42836.39
636.999	42662.83
637.352	42855.37
637.706	42691.08
638.06	42821.47
638.413	42732.44
638.767	42683.4
639.121	42700.35
639.474	42489.96
639.828	42388.26
640.181	42552.55
640.534	42531.09
640.888	42322.73
641.241	42240.02
641.594	42504.65
641.947	42514.59
642.301	42377.64
642.654	42454.02
643.007	42541.25
643.36	42404.08
643.713	42345.1
644.066	42467.36
644.419	42262.17
644.771	41926.13
645.124	41741.95
645.477	41712.12
645.83	41434.39
646.182	41248.63
646.535	41089.09
646.888	41215.64
647.24	41118.69
647.593	41280.72
647.945	41049.32
648.298	41001.41
648.65	40884.8
649.002	40769.78
649.355	40985.36
649.707	40979.94
650.059	41144.91
650.411	41427.61
650.763	41600.71
651.115	41979.69
651.467	41920.25
651.819	41731.11
652.171	41784.66
652.523	41690.66
652.875	41753.93
653.227	41455.18
653.578	41793.7
653.93	41731.11
654.282	41691.79
654.633	41506.71
654.985	41606.36
655.337	41613.82
655.688	41471.9
656.039	41684.55
656.391	41287.95
656.742	41472.13
657.094	41443.2
657.445	41608.17
657.796	41613.37
658.147	41442.3
658.498	41401.17
658.849	41543.77
659.2	41342.19
659.551	41299.93
659.902	41449.53
660.253	41330.89
660.604	41392.13
660.955	41209.31
661.306	41270.33
661.656	41274.17
662.007	41334.73
662.358	41160.5
662.708	41244.57
663.059	41210.89
663.409	41062.88
663.76	41332.7
664.11	41393.26
664.461	41254.28
664.811	41246.37
665.161	41157.11
665.511	41124.57
665.862	41214.28
666.212	41296.54
666.562	41333.15
666.912	41101.52
667.262	41157.34
667.612	41185.58
667.962	41223.32
668.312	41236.88
668.662	41425.13
669.011	41234.17
669.361	41246.83
669.711	41103.78
670.06	41043.44
670.41	40989.88
670.76	41016.32
671.109	41113.95
671.459	41004.57
671.808	40979.04
672.157	41070.78
672.507	40838.25
672.856	40811.36
673.205	41009.54
673.554	41075.08
673.904	40921.18
674.253	41085.25
674.602	41109.2
674.951	40459.95
675.3	40185.84
675.649	40866.95
675.998	40810.23
676.346	40809.32
676.695	40920.96
677.044	40615.43
677.393	40698.14
677.741	40764.13
678.09	40604.36
678.438	40404.14
678.787	40621.76
679.135	40663.11
679.484	40358.94
679.832	40473.29
680.181	40369.56
680.529	40412.5
680.877	40215.67
681.225	40223.12
681.573	40522.78
681.922	40261.77
682.27	40091.38
682.618	40174.54
682.966	39935.22
683.314	40069.45
683.661	39993.07
684.009	39817.03
684.357	39841.44
684.705	39956.92
685.053	39780.65
685.4	39616.13
685.748	39564.84
686.095	39477.61
686.443	39386.54
686.79	39293.88
687.138	39357.16
687.485	39342.02
687.832	39190.16
688.18	39248.01
688.527	39056.6
688.874	39013.66
689.221	38916.94
689.568	38843.27
689.915	38845.76
690.262	38858.41
690.609	38631.07
690.956	38508.59
691.303	38531.64
691.65	38371.65
691.997	38317.86
692.344	38014.82
692.69	38123.97
693.037	38050.3
693.383	37854.15
693.73	37943.64
694.077	37649.63
694.423	37653.02
694.769	37563.98
695.116	37521.95
695.462	37492.12
695.808	37366.02
696.155	37403.99
696.501	37107.05
696.847	37209.19
697.193	36891.23
697.539	37037.44
697.885	36730.56
698.231	36678.58
698.577	36578.93
698.923	36606.95
699.269	36387.29
699.614	36258.93
699.96	36252.38
700.306	36037.92
700.651	36018.04
700.997	35885.38
701.342	35908.21
701.688	35827.98
702.033	35752.73
702.379	35765.39
702.724	35638.61
703.069	35732.85
703.415	35289.47
703.76	35303.48
704.105	35255.12
704.45	35217.61
704.795	34991.4
705.14	35018.74
705.485	34874.56
705.83	34819.65
706.175	34799.76
706.52	34679.54
706.865	34590.05
707.209	34569.49
707.554	34391.19
707.899	34501.24
708.243	34257.18
708.588	34137.86
708.932	33973.8
709.277	33948.71
709.621	33983.97
709.966	33700.81
710.31	33756.85
710.654	33566.12
710.998	33604.54
711.342	33607.48
711.687	33489.74
712.031	33459.01
712.375	33369.29
712.719	33398.9
713.063	33134.5
713.407	33397.99
713.75	33301.95
714.094	33138.34
714.438	33041.39
714.782	33000.49
715.125	32921.62
715.469	32930.89
715.812	32812.7
716.156	32663.77
716.499	32685.69
716.843	32851.34
717.186	32465.81
717.53	32482.31
717.873	32520.05
718.216	32475.3
718.559	32335.87
718.902	32071.25
719.246	32257.23
719.589	32110.34
719.932	31985.15
720.275	31965.26
720.617	31987.86
720.96	31875.55
721.303	31826.28
721.646	31848.43
721.989	31691.37
722.331	31721.2
722.674	31598.04
723.016	31635.1
723.359	31604.82
723.701	31640.07
724.044	31333.64
724.386	31283.92
724.729	31542.22
725.071	31257.48
725.413	31334.32
725.755	31287.31
726.097	31190.59
726.439	31050.93
726.782	31051.16
727.124	31125.96
727.465	31034.44
727.807	30833.09
728.149	30888.68
728.491	30694.56
728.833	30872.63
729.175	30579.31
729.516	30561.23
729.858	30554.9
730.199	30601.68
730.541	30570.27
730.882	30448.24
731.224	30595.81
731.565	30307
731.906	30436.71
732.248	30478.52
732.589	30104.75
732.93	30045.54
733.271	30144.29
733.612	30227
733.953	30172.77
734.294	30144.52
734.635	30143.84
734.976	30055.93
735.317	29908.59
735.658	29887.12
735.999	29821.59
736.339	29767.13
736.68	29873.34
737.021	29703.63
737.361	29655.27
737.702	29793.79
738.042	29632.22
738.383	29607.36
738.723	29600.58
739.063	29500.02
739.404	29643.29
739.744	29479.68
740.084	29280.81
740.424	29388.83
740.764	29385.67
741.104	29368.95
741.444	29203.07
741.784	29238.33
742.124	29133.7
742.464	29156.97
742.804	28989.07
743.143	28992.68
743.483	28996.98
743.823	28863.42
744.162	28860.94
744.502	28843.08
744.841	28827.49
745.181	28856.64
745.52	28797.89
745.86	28746.36
746.199	28598.8
746.538	28563.99
746.877	28612.81
747.216	28540.04
747.556	28506.37
747.895	28554.28
748.234	28429.08
748.573	28363.55
748.911	28384.34
749.25	28312.93
749.589	28172.14
749.928	28162.42
750.267	28292.82
750.605	28142.54
750.944	27992.03
751.283	27929.66
751.621	28033.84
751.96	27828.19
752.298	27858.48
752.636	27785.26
752.975	27753.39
753.313	27616.67
753.651	27777.57
753.989	27458.94
754.327	27602.66
754.666	27440.18
755.004	27531.25
755.342	27472.95
755.679	27566.51
756.017	27253.97
756.355	27269.34
756.693	27178.49
757.031	27256.01
757.368	26964.26
757.706	26900.31
758.044	26875.9
758.381	27025.73
758.719	26805.4
759.056	26677.94
759.394	26789.58
759.731	26479.53
760.068	26448.57
760.405	26464.61
760.743	26345.07
761.08	26406.99
761.417	26227.33
761.754	26150.72
762.091	26096.71
762.428	26082.03
762.765	25872.31
763.102	25930.84
763.438	25773.11
763.775	25684.52
764.112	25670.06
764.449	25721.58
764.785	25575.82
765.122	25477.07
765.458	25260.35
765.795	25262.16
766.131	25262.61
766.467	25147.36
766.804	24936.52
767.14	24946.69
767.476	24934.71
767.812	24793.92
768.148	24853.36
768.485	24600.94
768.821	24428.74
769.157	24362.75
769.492	24443.43
769.828	24376.08
770.164	24066.26
770.5	24214.96
770.836	24219.25
771.171	23861.75
771.507	23857.9
771.842	23741.75
772.178	23724.8
772.513	23678.47
772.849	23678.7
773.184	23476.44
773.519	23556.22
773.855	23222.44
774.19	23316.22
774.525	23063.35
774.86	23175.66
775.195	23070.35
775.53	22979.51
775.865	22891.83
776.2	22663.81
776.535	22583.59
776.87	22607.99
777.205	22498.62
777.539	22271.05
777.874	22450.26
778.209	22270.6
778.543	22225.18
778.878	22131.85
779.212	22090.04
779.547	21848.92
779.881	21994
780.215	21839.65
780.55	21954.45
780.884	21725.76
781.218	21701.35
781.552	21598.75
781.886	21453.22
782.22	21454.58
782.554	21290.29
782.888	21189.73
783.222	21025.44
783.556	21064.08
783.889	20916.51
784.223	20793.13
784.557	20814.59
784.89	20718.78
785.224	20660.7
785.557	20567.82
785.891	20532.12
786.224	20435.39
786.558	20407.82
786.891	20312.91
787.224	20278.79
787.557	20192.01
787.891	20117.66
788.224	20154.27
788.557	20045.12
788.89	20064.56
789.223	20015.29
789.556	19762.19
789.888	19721.74
790.221	19608.98
790.554	19480.84
790.887	19460.51
791.219	19455.08
791.552	19383.9
791.884	19225.26
792.217	19236.78
792.549	19060.29
792.882	19050.35
793.214	18885.83
793.546	18914.08
793.879	18749.79
794.211	18755.67
794.543	18849
794.875	18703.01
795.207	18766.06
795.539	18609.45
795.871	18593.86
796.203	18376.24
796.535	18368.1
796.867	18293.76
797.198	18240.65
797.53	18175.79
797.862	18111.84
798.193	18225.06
798.525	17985.74
798.856	18061.67
799.188	17863.26
799.519	17821.45
799.85	17722.47
800.182	17747.78
800.513	17737.61
800.844	17557.73
801.175	17694.9
801.506	17601.35
801.837	17388.92
802.168	17538.3
802.499	17397.06
802.83	17398.86
803.161	17256.72
803.491	17264.4
803.822	17312.99
804.153	17149.38
804.483	17081.13
804.814	16989.16
805.145	17014.47
805.475	16897.86
805.805	16897.86
806.136	16932.44
806.466	16836.85
806.796	16774.93
807.126	16599.11
807.457	16666.91
807.787	16651.09
808.117	16555.72
808.447	16484.99
808.777	16463.07
809.107	16401.15
809.436	16398.44
809.766	16465.1
810.096	16286.13
810.426	16243.64
810.755	16219.91
811.085	16193.47
811.414	16181.04
811.744	15975.4
812.073	16042.74
812.403	16003.87
812.732	15865.12
813.061	15986.02
813.39	15760.26
813.719	15739.7
814.049	15741.96
814.378	15781.51
814.707	15712.13
815.036	15553.94
815.365	15549.42
815.693	15441.18
816.022	15454.96
816.351	15389.88
816.68	15263.1
817.008	15314.63
817.337	15201.63
817.665	15240.5
817.994	15301.52
818.322	15166.15
818.651	15140.17
818.979	15140.39
819.307	15056.55
819.636	14997.57
819.964	15011.13
820.292	14997.8
820.62	14954.64
820.948	14978.36
821.276	14950.57
821.604	15005.26
821.932	14931.58
822.259	14938.36
822.587	14950.79
822.915	14931.81
823.243	14936.1
823.57	14889.55
823.898	14894.07
824.225	14871.25
824.553	14843.23
824.88	14899.04
825.207	14876.9
825.535	14846.39
825.862	14944.69
826.189	14870.34
826.516	14815.2
826.843	14972.94
827.17	14970
827.497	14897.24
827.824	14956.89
828.151	15005.93
828.478	14878.93
828.805	14863.34
829.131	14796.67
829.458	14877.35
829.785	14759.61
830.111	14784.47
830.438	14893.17
830.764	14860.4
831.09	14821.53
831.417	14751.02
831.743	14887.52
832.069	14807.75
832.395	14718.94
832.722	14756.22
833.048	14699.73
833.374	14796.67
833.7	14619.73
834.026	14671.93
834.351	14722.55
834.677	14688.65
835.003	14723.91
835.329	14639.84
835.654	14583.35
835.98	14546.06
836.306	14553.74
836.631	14529.56
836.956	14496.57
837.282	14509.45
837.607	14465.61
837.932	14366.18
838.258	14401.43
838.583	14427.87
838.908	14383.8
839.233	14374.09
839.558	14287.99
839.883	14275.1
840.208	14216.12
840.533	14245.05
840.858	14179.97
841.182	14245.28
841.507	14217.93
841.832	14152.62
842.156	14156.46
842.481	14050.7
842.805	14121.66
843.13	14055
843.454	14046.86
843.778	13902.01
844.103	13909.92
844.427	13901.1
844.751	13943.81
845.075	13804.16
845.399	13784.95
845.723	13677.15
846.047	13701.33
846.371	13612.07
846.695	13619.75
847.019	13500.89
847.343	13470.15
847.666	13365.98
847.99	13395.13
848.313	13280.78
848.637	13238.97
848.96	13230.16
849.284	13203.95
849.607	13066.32
849.931	13006.44
850.254	12958.98
850.577	12944.07
850.9	12822.26
851.223	12853.9
851.546	12690.51
851.869	12700.46
852.192	12727.8
852.515	12593.57
852.838	12538.88
853.161	12537.3
853.483	12478.99
853.806	12474.25
854.129	12489.84
854.451	12391.54
854.774	12307.7
855.096	12299.34
855.419	12299.79
855.741	12219.79
856.063	12210.3
856.385	12163.3
856.708	12074.71
857.03	12074.71
857.352	12081.49
857.674	12030.19
857.996	11946.58
858.318	11848.95
858.64	11912.91
858.961	11801.05
859.283	11833.81
859.605	11649.64
859.926	11748.17
860.248	11677.66
860.57	11616.64
860.891	11606.02
861.212	11563.54
861.534	11607.15
861.855	11640.6
862.176	11552.92
862.498	11468.62
862.819	11553.82
863.14	11425.69
863.461	11524.67
863.782	11384.56
864.103	11477.66
864.424	11417.1
864.745	11417.78
865.065	11342.3
865.386	11242.42
865.707	11288.52
866.027	11314.5
866.348	11243.32
866.668	11255.98
866.989	11204.23
867.309	11065.7
867.63	11192.02
867.95	11188.63
868.27	11058.01
868.59	11131.91
868.91	11052.14
869.23	11007.39
869.55	11026.38
869.87	11073.16
870.19	10988.86
870.51	11069.09
870.83	10990.67
871.15	10957.45
871.469	10917.68
871.789	10999.26
872.109	10954.51
872.428	10888.98
872.748	10900.96
873.067	10907.96
873.386	10885.59
873.706	10871.13
874.025	10785.71
874.344	10716.1
874.663	10788.19
874.982	10814.86
875.301	10835.42
875.62	10661.41
875.939	10631.13
876.258	10637.01
876.577	10610.12
876.896	10632.26
877.214	10616.67
877.533	10653.05
877.852	10578.48
878.17	10601.08
878.489	10601.76
878.807	10609.44
879.125	10544.58
879.444	10578.03
879.762	10462.78
880.08	10434.08
880.398	10444.7
880.716	10431.36
881.034	10429.78
881.352	10351.82
881.67	10340.75
881.988	10392.72
882.306	10298.03
882.624	10268.43
882.941	10290.12
883.259	10211.71
883.577	10183.46
883.894	10232.27
884.212	10231.14
884.529	10142.11
884.846	10138.49
885.164	10081.32
885.481	10050.58
885.798	10106.63
886.115	10006.06
886.432	10088.1
886.75	10042
887.067	9943.92
887.383	10012.39
887.7	9972.85
888.017	9877.03
888.334	9894.66
888.651	9882.45
888.967	9886.29
889.284	9731.27
889.6	9790.03
889.917	9653.08
890.233	9701.89
890.55	9653.98
890.866	9680.65
891.182	9642.23
891.498	9644.72
891.815	9570.14
892.131	9504.61
892.447	9529.92
892.763	9501.45
893.079	9491.95
893.395	9389.58
893.71	9358.85
894.026	9349.58
894.342	9318.85
894.657	9312.3
894.973	9282.47
895.289	9289.02
895.604	9257.61
895.92	9162.47
896.235	9120.89
896.55	9178.29
896.865	9190.27
897.181	9076.82
897.496	9025.3
897.811	8976.94
898.126	9014
898.441	8950.5
898.756	8936.49
899.071	8838.86
899.386	8896.94
899.7	8805.64
900.015	8840.45
900.33	8719.54
900.644	8729.04
900.959	8718.87
901.273	8681.13
901.588	8614.91
901.902	8625.08
902.216	8576.95
902.531	8555.26
902.845	8487.23
903.159	8515.03
903.473	8447.01
903.787	8421.25
904.101	8399.55
904.415	8359.78
904.729	8276.39
905.042	8265.09
905.356	8346.22
905.67	8204.76
905.984	8244.08
906.297	8192.1
906.611	8122.5
906.924	8178.99
907.237	8042.5
907.551	8046.12
907.864	7993.01
908.177	8013.8
908.491	8017.64
908.804	8006.8
909.117	7920.92
909.43	7901.26
909.743	7839.34
910.056	7823.52
910.368	7774.94
910.681	7709.63
910.994	7699.01
911.307	7665.34
911.619	7593.7
911.932	7691.32
912.244	7548.28
912.557	7531.78
912.869	7489.75
913.181	7437.54
913.494	7468.28
913.806	7378.34
914.118	7359.81
914.43	7420.82
914.742	7350.09
915.054	7278.23
915.366	7259.02
915.678	7251.56
915.99	7206.82
916.302	7141.28
916.613	7121.39
916.925	7104.22
917.236	7116.42
917.548	7049.76
917.859	7069.87
918.171	7018.8
918.482	6968.18
918.794	6926.82
919.105	6931.34
919.416	6892.02
919.727	6907.39
920.038	6819.71
920.349	6787.39
920.66	6727.73
920.971	6771.8
921.282	6739.71
921.593	6733.61
921.903	6621.07
922.214	6616.32
922.525	6614.52
922.835	6575.19
923.146	6521.18
923.456	6490.68
923.767	6487.97
924.077	6471.24
924.387	6427.63
924.697	6417.46
925.008	6335.65
925.318	6345.82
925.628	6324.13
925.938	6351.25
926.248	6220.63
926.558	6241.19
926.867	6247.97
927.177	6210.68
927.487	6167.3
927.796	6107.86
928.106	6163.68
928.416	6152.61
928.725	6093.17
929.034	6054.53
929.344	6040.29
929.653	6054.76
929.962	5979.28
930.271	5903.57
930.581	5909.45
930.89	5880.75
931.199	5822.9
931.508	5836.68
931.817	5842.11
932.125	5815.89
932.434	5757.36
932.743	5718.04
933.051	5699.74
933.36	5652.51
933.669	5635.78
933.977	5612.96
934.286	5606.41
934.594	5558.27
934.902	5523.92
935.21	5476.24
935.519	5487.54
935.827	5493.41
936.135	5524.15
936.443	5385.62
936.751	5441.44
937.059	5458.16
937.367	5370.03
937.674	5342.23
937.982	5332.52
938.29	5294.78
938.597	5281.9
938.905	5278.73
939.213	5204.61
939.52	5252.97
939.827	5239.18
940.135	5191.73
940.442	5147.89
940.749	5157.83
941.056	5113.09
941.363	5072.18
941.67	5084.61
941.977	5071.96
942.284	5048.68
942.591	5012.52
942.898	5015.01
943.205	5008
943.511	4944.95
943.818	4940.44
944.125	4909.02
944.431	4861.12
944.738	4877.61
945.044	4808.24
945.35	4805.07
945.657	4764.62
945.963	4771.17
946.269	4772.3
946.575	4744.06
946.881	4715.13
947.187	4688.92
947.493	4654.79
947.799	4662.93
948.105	4626.55
948.41	4615.02
948.716	4616.38
949.022	4571.18
949.327	4540.67
949.633	4486.21
949.938	4493.89
950.244	4505.87
950.549	4429.26
950.854	4451.41
951.16	4425.87
951.465	4414.35
951.77	4384.07
952.075	4343.84
952.38	4340.22
952.685	4372.77
952.99	4288.93
953.294	4330.51
953.599	4275.59
953.904	4225.2
954.209	4227.46
954.513	4269.94
954.818	4228.59
955.122	4159.89
955.426	4154.92
955.731	4182.71
956.035	4121.25
956.339	4098.42
956.643	4105.2
956.948	4088.03
957.252	4052.32
957.556	4049.16
957.86	4003.51
958.163	3995.83
958.467	4027.46
958.771	3988.82
959.075	3937.98
959.378	3943.85
959.682	3950.4
959.985	3874.93
960.289	3910.86
960.592	3883.74
960.896	3891.42
961.199	3811.2
961.502	3872.67
961.805	3782.73
962.108	3789.5
962.411	3795.83
962.714	3767.36
963.017	3770.75
963.32	3728.04
963.623	3704.54
963.926	3707.93
964.228	3666.34
964.531	3668.6
964.833	3622.5
965.136	3608.49
965.438	3596.97
965.741	3585.89
966.043	3588.61
966.345	3560.13
966.648	3528.27
966.95	3556.97
967.252	3520.59
967.554	3502.05
967.856	3492.11
968.158	3485.78
968.46	3450.98
968.761	3435.39
969.063	3424.99
969.365	3436.29
969.666	3413.02
969.968	3383.41
970.269	3376.63
970.571	3340.03
970.872	3363.3
971.174	3310.42
971.475	3283.08
971.776	3313.36
972.077	3299.57
972.378	3240.59
972.679	3246.02
972.98	3239.01
973.281	3262.51
973.582	3207.15
973.883	3187.49
974.183	3200.82
974.484	3192.01
974.785	3151.56
975.085	3143.87
975.386	3184.78
975.686	3144.1
975.986	3143.19
976.287	3111.56
976.587	3073.37
976.887	3045.34
977.187	3065.91
977.487	3051.9
977.787	2985.46
978.087	3017.77
978.387	3001.28
978.687	2979.36
978.987	2940.49
979.286	2974.39
979.586	2912.47
979.885	2939.36
980.185	2887.61
980.484	2908.4
980.784	2922.64
981.083	2887.38
981.382	2851.68
981.682	2868.17
981.981	2837.44
982.28	2821.39
982.579	2820.94
982.878	2827.95
983.177	2815.97
983.475	2785.24
983.774	2768.29
984.073	2750.89
984.372	2719.25
984.67	2706.14
984.969	2720.38
985.267	2718.8
985.566	2711.34
985.864	2667.73
986.162	2715.41
986.461	2641.51
986.759	2636.31
987.057	2621.4
987.355	2596.99
987.653	2648.74
987.951	2579.59
988.249	2577.33
988.547	2576.88
988.844	2573.04
989.142	2576.88
989.44	2525.58
989.737	2541.85
990.035	2529.2
990.332	2483.55
990.63	2488.97
990.927	2478.58
991.224	2478.35
991.521	2469.77
991.819	2437.45
992.116	2433.16
992.413	2417.34
992.71	2382.54
993.006	2411.91
993.303	2441.29
993.6	2400.39
993.897	2357.68
994.193	2362.65
994.49	2389.32
994.787	2340.5
995.083	2342.54
995.379	2316.55
995.676	2286.95
995.972	2319.26
996.268	2262.99
996.565	2261.41
996.861	2229.55
997.157	2267.51
997.453	2251.24
997.749	2258.7
998.044	2213.5
998.34	2228.19
998.636	2217.79
998.932	2178.93
999.227	2208.08
999.523	2146.38
999.818	2145.03
1000.114	2110.9
1000.409	2117.01
1000.704	2119.27
1001	2128.53
1001.295	2107.97
1001.59	2096.44
1001.885	2077.69
1002.18	2069.78
1002.475	2039.95
1002.77	2041.75
1003.065	2043.56
1003.359	2011.47
1003.654	2027.97
1003.949	1985.71
1004.243	1999.72
1004.538	1954.98
1004.832	1957.46
1005.127	1949.55
1005.421	1926.5
1005.715	1954.98
1006.009	1922.66
1006.304	1907.29
1006.598	1900.97
1006.892	1881.98
1007.186	1896
1007.48	1854.41
1007.773	1863.91
1008.067	1864.13
1008.361	1803.12
1008.655	1847.41
1008.948	1822.32
1009.242	1801.31
1009.535	1792.95
1009.829	1798.37
1010.122	1803.12
1010.415	1786.17
1010.708	1732.38
1011.001	1750.24
1011.295	1765.6
1011.588	1745.94
1011.881	1704.36
1012.173	1697.36
1012.466	1678.83
1012.759	1680.18
1013.052	1666.17
1013.344	1655.55
1013.637	1651.03
1013.93	1620.75
1014.222	1647.41
1014.514	1658.49
1014.807	1624.59
1015.099	1605.61
1015.391	1598.38
1015.683	1610.81
1015.976	1565.38
1016.268	1576
1016.56	1554.76
1016.851	1525.84
1017.143	1552.95
1017.435	1551.6
1017.727	1533.74
1018.018	1542.11
1018.31	1512.05
1018.602	1499.62
1018.893	1492.16
1019.185	1458.72
1019.476	1459.4
1019.767	1476.35
1020.058	1438.83
1020.35	1431.15
1020.641	1420.98
1020.932	1406.74
1021.223	1435.67
1021.514	1402.22
1021.804	1401.55
1022.095	1384.6
1022.386	1376.23
1022.677	1382.79
1022.967	1374.43
1023.258	1362.45
1023.548	1354.54
1023.839	1329.68
1024.129	1321.32
1024.419	1311.15
1024.709	1302.79
1025	1317.25
1025.29	1307.76
1025.58	1278.61
1025.87	1256.01
1026.16	1267.31
1026.449	1260.53
1026.739	1272.51
1027.029	1258.05
1027.319	1240.65
1027.608	1209.46
1027.898	1228.22
1028.187	1228.67
1028.477	1212.17
1028.766	1190.25
1029.055	1199.29
1029.344	1192.51
1029.634	1159.97
1029.923	1167.2
1030.212	1172.85
1030.501	1147.54
1030.79	1163.81
1031.078	1150.93
1031.367	1115.9
1031.656	1112.97
1031.945	1133.3
1032.233	1121.55
1032.522	1124.72
1032.81	1117.26
1033.099	1069.58
1033.387	1081.78
1033.675	1039.07
1033.963	1070.93
1034.251	1070.71
1034.54	1051.05
1034.828	1046.3
1035.116	1049.01
1035.403	1022.8
1035.691	1010.82
1035.979	1031.84
1036.267	1002.91
1036.554	999.52
1036.842	975.57
1037.129	980.09
1037.417	991.39
1037.704	975.34
1037.992	962.91
1038.279	965.4
1038.566	943.93
1038.853	943.93
1039.14	943.93
