Data from hue_36_FLMS001491_00010.txt Node
Date: Tue Feb 07 17:29:20 GMT 2017
User: dcchb
Spectrometer: FLMS00149
Trigger mode: 0
Integration Time (sec): 2.000000E-2
Scans to average: 10
Electric dark correction enabled: true
Nonlinearity correction enabled: false
Boxcar width: 0
XAxis mode: Wavelengths
Number of Pixels in Spectrum: 2048
>>>>>Begin Spectral Data<<<<<
341.393	-35.37
341.776	-35.37
342.16	-35.37
342.543	-64.97
342.927	-51.64
343.31	-82.82
343.693	-74.01
344.077	-55.93
344.46	-71.07
344.843	-64.07
345.226	-24.75
345.61	-22.26
345.993	-24.07
346.376	8.7
346.759	8.02
347.142	27
347.525	31.3
347.908	78.53
348.291	72.88
348.674	70.85
349.057	121.69
349.44	122.82
349.823	136.83
350.206	139.54
350.588	192.65
350.971	207.11
351.354	223.84
351.737	235.14
352.119	248.02
352.502	258.19
352.884	280.56
353.267	271.97
353.65	276.04
354.032	286.43
354.414	309.26
354.797	315.81
355.179	304.06
355.562	317.17
355.944	318.52
356.326	334.79
356.709	363.04
357.091	345.41
357.473	342.25
357.855	353.55
358.238	331.18
358.62	332.76
359.002	341.35
359.384	351.29
359.766	341.8
360.148	337.05
360.53	322.36
360.912	337.96
361.294	350.39
361.676	345.19
362.057	312.42
362.439	344.74
362.821	327.34
363.203	327.56
363.584	319.43
363.966	307
364.348	333.44
364.729	311.74
365.111	322.82
365.493	311.52
365.874	316.04
366.256	299.09
366.637	315.58
367.019	315.81
367.4	318.52
367.781	322.82
368.163	334.79
368.544	314.68
368.925	301.8
369.306	325.53
369.688	317.39
370.069	295.25
370.45	302.48
370.831	323.72
371.212	303.83
371.593	322.82
371.974	294.57
372.355	303.61
372.736	327.11
373.117	313.1
373.498	319.88
373.879	307
374.26	318.3
374.641	304.29
375.021	336.15
375.402	320.1
375.783	309.03
376.163	352.87
376.544	337.05
376.925	335.47
377.305	325.98
377.686	322.36
378.066	334.79
378.447	316.94
378.827	335.25
379.208	330.73
379.588	323.49
379.968	332.53
380.349	334.12
380.729	351.29
381.109	331.4
381.489	347.9
381.87	347.45
382.25	342.7
382.63	333.21
383.01	343.61
383.39	366.21
383.77	370.95
384.15	352.65
384.53	344.28
384.91	347.67
385.29	345.87
385.67	368.46
386.049	361.23
386.429	356.26
386.809	341.12
387.189	358.07
387.568	353.78
387.948	348.13
388.328	353.78
388.707	374.34
389.087	356.71
389.466	359.43
389.846	363.95
390.225	376.15
390.605	365.98
390.984	362.59
391.363	358.07
391.743	365.98
392.122	366.21
392.501	366.43
392.881	378.41
393.26	383.38
393.639	394.45
394.018	372.53
394.397	392.65
394.776	372.31
395.155	378.41
395.534	376.37
395.913	379.31
396.292	387
396.671	419.09
397.05	388.8
397.429	393.1
397.808	386.54
398.186	394.9
398.565	381.35
398.944	366.21
399.323	405.3
399.701	386.32
400.08	398.97
400.458	386.77
400.837	376.15
401.215	394.68
401.594	392.65
401.972	415.24
402.351	408.01
402.729	398.29
403.107	391.74
403.486	389.48
403.864	368.24
404.242	408.69
404.62	429.71
404.999	400.55
405.377	421.57
405.755	414.57
406.133	423.83
406.511	428.12
406.889	403.49
407.267	431.97
407.645	419.76
408.023	441.91
408.401	420.44
408.779	406.2
409.156	426.77
409.534	423.15
409.912	445.98
410.29	450.27
410.667	455.24
411.045	452.98
411.422	439.65
411.8	473.09
412.178	471.51
412.555	460.21
412.933	466.32
413.31	457.95
413.687	443.04
414.065	480.55
414.442	470.61
414.819	510.38
415.197	476.94
415.574	496.6
415.951	503.15
416.328	516.94
416.705	488.24
417.082	471.74
417.46	497.28
417.837	475.81
418.214	469.48
418.591	463.15
418.967	523.26
419.344	513.55
419.721	508.12
420.098	499.99
420.475	521.91
420.852	517.61
421.228	513.77
421.605	531.4
421.982	504.28
422.358	540.66
422.735	528.69
423.111	523.26
423.488	547.22
423.864	536.6
424.241	546.31
424.617	561.91
424.994	542.47
425.37	543.83
425.746	554.67
426.123	579.53
426.499	556.26
426.875	559.65
427.251	553.54
427.627	580.89
428.003	589.48
428.379	588.57
428.756	594.9
429.132	601
429.507	595.8
429.883	600.1
430.259	605.75
430.635	630.15
431.011	609.14
431.387	609.59
431.763	630.15
432.138	629.7
432.514	637.16
432.89	640.55
433.265	637.61
433.641	621.11
434.016	660.66
434.392	658.4
434.767	633.77
435.143	672.86
435.518	658.17
435.894	664.5
436.269	683.26
436.644	675.35
437.02	714.44
437.395	681.23
437.77	690.94
438.145	683.48
438.52	687.1
438.895	723.48
439.271	727.55
439.646	702.92
440.021	723.03
440.395	720.55
440.77	738.4
441.145	715.8
441.52	739.53
441.895	749.92
442.27	772.97
442.645	763.71
443.019	761
443.394	779.08
443.769	768
444.143	759.19
444.518	754.22
444.892	770.94
445.267	782.01
445.641	771.17
446.016	798.74
446.39	790.6
446.764	810.71
447.139	793.54
447.513	809.58
447.887	826.08
448.262	797.61
448.636	818.17
449.01	827.21
449.384	827.89
449.758	822.92
450.132	838.96
450.506	837.61
450.88	838.51
451.254	845.29
451.628	882.8
452.002	843.03
452.376	857.27
452.75	883.48
453.123	883.25
453.497	876.02
453.871	898.17
454.244	910.37
454.618	918.73
454.992	938.39
455.365	932.97
455.739	930.03
456.112	954.44
456.486	948.56
456.859	960.77
457.232	972.74
457.606	982.91
457.979	985.85
458.352	1002.8
458.725	999.41
459.099	1025.17
459.472	1029.01
459.845	1059.29
460.218	1039.41
460.591	1079.41
460.964	1089.35
461.337	1090.48
461.71	1102.46
462.083	1125.06
462.456	1106.75
462.829	1153.08
463.201	1149.24
463.574	1175
463.947	1180.87
464.32	1209.12
464.692	1209.12
465.065	1208.44
465.438	1247.99
465.81	1250.02
466.183	1278.72
466.555	1312.17
466.928	1309.46
467.3	1291.15
467.672	1321.89
468.045	1356.46
468.417	1376.35
468.789	1374.99
469.161	1359.63
469.534	1420.87
469.906	1448.44
470.278	1467.87
470.65	1466.97
471.022	1509.45
471.394	1564.37
471.766	1548.77
472.138	1572.5
472.51	1607.75
472.882	1670.13
473.253	1673.06
473.625	1695.66
473.997	1741.54
474.369	1754.19
474.74	1823.12
475.112	1832.38
475.484	1869.89
475.855	1895.2
476.227	1957.35
476.598	1967.52
476.97	1974.75
477.341	2083
477.713	2125.25
478.084	2133.39
478.455	2189.89
478.827	2246.61
479.198	2303.56
479.569	2357.57
479.94	2407.51
480.311	2488.64
480.682	2537.67
481.053	2593.49
481.424	2689.76
481.795	2739.48
482.166	2798.46
482.537	2869.19
482.908	2960.71
483.279	2995.97
483.65	3056.53
484.021	3202.29
484.391	3221.72
484.762	3310.99
485.133	3361.15
485.503	3435.73
485.874	3550.53
486.244	3604.31
486.615	3743.29
486.985	3758.66
487.356	3914.59
487.726	3990.74
488.097	4059.89
488.467	4127.91
488.837	4244.52
489.207	4321.36
489.578	4441.35
489.948	4532.88
490.318	4610.16
490.688	4656.94
491.058	4740.78
491.428	4883.37
491.798	4998.85
492.168	5092.41
492.538	5126.31
492.908	5251.27
493.278	5417.37
493.648	5442.68
494.017	5555
494.387	5595.22
494.757	5698.49
495.126	5794.76
495.496	5849
495.866	5984.59
496.235	6065.94
496.605	6193.17
496.974	6230.01
497.344	6326.27
497.713	6386.84
498.082	6535.76
498.452	6615.31
498.821	6642.42
499.19	6707.06
499.559	6803.1
499.928	6896.65
500.298	6977.33
500.667	6990.66
501.036	7059.36
501.405	7204.67
501.774	7229.98
502.143	7373.7
502.512	7408.28
502.88	7518.33
503.249	7521.27
503.618	7658.22
503.987	7720.36
504.356	7757.42
504.724	7875.61
505.093	7876.74
505.462	7977.53
505.83	8073.57
506.199	8152.67
506.567	8201.03
506.936	8243.06
507.304	8399.67
507.672	8478.99
508.041	8553.11
508.409	8587.68
508.777	8635.59
509.145	8747.23
509.514	8745.87
509.882	8798.98
510.25	8803.95
510.618	8942.25
510.986	8979.54
511.354	9114.45
511.722	9134.11
512.09	9271.96
512.458	9237.38
512.826	9270.6
513.193	9410.26
513.561	9371.39
513.929	9533.2
514.297	9565.06
514.664	9646.41
515.032	9671.95
515.4	9757.6
515.767	9773.19
516.135	9862.23
516.502	9782.68
516.869	10021.54
517.237	10070.36
517.604	10009.57
517.972	10243.01
518.339	10202.78
518.706	10243.91
519.073	10280.52
519.44	10354.87
519.808	10415.21
520.175	10499.95
520.542	10570
520.909	10660.4
521.276	10697.01
521.643	10807.51
522.009	10796.89
522.376	10894.29
522.743	10953.95
523.11	11050.9
523.477	11151.68
523.843	11221.06
524.21	11362.75
524.577	11427.16
524.943	11416.76
525.31	11496.76
525.676	11595.06
526.043	11660.6
526.409	11694.95
526.776	11794.61
527.142	11866.24
527.508	11854.72
527.874	11988.27
528.241	12053.58
528.607	12161.83
528.973	12273.69
529.339	12193.46
529.705	12419.67
530.071	12428.94
530.437	12532.21
530.803	12544.64
531.169	12677.97
531.535	12602.27
531.901	12678.42
532.267	12828.48
532.632	12827.8
532.998	12936.04
533.364	13046.55
533.73	13013.1
534.095	13046.55
534.461	13114.34
534.826	13262.59
535.192	13279.09
535.557	13322.7
535.923	13443.83
536.288	13388.69
536.653	13509.81
537.019	13479.08
537.384	13539.64
537.749	13606.08
538.114	13624.16
538.479	13728.57
538.845	13830.26
539.21	13791.61
539.575	13779.41
539.94	13912.29
540.305	14044.26
540.67	14054.66
541.034	14034.77
541.399	14162.45
541.764	14175.33
542.129	14207.2
542.494	14291.94
542.858	14336.69
543.223	14363.13
543.587	14428.43
543.952	14453.74
544.316	14505.49
544.681	14642.21
545.045	14689.67
545.41	14788.2
545.774	14765.6
546.138	14780.97
546.503	14794.53
546.867	14884.02
547.231	15013.5
547.595	14965.6
547.959	15036.1
548.324	15132.14
548.688	15141.64
549.052	15208.53
549.416	15250.79
549.779	15284.46
550.143	15281.52
550.507	15505.69
550.871	15478.8
551.235	15466.15
551.599	15628.4
551.962	15620.27
552.326	15659.14
552.689	15722.41
553.053	15763.54
553.417	15767.83
553.78	15940.71
554.143	15938.9
554.507	15977.32
554.87	16060.03
555.234	16237.88
555.597	16107.71
555.96	16187.71
556.323	16229.29
556.686	16283.53
557.05	16395.61
557.413	16453.92
557.776	16485.33
558.139	16573.69
558.502	16678.32
558.865	16780.01
559.228	16745.89
559.59	16820.01
559.953	16792.67
560.316	17080.12
560.679	17014.13
561.041	17142.04
561.404	17178.87
561.767	17276.72
562.129	17168.25
562.492	17337.96
562.854	17419.99
563.217	17353.33
563.579	17392.65
563.941	17585.19
564.304	17640.1
564.666	17745.41
565.028	17790.61
565.39	17828.57
565.753	17899.3
566.115	17885.52
566.477	17974.78
566.839	17992.18
567.201	18168.45
567.563	18188.56
567.925	18309.01
568.287	18419.97
568.648	18395.11
569.01	18613.63
569.372	18704.25
569.734	18628.1
570.095	18726.63
570.457	18808.43
570.819	18876.68
571.18	18829.45
571.542	18998.26
571.903	19095.66
572.265	19117.35
572.626	19163.45
572.987	19299.49
573.349	19353.95
573.71	19511.46
574.071	19556.89
574.432	19676.43
574.794	19818.8
575.155	19838.91
575.516	19897.67
575.877	20023.77
576.238	20124.33
576.599	20242.97
576.96	20388.96
577.32	20519.57
577.681	20572.23
578.042	20794.37
578.403	20761.15
578.763	20981.48
579.124	21096.51
579.485	21271.19
579.845	21363.17
580.206	21395.48
580.566	21617.17
580.927	21610.62
581.287	21864.4
581.648	21981.68
582.008	22340.32
582.368	22369.24
582.728	22563.36
583.089	22656.47
583.449	22797.71
583.809	23013.29
584.169	23262.78
584.529	23277.47
584.889	23765.14
585.249	23713.84
585.609	23900.5
585.969	24236.99
586.329	24325.35
586.688	24624.1
587.048	24747.48
587.408	24871.78
587.768	25102.28
588.127	25332.33
588.487	25592.66
588.846	25987.23
589.206	25978.19
589.565	26211.4
589.925	26582.46
590.284	26616.59
590.643	26925.73
591.003	27195.33
591.362	27407.98
591.721	27620.18
592.08	27802.77
592.44	28096.55
592.799	28280.95
593.158	28602.98
593.517	28747.83
593.876	28914.83
594.235	29202.73
594.593	29311.66
594.952	29659.45
595.311	29773.12
595.67	29987.35
596.029	30578.97
596.387	30498.97
596.746	30844.27
597.104	30875.01
597.463	31044.95
597.822	31450.36
598.18	31490.81
598.538	31692.84
598.897	32205.59
599.255	31954.3
599.613	32544.34
599.972	32595.64
600.33	32898.68
600.688	32895.29
601.046	33072.69
601.404	33524.88
601.762	33560.36
602.12	33943.4
602.478	34103.17
602.836	34130.29
603.194	34226.33
603.552	34468.59
603.91	34469.26
604.268	34871.29
604.625	34991.51
604.983	35147.89
605.341	35175.01
605.698	35559.18
606.056	35738.38
606.413	35843.24
606.771	35983.12
607.128	36056.11
607.485	36163.91
607.843	36326.62
608.2	36656.32
608.557	36826.26
608.914	36774.29
609.272	37097.44
609.629	37233.94
609.986	37523.19
610.343	37349.64
610.7	37906.69
611.057	37846.12
611.414	38009.51
611.771	38098.32
612.127	38213.12
612.484	38477.07
612.841	38608.36
613.198	38528.59
613.554	38589.61
613.911	38930.61
614.267	39088.8
614.624	39026.21
614.98	39267.1
615.337	39433.2
615.693	39436.14
616.05	39429.36
616.406	39887.43
616.762	39898.27
617.118	39878.61
617.475	39942.79
617.831	40003.35
618.187	40202.67
618.543	40316.34
618.899	40536.45
619.255	40546.17
619.611	40497.35
619.967	40759.49
620.323	40708.2
620.678	40816.67
621.034	40750.45
621.39	40722.88
621.746	40802.88
622.101	41308.86
622.457	40959.26
622.812	41070.22
623.168	41268.86
623.523	41311.8
623.879	41602.41
624.234	41213.27
624.589	41433.15
624.945	41364.22
625.3	41698.45
625.655	41650.54
626.01	41756.53
626.365	41768.96
626.72	41899.12
627.075	41803.08
627.43	41786.13
627.785	41712.91
628.14	41893.7
628.495	41934.38
628.85	42073.36
629.205	41840.37
629.559	42089.85
629.914	41949.29
630.269	41990.2
630.623	41908.16
630.978	41772.57
631.332	42208.95
631.687	42104.77
632.041	42005.11
632.396	42083.07
632.75	41996.07
633.104	42078.1
633.459	41958.56
633.813	41985.22
634.167	41996.97
634.521	42033.13
634.875	42033.13
635.229	42075.62
635.583	41819.35
635.937	41982.29
636.291	41855.51
636.645	42001.27
636.999	41883.53
637.352	42020.93
637.706	41852.57
638.06	41923.98
638.413	41780.03
638.767	41826.58
639.121	41837.43
639.474	41636.76
639.828	41682.18
640.181	41845.34
640.534	41655.51
640.888	41701.16
641.241	41518.57
641.594	41521.51
641.947	41786.58
642.301	41476.76
642.654	41675.63
643.007	41580.26
643.36	41681.95
643.713	41536.2
644.066	41581.17
644.419	41385.24
644.771	41267.73
645.124	40832.26
645.477	40822.77
645.83	40498.94
646.182	40420.07
646.535	40404.47
646.888	40453.74
647.24	40373.06
647.593	40515.66
647.945	40410.35
648.298	40237.7
648.65	40051.72
649.002	40204.48
649.355	40258.49
649.707	40244.7
650.059	40287.42
650.411	40871.13
650.763	40912.03
651.115	41214.17
651.467	41144.34
651.819	41112.03
652.171	41067.51
652.523	40851.69
652.875	40933.05
653.227	40795.42
653.578	41051.46
653.93	40952.48
654.282	40853.28
654.633	40721.98
654.985	40820.51
655.337	40777.12
655.688	40876.55
656.039	40857.8
656.391	40497.13
656.742	40669.78
657.094	40787.06
657.445	40929.88
657.796	40932.37
658.147	40766.05
658.498	40692.38
658.849	40740.74
659.2	40731.7
659.551	40672.49
659.902	40820.28
660.253	40662.55
660.604	40762.66
660.955	40513.62
661.306	40699.83
661.656	40539.39
662.007	40685.37
662.358	40803.33
662.708	40673.62
663.059	40463.23
663.409	40344.59
663.76	40649.44
664.11	40593.4
664.461	40652.15
664.811	40747.52
665.161	40470.91
665.511	40458.48
665.862	40548.2
666.212	40668.87
666.562	40443.57
666.912	40534.87
667.262	40469.78
667.612	40488.77
667.962	40655.99
668.312	40396.34
668.662	40755.2
669.011	40634.98
669.361	40401.08
669.711	40330.13
670.06	40376.68
670.41	40413.29
670.76	40203.35
671.109	40414.19
671.459	40423.46
671.808	40180.07
672.157	40288.77
672.507	40204.93
672.856	40121.77
673.205	40250.81
673.554	40310.24
673.904	40113.18
674.253	40379.84
674.602	40244.93
674.951	39688.11
675.3	39645.85
675.649	40194.99
675.998	40157.7
676.346	39981.89
676.695	40226.85
677.044	40040.19
677.393	40051.49
677.741	40176.68
678.09	39996.58
678.438	39992.73
678.787	40009.68
679.135	40027.08
679.484	39801.1
679.832	40014.43
680.181	39654.21
680.529	39703.7
680.877	39661.22
681.225	39678.39
681.573	39830.7
681.922	39620.31
682.27	39529.02
682.618	39631.61
682.966	39370.6
683.314	39444.05
683.661	39239.99
684.009	39227.56
684.357	39102.81
684.705	39119.76
685.053	39153.21
685.4	39003.16
685.748	38809.94
686.095	38871.63
686.443	38627.8
686.79	38645.42
687.138	38790.73
687.485	38797.74
687.832	38600
688.18	38597.97
688.527	38440.68
688.874	38492.66
689.221	38369.95
689.568	38355.71
689.915	38243.18
690.262	38311.42
690.609	38110.3
690.956	37866.91
691.303	37994.14
691.65	37821.49
691.997	37926.12
692.344	37575.4
692.69	37576.98
693.037	37555.74
693.383	37181.96
693.73	37424.89
694.077	37111
694.423	37113.49
694.769	37012.7
695.116	36958.01
695.462	36984.45
695.808	36769.77
696.155	36906.49
696.501	36538.36
696.847	36600.73
697.193	36393.96
697.539	36519.15
697.885	36276.22
698.231	36178.37
698.577	36119.84
698.923	36174.3
699.269	35816.35
699.614	35839.85
699.96	35649.8
700.306	35726.41
700.651	35492.06
700.997	35515.56
701.342	35351.05
701.688	35351.73
702.033	35211.39
702.379	35137.95
702.724	35072.19
703.069	35138.17
703.415	34794.23
703.76	34847.78
704.105	34785.41
704.45	34648.47
704.795	34525.53
705.14	34515.36
705.485	34461.81
705.83	34301.81
706.175	34282.6
706.52	34134.36
706.865	34141.81
707.209	34123.06
707.554	33935.94
707.899	33959.67
708.243	33780.92
708.588	33842.61
708.932	33503.86
709.277	33582.51
709.621	33654.14
709.966	33420.7
710.31	33360.14
710.654	33138.45
710.998	33257.09
711.342	33191.56
711.687	33198.34
712.031	33087.6
712.375	32893.03
712.719	33051.45
713.063	33067.49
713.407	33001.05
713.75	32894.39
714.094	32793.83
714.438	32584.34
714.782	32694.17
715.125	32448.3
715.469	32577.56
715.812	32473.61
716.156	32293.5
716.499	32197.68
716.843	32340.28
717.186	32037.46
717.53	32239.49
717.873	32269.32
718.216	32061.87
718.559	31859.39
718.902	31743.23
719.246	31840.63
719.589	31632.5
719.932	31523.35
720.275	31540.3
720.617	31662.11
720.96	31512.28
721.303	31425.28
721.646	31531.94
721.989	31284.49
722.331	31369.46
722.674	31246.3
723.016	31240.2
723.359	31212.17
723.701	31194.32
724.044	30963.37
724.386	30870.94
724.729	31063.7
725.071	31042.91
725.413	30881.33
725.755	30823.48
726.097	30754.78
726.439	30638.63
726.782	30639.31
727.124	30790.04
727.465	30518.18
727.807	30502.36
728.149	30442.7
728.491	30430.5
728.833	30516.82
729.175	30472.31
729.516	30253.1
729.858	30191.86
730.199	30275.7
730.541	30121.58
730.882	30148.25
731.224	30171.3
731.565	29987.57
731.906	30016.27
732.248	29920.91
732.589	29807.46
732.93	29792.1
733.271	29833
733.612	29856.05
733.953	29773.12
734.294	29639.56
734.635	29621.26
734.976	29667.13
735.317	29500.58
735.658	29517.98
735.999	29540.81
736.339	29447.25
736.68	29534.7
737.021	29360.24
737.361	29228.05
737.702	29479.79
738.042	29301.26
738.383	29249.97
738.723	29276.86
739.063	29028.5
739.404	29209.51
739.744	29086.13
740.084	28935.4
740.424	29105.56
740.764	28859.92
741.104	29115.28
741.444	28818.11
741.784	28777.89
742.124	28860.82
742.464	28854.04
742.804	28653.37
743.143	28694.5
743.483	28654.73
743.823	28500.38
744.162	28482.3
744.502	28516.43
744.841	28489.08
745.181	28565.69
745.52	28416.54
745.86	28440.04
746.199	28390.1
746.538	28158.92
746.877	28338.8
747.216	28209.31
747.556	28143.78
747.895	28188.07
748.234	28025.14
748.573	27991.47
748.911	28022.65
749.25	27996.66
749.589	27871.24
749.928	27927.51
750.267	27958.7
750.605	27866.27
750.944	27736.11
751.283	27610.23
751.621	27704.24
751.96	27549.9
752.298	27471.26
752.636	27541.99
752.975	27478.03
753.313	27414.99
753.651	27487.3
753.989	27227.65
754.327	27301.77
754.666	27152.62
755.004	27282.11
755.342	27121.21
755.679	27129.8
756.017	26972.74
756.355	26973.64
756.693	26930.7
757.031	26927.09
757.368	26638.51
757.706	26759.41
758.044	26661.78
758.381	26664.27
758.719	26645.06
759.056	26530.94
759.394	26440.77
759.731	26307.22
760.068	26312.42
760.405	26176.83
760.743	25946.55
761.08	26171.4
761.417	26014.12
761.754	25802.82
762.091	25967.79
762.428	25805.08
762.765	25723.28
763.102	25708.82
763.438	25556.5
763.775	25427.24
764.112	25444.42
764.449	25380.01
764.785	25383.85
765.122	25143.63
765.458	25114.25
765.795	25056.4
766.131	25014.37
766.467	24930.98
766.804	24774.15
767.14	24711.33
767.476	24817.99
767.812	24629.75
768.148	24606.7
768.485	24364.9
768.821	24262.3
769.157	24235.63
769.492	24152.7
769.828	24288.29
770.164	23967.62
770.5	23987.05
770.836	24015.53
771.171	23746.16
771.507	23774.18
771.842	23444.92
772.178	23624.12
772.513	23423.23
772.849	23422.1
773.184	23350.91
773.519	23285.6
773.855	23160.63
774.19	22973.07
774.525	23003.35
774.86	22949.79
775.195	22873.64
775.53	22826.63
775.865	22812.62
776.2	22538.05
776.535	22339.64
776.87	22409.92
777.205	22310.49
777.539	22101
777.874	22221.45
778.209	22144.16
778.543	21984.85
778.878	21910.72
779.212	21917.28
779.547	21825.75
779.881	21959.76
780.215	21525.87
780.55	21589.15
780.884	21558.42
781.218	21481.13
781.552	21360.23
781.886	21364.97
782.22	21249.27
782.554	21131.99
782.888	21013.57
783.222	20873.69
783.556	20894.03
783.889	20820.36
784.223	20650.19
784.557	20529.29
784.89	20592.79
785.224	20370.88
785.557	20285
785.891	20365
786.224	20231.9
786.558	20251.11
786.891	19970.89
787.224	19971.11
787.557	19973.6
787.891	19894.28
788.224	19799.59
788.557	19903.09
788.89	19817.45
789.223	19748.52
789.556	19677.56
789.888	19518.02
790.221	19541.75
790.554	19295.2
790.887	19316.22
791.219	19234.86
791.552	19188.31
791.884	19049.78
792.217	19032.83
792.549	18940.41
792.882	18857.47
793.214	18775.89
793.546	18842.1
793.879	18699.96
794.211	18557.14
794.543	18674.65
794.875	18592.39
795.207	18534.77
795.539	18559.62
795.871	18422.45
796.203	18220.42
796.535	18097.49
796.867	18164.83
797.198	18074.67
797.53	18139.3
797.862	18045.06
798.193	18088.68
798.525	17923.94
798.856	17936.82
799.188	17651.17
799.519	17688.01
799.85	17658.41
800.182	17581.57
800.513	17622.25
800.844	17455.93
801.175	17592.42
801.506	17447.56
801.837	17360.11
802.168	17292.54
802.499	17300
802.83	17185.65
803.161	17238.3
803.491	17148.59
803.822	17040.57
804.153	16939.1
804.483	16950.63
804.814	16845.32
805.145	16748.83
805.475	16844.64
805.805	16620.69
806.136	16663.18
806.466	16771.88
806.796	16617.76
807.126	16471.77
807.457	16441.49
807.787	16406.91
808.117	16375.05
808.447	16391.77
808.777	16342.28
809.107	16234.94
809.436	16294.37
809.766	16127.6
810.096	16163.53
810.426	16041.95
810.755	16093.02
811.085	15938.9
811.414	16023.42
811.744	15829.98
812.073	15862.07
812.403	15846.7
812.732	15788.17
813.061	15719.25
813.39	15776.42
813.719	15642.87
814.049	15734.84
814.378	15580.27
814.707	15472.02
815.036	15553.15
815.365	15431.35
815.693	15302.54
816.022	15365.81
816.351	15206.72
816.68	15222.31
817.008	15218.92
817.337	15175.53
817.665	15117
817.994	15072.26
818.322	15107.29
818.651	15028.19
818.979	14924.24
819.307	14953.17
819.636	14921.98
819.964	14858.03
820.292	14989.78
820.62	14861.64
820.948	14873.85
821.276	14875.2
821.604	14898.03
821.932	14887.18
822.259	14819.84
822.587	14802.89
822.915	14816.22
823.243	14863.45
823.57	14745.26
823.898	14831.81
824.225	14744.81
824.553	14766.5
824.88	14721.31
825.207	14820.51
825.535	14694.19
825.862	14804.24
826.189	14815.99
826.516	14780.52
826.843	14839.27
827.17	14759.5
827.497	14801.31
827.824	14820.06
828.151	14787.75
828.478	14775.32
828.805	14757.69
829.131	14818.71
829.458	14744.58
829.785	14662.78
830.111	14623.23
830.438	14678.6
830.764	14724.7
831.09	14746.84
831.417	14674.08
831.743	14739.84
832.069	14727.86
832.395	14605.83
832.722	14732.16
833.048	14628.88
833.374	14607.86
833.7	14632.27
834.026	14548.43
834.351	14586.17
834.677	14542.78
835.003	14569.22
835.329	14590.92
835.654	14514.99
835.98	14486.74
836.306	14395.21
836.631	14332.62
836.956	14482.22
837.282	14506.4
837.607	14332.62
837.932	14371.94
838.258	14364.93
838.583	14254.43
838.908	14235.22
839.233	14300.98
839.558	14211.49
839.883	14194.32
840.208	14179.4
840.533	14133.98
840.858	14118.84
841.182	14138.27
841.507	14065.51
841.832	13985.51
842.156	13957.03
842.481	14025.96
842.805	13997.94
843.13	13910.26
843.454	13973.3
843.778	13803.59
844.103	13796.59
844.427	13769.47
844.751	13792.52
845.075	13733.76
845.399	13684.95
845.723	13590.49
846.047	13653.54
846.371	13464.17
846.695	13575.58
847.019	13399.08
847.343	13349.14
847.666	13262.59
847.99	13199.99
848.313	13240.67
848.637	13125.64
848.96	13091.07
849.284	13029.6
849.607	13044.29
849.931	12961.13
850.254	12882.03
850.577	12849.94
850.9	12761.13
851.223	12721.13
851.546	12703.28
851.869	12612.21
852.192	12633.68
852.515	12563.17
852.838	12446.11
853.161	12410.18
853.483	12446.34
853.806	12325.44
854.129	12303.29
854.451	12242.05
854.774	12315.72
855.096	12174.71
855.419	12137.42
855.741	12179.45
856.063	12041.6
856.385	12049.74
856.708	12055.16
857.03	11920.7
857.352	11923.87
857.674	11903.3
857.996	11894.04
858.318	11741.05
858.64	11791.89
858.961	11717.77
859.283	11673.03
859.605	11613.14
859.926	11639.13
860.248	11547.83
860.57	11582.63
860.891	11558
861.212	11472.81
861.534	11492.01
861.855	11451.11
862.176	11444.78
862.498	11402.75
862.819	11394.62
863.14	11324.11
863.461	11346.93
863.782	11368.18
864.103	11302.41
864.424	11235.07
864.745	11297.22
865.065	11228.52
865.386	11203.89
865.707	11187.62
866.027	11188.29
866.348	11227.39
866.668	11208.86
866.989	11077.56
867.309	11081.18
867.63	11103.1
867.95	11121.18
868.27	11013.83
868.59	11032.14
868.91	10977.45
869.23	10935.19
869.55	10932.71
869.87	10971.8
870.19	10980.84
870.51	10965.7
870.83	10899.26
871.15	10832.6
871.469	10936.32
871.789	10923.44
872.109	10877.57
872.428	10745.82
872.748	10818.81
873.067	10849.77
873.386	10740.85
873.706	10754.86
874.025	10693.84
874.344	10713.5
874.663	10738.14
874.982	10664.24
875.301	10571.81
875.62	10642.77
875.939	10518.48
876.258	10597.12
876.577	10597.57
876.896	10574.75
877.214	10491.81
877.533	10547.41
877.852	10446.84
878.17	10557.35
878.489	10516.22
878.807	10500.18
879.125	10427.41
879.444	10507.86
879.762	10410.23
880.08	10475.32
880.398	10399.16
880.716	10392.61
881.034	10294.76
881.352	10316.23
881.67	10339.95
881.988	10293.63
882.306	10248.43
882.624	10219.73
882.941	10214.53
883.259	10195.33
883.577	10152.84
883.894	10168.89
884.212	10107.64
884.529	10132.95
884.846	10050.7
885.164	10038.49
885.481	10033.97
885.798	10003.69
886.115	9982.22
886.432	9923.92
886.75	9965.73
887.067	9920.53
887.383	9899.97
887.7	9873.98
888.017	9835.33
888.334	9838.05
888.651	9833.53
888.967	9698.84
889.284	9796.24
889.6	9688.67
889.917	9593.76
890.233	9572.29
890.55	9563.48
890.866	9577.94
891.182	9629.92
891.498	9506.53
891.815	9432.18
892.131	9483.03
892.447	9431.96
892.763	9355.57
893.079	9351.73
893.395	9310.6
893.71	9304.95
894.026	9259.98
894.342	9310.83
894.657	9244.39
894.973	9243.71
895.289	9163.49
895.604	9203.94
895.92	9102.92
896.235	9041.68
896.55	9070.61
896.865	9079.2
897.181	8930.05
897.496	8961.01
897.811	8894.57
898.126	8957.17
898.441	8894.57
898.756	8865.87
899.071	8846.66
899.386	8847.11
899.7	8745.65
900.015	8740.67
900.33	8613.22
900.644	8660.45
900.959	8687.12
901.273	8651.64
901.588	8537.97
901.902	8502.71
902.216	8528.93
902.531	8485.31
902.845	8455.94
903.159	8372.32
903.473	8330.97
903.787	8287.8
904.101	8323.28
904.415	8294.13
904.729	8287.8
905.042	8270.4
905.356	8201.25
905.67	8165.32
905.984	8181.14
906.297	8137.53
906.611	8053.91
906.924	8084.87
907.237	8047.81
907.551	8014.37
907.864	7947.47
908.177	7998.77
908.491	7960.36
908.804	7957.19
909.117	7822.73
909.43	7845.78
909.743	7809.17
910.056	7735.95
910.368	7721.49
910.681	7690.53
910.994	7597.65
911.307	7624.77
911.619	7586.13
911.932	7573.47
912.244	7518.56
912.557	7507.94
912.869	7440.37
913.181	7400.82
913.494	7402.4
913.806	7369.64
914.118	7351.78
914.43	7301.16
914.742	7311.79
915.054	7278.11
915.366	7254.16
915.678	7209.41
915.99	7157.44
916.302	7081.96
916.613	7122.19
916.925	7117.89
917.236	7036.09
917.548	7041.28
917.859	7041.51
918.171	6978.69
918.482	6924
918.794	6878.12
919.105	6899.59
919.416	6880.16
919.727	6840.61
920.038	6824.34
920.349	6755.64
920.66	6713.16
920.971	6760.61
921.282	6686.72
921.593	6640.16
921.903	6570.56
922.214	6582.31
922.525	6581.63
922.835	6542.09
923.146	6506.83
923.456	6488.3
923.767	6479.94
924.077	6440.62
924.387	6415.99
924.697	6345.03
925.008	6328.31
925.318	6288.31
925.628	6288.31
925.938	6243.79
926.248	6216.22
926.558	6179.16
926.867	6194.3
927.177	6143.68
927.487	6114.53
927.796	6084.7
928.106	6057.35
928.416	6020.75
928.725	6007.64
929.034	6008.32
929.344	6027.53
929.653	5953.18
929.962	5876.79
930.271	5853.97
930.581	5832.73
930.89	5850.35
931.199	5818.49
931.508	5802.9
931.817	5744.14
932.125	5729.68
932.434	5752.28
932.743	5664.82
933.051	5666.4
933.36	5631.6
933.669	5616.69
933.977	5591.83
934.286	5566.29
934.594	5529.01
934.902	5538.27
935.21	5510.48
935.519	5453.53
935.827	5486.52
936.135	5460.08
936.443	5411.95
936.751	5365.17
937.059	5389.58
937.367	5324.72
937.674	5318.84
937.982	5319.75
938.29	5271.16
938.597	5279.75
938.905	5179.64
939.213	5202.91
939.52	5167.89
939.827	5160.88
940.135	5144.61
940.442	5105.06
940.749	5090.83
941.056	5134.44
941.363	5089.47
941.67	5007.89
941.977	4973.99
942.284	4983.71
942.591	4974.45
942.898	4925.63
943.205	4939.42
943.511	4909.36
943.818	4886.09
944.125	4874.79
944.431	4855.58
944.738	4823.94
945.044	4790.04
945.35	4745.75
945.657	4767.67
945.963	4759.54
946.269	4716.37
946.575	4703.27
946.881	4630.73
947.187	4622.14
947.493	4630.73
947.799	4587.56
948.105	4597.51
948.41	4555.47
948.716	4552.08
949.022	4537.17
949.327	4552.54
949.633	4450.39
949.938	4549.82
950.244	4496.49
950.549	4470.5
950.854	4373.11
951.16	4430.05
951.465	4356.61
951.77	4344.41
952.075	4360
952.38	4326.33
952.685	4328.13
952.99	4294.01
953.294	4255.82
953.599	4226.22
953.904	4240.91
954.209	4175.82
954.513	4171.75
954.818	4162.26
955.122	4155.03
955.426	4096.28
955.731	4136.5
956.035	4070.97
956.339	4115.94
956.643	4121.36
956.948	4024.64
957.252	4014.92
957.556	4032.32
957.86	4001.14
958.163	4011.53
958.467	3934.92
958.771	3989.39
959.075	3967.24
959.378	3913.46
959.682	3901.25
959.985	3914.36
960.289	3842.72
960.592	3837.75
960.896	3814.02
961.199	3778.09
961.502	3795.95
961.805	3780.13
962.108	3803.18
962.411	3776.06
962.714	3715.5
963.017	3724.76
963.32	3709.85
963.623	3673.24
963.926	3670.07
964.228	3650.86
964.531	3580.36
964.833	3684.54
965.136	3598.66
965.438	3579.91
965.741	3551.88
966.043	3557.53
966.345	3540.13
966.648	3516.63
966.95	3513.24
967.252	3474.37
967.554	3516.18
967.856	3469.63
968.158	3422.85
968.46	3409.97
968.761	3340.59
969.063	3426.24
969.365	3383.75
969.666	3381.27
969.968	3338.78
970.269	3354.6
970.571	3312.79
970.872	3322.96
971.174	3319.35
971.475	3310.53
971.776	3261.5
972.077	3253.59
972.378	3249.29
972.679	3190.76
972.98	3203.42
973.281	3212.91
973.582	3208.39
973.883	3171.56
974.183	3137.88
974.484	3148.5
974.785	3145.12
975.085	3107.15
975.386	3107.38
975.686	3109.18
975.986	3075.06
976.287	3095.4
976.587	3068.05
976.887	3003.42
977.187	3036.42
977.487	3013.59
977.787	2978.79
978.087	2979.7
978.387	2992.35
978.687	2946.02
978.987	2894.05
979.286	2879.13
979.586	2934.5
979.885	2887.72
980.185	2863.99
980.484	2887.72
980.784	2884.33
981.083	2847.95
981.382	2835.74
981.682	2812.47
981.981	2821.06
982.28	2834.84
982.579	2820.6
982.878	2821.28
983.177	2755.52
983.475	2769.31
983.774	2714.62
984.073	2739.48
984.372	2711
984.67	2739.02
984.969	2681.85
985.267	2674.84
985.566	2664.9
985.864	2649.99
986.162	2626.48
986.461	2642.08
986.759	2615.64
987.057	2618.8
987.355	2555.98
987.653	2590.33
987.951	2578.8
988.249	2552.14
988.547	2575.41
988.844	2553.49
989.142	2540.39
989.44	2499.93
989.737	2508.52
990.035	2485.47
990.332	2495.64
990.63	2485.02
990.927	2451.35
991.224	2454.51
991.521	2428.52
991.819	2404.8
992.116	2426.94
992.413	2399.15
992.71	2391.69
993.006	2391.01
993.303	2361.86
993.6	2366.83
993.897	2367.51
994.193	2322.99
994.49	2330
994.787	2335.87
995.083	2313.5
995.379	2327.06
995.676	2313.5
995.972	2264.23
996.268	2259.49
996.565	2240.96
996.861	2241.41
997.157	2229.43
997.453	2194.41
997.749	2195.08
998.044	2178.81
998.34	2158.93
998.636	2195.99
998.932	2156.67
999.227	2167.51
999.523	2151.92
999.818	2151.92
1000.114	2134.97
1000.409	2107.4
1000.704	2105.59
1001	2071.47
1001.295	2087.06
1001.59	2053.62
1001.885	2064.69
1002.18	2032.6
1002.475	2061.3
1002.77	2025.82
1003.065	2005.03
1003.359	2014.07
1003.654	1989.67
1003.949	1965.49
1004.243	1962.55
1004.538	1918.48
1004.832	1957.58
1005.127	1950.57
1005.421	1927.52
1005.715	1908.09
1006.009	1913.28
1006.304	1909.22
1006.598	1894.07
1006.892	1888.88
1007.186	1856.79
1007.48	1847.75
1007.773	1819.05
1008.067	1857.47
1008.361	1799.16
1008.655	1784.92
1008.948	1786.05
1009.242	1770.69
1009.535	1805.49
1009.829	1778.15
1010.122	1767.52
1010.415	1744.7
1010.708	1743.12
1011.001	1721.65
1011.295	1729.33
1011.588	1711.71
1011.881	1680.29
1012.173	1715.32
1012.466	1683.23
1012.759	1660.18
1013.052	1683.91
1013.344	1658.6
1013.637	1674.87
1013.93	1631.71
1014.222	1629.45
1014.514	1622.67
1014.807	1604.14
1015.099	1559.85
1015.391	1614.76
1015.683	1592.61
1015.976	1584.7
1016.268	1529.56
1016.56	1551.03
1016.851	1542.67
1017.143	1547.19
1017.435	1513.75
1017.727	1505.84
1018.018	1488.89
1018.31	1507.42
1018.602	1477.36
1018.893	1487.76
1019.185	1479.4
1019.476	1468.1
1019.767	1443.69
1020.058	1425.61
1020.35	1443.69
1020.641	1432.84
1020.932	1408.89
1021.223	1397.36
1021.514	1390.58
1021.804	1387.65
1022.095	1387.65
1022.386	1337.7
1022.677	1365.05
1022.967	1320.53
1023.258	1346.29
1023.548	1325.5
1023.839	1337.03
1024.129	1306.75
1024.419	1272.17
1024.709	1303.36
1025	1286.63
1025.29	1273.3
1025.58	1265.39
1025.87	1258.84
1026.16	1239.85
1026.449	1255
1026.739	1233.75
1027.029	1217.48
1027.319	1207.54
1027.608	1191.04
1027.898	1239.85
1028.187	1214.77
1028.477	1198.27
1028.766	1185.84
1029.055	1165.51
1029.344	1176.13
1029.634	1146.52
1029.923	1160.31
1030.212	1133.19
1030.501	1149.01
1030.79	1146.52
1031.078	1134.55
1031.367	1108.33
1031.656	1116.47
1031.945	1083.7
1032.233	1083.02
1032.522	1106.75
1032.81	1061.1
1033.099	1081.21
1033.387	1071.72
1033.675	1055.68
1033.963	1069.92
1034.251	1055.45
1034.54	1046.19
1034.828	1031.27
1035.116	1022.01
1035.403	992.86
1035.691	1032.63
1035.979	1018.17
1036.267	1005.28
1036.554	1000.09
1036.842	992.18
1037.129	985.85
1037.417	988.79
1037.704	963.03
1037.992	951.95
1038.279	946.53
1038.566	933.65
1038.853	933.65
1039.14	933.65
