Data from hue_36_FLMS001491_00052.txt Node
Date: Tue Feb 07 17:29:59 GMT 2017
User: dcchb
Spectrometer: FLMS00149
Trigger mode: 0
Integration Time (sec): 2.000000E-2
Scans to average: 10
Electric dark correction enabled: true
Nonlinearity correction enabled: false
Boxcar width: 0
XAxis mode: Wavelengths
Number of Pixels in Spectrum: 2048
>>>>>Begin Spectral Data<<<<<
341.393	-12.66
341.776	-12.66
342.16	-12.66
342.543	-58.76
342.927	-37.97
343.31	-92.43
343.693	-62.6
344.077	-67.79
344.46	-66.66
344.843	-55.37
345.226	-46.78
345.61	-37.74
345.993	-7.01
346.376	-4.97
346.759	11.98
347.142	33.9
347.525	40.45
347.908	39.77
348.291	90.62
348.674	96.95
349.057	127.68
349.44	162.93
349.823	136.49
350.206	180.33
350.588	208.58
350.971	226.66
351.354	217.4
351.737	241.8
352.119	246.77
352.502	279.54
352.884	255.13
353.267	281.8
353.65	292.42
354.032	316.6
354.414	311.63
354.797	330.39
355.179	339.2
355.562	343.49
355.944	354.34
356.326	338.52
356.709	352.08
357.091	372.65
357.473	355.24
357.855	348.69
358.238	353.44
358.62	335.36
359.002	354.11
359.384	339.43
359.766	350.5
360.148	360.22
360.53	350.73
360.912	349.82
361.294	357.05
361.676	316.38
362.057	338.97
362.439	342.36
362.821	346.43
363.203	339.65
363.584	339.65
363.966	341.69
364.348	343.72
364.729	337.17
365.111	341.91
365.493	324.51
365.874	337.39
366.256	321.8
366.637	305.08
367.019	317.96
367.4	321.12
367.781	304.4
368.163	320.44
368.544	323.61
368.925	350.5
369.306	313.21
369.688	331.97
370.069	312.53
370.45	301.24
370.831	316.38
371.212	321.35
371.593	333.55
371.974	322.48
372.355	315.02
372.736	336.94
373.117	337.17
373.498	324.51
373.879	299.2
374.26	338.97
374.641	332.65
375.021	341.01
375.402	333.78
375.783	342.14
376.163	326.77
376.544	323.61
376.925	341.23
377.305	332.42
377.686	340.1
378.066	337.62
378.447	334.68
378.827	344.85
379.208	328.13
379.588	333.1
379.968	348.01
380.349	339.88
380.729	339.2
381.109	339.43
381.489	323.16
381.87	331.52
382.25	376.94
382.63	347.34
383.01	347.79
383.39	352.53
383.77	335.81
384.15	341.46
384.53	356.6
384.91	335.36
385.29	360.44
385.67	363.38
386.049	363.83
386.429	345.53
386.809	359.09
387.189	335.81
387.568	340.1
387.948	390.5
388.328	359.54
388.707	353.21
389.087	375.58
389.466	368.58
389.846	381.68
390.225	381.23
390.605	374.91
390.984	381.01
391.363	367.22
391.743	360.44
392.122	360.67
392.501	378.97
392.881	378.97
393.26	391.63
393.639	368.58
394.018	374.91
394.397	391.63
394.776	382.59
395.155	363.83
395.534	378.97
395.913	386.66
396.292	395.47
396.671	378.3
397.05	377.17
397.429	368.13
397.808	402.02
398.186	401.12
398.565	394.57
398.944	383.49
399.323	397.28
399.701	383.94
400.08	404.28
400.458	421.46
400.837	401.12
401.215	406.99
401.594	368.35
401.972	418.29
402.351	418.75
402.729	400.22
403.107	396.6
403.486	387.33
403.864	414.68
404.242	406.99
404.62	420.1
404.999	402.7
405.377	415.13
405.755	424.4
406.133	420.33
406.511	411.97
406.889	425.75
407.267	423.72
407.645	451.97
408.023	434.79
408.401	454
408.779	437.5
409.156	433.21
409.534	429.14
409.912	444.28
410.29	454
410.667	442.7
411.045	446.54
411.422	452.19
411.8	452.42
412.178	452.19
412.555	465.3
412.933	468.24
413.31	468.24
413.687	455.81
414.065	464.62
414.442	464.85
414.819	468.01
415.197	485.18
415.574	481.34
415.951	485.41
416.328	481.12
416.705	482.02
417.082	483.38
417.46	479.08
417.837	474.34
418.214	474.34
418.591	489.25
418.967	495.58
419.344	505.07
419.721	498.29
420.098	529.7
420.475	530.61
420.852	521.79
421.228	491.96
421.605	513.43
421.982	505.98
422.358	521.79
422.735	523.83
423.111	521.34
423.488	534.68
423.864	526.54
424.241	537.84
424.617	529.93
424.994	538.29
425.37	552.75
425.746	527.9
426.123	552.53
426.499	529.48
426.875	548.23
427.251	539.87
427.627	564.73
428.003	559.76
428.379	569.93
428.756	563.6
429.132	583.71
429.507	596.59
429.883	568.8
430.259	590.04
430.635	614.9
431.011	609.93
431.387	603.15
431.763	616.48
432.138	625.75
432.514	595.24
432.89	625.07
433.265	620.77
433.641	646.54
434.016	638.63
434.392	631.4
434.767	663.03
435.143	633.43
435.518	618.06
435.894	669.13
436.269	661.68
436.644	661.23
437.02	649.93
437.395	662.81
437.77	676.37
438.145	686.99
438.52	684.95
438.895	673.43
439.271	691.28
439.646	688.57
440.021	704.61
440.395	718.85
440.77	690.15
441.145	707.55
441.52	718.85
441.895	718.17
442.27	734.67
442.645	709.59
443.019	735.8
443.394	713.2
443.769	747.55
444.143	725.86
444.518	734.9
444.892	747.1
445.267	766.53
445.641	749.81
446.016	763.82
446.39	773.99
446.764	769.47
447.139	773.76
447.513	773.31
447.887	776.25
448.262	771.73
448.636	784.39
449.01	776.02
449.384	784.61
449.758	816.93
450.132	807.44
450.506	785.29
450.88	821.67
451.254	795.69
451.628	815.8
452.002	839.53
452.376	823.71
452.75	838.62
453.123	835.46
453.497	860.32
453.871	857.6
454.244	882.46
454.618	858.73
454.992	859.64
455.365	882.46
455.739	884.5
456.112	903.71
456.486	928.34
456.859	921.11
457.232	926.53
457.606	913.87
457.979	911.39
458.352	964.95
458.725	958.17
459.099	963.14
459.472	979.18
459.845	983.93
460.218	1000.65
460.591	986.41
460.964	1021.44
461.337	1028.45
461.71	1020.76
462.083	1049.24
462.456	1054.66
462.829	1058.05
463.201	1072.51
463.574	1084.94
463.947	1100.76
464.32	1115
464.692	1133.98
465.065	1136.47
465.438	1141.66
465.81	1177.14
466.183	1175.11
466.555	1210.59
466.928	1229.12
467.3	1225.73
467.672	1239.74
468.045	1223.7
468.417	1294.2
468.789	1290.14
469.161	1314.99
469.534	1322.45
469.906	1362.9
470.278	1370.81
470.65	1366.07
471.022	1415.1
471.394	1472.96
471.766	1481.32
472.138	1495.1
472.51	1508.43
472.882	1551.15
473.253	1567.64
473.625	1621.43
473.997	1614.87
474.369	1663.23
474.74	1658.71
475.112	1714.08
475.484	1762.89
475.855	1795.21
476.227	1836.11
476.598	1877.46
476.97	1904.58
477.341	1982.55
477.713	2009.44
478.084	2044.01
478.455	2087.18
478.827	2114.75
479.198	2240.39
479.569	2231.58
479.94	2326.04
480.311	2393.38
480.682	2455.98
481.053	2528.75
481.424	2607.39
481.795	2622.98
482.166	2694.39
482.537	2738.46
482.908	2816.2
483.279	2879.02
483.65	2986.59
484.021	3045.12
484.391	3071.33
484.762	3184.1
485.133	3239.46
485.503	3310.87
485.874	3458.21
486.244	3507.25
486.615	3617.08
486.985	3673.8
487.356	3839.9
487.726	3857.53
488.097	3975.94
488.467	4055.94
488.837	4136.84
489.207	4254.8
489.578	4360.56
489.948	4422.48
490.318	4539.09
490.688	4598.98
491.058	4705.86
491.428	4807.11
491.798	4908.57
492.168	5066.08
492.538	5163.71
492.908	5261.1
493.278	5356.47
493.648	5367.77
494.017	5460.2
494.387	5587.65
494.757	5724.6
495.126	5769.11
495.496	5835.1
495.866	5960.3
496.235	6026.06
496.605	6162.78
496.974	6176.33
497.344	6331.36
497.713	6380.62
498.082	6454.75
498.452	6580.84
498.821	6705.81
499.19	6728.64
499.559	6829.88
499.928	6924.79
500.298	6960.95
500.667	7089.31
501.036	7088.85
501.405	7196.65
501.774	7241.84
502.143	7335.4
502.512	7383.31
502.88	7598.9
503.249	7566.81
503.618	7634.6
503.987	7654.49
504.356	7776.52
504.724	7895.16
505.093	7943.52
505.462	7968.15
505.83	8140.12
506.199	8160.01
506.567	8223.74
506.936	8327.01
507.304	8479.55
507.672	8482.71
508.041	8560.23
508.409	8612.88
508.777	8653.11
509.145	8707.79
509.514	8778.98
509.882	8876.15
510.25	8861.69
510.618	8912.99
510.986	9068.01
511.354	9186.88
511.722	9196.82
512.09	9317.5
512.458	9299.87
512.826	9360.66
513.193	9453.76
513.561	9440.88
513.929	9543.93
514.297	9662.8
514.664	9724.49
515.032	9753.42
515.4	9835
515.767	9885.16
516.135	9968.33
516.502	9867.99
516.869	10105.72
517.237	10079.28
517.604	10105.95
517.972	10237.02
518.339	10229.79
518.706	10303.46
519.073	10317.47
519.44	10439.95
519.808	10492.15
520.175	10535.09
520.542	10686.5
520.909	10750.45
521.276	10686.27
521.643	10868.64
522.009	10797
522.376	10884.69
522.743	11001.74
523.11	11089.43
523.477	11130.78
523.843	11302.3
524.21	11399.47
524.577	11444.9
524.943	11497.32
525.31	11551.79
525.676	11637.21
526.043	11711.78
526.409	11817.77
526.776	11909.52
527.142	11904.55
527.508	12057.76
527.874	12113.58
528.241	12200.36
528.607	12238.77
528.973	12354.03
529.339	12342.27
529.705	12469.05
530.071	12512.89
530.437	12523.74
530.803	12622.49
531.169	12792.21
531.535	12711.98
531.901	12772.77
532.267	12898.87
532.632	12944.97
532.998	12957.85
533.364	13019.54
533.73	13074.46
534.095	13223.16
534.461	13222.25
534.826	13262.48
535.192	13371.85
535.557	13412.3
535.923	13387.22
536.288	13499.31
536.653	13528.68
537.019	13515.35
537.384	13649.58
537.749	13600.09
538.114	13717.61
538.479	13715.8
538.845	13863.59
539.21	13859.3
539.575	13879.86
539.94	13963.47
540.305	14048.67
540.67	14014.09
541.034	14129.35
541.399	14127.31
541.764	14266.74
542.129	14254.77
542.494	14325.05
542.858	14373.18
543.223	14469.45
543.587	14538.37
543.952	14519.62
544.316	14603.23
544.681	14544.7
545.045	14729.1
545.41	14739.95
545.774	14801.19
546.138	14794.64
546.503	14928.87
546.867	14878.03
547.231	15090.68
547.595	15065.14
547.959	15144.69
548.324	15117.12
548.688	15182.65
549.052	15281.18
549.416	15312.82
549.779	15313.27
550.143	15311.69
550.507	15462.19
550.871	15619.02
551.235	15579.48
551.599	15670.77
551.962	15660.38
552.326	15753.48
552.689	15805.01
553.053	15778.57
553.417	15761.39
553.78	16053.82
554.143	15959.58
554.507	16055.85
554.87	16108.28
555.234	16246.13
555.597	16137.43
555.96	16194.15
556.323	16354.37
556.686	16336.97
557.05	16415.16
557.413	16522.73
557.776	16612.67
558.139	16606.57
558.502	16651.31
558.865	16660.35
559.228	16809.95
559.59	16880.01
559.953	16882.72
560.316	17071.87
560.679	17043.85
561.041	17179.21
561.404	17161.13
561.767	17304.4
562.129	17211.75
562.492	17474.79
562.854	17455.36
563.217	17444.29
563.579	17532.65
563.941	17600.22
564.304	17694.9
564.666	17820.1
565.028	17823.03
565.39	17924.95
565.753	17973.54
566.115	17984.61
566.477	18218.28
566.839	18150.03
567.201	18368.56
567.563	18148.9
567.925	18404.26
568.287	18393.19
568.648	18503.92
569.01	18542.56
569.372	18685.61
569.734	18689.23
570.095	18865.72
570.457	18922.67
570.819	18878.37
571.18	18936.9
571.542	19060.06
571.903	19088.31
572.265	19096.9
572.626	19286.5
572.987	19413.5
573.349	19418.47
573.71	19576.89
574.071	19609.43
574.432	19728.97
574.794	19946.59
575.155	19850.33
575.516	19884.22
575.877	20101.17
576.238	20146.36
576.599	20334.38
576.96	20465.68
577.32	20404.66
577.681	20629.74
578.042	20712.45
578.403	20801.26
578.763	20935.95
579.124	21095.49
579.485	21228.59
579.845	21429.04
580.206	21536.38
580.566	21567.12
580.927	21869.26
581.287	22005.75
581.648	22080.32
582.008	22288.68
582.368	22345.85
582.728	22481.89
583.089	22708.33
583.449	22875.33
583.809	22982.22
584.169	23257.02
584.529	23289.56
584.889	23686.16
585.249	23735.42
585.609	23848.41
585.969	24228.74
586.329	24222.64
586.688	24550.77
587.048	24690.42
587.408	24835.96
587.768	25059.91
588.127	25228.26
588.487	25451.31
588.846	25801.13
589.206	25839.32
589.565	26065.3
589.925	26428.91
590.284	26535.8
590.643	26656.02
591.003	27040.64
591.362	27338.49
591.721	27375.33
592.08	27649.22
592.44	27957.23
592.799	28083.78
593.158	28196.77
593.517	28486.03
593.876	28638.8
594.235	28796.76
594.593	29070.2
594.952	29301.38
595.311	29443.52
595.67	29822.04
596.029	30116.04
596.387	30256.38
596.746	30570.27
597.104	30585.64
597.463	30776.59
597.822	31121.67
598.18	31167.77
598.538	31338.61
598.897	31743.8
599.255	31607.08
599.613	32292.03
599.972	32188.08
600.33	32477.11
600.688	32557.79
601.046	32779.7
601.404	33100.82
601.762	33190.31
602.12	33384.43
602.478	33602.28
602.836	33784.2
603.194	33817.19
603.552	33889.28
603.91	34076.39
604.268	34513.44
604.625	34370.17
604.983	34813.32
605.341	34722.02
605.698	34887.44
606.056	35075.01
606.413	35243.82
606.771	35475.68
607.128	35598.39
607.485	35703.92
607.843	35718.61
608.2	36072.05
608.557	36193.62
608.914	36226.17
609.272	36591.81
609.629	36713.61
609.986	36898.69
610.343	36902.53
610.7	37221.85
611.057	37182.75
611.414	37319.47
611.771	37410.54
612.127	37658.22
612.484	37718.56
612.841	37915.39
613.198	38011.66
613.554	38025.67
613.911	38378.88
614.267	38295.04
614.624	38500.23
614.98	38562.38
615.337	38901.8
615.693	38807.12
616.05	38958.3
616.406	39225.64
616.762	39260.21
617.118	39149.03
617.475	39261.79
617.831	39438.74
618.187	39619.75
618.543	39681.22
618.899	39856.13
619.255	39857.48
619.611	39831.72
619.967	39943.58
620.323	40135.22
620.678	40066.52
621.034	40086.86
621.39	40061.77
621.746	40175.67
622.101	40555.09
622.457	40277.59
622.812	40466.51
623.168	40479.84
623.523	40611.59
623.879	40691.13
624.234	40657.91
624.589	40709.44
624.945	40889.55
625.3	40999.83
625.655	40880.06
626.01	41138.35
626.365	41064.91
626.72	41064.23
627.075	41073.95
627.43	41160.27
627.785	41009.09
628.14	41162.76
628.495	41194.85
628.85	41222.19
629.205	41216.09
629.559	41368.4
629.914	41184.68
630.269	41206.6
630.623	41192.59
630.978	41128.86
631.332	41369.99
631.687	41468.51
632.041	41251.57
632.396	41469.64
632.75	41232.14
633.104	41262.19
633.459	41204.79
633.813	41255.41
634.167	41287.28
634.521	41218.35
634.875	41369.76
635.229	41386.26
635.583	41181.52
635.937	41362.08
636.291	41339.93
636.645	41270.78
636.999	41190.56
637.352	41323.89
637.706	41087.51
638.06	41267.84
638.413	41126.83
638.767	41046.15
639.121	41194.4
639.474	40883.9
639.828	40983.78
640.181	41108.98
640.534	41124.57
640.888	40913.73
641.241	40752.6
641.594	40943.56
641.947	40990.56
642.301	40826.27
642.654	41120.5
643.007	41036.89
643.36	40828.76
643.713	40988.53
644.066	41081.41
644.419	40825.14
644.771	40585.6
645.124	40206.85
645.477	40179.73
645.83	39908.78
646.182	39889.35
646.535	39855.22
646.888	39804.6
647.24	39697.04
647.593	39791.72
647.945	39728.45
648.298	39525.74
648.65	39563.93
649.002	39416.82
649.355	39594.89
649.707	39521.45
650.059	39723.02
650.411	40107.87
650.763	40082.56
651.115	40548.09
651.467	40389.67
651.819	40401.2
652.171	40318.26
652.523	40377.7
652.875	40391.48
653.227	39975.67
653.578	40319.84
653.93	40403.91
654.282	40174.99
654.633	40070.81
654.985	40139.96
655.337	40322.56
655.688	40163.92
656.039	40318.26
656.391	40039.85
656.742	40221.32
657.094	40161.43
657.445	40266.29
657.796	40108.78
658.147	39996.01
658.498	40195.1
658.849	40202.33
659.2	40116.46
659.551	39902.91
659.902	40264.25
660.253	40083.01
660.604	40085.73
660.955	39913.75
661.306	40050.7
661.656	39939.29
662.007	39998.72
662.358	39983.81
662.708	40014.54
663.059	39934.77
663.409	39715.79
663.76	40090.7
664.11	39936.58
664.461	40040.76
664.811	40053.86
665.161	39865.39
665.511	39845.51
665.862	39869.91
666.212	39918.5
666.562	39890.7
666.912	39860.19
667.262	39809.57
667.612	39830.14
667.962	39954.43
668.312	39810.03
668.662	39957.37
669.011	39965.5
669.361	39901.1
669.711	39856.81
670.06	39721.22
670.41	39749.01
670.76	39589.47
671.109	39783.13
671.459	39644.61
671.808	39523.71
672.157	39706.75
672.507	39518.96
672.856	39572.29
673.205	39622.24
673.554	39691.84
673.904	39654.55
674.253	39751.5
674.602	39551.5
674.951	39212.75
675.3	38914.91
675.649	39658.17
675.998	39578.39
676.346	39505.85
676.695	39754.89
677.044	39367.55
677.393	39543.82
677.741	39569.13
678.09	39486.42
678.438	39266.31
678.787	39405.74
679.135	39482.13
679.484	39203.04
679.832	39294.11
680.181	39023.38
680.529	39266.31
680.877	39192.42
681.225	38991.07
681.573	39368.68
681.922	38942.03
682.27	38859.09
682.618	38925.08
682.966	38676.72
683.314	38834.91
683.661	38704.75
684.009	38606.44
684.357	38432.21
684.705	38423.85
685.053	38497.74
685.4	38501.36
685.748	38224.31
686.095	38281.71
686.443	38194.25
686.79	38224.98
687.138	38307.47
687.485	38117.64
687.832	38066.57
688.18	38108.6
688.527	37907.48
688.874	37936.63
689.221	37919.91
689.568	37760.14
689.915	37635.85
690.262	37595.4
690.609	37618.67
690.956	37391.11
691.303	37395.17
691.65	37224.78
691.997	37224.11
692.344	37056.2
692.69	36996.09
693.037	36985.02
693.383	36756.1
693.73	36770.78
694.077	36597.46
694.423	36605.59
694.769	36500.06
695.116	36509.32
695.462	36363.79
695.808	36407.86
696.155	36257.35
696.501	36102.1
696.847	36093.51
697.193	35765.16
697.539	35964.25
697.885	35677.93
698.231	35681.1
698.577	35562.91
698.923	35496.69
699.269	35270.03
699.614	35235.68
699.96	35181.22
700.306	35211.96
700.651	35036.59
700.997	35058.74
701.342	34825.75
701.688	34849.25
702.033	34778.97
702.379	34600.45
702.724	34596.38
703.069	34722.48
703.415	34204.07
703.76	34392.32
704.105	34392.09
704.45	34299.66
704.795	34063.96
705.14	33997.07
705.485	33936.28
705.83	33792.33
706.175	33895.38
706.52	33767.47
706.865	33708.49
707.209	33660.36
707.554	33483.19
707.899	33481.61
708.243	33426.01
708.588	33322.29
708.932	33070.32
709.277	33205.91
709.621	33075.06
709.966	32880.04
710.31	33014.73
710.654	32727.95
710.998	32748.74
711.342	32745.81
711.687	32568.86
712.031	32523.44
712.375	32499.48
712.719	32409.32
713.063	32374.97
713.407	32454.06
713.75	32289.09
714.094	32207.51
714.438	32029.89
714.782	32070.34
715.125	32071.7
715.469	32164.35
715.812	31938.6
716.156	31763.46
716.499	31710.13
716.843	31871.03
717.186	31525.27
717.53	31786.06
717.873	31793.29
718.216	31581.32
718.559	31464.03
718.902	31232.4
719.246	31335
719.589	31251.61
719.932	31165.96
720.275	31168.22
720.617	31196.02
720.96	30999.86
721.303	31079.18
721.646	31006.19
721.989	30867.89
722.331	30947.66
722.674	30836.7
723.016	30892.75
723.359	30849.81
723.701	30860.88
724.044	30566.65
724.386	30548.35
724.729	30641.23
725.071	30503.83
725.413	30478.52
725.755	30398.52
726.097	30369.82
726.439	30216.83
726.782	30184.74
727.124	30428.8
727.465	30216.83
727.807	30066.78
728.149	30048.7
728.491	29938.2
728.833	29999.89
729.175	29828.59
729.516	29796.5
729.858	29815.04
730.199	29931.19
730.541	29725.09
730.882	29798.09
731.224	29747.92
731.565	29619.11
731.906	29696.62
732.248	29645.1
732.589	29546.57
732.93	29321.26
733.271	29368.04
733.612	29393.13
733.953	29389.74
734.294	29283.07
734.635	29234.03
734.976	29288.95
735.317	29181.38
735.658	29162.4
735.999	29143.19
736.339	29053.93
736.68	29185.9
737.021	28897.32
737.361	28809.41
737.702	29045.34
738.042	28889.41
738.383	28709.3
738.723	28992.68
739.063	28765.8
739.404	28767.15
739.744	28629.76
740.084	28546.14
740.424	28677.21
740.764	28615.97
741.104	28721.5
741.444	28447.61
741.784	28376.88
742.124	28488.52
742.464	28344.79
742.804	28322.19
743.143	28258.69
743.483	28246.94
743.823	28052.37
744.162	28142.31
744.502	28148.64
744.841	28054.63
745.181	28197.9
745.52	27971.24
745.86	28092.37
746.199	27967.63
746.538	27908.42
746.877	28011.69
747.216	27988.64
747.556	27836.33
747.895	27927.63
748.234	27751.13
748.573	27693.51
748.911	27612.61
749.25	27565.6
749.589	27471.37
749.928	27648.09
750.267	27501.88
750.605	27413.97
750.944	27380.97
751.283	27241.54
751.621	27248.55
751.96	27269.79
752.298	27139.85
752.636	27241.09
752.975	27023.92
753.313	26959.29
753.651	26981.89
753.989	26905.28
754.327	26929.01
754.666	26841.33
755.004	26820.54
755.342	26759.3
755.679	26788.45
756.017	26630.03
756.355	26625.51
756.693	26465.29
757.031	26624.84
757.368	26468.91
757.706	26338.52
758.044	26271.63
758.381	26360.21
758.719	26255.81
759.056	26235.47
759.394	26189.37
759.731	25918.64
760.068	25923.84
760.405	25755.93
760.743	25785.99
761.08	25737.63
761.417	25654.92
761.754	25493.79
762.091	25637.52
762.428	25368.82
762.765	25267.13
763.102	25371.76
763.438	25215.16
763.775	25060.81
764.112	25124.99
764.449	25182.61
764.785	24903.75
765.122	24819.69
765.458	24830.99
765.795	24701.72
766.131	24662.63
766.467	24539.24
766.804	24476.87
767.14	24369.75
767.476	24445.01
767.812	24225.13
768.148	24328.4
768.485	24154.62
768.821	24037.79
769.157	24095.19
769.492	23817.68
769.828	23867.17
770.164	23710.11
770.5	23613.16
770.836	23564.35
771.171	23493.62
771.507	23471.7
771.842	23184.25
772.178	23259.5
772.513	23208.88
772.849	23188.32
773.184	23005.72
773.519	22995.1
773.855	22878.95
774.19	22860.42
774.525	22707.43
774.86	22753.3
775.195	22711.49
775.53	22540.88
775.865	22417.94
776.2	22319.41
776.535	22135.69
776.87	22149.47
777.205	21999.87
777.539	21928.69
777.874	21955.13
778.209	21829.26
778.543	21876.26
778.878	21633.1
779.212	21624.52
779.547	21536.38
779.881	21537.51
780.215	21484.41
780.55	21392.43
780.884	21326.22
781.218	21208.48
781.552	21076.51
781.886	21010.52
782.22	20994.48
782.554	20815.27
782.888	20659.34
783.222	20625.67
783.556	20538.67
783.889	20395.85
784.223	20367.6
784.557	20387.94
784.89	20365.34
785.224	20237.43
785.557	20173.48
785.891	20027.72
786.224	19947.5
786.558	19969.87
786.891	19865.47
787.224	19779.82
787.557	19729.42
787.891	19619.82
788.224	19572.82
788.557	19605.81
788.89	19621.4
789.223	19444.91
789.556	19438.58
789.888	19424.35
790.221	19314.97
790.554	19171.7
790.887	19187.07
791.219	19013.51
791.552	19070.91
791.884	18894.87
792.217	18827.08
792.549	18731.94
792.882	18638.15
793.214	18559.29
793.546	18559.96
793.879	18421.66
794.211	18400.19
794.543	18500.53
794.875	18388.44
795.207	18418.5
795.539	18207.2
795.871	18245.4
796.203	18028
796.535	17957.72
796.867	17965.86
797.198	17789.59
797.53	17891.06
797.862	17732.87
798.193	17793.2
798.525	17748.91
798.856	17697.39
799.188	17497.39
799.519	17479.31
799.85	17403.16
800.182	17382.82
800.513	17372.65
800.844	17241.58
801.175	17224.63
801.506	17223.73
801.837	17195.48
802.168	17016.05
802.499	17067.12
802.83	16952.55
803.161	16933.34
803.491	16964.3
803.822	16984.64
804.153	16840.24
804.483	16677.98
804.814	16648.6
805.145	16664.87
805.475	16546.68
805.805	16503.97
806.136	16475.05
806.466	16485.89
806.796	16503.97
807.126	16308.95
807.457	16343.98
807.787	16262.4
808.117	16213.81
808.447	16075.28
808.777	16098.56
809.107	16065.79
809.436	16051.1
809.766	15981.05
810.096	15904.21
810.426	15860.6
810.755	15845.46
811.085	15863.76
811.414	15791.9
811.744	15602.75
812.073	15699.47
812.403	15611.11
812.732	15512.81
813.061	15536.99
813.39	15503.1
813.719	15452.7
814.049	15471.91
814.378	15389.88
814.707	15363.89
815.036	15298.58
815.365	15235.76
815.693	15015.65
816.022	15187.4
816.351	15126.38
816.68	15069.89
817.008	15059.27
817.337	14879.16
817.665	14899.5
817.994	15019.49
818.322	14907.18
818.651	14836.9
818.979	14752.38
819.307	14878.25
819.636	14788.54
819.964	14720.74
820.292	14657.69
820.62	14807.52
820.948	14645.26
821.276	14638.49
821.604	14650.91
821.932	14670.8
822.259	14690.69
822.587	14681.42
822.915	14659.05
823.243	14673.74
823.57	14659.28
823.898	14720.74
824.225	14578.6
824.553	14604.14
824.88	14571.14
825.207	14604.14
825.535	14553.97
825.862	14655.43
826.189	14511.03
826.516	14676.9
826.843	14649.78
827.17	14634.87
827.497	14546.74
827.824	14621.76
828.151	14632.61
828.478	14634.19
828.805	14685.26
829.131	14527.53
829.458	14535.21
829.785	14454.31
830.111	14509.67
830.438	14638.71
830.764	14512.84
831.09	14546.96
831.417	14482.33
831.743	14602.78
832.069	14608.66
832.395	14471.48
832.722	14497.92
833.048	14375.67
833.374	14419.73
833.7	14361.43
834.026	14356.68
834.351	14431.94
834.677	14340.19
835.003	14440.52
835.329	14429.23
835.654	14356.68
835.98	14327.31
836.306	14235.56
836.631	14295.44
836.956	14276.46
837.282	14294.77
837.607	14286.86
837.932	14145.16
838.258	14215.22
838.583	14125.05
838.908	14161.66
839.233	14084.15
839.558	14166.63
839.883	13980.42
840.208	13931.39
840.533	13982.01
840.858	13908.56
841.182	13918.5
841.507	13940.2
841.832	13836.25
842.156	13855.45
842.481	13729.58
842.805	13729.36
843.13	13737.94
843.454	13721.67
843.778	13616.37
844.103	13634.9
844.427	13627.44
844.751	13683.93
845.075	13634.44
845.399	13516.25
845.723	13419.08
846.047	13492.98
846.371	13438.97
846.695	13372.53
847.019	13299.31
847.343	13229.26
847.666	13078.07
847.99	13089.15
848.313	13061.8
848.637	12940.22
848.96	12979.32
849.284	12914.01
849.607	12815.71
849.931	12845.76
850.254	12677.86
850.577	12664.53
850.9	12525.55
851.223	12568.03
851.546	12546.56
851.869	12414.59
852.192	12514.7
852.515	12387.24
852.838	12319.9
853.161	12288.72
853.483	12257.53
853.806	12174.82
854.129	12222.96
854.451	12157.65
854.774	12091.89
855.096	12125.1
855.419	12062.06
855.741	11927.14
856.063	11947.03
856.385	11926.69
856.708	11858.67
857.03	11802.18
857.352	11828.39
857.674	11769.63
857.996	11703.2
858.318	11547.94
858.64	11645.12
858.961	11582.52
859.283	11599.02
859.605	11531
859.926	11623.2
860.248	11532.13
860.57	11438.12
860.891	11553.37
861.212	11389.98
861.534	11384.79
861.855	11343.88
862.176	11328.97
862.498	11317.67
862.819	11345.69
863.14	11286.71
863.461	11213.26
863.782	11173.04
864.103	11179.37
864.424	11128.29
864.745	11241.06
865.065	11113.61
865.386	11088.97
865.707	11116.54
866.027	11135.75
866.348	11032.7
866.668	11084
866.989	10983.89
867.309	10962.65
867.63	10949.32
867.95	10928.07
868.27	10830.9
868.59	10908.41
868.91	10870.22
869.23	10883.56
869.55	10844.91
869.87	10875.42
870.19	10825.03
870.51	10814.86
870.83	10853.73
871.15	10730.11
871.469	10753.39
871.789	10745.48
872.109	10784.8
872.428	10683.79
872.748	10679.95
873.067	10681.08
873.386	10621.64
873.706	10607.86
874.025	10605.14
874.344	10564.92
874.663	10583.9
874.982	10614.86
875.301	10555.65
875.62	10494.64
875.939	10437.01
876.258	10478.82
876.577	10405.15
876.896	10425.04
877.214	10399.27
877.533	10433.62
877.852	10408.54
878.17	10436.11
878.489	10364.25
878.807	10393.4
879.125	10289.22
879.444	10330.8
879.762	10273.4
880.08	10262.33
880.398	10214.87
880.716	10258.26
881.034	10191.6
881.352	10243.8
881.67	10104.82
881.988	10176.46
882.306	10109.11
882.624	10065.72
882.941	10018.27
883.259	10010.36
883.577	9981.43
883.894	10006.06
884.212	9973.75
884.529	9944.82
884.846	9914.77
885.164	9917.48
885.481	9842.91
885.798	9923.35
886.115	9816.92
886.432	9779.86
886.75	9819.85
887.067	9888.55
887.383	9701.89
887.7	9811.72
888.017	9712.74
888.334	9694.43
888.651	9744.83
888.967	9687.43
889.284	9596.81
889.6	9533.76
889.917	9514.55
890.233	9484.04
890.55	9504.83
890.866	9486.98
891.182	9468
891.498	9414.22
891.815	9419.19
892.131	9335.35
892.447	9397.72
892.763	9316.59
893.079	9282.47
893.395	9274.78
893.71	9158.4
894.026	9199.31
894.342	9216.93
894.657	9124.96
894.973	9065.75
895.289	9150.49
895.604	9099.65
895.92	9008.8
896.235	9007.45
896.55	8989.82
896.865	8965.19
897.181	8922.7
897.496	8917.05
897.811	8922.93
898.126	8844.06
898.441	8793.89
898.756	8786.44
899.071	8744.18
899.386	8739.21
899.7	8647.68
900.015	8602.03
900.33	8584.41
900.644	8534.69
900.959	8568.14
901.273	8538.76
901.588	8428.03
901.902	8402.49
902.216	8390.97
902.531	8377.41
902.845	8359.33
903.159	8325.2
903.473	8251.76
903.787	8227.13
904.101	8234.36
904.415	8211.08
904.729	8181.93
905.042	8119.79
905.356	8114.59
905.67	8141.93
905.984	8045.66
906.297	7996.85
906.611	7995.5
906.924	7977.19
907.237	7948.72
907.551	7915.05
907.864	7769.06
908.177	7833.69
908.491	7812
908.804	7801.83
909.117	7750.53
909.43	7620.82
909.743	7593.92
910.056	7658.56
910.368	7620.82
910.681	7554.15
910.994	7548.95
911.307	7449.52
911.619	7471.67
911.932	7419.01
912.244	7428.51
912.557	7413.59
912.869	7393.93
913.181	7394.16
913.494	7289.98
913.806	7244.1
914.118	7274.38
914.43	7217.66
914.742	7199.36
915.054	7214.27
915.366	7140.38
915.678	7140.6
915.99	7092.92
916.302	7070.32
916.613	7061.28
916.925	6974.73
917.236	6950.1
917.548	6949.2
917.859	6915.52
918.171	6951
918.482	6891.57
918.794	6853.61
919.105	6864
919.416	6730.22
919.727	6754.62
920.038	6719.15
920.349	6676.89
920.66	6630.33
920.971	6650.45
921.282	6641.86
921.593	6579.49
921.903	6595.76
922.214	6565.03
922.525	6499.94
922.835	6405.26
923.146	6408.19
923.456	6426.95
923.767	6338.36
924.077	6349.44
924.387	6345.82
924.697	6304.24
925.008	6286.16
925.318	6214.98
925.628	6248.65
925.938	6172.04
926.248	6152.38
926.558	6165.49
926.867	6092.5
927.177	6122.1
927.487	6047.07
927.796	5959.39
928.106	6009.79
928.416	6030.58
928.725	5937.7
929.034	5917.36
929.344	5902.44
929.653	5904.48
929.962	5843.24
930.271	5820.86
930.581	5773.63
930.89	5781.77
931.199	5728.21
931.508	5744.48
931.817	5658.38
932.125	5687.53
932.434	5715.33
932.743	5599.4
933.051	5626.52
933.36	5563.92
933.669	5530.02
933.977	5535.9
934.286	5537.26
934.594	5530.25
934.902	5473.3
935.21	5429.46
935.519	5423.81
935.827	5429.01
936.135	5374.32
936.443	5312.4
936.751	5323.93
937.059	5323.25
937.367	5315.57
937.674	5271.95
937.982	5257.04
938.29	5189.02
938.597	5245.29
938.905	5181.56
939.213	5142.92
939.52	5132.97
939.827	5143.59
940.135	5150.83
940.442	5055.69
940.749	5057.49
941.056	5017.5
941.363	4991.06
941.67	4928.23
941.977	4993.77
942.284	4916.03
942.591	4896.37
942.898	4864.28
943.205	4867.22
943.511	4869.48
943.818	4835.35
944.125	4795.13
944.431	4807.33
944.738	4757.84
945.044	4785.64
945.35	4722.81
945.657	4694.79
945.963	4708.8
946.269	4629.03
946.575	4659.09
946.881	4658.41
947.187	4616.15
947.493	4567.56
947.799	4561.91
948.105	4561.01
948.41	4513.55
948.716	4540.9
949.022	4498.64
949.327	4493.44
949.633	4463.16
949.938	4444.85
950.244	4413.9
950.549	4422.26
950.854	4365.99
951.16	4345.65
951.465	4370.05
951.77	4299.77
952.075	4296.16
952.38	4285.09
952.685	4273.56
952.99	4271.98
953.294	4220.23
953.599	4168.48
953.904	4207.8
954.209	4150.4
954.513	4175.71
954.818	4153.79
955.122	4128.7
955.426	4090.74
955.731	4090.06
956.035	4082.6
956.339	4029.05
956.643	4056.62
956.948	4066.11
957.252	4013.91
957.556	3991.76
957.86	4005.54
958.163	3950.63
958.467	3934.81
958.771	3920.35
959.075	3925.55
959.378	3849.16
959.682	3869.28
959.985	3840.35
960.289	3835.38
960.592	3821.14
960.896	3770.3
961.199	3776.85
961.502	3773.01
961.805	3765.1
962.108	3703.18
962.411	3737.53
962.714	3712.22
963.017	3696.63
963.32	3679.23
963.623	3665.44
963.926	3607.14
964.228	3630.19
964.531	3600.58
964.833	3581.6
965.136	3543.18
965.438	3550.19
965.741	3550.19
966.043	3532.11
966.345	3532.34
966.648	3518.55
966.95	3495.5
967.252	3494.15
967.554	3477.2
967.856	3436.75
968.158	3408.72
968.46	3415.05
968.761	3400.81
969.063	3386.13
969.365	3370.53
969.666	3354.04
969.968	3329.86
970.269	3312.91
970.571	3279.24
970.872	3276.3
971.174	3286.24
971.475	3259.12
971.776	3259.58
972.077	3254.6
972.378	3237.88
972.679	3246.92
972.98	3217.09
973.281	3197.43
973.582	3144.55
973.883	3143.42
974.183	3116.75
974.484	3142.74
974.785	3082.18
975.085	3089.64
975.386	3125.34
975.686	3065
975.986	3068.39
976.287	3041.28
976.587	3041.28
976.887	2991.56
977.187	3032.24
977.487	2978
977.787	2961.96
978.087	2975.74
978.387	2991.79
978.687	2958.34
978.987	2910.43
979.286	2923.54
979.586	2912.69
979.885	2868.63
980.185	2867.27
980.484	2879.25
980.784	2879.92
981.083	2820.04
981.382	2820.72
981.682	2806.93
981.981	2800.83
982.28	2809.19
982.579	2783.43
982.878	2782.53
983.177	2767.38
983.475	2715.63
983.774	2716.54
984.073	2713.37
984.372	2707.27
984.67	2680.38
984.969	2691.91
985.267	2663.66
985.566	2660.72
985.864	2666.37
986.162	2622.53
986.461	2610.1
986.759	2612.81
987.057	2594.51
987.355	2545.24
987.653	2554.96
987.951	2584.79
988.249	2553.61
988.547	2569.42
988.844	2539.59
989.142	2542.98
989.44	2501.63
989.737	2507.05
990.035	2493.27
990.332	2505.02
990.63	2455.53
990.927	2446.94
991.224	2431.35
991.521	2422.99
991.819	2454.62
992.116	2430.22
992.413	2394.06
992.71	2404.23
993.006	2392.48
993.303	2357.9
993.6	2367.62
993.897	2347.96
994.193	2307.06
994.49	2317.68
994.787	2316.78
995.083	2314.29
995.379	2279.04
995.676	2264.35
995.972	2271.8
996.268	2264.12
996.565	2208.08
996.861	2236.78
997.157	2219.83
997.453	2205.59
997.749	2227.96
998.044	2191.35
998.34	2178.7
998.636	2190.22
998.932	2145.71
999.227	2115.2
999.523	2154.07
999.818	2106.84
1000.114	2120.85
1000.409	2085.82
1000.704	2093.05
1001	2113.84
1001.295	2077.46
1001.59	2072.49
1001.885	2048.76
1002.18	2034.97
1002.475	2016.44
1002.77	2001.08
1003.065	1995.88
1003.359	1956.56
1003.654	2007.86
1003.949	1947.07
1004.243	1960.63
1004.538	1950.91
1004.832	1985.94
1005.127	1955.65
1005.421	1917.46
1005.715	1910.46
1006.009	1908.88
1006.304	1866.84
1006.598	1888.31
1006.892	1884.92
1007.186	1837.24
1007.48	1867.52
1007.773	1819.61
1008.067	1810.57
1008.361	1798.14
1008.655	1798.6
1008.948	1796.79
1009.242	1783.46
1009.535	1799.73
1009.829	1748.2
1010.122	1766.06
1010.415	1732.61
1010.708	1744.81
1011.001	1730.8
1011.295	1706.85
1011.588	1685.15
1011.881	1714.08
1012.173	1680.63
1012.466	1668.66
1012.759	1667.53
1013.052	1663.46
1013.344	1645.38
1013.637	1637.47
1013.93	1623.23
1014.222	1600.41
1014.514	1616.45
1014.807	1600.86
1015.099	1562.44
1015.391	1589.56
1015.683	1619.84
1015.976	1559.28
1016.268	1547.53
1016.56	1530.36
1016.851	1552.05
1017.143	1517.25
1017.435	1534.2
1017.727	1529.68
1018.018	1515.67
1018.31	1469.11
1018.602	1480.87
1018.893	1475.67
1019.185	1457.81
1019.476	1446.97
1019.767	1466.18
1020.058	1411.49
1020.35	1406.29
1020.641	1425.95
1020.932	1444.03
1021.223	1392.05
1021.514	1378.72
1021.804	1370.81
1022.095	1369.23
1022.386	1382.34
1022.677	1353.86
1022.967	1354.77
1023.258	1361.09
1023.548	1319.97
1023.839	1327.42
1024.129	1291.72
1024.419	1288.1
1024.709	1291.49
1025	1313.19
1025.29	1274.54
1025.58	1267.09
1025.87	1251.27
1026.16	1252.62
1026.449	1273.19
1026.739	1231.83
1027.029	1274.32
1027.319	1248.1
1027.608	1212.17
1027.898	1218.95
1028.187	1215.56
1028.477	1193.19
1028.766	1188.9
1029.055	1199.52
1029.344	1150.93
1029.634	1181.21
1029.923	1178.05
1030.212	1184.15
1030.501	1143.47
1030.79	1142.12
1031.078	1112.74
1031.367	1093.76
1031.656	1139.18
1031.945	1104.38
1032.233	1125.17
1032.522	1100.08
1032.81	1115.45
1033.099	1070.03
1033.387	1084.49
1033.675	1058.96
1033.963	1033.19
1034.251	1048.11
1034.54	1027.54
1034.828	1027.54
1035.116	1011.05
1035.403	1024.61
1035.691	1005.17
1035.979	1013.53
1036.267	1001.1
1036.554	992.97
1036.842	973.08
1037.129	989.35
1037.417	963.82
1037.704	961.56
1037.992	964.04
1038.279	968.11
1038.566	932.86
1038.853	932.86
1039.14	932.86
