Data from hue_350_FLMS001491_52.txt Node
Date: Mon Feb 06 15:38:12 GMT 2017
User: dcchb
Spectrometer: FLMS00149
Trigger mode: 0
Integration Time (sec): 2.000000E-2
Scans to average: 10
Electric dark correction enabled: true
Nonlinearity correction enabled: false
Boxcar width: 0
XAxis mode: Wavelengths
Number of Pixels in Spectrum: 2048
>>>>>Begin Spectral Data<<<<<
341.393	-29.46
341.776	-29.46
342.16	-29.46
342.543	-50.48
342.927	-64.49
343.31	-69.91
343.693	-87.31
344.077	-72.63
344.46	-62.46
344.843	-67.43
345.226	-33.3
345.61	-24.72
345.993	-5.28
346.376	2.4
346.759	8.73
347.142	20.93
347.525	47.15
347.908	56.18
348.291	75.85
348.674	91.21
349.057	120.59
349.44	117.43
349.823	146.8
350.206	163.3
350.588	198.78
350.971	205.33
351.354	222.06
351.737	258.44
352.119	229.74
352.502	251.66
352.884	282.17
353.267	281.49
353.65	302.28
354.032	288.95
354.414	291.21
354.797	309.51
355.179	315.39
355.562	317.2
355.944	309.51
356.326	345.67
356.709	339.12
357.091	354.03
357.473	358.55
357.855	352.9
358.238	335.73
358.62	344.54
359.002	345.22
359.384	319.68
359.766	346.57
360.148	337.53
360.53	342.05
360.912	327.36
361.294	325.56
361.676	327.36
362.057	333.92
362.439	333.47
362.821	334.14
363.203	323.52
363.584	314.26
363.966	314.71
364.348	324.43
364.729	327.14
365.111	310.19
365.493	312.45
365.874	320.58
366.256	338.21
366.637	297.99
367.019	291.88
367.4	321.71
367.781	326.46
368.163	312.45
368.544	309.06
368.925	308.83
369.306	311.55
369.688	309.29
370.069	305.67
370.45	321.04
370.831	291.66
371.212	307.25
371.593	301.38
371.974	313.81
372.355	315.39
372.736	312.22
373.117	299.34
373.498	323.07
373.879	292.11
374.26	328.27
374.641	323.52
375.021	317.65
375.402	326.46
375.783	347.7
376.163	314.94
376.544	335.95
376.925	330.3
377.305	334.37
377.686	311.32
378.066	307.48
378.447	328.04
378.827	297.76
379.208	319.91
379.588	320.58
379.968	321.04
380.349	323.52
380.729	316.74
381.109	313.13
381.489	331.66
381.87	324.43
382.25	331.43
382.63	351.09
383.01	334.82
383.39	316.07
383.77	344.76
384.15	333.24
384.53	327.14
384.91	341.15
385.29	359.45
385.67	337.08
386.049	357.65
386.429	344.09
386.809	349.28
387.189	336.18
387.568	366.23
387.948	337.76
388.328	330.08
388.707	329.4
389.087	349.96
389.466	339.57
389.846	342.05
390.225	352.45
390.605	338.21
390.984	373.69
391.363	358.32
391.743	351.54
392.122	371.43
392.501	357.65
392.881	352.67
393.26	364.2
393.639	352
394.018	364.2
394.397	367.14
394.776	367.82
395.155	355.16
395.534	374.37
395.913	343.86
396.292	353.13
396.671	353.58
397.05	377.08
397.429	361.49
397.808	370.53
398.186	371.43
398.565	370.3
398.944	373.69
399.323	354.26
399.701	396.29
400.08	358.1
400.458	373.24
400.837	376.63
401.215	413.69
401.594	354.26
401.972	390.19
402.351	376.63
402.729	399.23
403.107	391.77
403.486	410.75
403.864	404.42
404.242	409.4
404.62	399.23
404.999	401.26
405.377	417.76
405.755	386.12
406.133	392.45
406.511	388.83
406.889	394.71
407.267	411.2
407.645	410.3
408.023	420.47
408.401	411.43
408.779	411.2
409.156	428.15
409.534	429.73
409.912	427.02
410.29	421.15
410.667	434.25
411.045	440.36
411.422	428.15
411.8	444.88
412.178	446.23
412.555	437.87
412.933	447.59
413.31	445.1
413.687	458.89
414.065	458.66
414.442	438.1
414.819	483.97
415.197	475.83
415.574	475.16
415.951	497.76
416.328	491.65
416.705	462.95
417.082	479
417.46	478.09
417.837	493.69
418.214	500.24
418.591	503.63
418.967	502.05
419.344	501.82
419.721	511.31
420.098	502.27
420.475	509.73
420.852	495.5
421.228	505.21
421.605	537.08
421.982	525.78
422.358	514.03
422.735	530.75
423.111	519.45
423.488	516.96
423.864	533.69
424.241	565.55
424.617	528.26
424.994	554.48
425.37	538.88
425.746	538.66
426.123	571.65
426.499	568.49
426.875	575.04
427.251	572.78
427.627	584.08
428.003	575.27
428.379	585.44
428.756	581.37
429.132	590.18
429.507	589.96
429.883	584.98
430.259	605.1
430.635	601.26
431.011	619.56
431.387	635.38
431.763	626.57
432.138	622.95
432.514	632.67
432.89	627.7
433.265	645.77
433.641	645.32
434.016	659.78
434.392	661.59
434.767	662.72
435.143	651.42
435.518	660.01
435.894	654.14
436.269	673.12
436.644	686.9
437.02	706.79
437.395	667.47
437.77	719.44
438.145	712.66
438.52	729.84
438.895	728.94
439.271	721.48
439.646	737.07
440.021	718.09
440.395	749.95
440.77	725.32
441.145	723.74
441.52	752.66
441.895	750.18
442.27	745.66
442.645	774.13
443.019	772.55
443.394	753.57
443.769	762.61
444.143	778.2
444.518	780.91
444.892	771.19
445.267	768.03
445.641	773.91
446.016	769.16
446.39	798.54
446.764	783.62
447.139	784.08
447.513	787.92
447.887	769.61
448.262	805.32
448.636	793.57
449.01	803.51
449.384	809.16
449.758	807.13
450.132	841.02
450.506	826.33
450.88	819.55
451.254	824.53
451.628	833.57
452.002	836.73
452.376	850.74
452.75	849.84
453.123	844.64
453.497	855.71
453.871	881.02
454.244	891.42
454.618	888.71
454.992	919.89
455.365	882.15
455.739	906.33
456.112	925.99
456.486	940.91
456.859	911.76
457.232	957.63
457.606	945.2
457.979	926.9
458.352	949.49
458.725	955.82
459.099	961.47
459.472	970.51
459.845	987.01
460.218	987.46
460.591	987.01
460.964	1001.02
461.337	1000.34
461.71	1057.06
462.083	1037.18
462.456	1042.37
462.829	1035.82
463.201	1030.85
463.574	1070.4
463.947	1091.86
464.32	1093.45
464.692	1094.58
465.065	1100.9
465.438	1114.01
465.81	1132.31
466.183	1132.31
466.555	1148.81
466.928	1159.43
467.3	1172.99
467.672	1205.53
468.045	1225.19
468.417	1182.48
468.789	1231.75
469.161	1208.92
469.534	1255.7
469.906	1268.13
470.278	1278.07
470.65	1308.81
471.022	1315.59
471.394	1321.91
471.766	1325.53
472.138	1386.55
472.51	1387.68
472.882	1403.04
473.253	1429.03
473.625	1445.07
473.997	1417.05
474.369	1450.05
474.74	1485.53
475.112	1507.67
475.484	1525.75
475.855	1531.85
476.227	1560.78
476.598	1623.83
476.97	1628.35
477.341	1659.98
477.713	1690.72
478.084	1684.16
478.455	1708.8
478.827	1741.11
479.198	1777.04
479.569	1815.46
479.94	1818.62
480.311	1866.53
480.682	1906.98
481.053	1952.63
481.424	1971.39
481.795	1974.1
482.166	2010.26
482.537	2063.82
482.908	2082.35
483.279	2120.31
483.65	2190.37
484.021	2165.96
484.391	2218.84
484.762	2230.82
485.133	2253.19
485.503	2275.34
485.874	2360.53
486.244	2353.53
486.615	2427.87
486.985	2420.87
487.356	2481.43
487.726	2519.17
488.097	2536.12
488.467	2577.02
488.837	2654.08
489.207	2654.53
489.578	2676
489.948	2716
490.318	2713.29
490.688	2721.43
491.058	2796.9
491.428	2826.28
491.798	2840.97
492.168	2928.65
492.538	2888.43
492.908	2967.29
493.278	3022.21
493.648	2998.25
494.017	3045.26
494.387	3085.03
494.757	3086.61
495.126	3145.37
495.496	3110.34
495.866	3233.28
496.235	3179.94
496.605	3238.47
496.974	3261.52
497.344	3315.99
497.713	3246.38
498.082	3335.42
498.452	3394.63
498.821	3371.35
499.19	3362.54
499.559	3427.17
499.928	3402.54
500.298	3455.87
500.667	3495.19
501.036	3459.49
501.405	3555.08
501.774	3511.69
502.143	3550.33
502.512	3551.46
502.88	3602.76
503.249	3587.39
503.618	3612.93
503.987	3656.99
504.356	3666.03
504.724	3671.46
505.093	3709.42
505.462	3727.27
505.83	3686.37
506.199	3736.09
506.567	3793.26
506.936	3741.06
507.304	3833.94
507.672	3812.7
508.041	3812.7
508.409	3879.36
508.777	3847.72
509.145	3871.45
509.514	3913.71
509.882	3906.03
510.25	3925.69
510.618	3957.78
510.986	3920.49
511.354	3973.6
511.722	3973.6
512.09	4075.29
512.458	4027.83
512.826	4032.13
513.193	4059.47
513.561	4039.81
513.929	4088.4
514.297	4135.4
514.664	4118.23
515.032	4081.16
515.4	4126.13
515.767	4125
516.135	4166.81
516.502	4174.04
516.869	4215.62
517.237	4179.69
517.604	4177.88
517.972	4260.14
518.339	4258.79
518.706	4259.01
519.073	4255.62
519.44	4302.63
519.808	4270.54
520.175	4300.59
520.542	4386.69
520.909	4348.95
521.276	4330.65
521.643	4376.52
522.009	4411.78
522.376	4421.49
522.743	4418.1
523.11	4454.94
523.477	4513.02
523.843	4523.64
524.21	4552.79
524.577	4559.8
524.943	4543.3
525.31	4570.42
525.676	4590.3
526.043	4662.62
526.409	4626.69
526.776	4715.95
527.142	4705.33
527.508	4778.09
527.874	4813.57
528.241	4804.53
528.607	4812.44
528.973	4860.58
529.339	4815.38
529.705	4874.14
530.071	4922.27
530.437	4903.29
530.803	4935.38
531.169	4943.29
531.535	4985.32
531.901	4987.13
532.267	5009.73
532.632	5034.59
532.998	5023.29
533.364	5063.28
533.73	5101.93
534.095	5068.26
534.461	5163.4
534.826	5138.31
535.192	5157.97
535.557	5210.63
535.923	5232.32
536.288	5267.8
536.653	5269.83
537.019	5207.91
537.384	5272.54
537.749	5278.19
538.114	5345.54
538.479	5338.31
538.845	5383.5
539.21	5415.14
539.575	5410.17
539.94	5448.59
540.305	5475.03
540.67	5503.5
541.034	5418.08
541.399	5513.22
541.764	5580.79
542.129	5573.78
542.494	5544.4
542.858	5579.66
543.223	5639.31
543.587	5616.26
543.952	5647.68
544.316	5679.31
544.681	5674.34
545.045	5675.25
545.41	5738.3
545.774	5746.88
546.138	5764.96
546.503	5831.4
546.867	5838.41
547.231	5845.19
547.595	5854.22
547.959	5870.95
548.324	5901.45
548.688	5938.06
549.052	5926.31
549.416	5977.84
549.779	6005.63
550.143	6013.99
550.507	6043.15
550.871	6046.08
551.235	6054.45
551.599	6132.18
551.962	6133.77
552.326	6128.79
552.689	6189.36
553.053	6148.91
553.417	6171.28
553.78	6248.56
554.143	6197.04
554.507	6219.41
554.87	6268.9
555.234	6343.48
555.597	6277.94
555.96	6323.82
556.323	6348.9
556.686	6317.26
557.05	6344.38
557.413	6377.15
557.776	6397.26
558.139	6444.04
558.502	6487.65
558.865	6410.37
559.228	6502.12
559.59	6529.91
559.953	6508.22
560.316	6602.45
560.679	6581.21
561.041	6623.24
561.404	6674.09
561.767	6651.49
562.129	6637.25
562.492	6744.82
562.854	6693.07
563.217	6688.1
563.579	6760.19
563.941	6759.29
564.304	6790.7
564.666	6860.75
565.028	6823.01
565.39	6851.03
565.753	6929.45
566.115	6906.17
566.477	6932.84
566.839	6957.47
567.201	7002.89
567.563	7005.15
567.925	7026.4
568.287	7063.68
568.648	7063.46
569.01	7136.22
569.372	7182.78
569.734	7180.52
570.095	7223.68
570.457	7254.19
570.819	7248.54
571.18	7293.06
571.542	7358.37
571.903	7325.15
572.265	7354.3
572.626	7415.54
572.987	7501.64
573.349	7463
573.71	7548.64
574.071	7587.06
574.432	7642.2
574.794	7698.24
575.155	7780.95
575.516	7735.76
575.877	7856.66
576.238	7922.64
576.599	7983.43
576.96	8038.12
577.32	8073.6
577.681	8174.62
578.042	8203.32
578.403	8313.37
578.763	8412.58
579.124	8519.24
579.485	8587.94
579.845	8674.26
580.206	8752
580.566	8873.58
580.927	9002.84
581.287	9151.99
581.648	9249.62
582.008	9385.43
582.368	9444.41
582.728	9546.33
583.089	9747
583.449	9925.08
583.809	10126.88
584.169	10201.91
584.529	10357.61
584.889	10555.8
585.249	10763.93
585.609	10904.04
585.969	11149.68
586.329	11313.29
586.688	11498.6
587.048	11650.23
587.408	11916.66
587.768	12162.31
588.127	12442.07
588.487	12597.1
588.846	12851.55
589.206	12954.15
589.565	13299
589.925	13555.49
590.284	13797.97
590.643	14019.66
591.003	14362.93
591.362	14659.19
591.721	14911.84
592.08	15116.58
592.44	15464.82
592.799	15767.64
593.158	15958.59
593.517	16313.61
593.876	16549.99
594.235	16969.64
594.593	17178.45
594.952	17524.65
595.311	17739.11
595.67	18019.55
596.029	18409.83
596.387	18707.45
596.746	19026.31
597.104	19161.45
597.463	19512.62
597.822	19828.77
598.18	20151.25
598.538	20438.93
598.897	20766.15
599.255	21066.71
599.613	21599.35
599.972	21615.39
600.33	22052.44
600.688	22280.23
601.046	22551.64
601.404	22939.43
601.762	23162.7
602.12	23528.34
602.478	23783.92
602.836	24073.63
603.194	24221.43
603.552	24604.92
603.91	24764.69
604.268	25125.81
604.625	25317.44
604.983	25631.33
605.341	25796.98
605.698	26241.26
606.056	26464.3
606.413	26751.53
606.771	27055.48
607.128	27276.71
607.485	27390.61
607.843	27659.75
608.2	27949.01
608.557	28277.82
608.914	28408.43
609.272	28721.19
609.629	28967.06
609.986	29262.42
610.343	29208.41
610.7	29685.24
611.057	29948.28
611.414	29993.48
611.771	30127.03
612.127	30569.51
612.484	30745.1
612.841	30972.43
613.198	31040.91
613.554	31174.69
613.911	31569.25
614.267	31575.58
614.624	31832.98
614.98	31992.52
615.337	32384.15
615.693	32265.28
616.05	32438.61
616.406	32870.46
616.762	32826.4
617.118	32902.78
617.475	33017.35
617.831	33426.61
618.187	33547.06
618.543	33648.75
618.899	34006.93
619.255	33944.33
619.611	33969.87
619.967	34347.26
620.323	34479.46
620.678	34450.31
621.034	34558.1
621.39	34739.57
621.746	34673.13
622.101	35153.34
622.457	35004.42
622.812	35214.13
623.168	35388.36
623.523	35478.08
623.879	35561.47
624.234	35416.39
624.589	35605.98
624.945	35655.02
625.3	35820.89
625.655	35995.35
626.01	35870.38
626.365	36018.4
626.72	36064.96
627.075	36134.56
627.43	36293.88
627.785	36272.41
628.14	36413.87
628.495	36379.98
628.85	36542.01
629.205	36391.5
629.559	36777.71
629.914	36552.17
630.269	36718.05
630.623	36628.56
630.978	36582
631.332	36889.79
631.687	36907.19
632.041	36817.48
632.396	36925.05
632.75	36856.35
633.104	36834.65
633.459	36804.6
633.813	36833.07
634.167	36863.13
634.521	36706.29
634.875	36824.03
635.229	36912.17
635.583	36737.93
635.937	36836.91
636.291	36801.89
636.645	36895.44
636.999	36884.6
637.352	37006.85
637.706	36662.68
638.06	36850.7
638.413	36895.22
638.767	36721.66
639.121	36963.92
639.474	36760.76
639.828	36849.57
640.181	36835.1
640.534	36916.23
640.888	36837.82
641.241	36744.49
641.594	36840.75
641.947	36818.83
642.301	36789.68
642.654	36744.26
643.007	36739.97
643.36	36822.45
643.713	36755.78
644.066	36765.5
644.419	36674.88
644.771	36410.03
645.124	36057.5
645.477	36104.28
645.83	35836.71
646.182	35699.32
646.535	35769.6
646.888	35762.82
647.24	35596.04
647.593	35608.47
647.945	35685.3
648.298	35467.46
648.65	35535.7
649.002	35535.93
649.355	35560.56
649.707	35441.24
650.059	35643.27
650.411	36149.25
650.763	36098.18
651.115	36561.89
651.467	36516.7
651.819	36399.64
652.171	36378.39
652.523	36276.02
652.875	36367.55
653.227	36026.76
653.578	36333.2
653.93	36189.02
654.282	36231.96
654.633	35953.09
654.985	36094.56
655.337	36183.14
655.688	36141.56
656.039	36206.19
656.391	36032.87
656.742	35955.35
657.094	36027.44
657.445	36178.4
657.796	36034
658.147	36033.09
658.498	35947.67
658.849	36095.01
659.2	35984.05
659.551	35957.39
659.902	36150.38
660.253	36008.69
660.604	36150.38
660.955	36005.75
661.306	36078.29
661.656	35979.08
662.007	35946.09
662.358	35965.98
662.708	35960.55
663.059	35954.68
663.409	35824.06
663.76	36008.01
664.11	36003.71
664.461	35993.09
664.811	35944.51
665.161	35979.53
665.511	35829.03
665.862	35954.9
666.212	35955.81
666.562	36031.06
666.912	35815.7
667.262	35840.55
667.612	35882.14
667.962	35898.41
668.312	35815.02
668.662	35979.53
669.011	35914
669.361	35714.23
669.711	35781.57
670.06	35761.91
670.41	35753.55
670.76	35734.57
671.109	35860.67
671.459	35810.05
671.808	35741.57
672.157	35803.72
672.507	35620.9
672.856	35654.8
673.205	35612.54
673.554	35772.08
673.904	35670.16
674.253	35748.58
674.602	35714.68
674.951	35055.72
675.3	34963.74
675.649	35635.14
675.998	35290.06
676.346	35424.29
676.695	35657.96
677.044	35355.82
677.393	35437.18
677.741	35506.1
678.09	35396.5
678.438	35234.24
678.787	35513.78
679.135	35386.56
679.484	35041.03
679.832	35321.47
680.181	34944.31
680.529	35350.85
680.877	35086
681.225	35010.75
681.573	35154.25
681.922	35062.95
682.27	34877.64
682.618	35099.33
682.966	34772.56
683.314	34857.3
683.661	34726.01
684.009	34542.74
684.357	34584.54
684.705	34476.52
685.053	34667.25
685.4	34459.12
685.748	34267.94
686.095	34290.99
686.443	34253.03
686.79	34108.85
687.138	34313.36
687.485	34227.49
687.832	34066.14
688.18	34055.74
688.527	33956.54
688.874	33924.45
689.221	33933.03
689.568	33849.87
689.915	33719.48
690.262	33709.99
690.609	33526.94
690.956	33515.87
691.303	33444.91
691.65	33450.11
691.997	33407.62
692.344	33161.53
692.69	33197.46
693.037	33215.99
693.383	32843.12
693.73	33001.31
694.077	32873.63
694.423	32835.66
694.769	32748.66
695.116	32459.85
695.462	32655.55
695.808	32382.79
696.155	32436.35
696.501	32289.46
696.847	32260.99
697.193	31926.76
697.539	32084.72
697.885	31753.43
698.231	31882.69
698.577	31869.59
698.923	31664.85
699.269	31552.53
699.614	31376.04
699.96	31428.69
700.306	31588.24
700.651	31357.73
700.997	31223.73
701.342	31101.47
701.688	31157.74
702.033	30903.28
702.379	31118.19
702.724	30830.52
703.069	30883.85
703.415	30678.2
703.76	30555.04
704.105	30638.66
704.45	30535.84
704.795	30344.65
705.14	30351.66
705.485	30235.96
705.83	30185.11
706.175	30226.92
706.52	30130.2
706.865	29977.21
707.209	29887.94
707.554	29903.99
707.899	29961.61
708.243	29610.66
708.588	29710.09
708.932	29596.88
709.277	29561.85
709.621	29580.15
709.966	29384.45
710.31	29367.28
710.654	29154.85
710.998	29345.81
711.342	29218.81
711.687	29060.17
712.031	29057.23
712.375	28939.95
712.719	28884.58
713.063	28875.31
713.407	28971.36
713.75	28840.74
714.094	28848.87
714.438	28582.21
714.782	28680.29
715.125	28501.09
715.469	28534.08
715.812	28348.32
716.156	28257.7
716.499	28287.99
716.843	28359.4
717.186	28069.46
717.53	28224.71
717.873	28285.5
718.216	28095.9
718.559	28013.87
718.902	27772.52
719.246	28031.95
719.589	27818.62
719.932	27670.15
720.275	27761.67
720.617	27816.36
720.96	27643.26
721.303	27582.47
721.646	27589.47
721.989	27482.13
722.331	27557.16
722.674	27528
723.016	27504.5
723.359	27490.04
723.701	27508.57
724.044	27179.09
724.386	27157.85
724.729	27245.07
725.071	27244.85
725.413	27118.98
725.755	27020
726.097	26960.34
726.439	26775.26
726.782	26911.98
727.124	26920.79
727.465	26787.23
727.807	26865.2
728.149	26742.26
728.491	26692.32
728.833	26749.72
729.175	26557.86
729.516	26567.58
729.858	26470.63
730.199	26572.78
730.541	26405.77
730.882	26497.98
731.224	26569.16
731.565	26269.96
731.906	26230.64
732.248	26298.88
732.589	26197.87
732.93	26118.55
733.271	26092.34
733.612	26197.87
733.953	26159
734.294	25987.93
734.635	25957.42
734.976	26054.6
735.317	25801.04
735.658	25979.8
735.999	25912.45
736.339	25812.34
736.68	25877.65
737.021	25753.81
737.361	25707.04
737.702	25804.89
738.042	25735.74
738.383	25623.87
738.723	25709.97
739.063	25616.19
739.404	25639.69
739.744	25476.31
740.084	25383.88
740.424	25422.07
740.764	25368.29
741.104	25442.86
741.444	25254.17
741.784	25267.5
742.124	25319.02
742.464	25192.93
742.804	25143.43
743.143	25131.23
743.483	25180.04
743.823	24948.86
744.162	25030.22
744.502	25133.27
744.841	24905.93
745.181	25008.52
745.52	24914.06
745.86	24898.24
746.199	24907.28
746.538	24814.4
746.877	24873.39
747.216	24766.27
747.556	24782.54
747.895	24718.59
748.234	24627.06
748.573	24517.91
748.911	24613.28
749.25	24551.13
749.589	24388.88
749.928	24408.09
750.267	24415.77
750.605	24443.79
750.944	24272.05
751.283	24283.34
751.621	24226.85
751.96	24171.71
752.298	24163.8
752.636	24141.65
752.975	24013.75
753.313	23834.77
753.651	24077.47
753.989	23840.87
754.327	23957.25
754.666	23832.96
755.004	23784.83
755.342	23679.52
755.679	23627.77
756.017	23670.48
756.355	23638.16
756.693	23494.89
757.031	23626.64
757.368	23412.63
757.706	23359.08
758.044	23318.85
758.381	23339.41
758.719	23179.87
759.056	23279.76
759.394	23205.18
759.731	23036.82
760.068	23051.74
760.405	22932.42
760.743	22877.51
761.08	22810.16
761.417	22844.74
761.754	22807
762.091	22613.56
762.428	22730.62
762.765	22369.72
763.102	22518.19
763.438	22416.5
763.775	22354.36
764.112	22266
764.449	22231.2
764.785	22205.89
765.122	21986
765.458	22066.68
765.795	21995.27
766.131	21946.68
766.467	21859
766.804	21734.03
767.14	21689.51
767.476	21537.65
767.812	21531.33
768.148	21536.75
768.485	21383.53
768.821	21411.33
769.157	21189.41
769.492	21238.23
769.828	21198.68
770.164	21113.71
770.5	20962.08
770.836	20868.07
771.171	20819.71
771.507	20857.22
771.842	20625.81
772.178	20650.9
772.513	20496.33
772.849	20511.47
773.184	20433.28
773.519	20344.24
773.855	20320.51
774.19	20287.74
774.525	20127.75
774.86	20082.55
775.195	20090.91
775.53	19946.51
775.865	19856.12
776.2	19731.15
776.535	19714.43
776.87	19657.03
777.205	19570.7
777.539	19489.35
777.874	19505.39
778.209	19382.68
778.543	19338.84
778.878	19217.94
779.212	19204.38
779.547	19032.86
779.881	19183.82
780.215	18943.6
780.55	18983.14
780.884	18881
781.218	18782.47
781.552	18863.6
781.886	18688.24
782.22	18634.68
782.554	18450.28
782.888	18351.98
783.222	18324.86
783.556	18257.97
783.889	18228.36
784.223	17982.49
784.557	18008.48
784.89	18044.64
785.224	17935.94
785.557	17834.47
785.891	17801.48
786.224	17794.25
786.558	17774.59
786.891	17549.28
787.224	17514.71
787.557	17535.27
787.891	17508.61
788.224	17342.28
788.557	17317.2
788.89	17330.31
789.223	17325.79
789.556	17141.61
789.888	17092.12
790.221	17071.1
790.554	16884.67
790.887	16875.18
791.219	16868.4
791.552	16813.71
791.884	16749.76
792.217	16660.49
792.549	16680.61
792.882	16516.54
793.214	16512.48
793.546	16470.67
793.879	16381.63
794.211	16274.29
794.543	16396.09
794.875	16249.66
795.207	16272.48
795.539	16253.73
795.871	16235.19
796.203	16044.01
796.535	15987.07
796.867	15878.59
797.198	15915.43
797.53	15882.21
797.862	15678.37
798.193	15809.22
798.525	15611.03
798.856	15663.68
799.188	15512.05
799.519	15471.6
799.85	15380.53
800.182	15332.85
800.513	15394.99
800.844	15245.84
801.175	15324.48
801.506	15205.39
801.837	15052.63
802.168	15146.64
802.499	15060.31
802.83	14998.39
803.161	14949.58
803.491	14891.95
803.822	14913.87
804.153	14824.38
804.483	14758.17
804.814	14793.2
805.145	14598.4
805.475	14701.9
805.805	14625.97
806.136	14662.81
806.466	14506.43
806.796	14547.1
807.126	14394.34
807.457	14366.77
807.787	14420.55
808.117	14305.53
808.447	14270.5
808.777	14335.13
809.107	14244.74
809.436	14306.21
809.766	14187.11
810.096	14119.32
810.426	14144.18
810.755	14080.67
811.085	14000
811.414	14018.98
811.744	13871.64
812.073	13980.56
812.403	13858.99
812.732	13778.76
813.061	13815.6
813.39	13709.61
813.719	13788.71
814.049	13737.63
814.378	13692.21
814.707	13674.13
815.036	13580.12
815.365	13536.96
815.693	13426
816.022	13423.74
816.351	13435.27
816.68	13290.41
817.008	13333.58
817.337	13300.58
817.665	13214.26
817.994	13338.55
818.322	13311.66
818.651	13114.6
818.979	13041.61
819.307	13098.78
819.636	13127.71
819.964	13063.3
820.292	13098.33
820.62	12978.33
820.948	13016.07
821.276	13034.83
821.604	12943.53
821.932	13054.71
822.259	13022.17
822.587	13054.26
822.915	12969.07
823.243	12969.97
823.57	12935.62
823.898	12876.41
824.225	12937.65
824.553	12873.7
824.88	12900.14
825.207	12982.62
825.535	12888.84
825.862	12939.46
826.189	12879.12
826.516	12902.63
826.843	12950.54
827.17	12944.21
827.497	12941.5
827.824	12910.08
828.151	13014.49
828.478	12883.42
828.805	12903.98
829.131	12869.41
829.458	12875.51
829.785	12824.44
830.111	12873.48
830.438	13017.2
830.764	12834.61
831.09	12866.02
831.417	12730.2
831.743	12932.46
832.069	12895.62
832.395	12764.55
832.722	12891.1
833.048	12826.7
833.374	12864.66
833.7	12765.46
834.026	12761.84
834.351	12817.21
834.677	12779.69
835.003	12742.86
835.329	12721.61
835.654	12735.63
835.98	12703.54
836.306	12605.23
836.631	12690.88
836.956	12628.28
837.282	12688.4
837.607	12586.02
837.932	12596.42
838.258	12586.93
838.583	12535.63
838.908	12481.62
839.233	12514.61
839.558	12470.55
839.883	12396.65
840.208	12435.52
840.533	12407.95
840.858	12453.37
841.182	12372.7
841.507	12308.29
841.832	12236.66
842.156	12240.5
842.481	12226.71
842.805	12325.69
843.13	12212.02
843.454	12212.7
843.778	12118.01
844.103	12126.38
844.427	12105.36
844.751	12151.01
845.075	12025.59
845.399	11999.83
845.723	11983.1
846.047	11939.94
846.371	11857.68
846.695	11919.15
847.019	11741.53
847.343	11717.57
847.666	11629.67
847.99	11627.41
848.313	11581.98
848.637	11606.16
848.96	11504.02
849.284	11472.38
849.607	11306.06
849.931	11311.71
850.254	11302.22
850.577	11219.51
850.9	11210.24
851.223	11169.57
851.546	11045.73
851.869	10993.98
852.192	11030.59
852.515	10975.22
852.838	10887.99
853.161	10965.73
853.483	10876.69
853.806	10803.92
854.129	10762.57
854.451	10760.76
854.774	10737.03
855.096	10665.17
855.419	10656.81
855.741	10594.89
856.063	10580.43
856.385	10484.39
856.708	10503.14
857.03	10428.79
857.352	10438.74
857.674	10411.62
857.996	10422.47
858.318	10310.83
858.64	10375.46
858.961	10319.87
859.283	10264.28
859.605	10251.4
859.926	10330.72
860.248	10166.2
860.57	10081.91
860.891	10175.01
861.212	10047.33
861.534	10103.83
861.855	10033.55
862.176	10027
862.498	10091.4
862.819	9952.87
863.14	10030.16
863.461	9993.55
863.782	9888.47
864.103	9957.39
864.424	9895.7
864.745	9889.6
865.065	9905.19
865.386	9836.04
865.707	9791.3
866.027	9894.34
866.348	9798.53
866.668	9769.38
866.989	9728.47
867.309	9677.85
867.63	9730.73
867.95	9739.09
868.27	9659.32
868.59	9636.95
868.91	9666.55
869.23	9642.15
869.55	9608.48
869.87	9660.45
870.19	9524.64
870.51	9589.95
870.83	9577.29
871.15	9513.34
871.469	9481.02
871.789	9463.4
872.109	9500
872.428	9435.15
872.748	9492.77
873.067	9478.08
873.386	9465.88
873.706	9399.22
874.025	9337.97
874.344	9323.06
874.663	9427.24
874.982	9337.75
875.301	9318.99
875.62	9333.23
875.939	9299.78
876.258	9353.79
876.577	9255.72
876.896	9245.55
877.214	9258.88
877.533	9262.04
877.852	9220.46
878.17	9205.1
878.489	9229.96
878.807	9220.92
879.125	9148.38
879.444	9135.72
879.762	9096.17
880.08	9131.65
880.398	9067.7
880.716	9084.42
881.034	9050.07
881.352	9083.07
881.67	8983.63
881.988	8956.29
882.306	8995.38
882.624	8995.84
882.941	8954.26
883.259	8896.4
883.577	8860.47
883.894	8865.22
884.212	8829.97
884.529	8891.88
884.846	8810.31
885.164	8814.6
885.481	8752.23
885.798	8757.2
886.115	8729.4
886.432	8770.08
886.75	8722.4
887.067	8684.43
887.383	8596.53
887.7	8757.2
888.017	8587.49
888.334	8648.73
888.651	8530.31
888.967	8539.13
889.284	8480.6
889.6	8514.04
889.917	8455.06
890.233	8461.16
890.55	8431.56
890.866	8448.05
891.182	8387.94
891.498	8351.56
891.815	8339.81
892.131	8275.4
892.447	8300.26
892.763	8241.73
893.079	8189.3
893.395	8171.23
893.71	8204.45
894.026	8127.84
894.342	8136.65
894.657	8124.9
894.973	8070.89
895.289	8057.78
895.604	8107.27
895.92	7975.3
896.235	7966.26
896.55	7982.53
896.865	7902.98
897.181	7936.88
897.496	7937.56
897.811	7905.47
898.126	7848.75
898.441	7814.4
898.756	7773.04
899.071	7742.99
899.386	7736.89
899.7	7681.07
900.015	7669.09
900.33	7629.32
900.644	7570.11
900.959	7570.79
901.273	7558.81
901.588	7554.97
901.902	7442.43
902.216	7454.86
902.531	7420.74
902.845	7421.87
903.159	7356.33
903.473	7361.98
903.787	7375.99
904.101	7307.29
904.415	7299.84
904.729	7274.98
905.042	7218.71
905.356	7185.49
905.67	7185.26
905.984	7190.23
906.297	7213.51
906.611	7087.41
906.924	7101.88
907.237	7070.92
907.551	7049.9
907.864	7028.66
908.177	6964.25
908.491	6975.78
908.804	6915.89
909.117	6868.44
909.43	6804.71
909.743	6816.69
910.056	6773.52
910.368	6778.49
910.681	6747.99
910.994	6721.32
911.307	6705.5
911.619	6686.07
911.932	6697.14
912.244	6626.18
912.557	6575.79
912.869	6545.28
913.181	6550.7
913.494	6507.54
913.806	6477.71
914.118	6531.95
914.43	6398.39
914.742	6417.83
915.054	6376.7
915.366	6388
915.678	6319.07
915.99	6343.7
916.302	6277.94
916.613	6253.08
916.925	6264.61
917.236	6194.55
917.548	6207.21
917.859	6137.83
918.171	6103.03
918.482	6085.18
918.794	6090.83
919.105	6072.75
919.416	5954.56
919.727	6040.89
920.038	5928.8
920.349	5949.14
920.66	5896.94
920.971	5943.04
921.282	5870.72
921.593	5844.06
921.903	5822.81
922.214	5782.81
922.525	5699.88
922.835	5759.76
923.146	5693.1
923.456	5760.22
923.767	5671.18
924.077	5659.2
924.387	5665.08
924.697	5624.85
925.008	5550.28
925.318	5522.03
925.628	5582.14
925.938	5547.79
926.248	5485.42
926.558	5440
926.867	5430.05
927.177	5412.65
927.487	5362.71
927.796	5351.41
928.106	5352.77
928.416	5359.32
928.725	5361.58
929.034	5295.37
929.344	5288.82
929.653	5271.42
929.962	5218.54
930.271	5230.29
930.581	5215.6
930.89	5127.01
931.199	5101.48
931.508	5119.1
931.817	5100.35
932.125	5064.41
932.434	5052.66
932.743	4997.98
933.051	4971.08
933.36	4972.21
933.669	4933.8
933.977	4919.56
934.286	4919.56
934.594	4891.09
934.902	4836.62
935.21	4842.5
935.519	4828.04
935.827	4847.7
936.135	4760.02
936.443	4749.39
936.751	4718.44
937.059	4727.25
937.367	4681.6
937.674	4705.55
937.982	4701.71
938.29	4649.06
938.597	4668.72
938.905	4609.96
939.213	4586.91
939.52	4549.63
939.827	4611.55
940.135	4569.74
940.442	4467.59
940.749	4500.59
941.056	4528.84
941.363	4488.16
941.67	4454.26
941.977	4454.26
942.284	4432.12
942.591	4411.78
942.898	4375.62
943.205	4374.49
943.511	4267.83
943.818	4298.33
944.125	4271.89
944.431	4313.7
944.738	4259.01
945.044	4210.43
945.35	4234.61
945.657	4180.6
945.963	4171.33
946.269	4149.18
946.575	4121.61
946.881	4153.48
947.187	4106.7
947.493	4122.97
947.799	4109.86
948.105	4058.34
948.41	4026.7
948.716	4025.57
949.022	3999.81
949.327	4021.5
949.633	3966.36
949.938	3961.17
950.244	3963.43
950.549	3931.56
950.854	3895.86
951.16	3888.4
951.465	3861.96
951.77	3838.91
952.075	3827.16
952.38	3807.5
952.685	3785.8
952.99	3840.27
953.294	3802.53
953.599	3723.89
953.904	3742.64
954.209	3738.57
954.513	3693.6
954.818	3668.07
955.122	3688.86
955.426	3671.01
955.731	3674.17
956.035	3610.44
956.339	3613.83
956.643	3624
956.948	3598.69
957.252	3569.54
957.556	3591.01
957.86	3539.71
958.163	3521.18
958.467	3508.07
958.771	3499.26
959.075	3465.36
959.378	3469.43
959.682	3436.21
959.985	3437.11
960.289	3410.9
960.592	3419.94
960.896	3390.33
961.199	3364.35
961.502	3396.89
961.805	3394.18
962.108	3334.06
962.411	3334.74
962.714	3292.71
963.017	3280.96
963.32	3306.95
963.623	3233.73
963.926	3264.91
964.228	3210.68
964.531	3209.1
964.833	3201.64
965.136	3153.96
965.438	3176.55
965.741	3160.28
966.043	3177.01
966.345	3138.14
966.648	3168.87
966.95	3105.14
967.252	3096.33
967.554	3104.69
967.856	3070.57
968.158	3014.07
968.46	3054.98
968.761	3071.92
969.063	3013.4
969.365	3032.38
969.666	2982.21
969.968	2987.63
970.269	2952.83
970.571	2949.67
970.872	2920.06
971.174	2910.8
971.475	2906.96
971.776	2900.4
972.077	2934.98
972.378	2883.68
972.679	2864.92
972.98	2867.64
973.281	2838.26
973.582	2836.45
973.883	2822.21
974.183	2814.3
974.484	2799.16
974.785	2765.04
975.085	2795.77
975.386	2786.28
975.686	2782.44
975.986	2760.97
976.287	2744.48
976.587	2709.45
976.887	2704.02
977.187	2673.74
977.487	2688.43
977.787	2662.9
978.087	2646.4
978.387	2657.25
978.687	2654.99
978.987	2603.46
979.286	2569.57
979.586	2593.75
979.885	2579.06
980.185	2545.84
980.484	2542.45
980.784	2517.82
981.083	2532.5
981.382	2506.29
981.682	2508.78
981.981	2546.51
982.28	2476.46
982.579	2467.2
982.878	2488.66
983.177	2476.46
983.475	2430.13
983.774	2457.48
984.073	2424.94
984.372	2394.88
984.67	2426.29
984.969	2397.59
985.267	2354.43
985.566	2396.69
985.864	2348.33
986.162	2354.43
986.461	2318.5
986.759	2316.46
987.057	2334.54
987.355	2299.29
987.653	2259.97
987.951	2292.74
988.249	2295.9
988.547	2269.69
988.844	2254.32
989.142	2242.12
989.44	2245.73
989.737	2229.01
990.035	2223.13
990.332	2218.16
990.63	2190.14
990.927	2199.63
991.224	2199.18
991.521	2170.48
991.819	2161.89
992.116	2144.27
992.413	2169.8
992.71	2146.3
993.006	2144.94
993.303	2115.34
993.6	2097.94
993.897	2103.59
994.193	2079.86
994.49	2077.37
994.787	2076.47
995.083	2017.26
995.379	2034.21
995.676	2030.14
995.972	2027.88
996.268	1993.99
996.565	2008.45
996.861	1990.82
997.157	2006.19
997.453	1993.08
997.749	1980.88
998.044	1963.93
998.34	1955.8
998.636	1958.96
998.932	1930.94
999.227	1901.11
999.523	1906.53
999.818	1902.46
1000.114	1875.57
1000.409	1876.25
1000.704	1861.34
1001	1853.2
1001.295	1820.88
1001.59	1885.74
1001.885	1874.89
1002.18	1836.48
1002.475	1818.4
1002.77	1823.14
1003.065	1806.42
1003.359	1779.76
1003.654	1793.31
1003.949	1773.88
1004.243	1738.63
1004.538	1760.55
1004.832	1732.07
1005.127	1735.69
1005.421	1741.79
1005.715	1697.95
1006.009	1687.55
1006.304	1713.32
1006.598	1648.91
1006.892	1671.74
1007.186	1653.21
1007.48	1653.88
1007.773	1662.92
1008.067	1640.55
1008.361	1631.96
1008.655	1619.99
1008.948	1621.12
1009.242	1617.73
1009.535	1624.96
1009.829	1586.54
1010.122	1598.07
1010.415	1556.03
1010.708	1522.59
1011.001	1557.61
1011.295	1569.37
1011.588	1520.1
1011.881	1557.61
1012.173	1496.6
1012.466	1494.34
1012.759	1506.77
1013.052	1521.46
1013.344	1485.53
1013.637	1483.27
1013.93	1460.67
1014.222	1444.62
1014.514	1472.87
1014.807	1439.2
1015.099	1436.71
1015.391	1424.51
1015.683	1412.08
1015.976	1430.84
1016.268	1406.66
1016.56	1400.33
1016.851	1393.55
1017.143	1397.17
1017.435	1384.06
1017.727	1362.37
1018.018	1319.88
1018.31	1339.09
1018.602	1366.21
1018.893	1354
1019.185	1312.65
1019.476	1325.08
1019.767	1304.06
1020.058	1311.52
1020.35	1277.4
1020.641	1278.3
1020.932	1264.51
1021.223	1267
1021.514	1271.52
1021.804	1267.23
1022.095	1226.1
1022.386	1234.69
1022.677	1253.44
1022.967	1229.71
1023.258	1250.73
1023.548	1192.65
1023.839	1215.25
1024.129	1193.1
1024.419	1204.86
1024.709	1177.96
1025	1190.17
1025.29	1131.86
1025.58	1149.49
1025.87	1114.91
1026.16	1135.03
1026.449	1136.83
1026.739	1143.61
1027.029	1127.12
1027.319	1112.65
1027.608	1103.62
1027.898	1092.77
1028.187	1076.5
1028.477	1076.27
1028.766	1105.2
1029.055	1076.72
1029.344	1041.24
1029.634	1054.12
1029.923	1060.9
1030.212	1023.17
1030.501	1017.97
1030.79	1048.02
1031.078	1016.16
1031.367	1007.57
1031.656	1009.38
1031.945	1005.09
1032.233	1009.83
1032.522	1007.8
1032.81	994.69
1033.099	986.78
1033.387	977.29
1033.675	973.22
1033.963	955.6
1034.251	951.75
1034.54	941.81
1034.828	965.09
1035.116	943.39
1035.403	956.05
1035.691	940.68
1035.979	915.6
1036.267	915.6
1036.554	918.31
1036.842	916.05
1037.129	900
1037.417	872.89
1037.704	905.65
1037.992	874.69
1038.279	884.19
1038.566	877.63
1038.853	877.63
1039.14	877.63
