Data from hue_170_FLMS001491_00045.txt Node
Date: Tue Feb 07 16:48:44 GMT 2017
User: dcchb
Spectrometer: FLMS00149
Trigger mode: 0
Integration Time (sec): 2.000000E-2
Scans to average: 10
Electric dark correction enabled: true
Nonlinearity correction enabled: false
Boxcar width: 0
XAxis mode: Wavelengths
Number of Pixels in Spectrum: 2048
>>>>>Begin Spectral Data<<<<<
341.393	-13.91
341.776	-13.91
342.16	-13.91
342.543	-76.06
342.927	-68.37
343.31	-67.47
343.693	-72.22
344.077	-57.75
344.46	-58.88
344.843	-35.83
345.226	-20.69
345.61	-16.17
345.993	-29.28
346.376	-16.85
346.759	12.98
347.142	30.38
347.525	30.61
347.908	60.44
348.291	65.63
348.674	78.97
349.057	96.14
349.44	123.94
349.823	147.89
350.206	167.78
350.588	189.25
350.971	194.67
351.354	221.79
351.737	235.12
352.119	256.14
352.502	276.02
352.884	264.5
353.267	281.45
353.65	287.1
354.032	301.33
354.414	310.37
354.797	289.58
355.179	305.4
355.562	309.24
355.944	318.73
356.326	311.05
356.709	326.87
357.091	334.1
357.473	326.42
357.855	340.43
358.238	299.07
358.62	323.48
359.002	330.71
359.384	351.95
359.766	342.46
360.148	334.78
360.53	336.81
360.912	339.07
361.294	321.9
361.676	311.96
362.057	306.31
362.439	314.44
362.821	301.11
363.203	321.22
363.584	322.8
363.966	317.6
364.348	318.51
364.729	317.15
365.111	335.46
365.493	324.61
365.874	357.15
366.256	306.98
366.637	305.85
367.019	301.79
367.4	309.92
367.781	297.94
368.163	316.47
368.544	316.93
368.925	304.05
369.306	323.93
369.688	317.6
370.069	300.66
370.45	309.92
370.831	304.95
371.212	286.19
371.593	305.63
371.974	320.77
372.355	320.77
372.736	309.24
373.117	292.75
373.498	328.45
373.879	316.25
374.26	331.62
374.641	305.63
375.021	311.28
375.402	303.59
375.783	332.52
376.163	334.33
376.544	330.26
376.925	316.25
377.305	324.84
377.686	338.4
378.066	328.45
378.447	330.71
378.827	322.35
379.208	322.8
379.588	319.64
379.968	317.6
380.349	347.21
380.729	331.16
381.109	329.58
381.489	335.46
381.87	316.47
382.25	333.88
382.63	354.89
383.01	342.01
383.39	350.37
383.77	355.34
384.15	352.41
384.53	333.65
384.91	331.84
385.29	350.82
385.67	352.18
386.049	354.44
386.429	379.75
386.809	341.78
387.189	346.53
387.568	345.17
387.948	371.39
388.328	334.78
388.707	373.42
389.087	343.37
389.466	346.53
389.846	363.93
390.225	340.65
390.605	360.99
390.984	375.23
391.363	365.06
391.743	328.45
392.122	380.65
392.501	375.23
392.881	363.03
393.26	368
393.639	382.24
394.018	359.41
394.397	380.2
394.776	400.09
395.155	374.78
395.534	368.68
395.913	387.21
396.292	426.53
396.671	386.98
397.05	405.74
397.429	390.15
397.808	400.09
398.186	377.49
398.565	396.02
398.944	386.98
399.323	411.84
399.701	394.66
400.08	398.73
400.458	386.08
400.837	409.81
401.215	426.98
401.594	400.09
401.972	399.41
402.351	430.82
402.729	410.03
403.107	441.9
403.486	410.03
403.864	431.05
404.242	428.34
404.62	431.05
404.999	440.54
405.377	442.12
405.755	427.43
406.133	417.26
406.511	463.14
406.889	461.1
407.267	443.93
407.645	437.15
408.023	449.8
408.401	474.21
408.779	485.51
409.156	490.26
409.534	478.5
409.912	476.47
410.29	487.32
410.667	496.13
411.045	503.59
411.422	509.01
411.8	526.64
412.178	498.84
412.555	504.49
412.933	510.14
413.31	518.05
413.687	535.45
414.065	541.55
414.442	529.12
414.819	550.82
415.197	557.6
415.574	563.25
415.951	563.02
416.328	556.02
416.705	575
417.082	568.22
417.46	574.32
417.837	603.7
418.214	566.86
418.591	598.28
418.967	599.41
419.344	591.72
419.721	608.9
420.098	619.07
420.475	596.47
420.852	627.43
421.228	618.16
421.605	650.7
421.982	633.53
422.358	647.99
422.735	667.88
423.111	672.17
423.488	665.62
423.864	688.22
424.241	694.77
424.617	692.74
424.994	681.21
425.37	706.29
425.746	748.78
426.123	723.47
426.499	714.66
426.875	704.26
427.251	765.05
427.627	743.13
428.003	758.27
428.379	777.25
428.756	784.03
429.132	758.95
429.507	783.36
429.883	801.89
430.259	802.56
430.635	809.57
431.011	825.39
431.387	837.36
431.763	847.53
432.138	850.7
432.514	854.77
432.89	893.18
433.265	883.01
433.641	869.91
434.016	881.43
434.392	910.58
434.767	926.85
435.143	940.41
435.518	956.91
435.894	939.74
436.269	974.31
436.644	979.51
437.02	991.03
437.395	976.57
437.77	999.17
438.145	1026.74
438.52	1030.35
438.895	1044.59
439.271	1046.4
439.646	1075.78
440.021	1074.87
440.395	1092.05
440.77	1085.49
441.145	1123.23
441.52	1136.57
441.895	1131.59
442.27	1139.05
442.645	1148.54
443.019	1152.16
443.394	1149.67
443.769	1163.23
444.143	1178.15
444.518	1217.24
444.892	1190.12
445.267	1195.77
445.641	1221.76
446.016	1213.85
446.39	1216.79
446.764	1259.27
447.139	1239.16
447.513	1293.85
447.887	1263.12
448.262	1280.52
448.636	1289.56
449.01	1311.93
449.384	1314.87
449.758	1337.24
450.132	1341.08
450.506	1343.34
450.88	1363
451.254	1350.35
451.628	1389.67
452.002	1407.75
452.376	1423.56
452.75	1407.75
453.123	1451.59
453.497	1448.65
453.871	1450
454.244	1473.28
454.618	1484.58
454.992	1533.17
455.365	1515.99
455.739	1560.06
456.112	1579.04
456.486	1610.23
456.859	1626.95
457.232	1628.98
457.606	1634.86
457.979	1665.82
458.352	1693.84
458.725	1704.91
459.099	1759.6
459.472	1738.58
459.845	1785.14
460.218	1795.76
460.591	1852.25
460.964	1818.81
461.337	1839.6
461.71	1913.04
462.083	1942.87
462.456	1947.62
462.829	1960.95
463.201	2020.38
463.574	1994.85
463.947	2046.15
464.32	2091.57
464.692	2087.05
465.065	2151
465.438	2162.08
465.81	2209.08
466.183	2201.62
466.555	2274.16
466.928	2276.2
467.3	2316.2
467.672	2345.35
468.045	2424.22
468.417	2402.3
468.789	2441.84
469.161	2483.88
469.534	2525.23
469.906	2582.4
470.278	2616.3
470.65	2640.48
471.022	2681.16
471.394	2772.68
471.766	2845.45
472.138	2871.21
472.51	2927.71
472.882	2982.17
473.253	3035.95
473.625	3071.2
473.997	3164.76
474.369	3235.72
474.74	3253.8
475.112	3328.6
475.484	3386.9
475.855	3507.58
476.227	3541.93
476.598	3658.53
476.97	3665.31
477.341	3807.46
477.713	3867.12
478.084	3958.86
478.455	4053.78
478.827	4107.11
479.198	4260.55
479.569	4254.45
479.94	4391.62
480.311	4470.72
480.682	4638.62
481.053	4774.89
481.424	4873.87
481.795	4927.65
482.166	5030.93
482.537	5153.86
482.908	5265.05
483.279	5359.73
483.65	5446.06
484.021	5620.06
484.391	5710.68
484.762	5860.74
485.133	5934.41
485.503	6037.68
485.874	6198.58
486.244	6309.31
486.615	6446.48
486.985	6599.25
487.356	6751.33
487.726	6777.77
488.097	6977.77
488.467	7048.05
488.837	7208.95
489.207	7409.17
489.578	7531.2
489.948	7590.18
490.318	7773.23
490.688	7834.7
491.058	8056.61
491.428	8159.66
491.798	8291.63
492.168	8446.2
492.538	8554.68
492.908	8594
493.278	8772.52
493.648	8849.36
494.017	8996.25
494.387	9130.48
494.757	9262
495.126	9387.65
495.496	9478.72
495.866	9532.96
496.235	9612.73
496.605	9746.51
496.974	9881.87
497.344	9906.51
497.713	10058.59
498.082	10116.22
498.452	10277.57
498.821	10281.18
499.19	10337.45
499.559	10456.32
499.928	10529.54
500.298	10614.06
500.667	10717.11
501.036	10763.66
501.405	10842.75
501.774	10931.34
502.143	11065.12
502.512	11099.02
502.88	11169.97
503.249	11223.31
503.618	11260.59
503.987	11332.46
504.356	11360.7
504.724	11472.11
505.093	11488.16
505.462	11587.59
505.83	11583.75
506.199	11680.47
506.567	11887.24
506.936	11832.33
507.304	11906.45
507.672	11996.85
508.041	11967.47
508.409	12099.67
508.777	12148.03
509.145	12271.87
509.514	12165.65
509.882	12333.79
510.25	12322.94
510.618	12354.12
510.986	12364.07
511.354	12490.62
511.722	12481.8
512.09	12651.29
512.458	12628.02
512.826	12616.72
513.193	12648.13
513.561	12741.01
513.929	12811.06
514.297	12811.29
514.664	12935.8
515.032	12908.69
515.4	12995.01
515.767	13101
516.135	13087.21
516.502	12921.12
516.869	13113.2
517.237	13113.65
517.604	13079.53
517.972	13158.62
518.339	13288.79
518.706	13255.34
519.073	13277.49
519.44	13244.5
519.808	13343.25
520.175	13292.63
520.542	13399.07
520.909	13480.2
521.276	13423.47
521.643	13521.55
522.009	13539.18
522.376	13599.74
522.743	13610.14
523.11	13662.56
523.477	13710.7
523.843	13729.23
524.21	13791.83
524.577	13896
524.943	13785.95
525.31	13851.71
525.676	13904.14
526.043	13971.93
526.409	13972.84
526.776	14025.04
527.142	14084.7
527.508	13988.43
527.874	14060.97
528.241	14022.56
528.607	14057.13
528.973	14109.11
529.339	14092.16
529.705	14144.36
530.071	14163.12
530.437	14146.62
530.803	14131.7
531.169	14145.26
531.535	14051.48
531.901	14027.53
532.267	14082.89
532.632	14112.72
532.998	14001.31
533.364	14070.46
533.73	14169.22
534.095	14102.1
534.461	14056.68
534.826	14074.53
535.192	14036.11
535.557	14076.79
535.923	14042.89
536.288	13986.4
536.653	13947.3
537.019	13837.7
537.384	13920.64
537.749	13924.7
538.114	13798.83
538.479	13849
538.845	13795.89
539.21	13777.59
539.575	13757.7
539.94	13711.6
540.305	13764.71
540.67	13697.59
541.034	13612.4
541.399	13588.22
541.764	13670.7
542.129	13641.77
542.494	13465.73
542.858	13507.77
543.223	13382.8
543.587	13449.46
543.952	13272.52
544.316	13321.78
544.681	13257.83
545.045	13307.32
545.41	13320.2
545.774	13199.75
546.138	13131.51
546.503	13077.5
546.867	13132.41
547.231	13134.67
547.595	13082.24
547.959	13058.96
548.324	12945.07
548.688	13017.16
549.052	12970.83
549.416	12936.03
549.779	12818.52
550.143	12816.94
550.507	12855.35
550.871	12799.99
551.235	12767.22
551.599	12727.45
551.962	12720.89
552.326	12662.36
552.689	12715.24
553.053	12596.38
553.417	12579.88
553.78	12688.8
554.143	12508.24
554.507	12537.17
554.87	12538.07
555.234	12578.75
555.597	12340.34
555.96	12474.12
556.323	12501.69
556.686	12473.9
557.05	12503.27
557.413	12487.45
557.776	12440.68
558.139	12516.61
558.502	12461.01
558.865	12397.51
559.228	12465.76
559.59	12420.11
559.953	12423.28
560.316	12465.76
560.679	12342.37
561.041	12400.45
561.404	12432.54
561.767	12431.18
562.129	12355.48
562.492	12483.16
562.854	12448.36
563.217	12320.68
563.579	12408.13
563.941	12411.75
564.304	12422.6
564.666	12504.85
565.028	12365.2
565.39	12437.51
565.753	12531.97
566.115	12517.96
566.477	12480
566.839	12525.19
567.201	12563.16
567.563	12530.62
567.925	12573.33
568.287	12658.3
568.648	12518.19
569.01	12588.47
569.372	12593.89
569.734	12539.66
570.095	12661.69
570.457	12621.69
570.819	12665.53
571.18	12593.67
571.542	12621.24
571.903	12708.47
572.265	12695.13
572.626	12762.7
572.987	12730.16
573.349	12715.24
573.71	12657.85
574.071	12695.81
574.432	12750.95
574.794	12787.11
575.155	12731.97
575.516	12795.69
575.877	12777.39
576.238	12776.94
576.599	12795.02
576.96	12798.18
577.32	12858.74
577.681	12820.33
578.042	12835.92
578.403	12772.42
578.763	12839.76
579.124	12862.36
579.485	12797.05
579.845	12806.09
580.206	12795.02
580.566	12793.89
580.927	12835.92
581.287	12723.61
581.648	12766.32
582.008	12821
582.368	12851.74
582.728	12844.05
583.089	12672.76
583.449	12744.17
583.809	12786.43
584.169	12785.98
584.529	12746.2
584.889	12816.03
585.249	12722.48
585.609	12653.78
585.969	12805.41
586.329	12685.87
586.688	12712.08
587.048	12739.42
587.408	12579.43
587.768	12592.99
588.127	12695.81
588.487	12725.64
588.846	12756.37
589.206	12582.82
589.565	12622.59
589.925	12686.77
590.284	12653.55
590.643	12580.11
591.003	12669.6
591.362	12562.93
591.721	12661.23
592.08	12592.54
592.44	12637.73
592.799	12530.62
593.158	12511.18
593.517	12560.9
593.876	12588.92
594.235	12561.12
594.593	12538.98
594.952	12555.7
595.311	12460.11
595.67	12512.99
596.029	12595.7
596.387	12526.55
596.746	12519.77
597.104	12459.43
597.463	12417.4
597.822	12532.2
598.18	12393.22
598.538	12440.45
598.897	12498.75
599.255	12370.17
599.613	12555.93
599.972	12508.47
600.33	12475.93
600.688	12414.69
601.046	12548.02
601.404	12508.24
601.762	12514.12
602.12	12541.46
602.478	12549.6
602.836	12506.21
603.194	12510.73
603.552	12502.14
603.91	12451.97
604.268	12465.76
604.625	12490.62
604.983	12443.39
605.341	12421.69
605.698	12428.47
606.056	12504.85
606.413	12520.45
606.771	12556.15
607.128	12577.4
607.485	12502.59
607.843	12465.53
608.2	12522.26
608.557	12592.54
608.914	12505.76
609.272	12540.11
609.629	12609.48
609.986	12591.63
610.343	12652.2
610.7	12644.51
611.057	12646.55
611.414	12612.65
611.771	12601.8
612.127	12687.9
612.484	12600.67
612.841	12698.52
613.198	12647.68
613.554	12656.72
613.911	12664.17
614.267	12638.18
614.624	12664.4
614.98	12641.8
615.337	12682.93
615.693	12660.33
616.05	12782.59
616.406	12772.19
616.762	12761.8
617.118	12784.17
617.475	12738.97
617.831	12786.2
618.187	12723.38
618.543	12827.11
618.899	12842.93
619.255	12819.42
619.611	12700.1
619.967	12824.85
620.323	12859.65
620.678	12815.58
621.034	12839.08
621.39	12748.24
621.746	12780.33
622.101	12990.94
622.457	12753.21
622.812	12875.01
623.168	12815.58
623.523	12878.4
623.879	12787.33
624.234	12777.39
624.589	12865.52
624.945	12842.93
625.3	12818.97
625.655	12851.29
626.01	12863.26
626.365	12871.62
626.72	12785.53
627.075	12738.07
627.43	12823.26
627.785	12807.9
628.14	12804.73
628.495	12861.91
628.85	12802.25
629.205	12792.76
629.559	12776.26
629.914	12672.76
630.269	12731.97
630.623	12715.47
630.978	12639.31
631.332	12733.32
631.687	12727
632.041	12634.57
632.396	12762.48
632.75	12665.08
633.104	12610.84
633.459	12526.55
633.813	12570.16
634.167	12555.93
634.521	12536.04
634.875	12554.8
635.229	12526.32
635.583	12475.03
635.937	12513.89
636.291	12464.63
636.645	12473.22
636.999	12428.47
637.352	12509.37
637.706	12300.11
638.06	12483.16
638.413	12393.67
638.767	12374.01
639.121	12414.24
639.474	12347.57
639.828	12330.85
640.181	12360.23
640.534	12378.08
640.888	12286.1
641.241	12228.03
641.594	12287.23
641.947	12310.51
642.301	12246.1
642.654	12354.12
643.007	12290.17
643.36	12274.13
643.713	12213.79
644.066	12249.49
644.419	12214.02
644.771	12144.86
645.124	12045.88
645.477	12042.27
645.83	11889.5
646.182	11837.08
646.535	11919.11
646.888	11801.6
647.24	11819
647.593	11819.22
647.945	11840.47
648.298	11761.37
648.65	11809.51
649.002	11746.46
649.355	11832.56
649.707	11822.16
650.059	11851.99
650.411	12005.66
650.763	12049.5
651.115	12155.26
651.467	12101.25
651.819	12154.81
652.171	12066.67
652.523	12054.25
652.875	12099.89
653.227	12024.19
653.578	12120.46
653.93	12040.91
654.282	12080.01
654.633	11938.09
654.985	12069.84
655.337	12021.93
655.688	11969.5
656.039	11993.68
656.391	12037.07
656.742	12035.94
657.094	12037.97
657.445	12098.31
657.796	12104.41
658.147	12021.48
658.498	11976.28
658.849	12077.52
659.2	11960.24
659.551	12018.31
659.902	11997.52
660.253	12055.38
660.604	12097.63
660.955	12027.81
661.306	12124.75
661.656	12073.68
662.007	12086.79
662.358	12103.51
662.708	12114.58
663.059	12033.91
663.409	11978.31
663.76	12161.36
664.11	12066.9
664.461	12128.59
664.811	12111.87
665.161	12194.35
665.511	12079.56
665.862	12074.58
666.212	12153.45
666.562	12178.08
666.912	12139.21
667.262	12083.4
667.612	12099.22
667.962	12146.45
668.312	12131.53
668.662	12144.41
669.011	12105.77
669.361	12013.79
669.711	12089.95
670.06	12048.6
670.41	12040.69
670.76	12035.94
671.109	12116.39
671.459	11976.96
671.808	11994.81
672.157	12120.23
672.507	11951.2
672.856	11983.51
673.205	12037.07
673.554	11990.07
673.904	12061.02
674.253	12053.57
674.602	11978.54
674.951	11830.75
675.3	11772.67
675.649	11950.52
675.998	11970.63
676.346	11939.67
676.695	11964.98
677.044	11805.66
677.393	11950.75
677.741	11954.81
678.09	11946.23
678.438	11793.46
678.787	11819.45
679.135	11883.63
679.484	11740.36
679.832	11753.24
680.181	11747.13
680.529	11809.05
680.877	11737.64
681.225	11706.01
681.573	11806.57
681.922	11707.59
682.27	11591.88
682.618	11647.48
682.966	11582.85
683.314	11630.53
683.661	11567.93
684.009	11469.4
684.357	11515.73
684.705	11482.73
685.053	11446.35
685.4	11473.92
685.748	11444.77
686.095	11431.21
686.443	11374.49
686.79	11323.87
687.138	11314.38
687.485	11318.9
687.832	11336.75
688.18	11252.68
688.527	11262.4
688.874	11224.21
689.221	11133.14
689.568	11139.02
689.915	11087.04
690.262	11098.56
690.609	11014.5
690.956	10987.61
691.303	10959.36
691.65	10882.98
691.997	10901.96
692.344	10861.96
692.69	10788.52
693.037	10792.81
693.383	10751
693.73	10717.33
694.077	10656.54
694.423	10638.69
694.769	10664.9
695.116	10621.29
695.462	10640.05
695.808	10525.25
696.155	10554.85
696.501	10495.19
696.847	10456.55
697.193	10409.77
697.539	10384.68
697.885	10331.8
698.231	10288.87
698.577	10272.37
698.923	10262.43
699.269	10218.59
699.614	10131.58
699.96	10082.32
700.306	10147.18
700.651	9994.64
700.997	9962.55
701.342	10052.94
701.688	9916.9
702.033	9906.05
702.379	9912.15
702.724	9881.42
703.069	9815.89
703.415	9763.46
703.76	9744.93
704.105	9752.38
704.45	9708.32
704.795	9591.71
705.14	9629
705.485	9590.81
705.83	9456.35
706.175	9541.77
706.52	9562.11
706.865	9431.04
707.209	9440.53
707.554	9404.82
707.899	9414.54
708.243	9375.22
708.588	9337.71
708.932	9302.23
709.277	9270.82
709.621	9291.61
709.966	9210.93
710.31	9233.08
710.654	9167.54
710.998	9204.38
711.342	9177.71
711.687	9086.64
712.031	9129.8
712.375	9071.05
712.719	9097.71
713.063	9095
713.407	9053.19
713.75	8966.64
714.094	8993.99
714.438	8938.17
714.782	8932.29
715.125	8941.78
715.469	8942.91
715.812	8840.32
716.156	8837.15
716.499	8866.53
716.843	8830.15
717.186	8782.24
717.53	8858.62
717.873	8811.84
718.216	8793.77
718.559	8745.41
718.902	8670.83
719.246	8728.91
719.589	8671.06
719.932	8727.55
720.275	8689.36
720.617	8676.48
720.96	8696.59
721.303	8654.79
721.646	8636.03
721.989	8598.97
722.331	8633.09
722.674	8653.66
723.016	8606.2
723.359	8596.71
723.701	8620.21
724.044	8570.27
724.386	8562.36
724.729	8534.34
725.071	8541.12
725.413	8558.29
725.755	8523.49
726.097	8504.06
726.439	8512.42
726.782	8517.62
727.124	8523.94
727.465	8532.08
727.807	8499.54
728.149	8471.74
728.491	8434.45
728.833	8445.3
729.175	8466.99
729.516	8481.23
729.858	8471.29
730.199	8467.67
730.541	8441.91
730.882	8482.36
731.224	8494.34
731.565	8435.81
731.906	8488.46
732.248	8423.83
732.589	8420.89
732.93	8401.23
733.271	8413.89
733.612	8494.79
733.953	8383.83
734.294	8387.67
734.635	8494.79
734.976	8427.67
735.317	8395.36
735.658	8415.92
735.999	8459.54
736.339	8382.7
736.68	8455.7
737.021	8465.19
737.361	8402.82
737.702	8468.35
738.042	8464.96
738.383	8413.66
738.723	8459.99
739.063	8466.09
739.404	8510.38
739.744	8472.64
740.084	8416.15
740.424	8476.71
740.764	8548.12
741.104	8521.68
741.444	8517.16
741.784	8555.81
742.124	8574.79
742.464	8606.43
742.804	8621.34
743.143	8557.84
743.483	8598.06
743.823	8629.48
744.162	8666.54
744.502	8762.58
744.841	8712.86
745.181	8836.93
745.52	8806.87
745.86	8829.25
746.199	8791.96
746.538	8944.72
746.877	8938.17
747.216	8968.45
747.556	9098.39
747.895	9077.15
748.234	9072.4
748.573	9154.89
748.911	9224.94
749.25	9295.22
749.589	9341.1
749.928	9445.05
750.267	9480.08
750.605	9535.89
750.944	9573.41
751.283	9623.8
751.621	9787.19
751.96	9826.73
752.298	9889.78
752.636	10078.48
752.975	10102.88
753.313	10167.74
753.651	10306.49
753.989	10341.97
754.327	10451.8
754.666	10571.8
755.004	10661.51
755.342	10796.43
755.679	10950.77
756.017	11017.21
756.355	11187.15
756.693	11357.99
757.031	11473.7
757.368	11593.47
757.706	11738.1
758.044	11856.96
758.381	12072.55
758.719	12160.68
759.056	12339.21
759.394	12430.73
759.731	12587.11
760.068	12851.06
760.405	12820.55
760.743	13095.8
761.08	13268.22
761.417	13410.82
761.754	13636.58
762.091	13631.38
762.428	13860.98
762.765	13981.43
763.102	14186.62
763.438	14288.54
763.775	14408.53
764.112	14635.65
764.449	14860.27
764.785	14940.27
765.122	15115.63
765.458	15185.24
765.795	15474.95
766.131	15526.92
766.467	15697.31
766.804	15850.76
767.14	15873.35
767.476	16060.47
767.812	16182.5
768.148	16299.11
768.485	16402.38
768.821	16589.95
769.157	16644.86
769.492	16781.35
769.828	16905.42
770.164	16927.56
770.5	16996.94
770.836	17255.69
771.171	17242.13
771.507	17310.6
771.842	17390.38
772.178	17584.95
772.513	17711.72
772.849	17739.29
773.184	17771.83
773.519	17867.2
773.855	17881.66
774.19	17974.54
774.525	18074.43
774.86	18149
775.195	18204.82
775.53	18221.54
775.865	18352.84
776.2	18186.51
776.535	18329.56
776.87	18339.73
777.205	18394.19
777.539	18412.5
777.874	18567.75
778.209	18432.61
778.543	18529.33
778.878	18528.43
779.212	18638.7
779.547	18522.78
779.881	18696.78
780.215	18595.77
780.55	18704.01
780.884	18633.28
781.218	18587.63
781.552	18769.55
781.886	18620.85
782.22	18615.43
782.554	18742.88
782.888	18554.41
783.222	18586.28
783.556	18595.99
783.889	18676.22
784.223	18517.58
784.557	18535.88
784.89	18573.85
785.224	18490.69
785.557	18499.95
785.891	18478.94
786.224	18442.55
786.558	18435.77
786.891	18400.29
787.224	18374.98
787.557	18360.29
787.891	18335.44
788.224	18312.61
788.557	18361.65
788.89	18385.15
789.223	18428.77
789.556	18268.77
789.888	18179.51
790.221	18208.89
790.554	18092.96
790.887	18110.81
791.219	18087.53
791.552	18023.58
791.884	18027.2
792.217	18031.94
792.549	17954.2
792.882	17866.07
793.214	17825.17
793.546	17875.56
793.879	17821.1
794.211	17688.22
794.543	17791.04
794.875	17842.34
795.207	17791.95
795.539	17662.01
795.871	17831.49
796.203	17530.03
796.535	17514.21
796.867	17459.75
797.198	17462.69
797.53	17478.74
797.862	17353.31
798.193	17418.4
798.525	17315.58
798.856	17261.34
799.188	17279.64
799.519	17030.16
799.85	16987.45
800.182	17148.8
800.513	17057.96
800.844	16920.78
801.175	17004.62
801.506	17013.44
801.837	16773.9
802.168	16921.69
802.499	16832.88
802.83	16681.47
803.161	16725.99
803.491	16721.69
803.822	16722.82
804.153	16711.3
804.483	16489.16
804.814	16378.2
805.145	16501.13
805.475	16430.85
805.805	16397.86
806.136	16328.94
806.466	16368.03
806.796	16329.84
807.126	16210.29
807.457	16210.52
807.787	16291.87
808.117	16148.6
808.447	16126.23
808.777	16186.11
809.107	16095.49
809.436	16011.2
809.766	16028.83
810.096	15971.88
810.426	15911.54
810.755	15907.48
811.085	15854.37
811.414	15926.69
811.744	15816.86
812.073	15725.11
812.403	15697.77
812.732	15629.52
813.061	15686.69
813.39	15611.89
813.719	15567.15
814.049	15722.85
814.378	15566.92
814.707	15586.36
815.036	15540.48
815.365	15442.18
815.693	15300.26
816.022	15272.92
816.351	15266.36
816.68	15272.69
817.008	15320.37
817.337	15240.6
817.665	15097.33
817.994	15124.45
818.322	15141.4
818.651	15079.25
818.979	15047.16
819.307	15098.91
819.636	15052.58
819.964	15021.4
820.292	15029.31
820.62	14999.03
820.948	14987.73
821.276	14985.92
821.604	14912.02
821.932	15116.31
822.259	15029.08
822.587	15022.98
822.915	14924.9
823.243	14943.43
823.57	14928.07
823.898	14980.95
824.225	14801.97
824.553	14862.53
824.88	14934.4
825.207	14965.36
825.535	14918.35
825.862	15022.98
826.189	14957.45
826.516	15050.55
826.843	14981.4
827.17	15059.59
827.497	15002.64
827.824	14954.06
828.151	14938.24
828.478	15021.17
828.805	14980.72
829.131	15028.18
829.458	15028.18
829.785	14933.72
830.111	14991.12
830.438	14969.87
830.764	14943.89
831.09	15039.25
831.417	14914.51
831.743	14937.11
832.069	14991.34
832.395	14902.53
832.722	14904.34
833.048	14839.48
833.374	14877.22
833.7	14841.06
834.026	14843.1
834.351	14815.98
834.677	14902.76
835.003	14934.17
835.329	14791.35
835.654	14834.06
835.98	14758.58
836.306	14776.66
836.631	14719.03
836.956	14811.46
837.282	14786.15
837.607	14686.72
837.932	14674.74
838.258	14679.26
838.583	14774.17
838.908	14585.93
839.233	14600.84
839.558	14615.53
839.883	14491.24
840.208	14409.21
840.533	14499.15
840.858	14411.47
841.182	14448.08
841.507	14457.8
841.832	14424.8
842.156	14280.63
842.481	14380.51
842.805	14272.27
843.13	14277.92
843.454	14270.23
843.778	14186.17
844.103	14199.5
844.427	14134.42
844.751	14121.99
845.075	14157.69
845.399	14004.93
845.723	13895.55
846.047	13924.48
846.371	13815.1
846.695	13919.73
847.019	13756.35
847.343	13710.02
847.666	13718.38
847.99	13661.89
848.313	13624.6
848.637	13453.98
848.96	13510.93
849.284	13441.78
849.607	13372.85
849.931	13275.46
850.254	13282.01
850.577	13146.87
850.9	13088.34
851.223	13051.28
851.546	12967.67
851.869	12957.05
852.192	13023.26
852.515	12858.74
852.838	12802.02
853.161	12807.9
853.483	12777.16
853.806	12661.69
854.129	12679.09
854.451	12619.65
854.774	12596.15
855.096	12559.77
855.419	12548.02
855.741	12499.21
856.063	12400.68
856.385	12367.91
856.708	12363.84
857.03	12311.19
857.352	12287.91
857.674	12238.87
857.996	12155.26
858.318	12142.83
858.64	12100.35
858.961	12044.3
859.283	12071.65
859.605	11982.16
859.926	12004.75
860.248	11984.64
860.57	11907.36
860.891	11945.32
861.212	11818.55
861.534	11845.44
861.855	11787.36
862.176	11759.79
862.498	11830.97
862.819	11752.78
863.14	11696.97
863.461	11738.77
863.782	11594.6
864.103	11754.37
864.424	11639.57
864.745	11637.08
865.065	11580.36
865.386	11499.01
865.707	11428.27
866.027	11518.67
866.348	11497.88
866.668	11555.73
866.989	11423.3
867.309	11486.58
867.63	11439.57
867.95	11498.78
868.27	11396.18
868.59	11334.49
868.91	11361.83
869.23	11315.96
869.55	11238.22
869.87	11309.86
870.19	11291.1
870.51	11330.42
870.83	11247.71
871.15	11187.6
871.469	11230.76
871.789	11231.44
872.109	11174.04
872.428	11139.24
872.748	11134.72
873.067	11148.96
873.386	11155.29
873.706	11072.35
874.025	11052.92
874.344	11040.26
874.663	11037.1
874.982	11058.79
875.301	10980.15
875.62	11040.49
875.939	10931.34
876.258	10910.32
876.577	10921.39
876.896	10883.43
877.214	10878.46
877.533	10794.39
877.852	10823.09
878.17	10865.8
878.489	10791.91
878.807	10814.73
879.125	10836.42
879.444	10775.63
879.762	10790.78
880.08	10796.88
880.398	10612.93
880.716	10708.97
881.034	10679.37
881.352	10744.9
881.67	10656.54
881.988	10628.07
882.306	10548.07
882.624	10483.21
882.941	10525.02
883.259	10428.98
883.577	10463.33
883.894	10464.91
884.212	10454.74
884.529	10363.22
884.846	10387.4
885.164	10424.68
885.481	10277.57
885.798	10361.63
886.115	10242.54
886.432	10271.02
886.75	10230.79
887.067	10250
887.383	10180.62
887.7	10144.01
888.017	10083
888.334	10160.74
888.651	10078.93
888.967	10075.09
889.284	10018.14
889.6	10006.39
889.917	9929.33
890.233	9942.21
890.55	9864.25
890.866	9841.65
891.182	9798.71
891.498	9740.18
891.815	9779.5
892.131	9718.49
892.447	9715.78
892.763	9679.39
893.079	9621.99
893.395	9634.87
893.71	9657.02
894.026	9579.28
894.342	9607.08
894.657	9542.45
894.973	9459.51
895.289	9541.09
895.604	9456.12
895.92	9416.57
896.235	9330.7
896.55	9323.47
896.865	9327.99
897.181	9252.28
897.496	9306.29
897.811	9155.56
898.126	9167.09
898.441	9165.73
898.756	9085.74
899.071	9088
899.386	9075.11
899.7	8948.34
900.015	8980.88
900.33	8922.35
900.644	8851.17
900.959	8906.31
901.273	8860.66
901.588	8760.32
901.902	8732.98
902.216	8758.74
902.531	8787.66
902.845	8646.2
903.159	8666.31
903.473	8622.47
903.787	8634.45
904.101	8501.8
904.415	8548.12
904.729	8521.23
905.042	8468.8
905.356	8384.51
905.67	8409.14
905.984	8377.73
906.297	8350.39
906.611	8318.52
906.924	8308.13
907.237	8268.81
907.551	8293.21
907.864	8206.44
908.177	8182.71
908.491	8175.7
908.804	8034.01
909.117	7982.49
909.43	8016.84
909.743	7939.78
910.056	7939.55
910.368	7952.66
910.681	7868.82
910.994	7890.96
911.307	7783.62
911.619	7727.58
911.932	7790.18
912.244	7721.48
912.557	7710.18
912.869	7656.17
913.181	7630.86
913.494	7600.58
913.806	7499.56
914.118	7557.19
914.43	7503.63
914.742	7482.84
915.054	7462.73
915.366	7426.34
915.678	7342.05
915.99	7340.47
916.302	7298.21
916.613	7267.93
916.925	7255.95
917.236	7213.92
917.548	7235.16
917.859	7183.86
918.171	7196.75
918.482	7103.87
918.794	7081.04
919.105	7067.26
919.416	6989.07
919.727	6961.5
920.038	7035.62
920.349	6951.55
920.66	6952.91
920.971	6908.84
921.282	6876.53
921.593	6783.2
921.903	6770.54
922.214	6828.39
922.525	6736.87
922.835	6729.64
923.146	6663.65
923.456	6673.37
923.767	6691.45
924.077	6636.53
924.387	6593.6
924.697	6570.1
925.008	6476.76
925.318	6492.36
925.628	6508.63
925.938	6508.18
926.248	6405.81
926.558	6404.68
926.867	6367.84
927.177	6356.99
927.487	6313.61
927.796	6284
928.106	6229.09
928.416	6242.87
928.725	6225.92
929.034	6153.84
929.344	6155.19
929.653	6150.22
929.962	6111.35
930.271	6099.6
930.581	6012.37
930.89	6008.53
931.199	6016.44
931.508	5953.61
931.817	6006.95
932.125	5981.41
932.434	5909.1
932.743	5839.27
933.051	5849.21
933.36	5855.31
933.669	5835.2
933.977	5780.74
934.286	5753.85
934.594	5778.7
934.902	5725.6
935.21	5707.29
935.519	5678.82
935.827	5672.49
936.135	5580.97
936.443	5596.11
936.751	5639.72
937.059	5568.31
937.367	5525.83
937.674	5579.84
937.982	5495.55
938.29	5470.24
938.597	5430.24
938.905	5425.72
939.213	5361.54
939.52	5328.77
939.827	5384.14
940.135	5345.5
940.442	5279.96
940.749	5299.17
941.056	5313.63
941.363	5203.58
941.67	5217.59
941.977	5194.09
942.284	5128.1
942.591	5153.18
942.898	5151.38
943.205	5107.76
943.511	5060.08
943.818	5063.02
944.125	5037.48
944.431	4960.65
944.738	5008.33
945.044	4957.71
945.35	4944.6
945.657	4898.28
945.963	4882
946.269	4858.05
946.575	4863.25
946.881	4796.58
947.187	4798.62
947.493	4804.94
947.799	4825.06
948.105	4745.74
948.41	4736.47
948.716	4708.45
949.022	4682.91
949.327	4686.76
949.633	4617.15
949.938	4672.52
950.244	4653.08
950.549	4610.37
950.854	4614.89
951.16	4601.11
951.465	4534.22
951.77	4503.71
952.075	4504.16
952.38	4447.21
952.685	4478.85
952.99	4434.11
953.294	4454.9
953.599	4372.41
953.904	4403.82
954.209	4338.06
954.513	4379.19
954.818	4336.71
955.122	4288.57
955.426	4291.06
955.731	4235.92
956.035	4263.49
956.339	4202.02
956.643	4237.73
956.948	4211.74
957.252	4192.53
957.556	4156.6
957.86	4174.45
958.163	4174.68
958.467	4127
958.771	4088.35
959.075	4101.91
959.378	4073.21
959.682	4031.63
959.985	4043.38
960.289	4044.96
960.592	3967.45
960.896	3988.92
961.199	3924.52
961.502	3923.84
961.805	3952.76
962.108	3887.45
962.411	3889.26
962.714	3847.91
963.017	3863.05
963.32	3835.48
963.623	3832.99
963.926	3807
964.228	3767.91
964.531	3767.46
964.833	3757.51
965.136	3714.13
965.438	3691.98
965.741	3706.22
966.043	3662.83
966.345	3664.41
966.648	3652.21
966.95	3647.23
967.252	3641.13
967.554	3605.2
967.856	3614.69
968.158	3596.61
968.46	3559.33
968.761	3557.97
969.063	3476.39
969.365	3533.11
969.666	3492.89
969.968	3464.87
970.269	3460.8
970.571	3481.59
970.872	3442.95
971.174	3396.17
971.475	3425.77
971.776	3397.07
972.077	3375.83
972.378	3395.04
972.679	3382.38
972.98	3361.82
973.281	3342.61
973.582	3292.44
973.883	3306.9
974.183	3262.84
974.484	3280.46
974.785	3278.88
975.085	3253.57
975.386	3264.42
975.686	3192.78
975.986	3187.36
976.287	3156.17
976.587	3136.97
976.887	3138.1
977.187	3139.9
977.487	3155.95
977.787	3146.23
978.087	3125.67
978.387	3122.5
978.687	3083.86
978.987	3098.77
979.286	3021.26
979.586	3022.84
979.885	3020.58
980.185	3007.48
980.484	3017.19
980.784	3005.44
981.083	2954.82
981.382	2963.18
981.682	2896.97
981.981	2942.62
982.28	2950.3
982.579	2890.64
982.878	2904.2
983.177	2858.55
983.475	2885.45
983.774	2866.01
984.073	2835.73
984.372	2817.2
984.67	2828.73
984.969	2800.93
985.267	2810.87
985.566	2783.08
985.864	2763.87
986.162	2791.89
986.461	2720.93
986.759	2733.81
987.057	2704.43
987.355	2695.85
987.653	2653.81
987.951	2686.81
988.249	2657.66
988.547	2650.42
988.844	2605
989.142	2645.91
989.44	2585.79
989.737	2552.8
990.035	2608.62
990.332	2600.93
990.63	2534.95
990.927	2548.73
991.224	2527.72
991.521	2535.17
991.819	2517.09
992.116	2493.14
992.413	2503.54
992.71	2502.63
993.006	2432.35
993.303	2432.8
993.6	2462.18
993.897	2431.9
994.193	2413.14
994.49	2417.21
994.787	2394.39
995.083	2343.77
995.379	2375.63
995.676	2379.7
995.972	2368.85
996.268	2313.48
996.565	2309.87
996.861	2308.06
997.157	2303.99
997.453	2290.89
997.749	2273.49
998.044	2277.78
998.34	2275.75
998.636	2242.53
998.932	2221.06
999.227	2252.7
999.523	2193.71
999.818	2206.82
1000.114	2173.38
1000.409	2172.25
1000.704	2163.88
1001	2107.84
1001.295	2134.28
1001.59	2125.47
1001.885	2120.27
1002.18	2084.79
1002.475	2120.5
1002.77	2073.94
1003.065	2051.34
1003.359	2096.09
1003.654	2066.49
1003.949	2032.14
1004.243	2013.83
1004.538	2012.7
1004.832	1994.4
1005.127	2025.58
1005.421	1995.75
1005.715	1985.58
1006.009	1955.3
1006.304	1951.01
1006.598	1924.79
1006.892	1928.41
1007.186	1888.86
1007.48	1873.04
1007.773	1876.66
1008.067	1856.32
1008.361	1875.08
1008.655	1830.33
1008.948	1848.64
1009.242	1838.47
1009.535	1846.38
1009.829	1826.49
1010.122	1810.9
1010.415	1796.44
1010.708	1770
1011.001	1793.95
1011.295	1765.7
1011.588	1746.49
1011.881	1737.68
1012.173	1747.17
1012.466	1734.97
1012.759	1704.46
1013.052	1721.41
1013.344	1682.99
1013.637	1696.55
1013.93	1670.34
1014.222	1667.17
1014.514	1651.58
1014.807	1657.23
1015.099	1625.59
1015.391	1613.62
1015.683	1620.85
1015.976	1610.23
1016.268	1620.4
1016.56	1611.81
1016.851	1585.37
1017.143	1560.74
1017.435	1565.93
1017.727	1561.64
1018.018	1562.09
1018.31	1519.38
1018.602	1462.21
1018.893	1518.48
1019.185	1502.21
1019.476	1520.06
1019.767	1487.52
1020.058	1458.37
1020.35	1454.98
1020.641	1444.13
1020.932	1433.06
1021.223	1443.68
1021.514	1416.56
1021.804	1396.22
1022.095	1399.61
1022.386	1385.83
1022.677	1392.15
1022.967	1369.55
1023.258	1386.28
1023.548	1372.27
1023.839	1340.4
1024.129	1334.08
1024.419	1354.19
1024.709	1311.25
1025	1299.5
1025.29	1325.04
1025.58	1307.18
1025.87	1279.61
1026.16	1297.47
1026.449	1284.58
1026.739	1274.64
1027.029	1287.75
1027.319	1254.3
1027.608	1246.62
1027.898	1230.8
1028.187	1214.3
1028.477	1205.72
1028.766	1192.38
1029.055	1199.16
1029.344	1213.85
1029.634	1200.52
1029.923	1181.54
1030.212	1178.6
1030.501	1153.74
1030.79	1190.58
1031.078	1140.63
1031.367	1145.15
1031.656	1185.38
1031.945	1103.35
1032.233	1131.82
1032.522	1086.62
1032.81	1087.53
1033.099	1094.31
1033.387	1093.63
1033.675	1078.94
1033.963	1067.19
1034.251	1069.45
1034.54	1070.58
1034.828	1047.53
1035.116	1030.58
1035.403	1054.31
1035.691	1047.3
1035.979	1036
1036.267	1033.74
1036.554	1009.34
1036.842	1002.33
1037.129	999.85
1037.417	1030.58
1037.704	1009.79
1037.992	963.92
1038.279	981.99
1038.566	994.65
1038.853	994.65
1039.14	994.65
