Data from hue_24_FLMS001491_00056.txt Node
Date: Tue Feb 07 17:12:27 GMT 2017
User: dcchb
Spectrometer: FLMS00149
Trigger mode: 0
Integration Time (sec): 2.000000E-2
Scans to average: 10
Electric dark correction enabled: true
Nonlinearity correction enabled: false
Boxcar width: 0
XAxis mode: Wavelengths
Number of Pixels in Spectrum: 2048
>>>>>Begin Spectral Data<<<<<
341.393	-7.12
341.776	-7.12
342.16	-7.12
342.543	-63.16
342.927	-62.71
343.31	-55.93
343.693	-74.24
344.077	-67.91
344.46	-73.78
344.843	-53.9
345.226	-33.33
345.61	-20.9
345.993	-24.29
346.376	1.02
346.759	3.05
347.142	7.12
347.525	45.76
347.908	62.71
348.291	74.24
348.674	90.51
349.057	119.88
349.44	129.15
349.823	145.19
350.206	171.41
350.588	172.31
350.971	222.48
351.354	211.86
351.737	245.76
352.119	245.76
352.502	267
352.884	271.52
353.267	286.21
353.65	311.74
354.032	315.58
354.414	307.68
354.797	310.61
355.179	322.82
355.562	313.55
355.944	337.28
356.326	341.8
356.709	323.49
357.091	355.81
357.473	362.36
357.855	338.41
358.238	342.25
358.62	328.69
359.002	336.6
359.384	352.65
359.766	322.14
360.148	347.45
360.53	344.28
360.912	364.4
361.294	334.57
361.676	343.83
362.057	330.5
362.439	341.12
362.821	321.69
363.203	322.14
363.584	307.9
363.966	331.86
364.348	339.99
364.729	322.82
365.111	337.73
365.493	327.79
365.874	309.03
366.256	311.52
366.637	304.29
367.019	320.78
367.4	313.33
367.781	313.78
368.163	304.06
368.544	329.6
368.925	319.88
369.306	302.7
369.688	306.32
370.069	316.04
370.45	319.65
370.831	317.62
371.212	327.34
371.593	319.43
371.974	303.61
372.355	290.05
372.736	314
373.117	325.98
373.498	297.51
373.879	302.93
374.26	307.68
374.641	307.9
375.021	331.86
375.402	330.5
375.783	325.08
376.163	319.2
376.544	336.83
376.925	342.7
377.305	330.73
377.686	337.28
378.066	332.53
378.447	350.16
378.827	329.37
379.208	330.95
379.588	327.79
379.968	326.66
380.349	351.74
380.729	351.06
381.109	339.09
381.489	331.63
381.87	346.09
382.25	353.32
382.63	333.89
383.01	324.62
383.39	343.61
383.77	355.13
384.15	340.89
384.53	349.48
384.91	339.99
385.29	339.99
385.67	346.09
386.049	361.23
386.429	339.31
386.809	358.07
387.189	361.46
387.568	370.5
387.948	361.91
388.328	352.65
388.707	382.02
389.087	354.68
389.466	360.56
389.846	367.33
390.225	363.95
390.605	361.01
390.984	354.45
391.363	370.95
391.743	343.83
392.122	377.5
392.501	368.01
392.881	359.43
393.26	387.22
393.639	349.48
394.018	377.28
394.397	382.48
394.776	384.06
395.155	365.08
395.534	376.37
395.913	380.22
396.292	391.74
396.671	398.52
397.05	393.1
397.429	396.94
397.808	376.83
398.186	400.78
398.565	380.89
398.944	366.66
399.323	402.59
399.701	407.56
400.08	374.79
400.458	387
400.837	394.45
401.215	384.96
401.594	398.52
401.972	396.49
402.351	404.85
402.729	415.24
403.107	404.4
403.486	395.58
403.864	431.51
404.242	408.92
404.62	413.21
404.999	402.36
405.377	407.56
405.755	412.98
406.133	438.07
406.511	405.53
406.889	416.6
407.267	431.06
407.645	428.58
408.023	395.58
408.401	425.41
408.779	418.86
409.156	432.19
409.534	434.68
409.912	440.55
410.29	442.81
410.667	471.06
411.045	448.46
411.422	440.55
411.8	457.73
412.178	457.05
412.555	439.88
412.933	461.12
413.31	455.02
413.687	483.26
414.065	487.11
414.442	474.22
414.819	479.87
415.197	494.11
415.574	484.39
415.951	466.09
416.328	488.46
416.705	488.01
417.082	484.39
417.46	504.05
417.837	479.42
418.214	501.79
418.591	494.34
418.967	528.69
419.344	495.69
419.721	497.73
420.098	493.89
420.475	499.53
420.852	498.4
421.228	514.22
421.605	524.62
421.982	520.33
422.358	497.95
422.735	529.14
423.111	535.01
423.488	528.69
423.864	529.14
424.241	523.72
424.617	543.6
424.994	542.02
425.37	543.15
425.746	556.71
426.123	543.83
426.499	571.17
426.875	527.78
427.251	566.88
427.627	553.54
428.003	557.16
428.379	572.3
428.756	580.66
429.132	594.67
429.507	602.13
429.883	584.28
430.259	588.35
430.635	571.85
431.011	581.34
431.387	594.22
431.763	615.24
432.138	604.84
432.514	630.6
432.89	635.12
433.265	611.85
433.641	636.93
434.016	649.59
434.392	630.15
434.767	643.26
435.143	640.55
435.518	654.56
435.894	661.34
436.269	652.3
436.644	667.67
437.02	667.67
437.395	660.43
437.77	698.4
438.145	667.21
438.52	680.77
438.895	679.42
439.271	690.94
439.646	719.64
440.021	714.22
440.395	702.92
440.77	695.01
441.145	724.61
441.52	735.23
441.895	721.45
442.27	708.34
442.645	743.37
443.019	753.99
443.394	731.39
443.769	749.47
444.143	747.21
444.518	752.64
444.892	735.01
445.267	735.01
445.641	748.57
446.016	758.96
446.39	776.14
446.764	773.88
447.139	774.33
447.513	790.37
447.887	784.73
448.262	782.01
448.636	798.96
449.01	795.35
449.384	787.89
449.758	798.51
450.132	830.15
450.506	817.72
450.88	832.18
451.254	814.55
451.628	813.65
452.002	850.49
452.376	828.11
452.75	815.91
453.123	852.52
453.497	869.24
453.871	873.76
454.244	879.64
454.618	870.15
454.992	867.89
455.365	876.93
455.739	896.59
456.112	934.33
456.486	920.31
456.859	918.05
457.232	935.46
457.606	966.42
457.979	967.32
458.352	971.39
458.725	978.62
459.099	989.69
459.472	1013.65
459.845	977.26
460.218	983.36
460.591	995.79
460.964	1005.28
461.337	1048.45
461.71	1055
462.083	1054.1
462.456	1058.62
462.829	1065.4
463.201	1092.97
463.574	1079.86
463.947	1079.63
464.32	1133.19
464.692	1114.66
465.065	1144.72
465.438	1139.74
465.81	1136.81
466.183	1180.19
466.555	1185.39
466.928	1178.39
467.3	1180.87
467.672	1203.47
468.045	1246.18
468.417	1257.03
468.789	1246.41
469.161	1273.75
469.534	1304.49
469.906	1309.46
470.278	1315.33
470.65	1344.48
471.022	1348.33
471.394	1389
471.766	1378.16
472.138	1416.8
472.51	1479.85
472.882	1477.14
473.253	1492.96
473.625	1491.83
473.997	1557.59
474.369	1518.04
474.74	1559.39
475.112	1557.13
475.484	1597.13
475.855	1664.7
476.227	1640.3
476.598	1719.62
476.97	1711.25
477.341	1754.19
477.713	1788.99
478.084	1810.91
478.455	1843.23
478.827	1862.89
479.198	1944.47
479.569	1964.36
479.94	1992.15
480.311	1991.25
480.682	2028.99
481.053	2091.81
481.424	2145.37
481.795	2137.68
482.166	2194.41
482.537	2208.19
482.908	2282.76
483.279	2344.01
483.65	2354.4
484.021	2385.59
484.391	2458.35
484.762	2511.23
485.133	2506.71
485.503	2569.99
485.874	2616.32
486.244	2643.43
486.615	2700.61
486.985	2751.45
487.356	2806.59
487.726	2828.06
488.097	2893.6
488.467	2908.29
488.837	2981.28
489.207	2999.13
489.578	3047.72
489.948	3117.09
490.318	3177.43
490.688	3180.59
491.058	3190.99
491.428	3305.34
491.798	3336.75
492.168	3394.15
492.538	3333.81
492.908	3489.74
493.278	3564.77
493.648	3535.84
494.017	3577.65
494.387	3640.02
494.757	3682.28
495.126	3688.15
495.496	3717.08
495.866	3762.73
496.235	3813.12
496.605	3837.75
496.974	3874.81
497.344	3941.03
497.713	3977.64
498.082	3993.45
498.452	4003.85
498.821	4054.24
499.19	4060.35
499.559	4113.9
499.928	4064.41
500.298	4199.55
500.667	4216.95
501.036	4194.58
501.405	4199.55
501.774	4231.41
502.143	4283.16
502.512	4310.28
502.88	4307.8
503.249	4357.74
503.618	4400.68
503.987	4441.58
504.356	4466.66
504.724	4499.88
505.093	4514.8
505.462	4512.54
505.83	4575.13
506.199	4576.94
506.567	4654
506.936	4598.64
507.304	4663.95
507.672	4697.16
508.041	4694
508.409	4700.55
508.777	4782.36
509.145	4829.36
509.514	4834.34
509.882	4842.02
510.25	4818.07
510.618	4896.71
510.986	4865.97
511.354	4936.93
511.722	4944.62
512.09	4980.77
512.458	5014.67
512.826	5079.08
513.193	5025.52
513.561	5034.33
513.929	5100.77
514.297	5112.97
514.664	5119.53
515.032	5156.59
515.4	5165.85
515.767	5191.16
516.135	5265.96
516.502	5179.19
516.869	5215.57
517.237	5257.6
517.604	5295.79
517.972	5309.35
518.339	5374.89
518.706	5397.94
519.073	5355.45
519.44	5382.57
519.808	5420.99
520.175	5407.43
520.542	5498.27
520.909	5484.94
521.276	5528.1
521.643	5529.69
522.009	5642.9
522.376	5592.51
522.743	5602.9
523.11	5712.28
523.477	5738.72
523.843	5768.32
524.21	5784.82
524.577	5830.24
524.943	5843.58
525.31	5851.48
525.676	5935.32
526.043	5973.52
526.409	5955.89
526.776	6025.27
527.142	6013.06
527.508	6032.95
527.874	6097.13
528.241	6156.79
528.607	6170.35
528.973	6178.71
529.339	6207.86
529.705	6280.85
530.071	6302.55
530.437	6293.96
530.803	6314.98
531.169	6354.07
531.535	6347.29
531.901	6394.97
532.267	6416.89
532.632	6462.54
532.998	6498.25
533.364	6566.04
533.73	6536.66
534.095	6581.41
534.461	6658.47
534.826	6650.79
535.192	6675.42
535.557	6718.35
535.923	6759.26
536.288	6785.47
536.653	6781.4
537.019	6769.88
537.384	6790.44
537.749	6768.52
538.114	6884
538.479	6908.63
538.845	6879.25
539.21	6893.94
539.575	6984.79
539.94	6966.71
540.305	7048.52
540.67	7020.49
541.034	7020.27
541.399	7109.08
541.764	7153.82
542.129	7126.25
542.494	7130.55
542.858	7253.93
543.223	7213.93
543.587	7288.73
543.952	7313.37
544.316	7301.84
544.681	7324.89
545.045	7302.29
545.41	7434.04
545.774	7472.23
546.138	7458.22
546.503	7503.87
546.867	7474.72
547.231	7559.24
547.595	7530.54
547.959	7595.17
548.324	7644.66
548.688	7626.58
549.052	7630.42
549.416	7661.38
549.779	7718.78
550.143	7715.84
550.507	7762.39
550.871	7807.14
551.235	7819.57
551.599	7884.2
551.962	7931.43
552.326	7909.74
552.689	7949.28
553.053	7929.17
553.417	8002.39
553.78	8075.83
554.143	8031.99
554.507	8081.03
554.87	8094.14
555.234	8152.89
555.597	8147.7
555.96	8198.99
556.323	8207.81
556.686	8181.82
557.05	8244.42
557.413	8282.38
557.776	8317.63
558.139	8323.96
558.502	8386.56
558.865	8307.47
559.228	8391.53
559.59	8493.67
559.953	8416.16
560.316	8480.57
560.679	8519.66
561.041	8603.28
561.404	8615.03
561.767	8657.51
562.129	8647.8
562.492	8710.84
562.854	8791.07
563.217	8743.61
563.579	8763.5
563.941	8828.36
564.304	8872.87
564.666	8958.75
565.028	8921.69
565.39	8914.23
565.753	9008.92
566.115	9024.06
566.477	9043.72
566.839	9070.38
567.201	9150.38
567.563	9127.1
567.925	9216.37
568.287	9185.86
568.648	9200.55
569.01	9282.58
569.372	9340.66
569.734	9320.55
570.095	9421.56
570.457	9481.9
570.819	9465.85
571.18	9528
571.542	9576.58
571.903	9560.77
572.265	9663.14
572.626	9668.11
572.987	9727.54
573.349	9758.73
573.71	9798.27
574.071	9851.38
574.432	9927.76
574.794	10044.14
575.155	10069.68
575.516	10066.06
575.877	10174.31
576.238	10208.88
576.599	10247.3
576.96	10385.15
577.32	10401.87
577.681	10523.45
578.042	10561.87
578.403	10661.3
578.763	10810.9
579.124	10824.91
579.485	10957.34
579.845	11126.6
580.206	11151.46
580.566	11301.28
580.927	11329.53
581.287	11469.42
581.648	11591.22
582.008	11686.13
582.368	11833.47
582.728	12012.9
583.089	12072.56
583.449	12223.52
583.809	12470.75
584.169	12549.84
584.529	12720.68
584.889	12988.92
585.249	13111.63
585.609	13207.45
585.969	13506.65
586.329	13751.62
586.688	13941.89
587.048	14090.59
587.408	14403.35
587.768	14534.19
588.127	14803.11
588.487	14990
588.846	15296.43
589.206	15400.16
589.565	15706.14
589.925	16047.15
590.284	16298.67
590.643	16529.85
591.003	16848.03
591.362	17124.18
591.721	17350.17
592.08	17664.28
592.44	17941.34
592.799	18215
593.158	18528.89
593.517	18818.6
593.876	19073.28
594.235	19372.71
594.593	19803.89
594.952	20003.2
595.311	20319.13
595.67	20592.79
596.029	21080.91
596.387	21368.59
596.746	21569.04
597.104	21914.11
597.463	22163.82
597.822	22614.66
598.18	22812.17
598.538	23084.93
598.897	23444.02
599.255	23573.5
599.613	24266.59
599.972	24368.74
600.33	24706.81
600.688	24960.59
601.046	25323.74
601.404	25725.09
601.762	25885.53
602.12	26301.34
602.478	26725.29
602.836	26892.29
603.194	27072.85
603.552	27335.67
603.91	27582.44
604.268	27934.75
604.625	28129.99
604.983	28574.5
605.341	28729.98
605.698	29000.25
606.056	29463.29
606.413	29533.35
606.771	29993.9
607.128	30244.97
607.485	30290.62
607.843	30495.13
608.2	30885.85
608.557	31265.96
608.914	31410.36
609.272	31885.38
609.629	32051.47
609.986	32312.94
610.343	32438.13
610.7	32708.18
611.057	32917.21
611.414	33123.54
611.771	33363.3
612.127	33645.33
612.484	33861.14
612.841	34089.61
613.198	33969.62
613.554	34235.37
613.911	34713.55
614.267	34783.15
614.624	34967.1
614.98	35109.02
615.337	35476.02
615.693	35605.5
616.05	35670.59
616.406	36158.26
616.762	36027.64
617.118	36171.14
617.475	36260.85
617.831	36595.76
618.187	36810.44
618.543	36789.2
618.899	37163.43
619.255	37307.83
619.611	37367.94
619.967	37578.33
620.323	37785.79
620.678	37711.21
621.034	37847.03
621.39	37956.63
621.746	37960.92
622.101	38476.84
622.457	38262.61
622.812	38598.87
623.168	38562.71
623.523	38836.38
623.879	38863.05
624.234	38762.26
624.589	39175.58
624.945	39071.85
625.3	39251.96
625.655	39251.96
626.01	39347.1
626.365	39448.12
626.72	39531.73
627.075	39470.94
627.43	39603.37
627.785	39557.04
628.14	39681.56
628.495	39846.52
628.85	39963.13
629.205	39666.41
629.559	40067.08
629.914	39811.72
630.269	39942.11
630.623	39893.53
630.978	39929.01
631.332	40253.74
631.687	40364.93
632.041	40219.85
632.396	40284.93
632.75	40247.19
633.104	40197.25
633.459	40081.77
633.813	40168.55
634.167	40164.48
634.521	40106.63
634.875	40239.51
635.229	40243.8
635.583	40108.44
635.937	40026.18
636.291	40256.68
636.645	40237.93
636.999	40265.95
637.352	40318.6
637.706	40103.47
638.06	40303.69
638.413	40241.77
638.767	40143.46
639.121	40210.36
639.474	40020.3
639.828	40185.5
640.181	40174.88
640.534	40227.98
640.888	40047.87
641.241	39974.88
641.594	40059.17
641.947	40243.8
642.301	40142.79
642.654	40263.01
643.007	40257.81
643.36	40122.9
643.713	40035.22
644.066	40328.77
644.419	40062.11
644.771	39663.93
645.124	39505.97
645.477	39402.69
645.83	39143.26
646.182	39005.19
646.535	38904.17
646.888	39056.94
647.24	38880.45
647.593	39083.38
647.945	38985.08
648.298	38862.14
648.65	38803.84
649.002	38774.91
649.355	38891.07
649.707	38851.75
650.059	39046.09
650.411	39543.93
650.763	39443.6
651.115	40085.84
651.467	39802
651.819	39915.45
652.171	39708.22
652.523	39602.91
652.875	39530.15
653.227	39536.25
653.578	39789.8
653.93	39691.72
654.282	39427.78
654.633	39409.25
654.985	39489.7
655.337	39617.38
655.688	39553.88
656.039	39733.98
656.391	39363.37
656.742	39376.25
657.094	39466.65
657.445	39515.91
657.796	39498.28
658.147	39515.68
658.498	39362.02
658.849	39555.91
659.2	39265.97
659.551	39273.2
659.902	39444.73
660.253	39376.93
660.604	39597.94
660.955	39180.78
661.306	39413.99
661.656	39321.79
662.007	39427.78
662.358	39336.03
662.708	39380.32
663.059	39377.83
663.409	39009.26
663.76	39438.85
664.11	39405.63
664.461	39350.04
664.811	39363.82
665.161	39378.74
665.511	39180.1
665.862	39372.86
666.212	39456.93
666.562	39434.78
666.912	39350.26
667.262	39201.12
667.612	39219.87
667.962	39395.46
668.312	39108.92
668.662	39398.85
669.011	39310.72
669.361	39052.65
669.711	39124.28
670.06	39146.88
670.41	39075.92
670.76	39124.28
671.109	39218.97
671.459	39195.69
671.808	38985.08
672.157	39144.39
672.507	38925.64
672.856	39064.17
673.205	39015.58
673.554	39007
673.904	38936.94
674.253	39225.52
674.602	39038.18
674.951	38506.67
675.3	38231.2
675.649	38855.14
675.998	38866.44
676.346	38810.39
676.695	39009.48
677.044	38745.53
677.393	38830.96
677.741	38901.91
678.09	38725.65
678.438	38658.53
678.787	38655.59
679.135	38713.22
679.484	38485.88
679.832	38698.3
680.181	38411.53
680.529	38512.55
680.877	38452.89
681.225	38290.63
681.573	38604.52
681.922	38370.86
682.27	38197.07
682.618	38291.08
682.966	38049.28
683.314	38286.56
683.661	38075.95
684.009	37867.82
684.357	38047.25
684.705	37975.84
685.053	37929.29
685.4	37816.52
685.748	37768.61
686.095	37730.87
686.443	37632.57
686.79	37507.6
687.138	37599.58
687.485	37452.46
687.832	37496.75
688.18	37387.6
688.527	37216.76
688.874	37209.3
689.221	37178.57
689.568	37023.55
689.915	37024.68
690.262	36914.62
690.609	36869.88
690.956	36706.04
691.303	36626.04
691.65	36487.52
691.997	36598.7
692.344	36421.98
692.69	36313.73
693.037	36324.36
693.383	35918.49
693.73	36255.88
694.077	35867.64
694.423	35981.77
694.769	35793.75
695.116	35754.88
695.462	35846.4
695.808	35656.58
696.155	35693.86
696.501	35335.68
696.847	35261.33
697.193	35042.13
697.539	35181.33
697.885	34995.8
698.231	34919.42
698.577	34916.26
698.923	34849.59
699.269	34732.76
699.614	34665.64
699.96	34443.28
700.306	34540.45
700.651	34397.85
700.997	34269.49
701.342	34199.44
701.688	34160.34
702.033	34104.53
702.379	34056.84
702.724	33963.74
703.069	34027.01
703.415	33651.88
703.76	33721.26
704.105	33789.96
704.45	33645.1
704.795	33346.58
705.14	33312.91
705.485	33375.73
705.83	33135.74
706.175	33273.14
706.52	33200.37
706.865	32986.36
707.209	32852.81
707.554	32849.87
707.899	32939.13
708.243	32627.73
708.588	32554.51
708.932	32368.75
709.277	32450.56
709.621	32401.97
709.966	32293.73
710.31	32295.31
710.654	32060.06
710.998	32204.01
711.342	32008.08
711.687	31974.64
712.031	31906.62
712.375	31833.85
712.719	31797.02
713.063	31775.55
713.407	31943
713.75	31582.11
714.094	31714.53
714.438	31464.82
714.782	31582.11
715.125	31402.45
715.469	31304.37
715.812	31300.98
716.156	31076.13
716.499	31186.64
716.843	31140.09
717.186	30912.07
717.53	31150.48
717.873	31012.4
718.216	30876.82
718.559	30814.44
718.902	30690.61
719.246	30638.4
719.589	30630.72
719.932	30523.83
720.275	30520.44
720.617	30450.84
720.96	30536.49
721.303	30327.23
721.646	30416.49
721.989	30197.29
722.331	30288.13
722.674	30268.47
723.016	30265.08
723.359	30111.86
723.701	30117.29
724.044	29948.03
724.386	29756.62
724.729	29958.2
725.071	29863.73
725.413	29874.36
725.755	29820.8
726.097	29637.53
726.439	29479.11
726.782	29515.95
727.124	29661.03
727.465	29513.01
727.807	29488.6
728.149	29408.15
728.491	29379.23
728.833	29404.76
729.175	29450.64
729.516	29251.1
729.858	29310.3
730.199	29212.68
730.541	29207.93
730.882	29306.46
731.224	29239.34
731.565	28988.05
731.906	28954.83
732.248	29037.54
732.589	28791.9
732.93	28813.14
733.271	28690.88
733.612	28804.55
733.953	28822.18
734.294	28662.18
734.635	28602.75
734.976	28721.62
735.317	28528.4
735.658	28468.29
735.999	28570.66
736.339	28527.95
736.68	28467.16
737.021	28395.52
737.361	28314.85
737.702	28416.31
738.042	28318.24
738.383	28281.63
738.723	28209.99
739.063	28135.64
739.404	28236.66
739.744	28095.87
740.084	28096.1
740.424	28060.62
740.764	27944.69
741.104	28128.19
741.444	28071.69
741.784	27826.95
742.124	27989.66
742.464	27980.17
742.804	27703.79
743.143	27755.09
743.483	27855.65
743.823	27653.62
744.162	27553.06
744.502	27622.21
744.841	27643.45
745.181	27565.26
745.52	27504.02
745.86	27612.27
746.199	27561.65
746.538	27525.26
746.877	27370.92
747.216	27440.97
747.556	27420.18
747.895	27322.56
748.234	27334.31
748.573	27080.53
748.911	27141.77
749.25	27119.63
749.589	27141.32
749.928	27078.95
750.267	27188.32
750.605	27019.52
750.944	27038.27
751.283	26919.18
751.621	27031.27
751.96	26816.36
752.298	26803.25
752.636	26833.76
752.975	26744.95
753.313	26595.57
753.651	26548.57
753.989	26459.08
754.327	26516.48
754.666	26350.15
755.004	26253.21
755.342	26411.17
755.679	26404.84
756.017	26176.37
756.355	26381.79
756.693	26248.46
757.031	26252.76
757.368	25990.84
757.706	25982.25
758.044	25851.86
758.381	25916.72
758.719	25913.33
759.056	26017.06
759.394	25795.59
759.731	25738.42
760.068	25603.06
760.405	25440.35
760.743	25472.66
761.08	25473.79
761.417	25333.91
761.754	25293.91
762.091	25263.63
762.428	25203.74
762.765	25042.62
763.102	25197.19
763.438	25012.79
763.775	24849.18
764.112	24809.4
764.449	24851.44
764.785	24754.26
765.122	24570.77
765.458	24529.64
765.795	24514.27
766.131	24485.57
766.467	24250.1
766.804	24217.33
767.14	24101.63
767.476	24135.98
767.812	23968.75
768.148	24027.5
768.485	24045.58
768.821	23771.47
769.157	23725.82
769.492	23714.74
769.828	23673.61
770.164	23493.73
770.5	23413.73
770.836	23409.44
771.171	23245.15
771.507	23253.74
771.842	23081.09
772.178	23037.25
772.513	23031.37
772.849	22870.92
773.184	22889.45
773.519	22807.42
773.855	22671.38
774.19	22635
774.525	22538.5
774.86	22553.87
775.195	22475.45
775.53	22393.2
775.865	22268.91
776.2	22068.01
776.535	21988.91
776.87	22004.05
777.205	21986.65
777.539	21815.81
777.874	21867.11
778.209	21657.62
778.543	21615.36
778.878	21517.74
779.212	21440.23
779.547	21308.03
779.881	21432.77
780.215	21301.7
780.55	21246.56
780.884	21080.46
781.218	21080.91
781.552	20935.61
781.886	20865.55
782.22	20797.76
782.554	20682.06
782.888	20560.25
783.222	20578.33
783.556	20385.34
783.889	20423.3
784.223	20229.19
784.557	20153.71
784.89	20230.99
785.224	20002.3
785.557	19994.62
785.891	19914.39
786.224	19896.99
786.558	19926.37
786.891	19744.68
787.224	19669.65
787.557	19478.24
787.891	19565.25
788.224	19541.07
788.557	19510.33
788.89	19362.32
789.223	19366.16
789.556	19271.7
789.888	19144.47
790.221	19170.91
790.554	18986.96
790.887	18925.49
791.219	18970.01
791.552	18876.23
791.884	18734.76
792.217	18731.6
792.549	18635.56
792.882	18582.68
793.214	18428.33
793.546	18560.53
793.879	18378.39
794.211	18161.22
794.543	18330.48
794.875	18291.38
795.207	18273.53
795.539	18137.72
795.871	18168.67
796.203	17977.95
796.535	17949.02
796.867	17757.39
797.198	17761.45
797.53	17763.26
797.862	17630.38
798.193	17711.96
798.525	17492.76
798.856	17563.04
799.188	17388.58
799.519	17362.59
799.85	17266.78
800.182	17303.84
800.513	17219.55
800.844	17162.6
801.175	17182.49
801.506	17144.07
801.837	16985.88
802.168	17033.56
802.499	16917.86
802.83	16888.48
803.161	16808.48
803.491	16781.14
803.822	16742.5
804.153	16624.31
804.483	16540.7
804.814	16566.46
805.145	16477.87
805.475	16442.84
805.805	16437.87
806.136	16422.28
806.466	16384.09
806.796	16349.51
807.126	16238.56
807.457	16149.07
807.787	16170.76
808.117	16021.61
808.447	16092.57
808.777	15985.68
809.107	16004.66
809.436	15945.23
809.766	15936.64
810.096	15913.14
810.426	15717.67
810.755	15712.92
811.085	15778.68
811.414	15682.19
811.744	15639.48
812.073	15560.16
812.403	15565.81
812.732	15451.68
813.061	15457.56
813.39	15394.06
813.719	15315.42
814.049	15439.93
814.378	15358.58
814.707	15257.11
815.036	15276.32
815.365	15032.49
815.693	15017.57
816.022	15092.37
816.351	15023.67
816.68	14993.62
817.008	15025.93
817.337	14823.9
817.665	14763.34
817.994	14894.64
818.322	14831.14
818.651	14747.52
818.979	14589.79
819.307	14686.51
819.636	14752.95
819.964	14578.94
820.292	14591.37
820.62	14575.1
820.948	14532.39
821.276	14592.72
821.604	14533.29
821.932	14575.55
822.259	14670.91
822.587	14549.11
822.915	14509.11
823.243	14599.5
823.57	14475.44
823.898	14560.18
824.225	14411.03
824.553	14498.71
824.88	14541.88
825.207	14550.46
825.535	14484.7
825.862	14452.61
826.189	14495.78
826.516	14519.05
826.843	14564.7
827.17	14570.13
827.497	14503.91
827.824	14466.85
828.151	14532.16
828.478	14571.93
828.805	14569.9
829.131	14391.37
829.458	14416.01
829.785	14433.18
830.111	14462.56
830.438	14429.11
830.764	14403.35
831.09	14433.18
831.417	14357.7
831.743	14472.73
832.069	14459.62
832.395	14328.1
832.722	14390.24
833.048	14417.59
833.374	14286.29
833.7	14297.59
834.026	14310.25
834.351	14344.82
834.677	14333.97
835.003	14264.37
835.329	14259.63
835.654	14214.65
835.98	14181.44
836.306	14160.42
836.631	14104.15
836.956	14108.89
837.282	14147.31
837.607	14044.04
837.932	14052.17
838.258	14031.83
838.583	14047.2
838.908	14002.23
839.233	13989.58
839.558	13950.71
839.883	13896.47
840.208	13852.4
840.533	13819.64
840.858	13782.35
841.182	13867.09
841.507	13816.92
841.832	13698.06
842.156	13764.5
842.481	13720.66
842.805	13719.53
843.13	13725.63
843.454	13651.51
843.778	13576.93
844.103	13618.96
844.427	13584.84
844.751	13533.77
845.075	13489.25
845.399	13463.49
845.723	13408.12
846.047	13454.9
846.371	13242.93
846.695	13274.57
847.019	13229.6
847.343	13155.7
847.666	13040.22
847.99	13030.5
848.313	13011.52
848.637	12898.76
848.96	12938.3
849.284	12820.57
849.607	12802.49
849.931	12776.05
850.254	12673.23
850.577	12653.34
850.9	12508.94
851.223	12515.94
851.546	12473.68
851.869	12371.09
852.192	12453.12
852.515	12307.36
852.838	12277.76
853.161	12310.75
853.483	12153.01
853.806	12160.47
854.129	12129.29
854.451	12049.51
854.774	11994.15
855.096	11960.7
855.419	11941.49
855.741	11925.68
856.063	11819.01
856.385	11808.39
856.708	11805.9
857.03	11752.57
857.352	11724.55
857.674	11689.3
857.996	11610.66
858.318	11523.43
858.64	11565.68
858.961	11615.17
859.283	11426.25
859.605	11447.04
859.926	11473.03
860.248	11404.56
860.57	11383.54
860.891	11351
861.212	11295.86
861.534	11303.77
861.855	11268.97
862.176	11254.96
862.498	11254.96
862.819	11202.3
863.14	11155.3
863.461	11203.21
863.782	11043.44
864.103	11113.04
864.424	11188.29
864.745	11107.62
865.065	10954.4
865.386	11023.1
865.707	10935.19
866.027	10972.93
866.348	10999.15
866.668	10920.28
866.989	10918.92
867.309	10863.1
867.63	10933.84
867.95	10858.13
868.27	10858.81
868.59	10852.03
868.91	10825.37
869.23	10745.82
869.55	10775.42
869.87	10838.92
870.19	10714.18
870.51	10780.62
870.83	10710.11
871.15	10687.97
871.469	10635.77
871.789	10708.98
872.109	10684.13
872.428	10570.46
872.748	10645.93
873.067	10582.43
873.386	10627.18
873.706	10536.79
874.025	10515.77
874.344	10464.92
874.663	10536.79
874.982	10451.59
875.301	10524.36
875.62	10421.53
875.939	10396.45
876.258	10376.79
876.577	10398.71
876.896	10378.15
877.214	10299.05
877.533	10266.28
877.852	10304.93
878.17	10408.43
878.489	10271.26
878.807	10287.53
879.125	10249.11
879.444	10258.6
879.762	10189.45
880.08	10197.81
880.398	10147.87
880.716	10148.32
881.034	10124.82
881.352	10124.59
881.67	10064.93
881.988	10071.26
882.306	10045.72
882.624	9997.59
882.941	9986.74
883.259	10013.18
883.577	9982.9
883.894	9968.44
884.212	9901.77
884.529	9866.07
884.846	9912.62
885.164	9800.99
885.481	9825.84
885.798	9844.6
886.115	9824.26
886.432	9727.77
886.75	9677.15
887.067	9659.29
887.383	9684.83
887.7	9673.08
888.017	9642.57
888.334	9659.29
888.651	9573.42
888.967	9518.28
889.284	9501.11
889.6	9490.48
889.917	9454.33
890.233	9521.22
890.55	9470.82
890.866	9406.65
891.182	9356.03
891.498	9349.25
891.815	9344.73
892.131	9250.94
892.447	9303.82
892.763	9246.65
893.079	9215.01
893.395	9196.71
893.71	9197.84
894.026	9115.81
894.342	9163.71
894.657	9039.42
894.973	9065.64
895.289	9055.92
895.604	9043.27
895.92	9007.79
896.235	8875.36
896.55	8900.44
896.865	8886.88
897.181	8885.98
897.496	8838.52
897.811	8821.35
898.126	8754.46
898.441	8746.55
898.756	8709.94
899.071	8678.98
899.386	8630.62
899.7	8584.75
900.015	8558.31
900.33	8525.54
900.644	8486.22
900.959	8511.75
901.273	8447.8
901.588	8379.78
901.902	8337.07
902.216	8321.48
902.531	8330.06
902.845	8309.05
903.159	8269.05
903.473	8271.53
903.787	8175.94
904.101	8185.89
904.415	8224.08
904.729	8103.4
905.042	8115.61
905.356	8073.8
905.67	8007.81
905.984	8062.73
906.297	8017.3
906.611	7972.78
906.924	7944.31
907.237	7913.35
907.551	7928.49
907.864	7914.48
908.177	7819.57
908.491	7756.52
908.804	7767.37
909.117	7714.49
909.43	7704.77
909.743	7610.31
910.056	7596.3
910.368	7549.52
910.681	7557.65
910.994	7544.77
911.307	7417.77
911.619	7439.69
911.932	7462.74
912.244	7451.89
912.557	7370.54
912.869	7293.48
913.181	7337.77
913.494	7280.6
913.806	7267.27
914.118	7196.76
914.43	7162.86
914.742	7157.44
915.054	7141.39
915.366	7104.78
915.678	7080.38
915.99	7028.4
916.302	6992.25
916.613	7009.87
916.925	6994.05
917.236	6954.73
917.548	6877.9
917.859	6847.39
918.171	6835.87
918.482	6822.98
918.794	6704.8
919.105	6805.58
919.416	6715.87
919.727	6719.26
920.038	6655.98
920.349	6620.96
920.66	6586.61
920.971	6574.86
921.282	6593.61
921.593	6549.55
921.903	6507.74
922.214	6476.55
922.525	6471.58
922.835	6415.76
923.146	6394.52
923.456	6363.79
923.767	6342.55
924.077	6335.77
924.387	6270.23
924.697	6173.74
925.008	6250.34
925.318	6221.19
925.628	6167.41
925.938	6186.62
926.248	6093.51
926.558	6108.88
926.867	6092.16
927.177	6060.52
927.487	6032.72
927.796	5962.22
928.106	5968.09
928.416	5884.25
928.725	5977.13
929.034	5895.55
929.344	5903.01
929.653	5872.27
929.962	5838.83
930.271	5816.68
930.581	5808.77
930.89	5685.39
931.199	5750.02
931.508	5697.82
931.817	5653.3
932.125	5682.45
932.434	5629.8
932.743	5581.44
933.051	5531.04
933.36	5528.33
933.669	5482
933.977	5515.45
934.286	5451.5
934.594	5451.04
934.902	5432.96
935.21	5373.76
935.519	5374.89
935.827	5332.18
936.135	5315.91
936.443	5332.4
936.751	5278.84
937.059	5297.6
937.367	5231.84
937.674	5232.29
937.982	5193.87
938.29	5167.21
938.597	5110.04
938.905	5116.14
939.213	5080.43
939.52	5095.57
939.827	5091.96
940.135	5020.32
940.442	5035.01
940.749	4988.23
941.056	5020.55
941.363	4962.02
941.67	4976.48
941.977	4962.24
942.284	4877.95
942.591	4875.01
942.898	4904.84
943.205	4847.9
943.511	4807.67
943.818	4814.22
944.125	4772.64
944.431	4796.82
944.738	4740.1
945.044	4722.25
945.35	4701.23
945.657	4692.42
945.963	4643.15
946.269	4674.34
946.575	4599.54
946.881	4592.08
947.187	4601.57
947.493	4555.7
947.799	4491.52
948.105	4515.47
948.41	4536.49
948.716	4489.49
949.022	4400.45
949.327	4440
949.633	4382.37
949.938	4419.21
950.244	4388.7
950.549	4379.88
950.854	4358.64
951.16	4302.82
951.465	4354.35
951.77	4273.67
952.075	4233.9
952.38	4255.14
952.685	4277.51
952.99	4213.11
953.294	4164.75
953.599	4160.46
953.904	4092.21
954.209	4189.83
954.513	4127.69
954.818	4116.39
955.122	4063.06
955.426	4079.33
955.731	4022.83
956.035	3991.19
956.339	4036.62
956.643	4015.15
956.948	3998.43
957.252	3928.82
957.556	3979.67
957.86	3939.44
958.163	3901.71
958.467	3899.22
958.771	3895.38
959.075	3893.12
959.378	3852.44
959.682	3827.81
959.985	3821.93
960.289	3794.36
960.592	3731.31
960.896	3754.82
961.199	3761.6
961.502	3781.93
961.805	3735.38
962.108	3675.04
962.411	3671.88
962.714	3650.64
963.017	3634.14
963.32	3625.33
963.623	3642.96
963.926	3615.61
964.228	3567.25
964.531	3568.61
964.833	3584.65
965.136	3508.72
965.438	3542.39
965.741	3505.11
966.043	3487.7
966.345	3461.49
966.648	3444.32
966.95	3448.84
967.252	3393.7
967.554	3396.41
967.856	3400.93
968.158	3336.52
968.46	3361.83
968.761	3337.65
969.063	3324.09
969.365	3336.3
969.666	3322.29
969.968	3263.3
970.269	3306.24
970.571	3237.09
970.872	3277.99
971.174	3267.6
971.475	3227.37
971.776	3218.33
972.077	3198.67
972.378	3185.11
972.679	3189.86
972.98	3166.13
973.281	3126.13
973.582	3170.65
973.883	3117.32
974.183	3081.16
974.484	3105.57
974.785	3070.54
975.085	3106.7
975.386	3050.43
975.686	3065.57
975.986	3035.29
976.287	3035.97
976.587	3000.49
976.887	3002.29
977.187	2996.42
977.487	2990.09
977.787	2968.85
978.087	2936.31
978.387	2930.21
978.687	2903.31
978.987	2892.01
979.286	2884.1
979.586	2879.59
979.885	2858.12
980.185	2838.68
980.484	2835.74
980.784	2798.01
981.083	2820.38
981.382	2772.7
981.682	2784.9
981.981	2772.92
982.28	2772.02
982.579	2719.14
982.878	2772.02
983.177	2701.06
983.475	2762.98
983.774	2684.56
984.073	2686.14
984.372	2693.83
984.67	2699.7
984.969	2676.88
985.267	2666.26
985.566	2631
985.864	2615.64
986.162	2610.44
986.461	2587.16
986.759	2603.66
987.057	2550.1
987.355	2542.42
987.653	2528.18
987.951	2549.42
988.249	2547.39
988.547	2528.86
988.844	2526.37
989.142	2535.87
989.44	2465.58
989.737	2485.92
990.035	2459.71
990.332	2428.3
990.63	2452.48
990.927	2443.44
991.224	2431.46
991.521	2408.41
991.819	2394.17
992.116	2382.42
992.413	2371.35
992.71	2387.62
993.006	2339.49
993.303	2313.5
993.6	2320.28
993.897	2336.77
994.193	2333.16
994.49	2287.28
994.787	2274.4
995.083	2252.48
995.379	2240.05
995.676	2215.42
995.972	2240.51
996.268	2241.64
996.565	2210.45
996.861	2240.73
997.157	2195.31
997.453	2180.39
997.749	2175.87
998.044	2141.75
998.34	2134.29
998.636	2127.74
998.932	2101.75
999.227	2125.93
999.523	2127.06
999.818	2101.3
1000.114	2069.21
1000.409	2086.39
1000.704	2031.47
1001	2061.53
1001.295	2010.46
1001.59	2037.35
1001.885	2028.31
1002.18	2054.52
1002.475	2014.3
1002.77	2005.26
1003.065	1958.48
1003.359	1934.75
1003.654	1953.28
1003.949	1949.67
1004.243	1951.93
1004.538	1921.64
1004.832	1930.91
1005.127	1892.27
1005.421	1894.98
1005.715	1878.26
1006.009	1905.83
1006.304	1856.79
1006.598	1835.77
1006.892	1846.84
1007.186	1853.85
1007.48	1829.22
1007.773	1833.29
1008.067	1806.62
1008.361	1788.31
1008.655	1791.03
1008.948	1789.44
1009.242	1759.61
1009.535	1750.35
1009.829	1747.41
1010.122	1734.76
1010.415	1722.33
1010.708	1699.5
1011.001	1708.99
1011.295	1690.24
1011.588	1691.82
1011.881	1681.88
1012.173	1650.92
1012.466	1654.31
1012.759	1659.5
1013.052	1630.8
1013.344	1637.36
1013.637	1612.05
1013.93	1647.3
1014.222	1600.52
1014.514	1571.82
1014.807	1556
1015.099	1571.82
1015.391	1561.2
1015.683	1553.29
1015.976	1520.07
1016.268	1499.73
1016.56	1514.2
1016.851	1487.08
1017.143	1497.47
1017.435	1538.6
1017.727	1500.19
1018.018	1471.26
1018.31	1508.32
1018.602	1473.52
1018.893	1469.9
1019.185	1433.52
1019.476	1443.92
1019.767	1415.89
1020.058	1423.35
1020.35	1401.43
1020.641	1373.41
1020.932	1398.04
1021.223	1361.89
1021.514	1375.67
1021.804	1378.83
1022.095	1365.5
1022.386	1344.48
1022.677	1356.91
1022.967	1345.39
1023.258	1308.55
1023.548	1336.12
1023.839	1283.24
1024.129	1328.44
1024.419	1309.01
1024.709	1266.97
1025	1264.71
1025.29	1262
1025.58	1251.83
1025.87	1250.02
1026.16	1249.57
1026.449	1219.74
1026.739	1199.63
1027.029	1181.1
1027.319	1185.17
1027.608	1198.95
1027.898	1188.33
1028.187	1197.14
1028.477	1205.05
1028.766	1171.61
1029.055	1197.14
1029.344	1147.88
1029.634	1137.94
1029.923	1128.67
1030.212	1144.72
1030.501	1112.85
1030.79	1118.73
1031.078	1132.29
1031.367	1118.28
1031.656	1119.63
1031.945	1071.05
1032.233	1080.54
1032.522	1080.08
1032.81	1079.41
1033.099	1100.42
1033.387	1059.75
1033.675	1027.2
1033.963	1068.33
1034.251	1028.79
1034.54	1034.89
1034.828	1030.82
1035.116	1026.07
1035.403	1015.23
1035.691	1018.62
1035.979	995.12
1036.267	989.24
1036.554	960.54
1036.842	953.99
1037.129	997.6
1037.417	965.74
1037.704	947.88
1037.992	952.86
1038.279	933.65
1038.566	941.33
1038.853	941.33
1039.14	941.33
