Data from hue_300_FLMS001491_00009.txt Node
Date: Tue Feb 07 15:49:39 GMT 2017
User: dcchb
Spectrometer: FLMS00149
Trigger mode: 0
Integration Time (sec): 2.000000E-2
Scans to average: 10
Electric dark correction enabled: true
Nonlinearity correction enabled: false
Boxcar width: 0
XAxis mode: Wavelengths
Number of Pixels in Spectrum: 2048
>>>>>Begin Spectral Data<<<<<
341.393	3.32
341.776	3.32
342.16	3.32
342.543	-50.92
342.927	-59.05
343.31	-67.87
343.693	-80.52
344.077	-59.5
344.46	-50.92
344.843	-51.59
345.226	-33.06
345.61	-27.41
345.993	-37.36
346.376	-8.43
346.759	31.79
347.142	25.69
347.525	42.41
347.908	45.13
348.291	79.02
348.674	88.06
349.057	104.56
349.44	119.93
349.823	161.73
350.206	179.59
350.588	179.36
350.971	212.13
351.354	217.1
351.737	240.38
352.119	238.57
352.502	239.25
352.884	270.66
353.267	258.23
353.65	263.43
354.032	283.99
354.414	298.68
354.797	285.57
355.179	313.37
355.562	318.11
355.944	320.37
356.326	326.25
356.709	332.8
357.091	327.38
357.473	337.1
357.855	317.66
358.238	349.98
358.62	311.56
359.002	320.82
359.384	324.44
359.766	374.38
360.148	317.44
360.53	344.78
360.912	337.32
361.294	319.69
361.676	314.5
362.057	333.48
362.439	330.77
362.821	326.25
363.203	324.67
363.584	330.09
363.966	322.41
364.348	313.37
364.729	332.58
365.111	315.85
365.493	312.69
365.874	298
366.256	330.32
366.637	315.18
367.019	303.2
367.4	314.72
367.781	311.33
368.163	315.18
368.544	299.58
368.925	337.32
369.306	302.97
369.688	287.61
370.069	316.08
370.45	301.84
370.831	306.36
371.212	318.79
371.593	314.5
371.974	317.21
372.355	317.21
372.736	315.63
373.117	285.57
373.498	308.62
373.879	310.88
374.26	319.47
374.641	298
375.021	321.28
375.402	293.71
375.783	338.45
376.163	311.79
376.544	314.05
376.925	336.19
377.305	308.17
377.686	316.53
378.066	323.99
378.447	318.34
378.827	328.06
379.208	334.38
379.588	329.19
379.968	316.98
380.349	343.2
380.729	338
381.109	328.06
381.489	332.8
381.87	343.2
382.25	318.57
382.63	331.45
383.01	336.19
383.39	356.3
383.77	327.38
384.15	337.55
384.53	334.16
384.91	337.77
385.29	336.87
385.67	338.23
386.049	353.82
386.429	334.16
386.809	336.64
387.189	346.13
387.568	350.88
387.948	338.23
388.328	361.5
388.707	347.49
389.087	361.05
389.466	377.77
389.846	343.2
390.225	356.53
390.605	342.75
390.984	361.73
391.363	367.83
391.743	375.96
392.122	371.67
392.501	361.73
392.881	363.08
393.26	368.51
393.639	359.69
394.018	369.41
394.397	384.1
394.776	373.93
395.155	366.02
395.534	373.93
395.913	387.49
396.292	373.25
396.671	387.94
397.05	402.18
397.429	403.53
397.808	397.89
398.186	402.63
398.565	396.08
398.944	372.35
399.323	378
399.701	391.11
400.08	403.08
400.458	398.34
400.837	419.35
401.215	404.89
401.594	434.49
401.972	407.6
402.351	421.39
402.729	436.08
403.107	422.07
403.486	422.07
403.864	422.07
404.242	427.71
404.62	434.04
404.999	431.78
405.377	441.05
405.755	434.04
406.133	439.47
406.511	453.02
406.889	464.1
407.267	468.62
407.645	458.67
408.023	454.38
408.401	470.65
408.779	503.19
409.156	469.97
409.534	478.79
409.912	483.76
410.29	501.39
410.667	506.58
411.045	504.32
411.422	514.04
411.8	523.76
412.178	532.57
412.555	526.47
412.933	542.74
413.31	526.02
413.687	567.6
414.065	573.25
414.442	565.56
414.819	577.54
415.197	571.67
415.574	586.13
415.951	603.76
416.328	631.33
416.705	610.99
417.082	619.57
417.46	653.02
417.837	642.85
418.214	665.45
418.591	665.22
418.967	688.72
419.344	676.97
419.721	706.58
420.098	691.21
420.475	693.24
420.852	718.1
421.228	728.27
421.605	752.9
421.982	747.71
422.358	747.03
422.735	773.69
423.111	752.23
423.488	757.88
423.864	789.06
424.241	787.03
424.617	824.54
424.994	782.96
425.37	796.52
425.746	797.42
426.123	836.07
426.499	839.68
426.875	854.37
427.251	865.9
427.627	877.65
428.003	877.65
428.379	883.52
428.756	890.08
429.132	913.35
429.507	942.5
429.883	932.11
430.259	946.8
430.635	935.5
431.011	945.67
431.387	981.37
431.763	1006.23
432.138	1023.41
432.514	999.45
432.89	1017.3
433.265	1040.81
433.641	1056.85
434.016	1043.29
434.392	1067.47
434.767	1100.92
435.143	1091.2
435.518	1111.99
435.894	1100.69
436.269	1131.2
436.644	1123.29
437.02	1141.14
437.395	1153.57
437.77	1151.54
438.145	1177.53
438.52	1205.1
438.895	1191.76
439.271	1197.86
439.646	1227.92
440.021	1261.82
440.395	1236.73
440.77	1237.18
441.145	1244.19
441.52	1255.49
441.895	1269.27
442.27	1280.8
442.645	1260.24
443.019	1250.07
443.394	1279.22
443.769	1329.16
444.143	1251.87
444.518	1328.71
444.892	1302.72
445.267	1325.54
445.641	1294.36
446.016	1312.44
446.39	1351.31
446.764	1353.34
447.139	1329.84
447.513	1359.22
447.887	1354.47
448.262	1342.49
448.636	1355.15
449.01	1361.25
449.384	1385.88
449.758	1362.61
450.132	1386.79
450.506	1382.72
450.88	1391.08
451.254	1407.35
451.628	1399.67
452.002	1408.25
452.376	1422.04
452.75	1428.59
453.123	1465.2
453.497	1455.48
453.871	1468.59
454.244	1508.59
454.618	1486.22
454.992	1485.09
455.365	1499.55
455.739	1547.46
456.112	1510.4
456.486	1524.64
456.859	1525.54
457.232	1567.12
457.606	1563.5
457.979	1565.99
458.352	1576.39
458.725	1604.63
459.099	1605.99
459.472	1617.97
459.845	1629.27
460.218	1643.5
460.591	1661.81
460.964	1653.9
461.337	1667.46
461.71	1675.14
462.083	1733.67
462.456	1720.79
462.829	1728.47
463.201	1731.86
463.574	1732.09
463.947	1783.84
464.32	1801.24
464.692	1787.9
465.065	1815.47
465.438	1801.01
465.81	1820.22
466.183	1826.32
466.555	1886.43
466.928	1864.97
467.3	1843.95
467.672	1874.91
468.045	1964.17
468.417	1925.08
468.789	1939.99
469.161	1956.49
469.534	1975.24
469.906	1997.62
470.278	1983.61
470.65	2014.11
471.022	2039.42
471.394	2087.33
471.766	2074.68
472.138	2093.43
472.51	2104.73
472.882	2140.44
473.253	2165.07
473.625	2168.46
473.997	2226.31
474.369	2188.12
474.74	2233.77
475.112	2236.03
475.484	2312.41
475.855	2343.82
476.227	2330.72
476.598	2391.28
476.97	2364.39
477.341	2419.07
477.713	2425.85
478.084	2448.68
478.455	2474.67
478.827	2481.9
479.198	2521.9
479.569	2556.7
479.94	2570.48
480.311	2605.51
480.682	2623.14
481.053	2690.03
481.424	2752.85
481.795	2712.85
482.166	2744.49
482.537	2801.89
482.908	2814.32
483.279	2863.58
483.65	2847.54
484.021	2859.06
484.391	2879.85
484.762	2936.35
485.133	2944.03
485.503	2986.07
485.874	3018.61
486.244	3039.4
486.615	3095.22
486.985	3113.75
487.356	3134.54
487.726	3137.93
488.097	3182.9
488.467	3209.56
488.837	3292.27
489.207	3255.44
489.578	3277.81
489.948	3318.71
490.318	3329.56
490.688	3321.42
491.058	3363
491.428	3386.51
491.798	3436.9
492.168	3549.44
492.538	3523.23
492.908	3536.11
493.278	3555.77
493.648	3611.36
494.017	3622.21
494.387	3617.24
494.757	3645.94
495.126	3646.39
495.496	3694.3
495.866	3687.06
496.235	3723.9
496.605	3737.01
496.974	3788.3
497.344	3777.46
497.713	3799.83
498.082	3814.07
498.452	3891.13
498.821	3862.88
499.19	3868.98
499.559	3863.56
499.928	3885.93
500.298	3913.5
500.667	3867.85
501.036	3902.65
501.405	3940.39
501.774	3936.78
502.143	3942.42
502.512	3952.59
502.88	4027.39
503.249	4031.46
503.618	4047.73
503.987	4037.11
504.356	4028.3
504.724	4049.54
505.093	4073.27
505.462	4080.73
505.83	4104.91
506.199	4107.62
506.567	4162.98
506.936	4158.46
507.304	4181.06
507.672	4172.7
508.041	4179.93
508.409	4233.49
508.777	4272.81
509.145	4263.09
509.514	4222.19
509.882	4270.55
510.25	4299.7
510.618	4344
510.986	4258.35
511.354	4311
511.722	4297.67
512.09	4390.32
512.458	4308.74
512.826	4344.45
513.193	4394.16
513.561	4405.46
513.929	4435.97
514.297	4440.72
514.664	4465.12
515.032	4416.54
515.4	4452.69
515.767	4495.63
516.135	4486.59
516.502	4466.48
516.869	4515.52
517.237	4541.05
517.604	4467.38
517.972	4566.36
518.339	4569.98
518.706	4540.37
519.073	4577.21
519.44	4587.61
519.808	4608.62
520.175	4617.89
520.542	4660.37
520.909	4735.62
521.276	4609.53
521.643	4685.68
522.009	4690.43
522.376	4709.64
522.743	4738.11
523.11	4790.54
523.477	4814.27
523.843	4839.58
524.21	4823.08
524.577	4879.8
524.943	4879.58
525.31	4931.78
525.676	4894.04
526.043	4929.52
526.409	4937.43
526.776	5001.83
527.142	4992.57
527.508	4972.23
527.874	5036.41
528.241	5106.01
528.607	5068.95
528.973	5133.58
529.339	5103.07
529.705	5133.58
530.071	5186.46
530.437	5167.7
530.803	5271.88
531.169	5306.46
531.535	5236.85
531.901	5287.93
532.267	5301.71
532.632	5356.85
532.998	5338.55
533.364	5356.17
533.73	5366.12
534.095	5475.49
534.461	5437.07
534.826	5458.77
535.192	5458.77
535.557	5540.8
535.923	5477.3
536.288	5583.74
536.653	5581.93
537.019	5572.44
537.384	5625.09
537.749	5613.12
538.114	5624.87
538.479	5645.66
538.845	5686.33
539.21	5642.27
539.575	5656.96
539.94	5734.47
540.305	5790.06
540.67	5737.63
541.034	5765.88
541.399	5795.03
541.764	5837.06
542.129	5853.56
542.494	5876.16
542.858	5891.98
543.223	5938.53
543.587	5999.77
543.952	5941.69
544.316	6029.15
544.681	5988.7
545.045	6038.19
545.41	6073.44
545.774	6043.84
546.138	6080.9
546.503	6159.77
546.867	6137.4
547.231	6175.59
547.595	6174
547.959	6253.78
548.324	6224.17
548.688	6248.35
549.052	6256.49
549.416	6363.83
549.779	6320.44
550.143	6297.84
550.507	6345.53
550.871	6359.08
551.235	6388.69
551.599	6472.08
551.962	6454.67
552.326	6419.2
552.689	6532.64
553.053	6478.86
553.417	6504.39
553.78	6579.87
554.143	6551.17
554.507	6553.66
554.87	6617.38
555.234	6629.81
555.597	6591.85
555.96	6570.6
556.323	6656.93
556.686	6655.12
557.05	6682.92
557.413	6782.8
557.776	6766.31
558.139	6778.51
558.502	6766.76
558.865	6783.48
559.228	6804.04
559.59	6848.34
559.953	6849.92
560.316	6871.16
560.679	6849.69
561.041	6927.2
561.404	6902.8
561.767	6967.43
562.129	6974.44
562.492	6991.16
562.854	6966.3
563.217	6972.18
563.579	7025.73
563.941	7062.79
564.304	7070.7
564.666	7164.26
565.028	7146.41
565.39	7164.49
565.753	7216.69
566.115	7241.32
566.477	7255.33
566.839	7268.21
567.201	7315.44
567.563	7264.82
567.925	7378.04
568.287	7343.47
568.648	7357.7
569.01	7447.64
569.372	7473.41
569.734	7500.3
570.095	7533.29
570.457	7614.19
570.819	7555.44
571.18	7654.64
571.542	7664.81
571.903	7678.37
572.265	7753.62
572.626	7773.74
572.987	7834.07
573.349	7945.03
573.71	7894.19
574.071	7949.32
574.432	8019.83
574.794	8065.48
575.155	8129.21
575.516	8123.78
575.877	8197
576.238	8258.02
576.599	8347.28
576.96	8409.88
577.32	8467.05
577.681	8615.75
578.042	8596.77
578.403	8682.64
578.763	8767.38
579.124	8898.68
579.485	9042.18
579.845	9052.12
580.206	9224.32
580.566	9349.06
580.927	9457.31
581.287	9577.08
581.648	9658.43
582.008	9764.87
582.368	9934.58
582.728	10146.78
583.089	10249.38
583.449	10422.93
583.809	10502.93
584.169	10755.58
584.529	10855.24
584.889	11149.24
585.249	11325.28
585.609	11427.2
585.969	11733.86
586.329	11922.55
586.688	12127.97
587.048	12360.06
587.408	12494.52
587.768	12788.07
588.127	12968.63
588.487	13195.29
588.846	13585.11
589.206	13724.31
589.565	13954.82
589.925	14258.09
590.284	14475.25
590.643	14781.01
591.003	15123.83
591.362	15428.22
591.721	15587.09
592.08	15900.3
592.44	16277.92
592.799	16466.16
593.158	16731.24
593.517	17057.11
593.876	17392.01
594.235	17642.4
594.593	17940.7
594.952	18314.48
595.311	18560.8
595.67	18801.69
596.029	19248.24
596.387	19548.34
596.746	19780.65
597.104	20071.49
597.463	20322.56
597.822	20705.6
598.18	20897.46
598.538	21257.9
598.897	21675.29
599.255	21898.11
599.613	22357.76
599.972	22423.52
600.33	22917.97
600.688	22991.64
601.046	23424.85
601.404	23762.69
601.762	24034.55
602.12	24381.89
602.478	24701.43
602.836	24912.04
603.194	25001.98
603.552	25413.72
603.91	25578.69
604.268	25876.54
604.625	26101.62
604.983	26361.27
605.341	26612.34
605.698	27005.32
606.056	27162.61
606.413	27447.34
606.771	27772.31
607.128	27944.28
607.485	27993.77
607.843	28245.51
608.2	28669.01
608.557	28969.11
608.914	29039.17
609.272	29308.31
609.629	29656.55
609.986	29847.28
610.343	30014.28
610.7	30343.99
611.057	30437.32
611.414	30594.15
611.771	30817.42
612.127	31000.02
612.484	31196.62
612.841	31538.99
613.198	31665.76
613.554	31891.52
613.911	32068.46
614.267	32304.16
614.624	32378.06
614.98	32509.81
615.337	32864.38
615.693	32885.17
616.05	32954.09
616.406	33348.88
616.762	33383.68
617.118	33658.71
617.475	33578.93
617.831	33838.36
618.187	34044.91
618.543	34098.69
618.899	34430.21
619.255	34392.02
619.611	34582.07
619.967	34675.85
620.323	34830.43
620.678	34866.36
621.034	34989.97
621.39	34974.38
621.746	35158.33
622.101	35547.02
622.457	35438.55
622.812	35584.98
623.168	35816.84
623.523	35771.42
623.879	36005.08
624.234	35812.55
624.589	36016.38
624.945	36205.76
625.3	36334.12
625.655	36438.07
626.01	36444.62
626.365	36561
626.72	36426.99
627.075	36673.09
627.43	36591.96
627.785	36624.96
628.14	36727.33
628.495	36880.09
628.85	36848.9
629.205	36737.04
629.559	37049.58
629.914	36954.89
630.269	36988.11
630.623	36999.41
630.978	36877.83
631.332	37140.2
631.687	37137.03
632.041	37157.82
632.396	37237.14
632.75	37210.93
633.104	37241.21
633.459	37083.93
633.813	37092.74
634.167	37223.13
634.521	37156.47
634.875	37370.7
635.229	37332.73
635.583	37177.93
635.937	37133.19
636.291	37259.51
636.645	37253.64
636.999	37202.57
637.352	37446.4
637.706	37212.96
638.06	37335.44
638.413	37187.88
638.767	37235.11
639.121	37170.03
639.474	37039.86
639.828	37177.71
640.181	37128.9
640.534	37154.66
640.888	37106.75
641.241	37046.86
641.594	37190.82
641.947	37232.17
642.301	37229.68
642.654	37173.87
643.007	37169.12
643.36	37248.67
643.713	37212.51
644.066	37284.15
644.419	37154.66
644.771	36896.59
645.124	36529.59
645.477	36462.02
645.83	36212.08
646.182	36191.29
646.535	36078.75
646.888	36067.46
647.24	36031.52
647.593	36202.14
647.945	36189.49
648.298	35862.26
648.65	36022.26
649.002	35912.66
649.355	35999.21
649.707	35992.2
650.059	36267
650.411	36690.94
650.763	36599.65
651.115	36975
651.467	36874.44
651.819	36797.15
652.171	36756.7
652.523	36774.33
652.875	36834.22
653.227	36578.4
653.578	36926.87
653.93	36704.05
654.282	36742.69
654.633	36608.46
654.985	36745.63
655.337	36645.07
655.688	36701.56
656.039	36841.45
656.391	36532.98
656.742	36605.97
657.094	36612.53
657.445	36708.57
657.796	36732.75
658.147	36631.73
658.498	36502.25
658.849	36630.83
659.2	36571.4
659.551	36668.57
659.902	36703.37
660.253	36613.2
660.604	36730.94
660.955	36445.07
661.306	36624.05
661.656	36567.78
662.007	36545.86
662.358	36505.64
662.708	36581.34
663.059	36626.99
663.409	36415.92
663.76	36622.47
664.11	36559.65
664.461	36656.14
664.811	36610.04
665.161	36563.94
665.511	36436.03
665.862	36425.19
666.212	36631.28
666.562	36577.5
666.912	36544.51
667.262	36510.38
667.612	36413.44
667.962	36478.07
668.312	36453.89
668.662	36764.61
669.011	36497.27
669.361	36467.9
669.711	36350.84
670.06	36390.16
670.41	36370.27
670.76	36265.64
671.109	36428.35
671.459	36344.96
671.808	36288.92
672.157	36379.99
672.507	36166.21
672.856	36280.11
673.205	36298.41
673.554	36375.7
673.904	36102.71
674.253	36473.77
674.602	36134.8
674.951	35782.94
675.3	35601.48
675.649	36156.04
675.998	36174.12
676.346	36174.12
676.695	36218.64
677.044	36062.03
677.393	36105.65
677.741	36092.31
678.09	36007.34
678.438	35917.63
678.787	35942.49
679.135	35950.85
679.484	35780.68
679.832	35843.28
680.181	35690.74
680.529	35750.4
680.877	35592.67
681.225	35601.25
681.573	35847.57
681.922	35421.6
682.27	35469.05
682.618	35511.76
682.966	35331.66
683.314	35595.15
683.661	35309.28
684.009	35074.04
684.357	35252.79
684.705	35103.41
685.053	35283.07
685.4	35211.21
685.748	34911.33
686.095	35070.87
686.443	34817.09
686.79	34805.12
687.138	34842.63
687.485	34859.58
687.832	34714.95
688.18	34762.63
688.527	34559.47
688.874	34496.88
689.221	34510.89
689.568	34375.07
689.915	34150.9
690.262	34284
690.609	34122.65
690.956	34097.79
691.303	33999.71
691.65	33963.1
691.997	33880.17
692.344	33611.25
692.69	33787.06
693.037	33697.8
693.383	33429.78
693.73	33644.24
694.077	33357.02
694.423	33291.03
694.769	33241.77
695.116	33096.23
695.462	33209.9
695.808	32982.34
696.155	33013.98
696.501	32809.46
696.847	32791.61
697.193	32628
697.539	32661.67
697.885	32434.56
698.231	32277.95
698.577	32515.23
698.923	32308.91
699.269	32320.21
699.614	32035.7
699.96	31985.98
700.306	31911.86
700.651	31862.14
700.997	31806.1
701.342	31710.96
701.688	31780.11
702.033	31612.88
702.379	31696.72
702.724	31499.89
703.069	31555.71
703.415	31155.49
703.76	31221.48
704.105	31215.61
704.45	31248.6
704.795	31011.77
705.14	30819.23
705.485	30781.27
705.83	30712.79
706.175	30743.3
706.52	30744.66
706.865	30557.77
707.209	30529.07
707.554	30355.74
707.899	30511.22
708.243	30208.63
708.588	30361.39
708.932	30072.81
709.277	30131.57
709.621	30154.16
709.966	29899.26
710.31	29857.9
710.654	29736.1
710.998	29830.56
711.342	29790.56
711.687	29615.87
712.031	29505.37
712.375	29374.75
712.719	29451.58
713.063	29387.86
713.407	29433.73
713.75	29283.45
714.094	29292.04
714.438	29230.57
714.782	29256.79
715.125	29055.89
715.469	29090.46
715.812	28914.2
716.156	28703.36
716.499	28729.8
716.843	28843.46
717.186	28568.67
717.53	28755.11
717.873	28748.1
718.216	28687.76
718.559	28495.68
718.902	28314.44
719.246	28420.65
719.589	28353.99
719.932	28298.17
720.275	28232.86
720.617	28241.22
720.96	28140.21
721.303	28128.23
721.646	28137.72
721.989	27864.06
722.331	28150.38
722.674	27916.94
723.016	27980.44
723.359	27864.73
723.701	27940.66
724.044	27843.04
724.386	27597.85
724.729	27611.18
725.071	27604.85
725.413	27548.81
725.755	27722.14
726.097	27509.49
726.439	27462.71
726.782	27368.02
727.124	27511.52
727.465	27293.45
727.807	27300.45
728.149	27283.28
728.491	27171.64
728.833	27268.82
729.175	27149.27
729.516	27229.27
729.858	27025.89
730.199	27106.11
730.541	27116.05
730.882	26978.88
731.224	27160.8
731.565	26852.78
731.906	26829.51
732.248	26838.32
732.589	26762.84
732.93	26771.65
733.271	26643.75
733.612	26784.54
733.953	26818.21
734.294	26675.84
734.635	26656.4
734.976	26622.05
735.317	26509.51
735.658	26469.06
735.999	26449.86
736.339	26427.48
736.68	26429.06
737.021	26345.45
737.361	26212.57
737.702	26398.78
738.042	26338.22
738.383	26167.6
738.723	26355.62
739.063	26149.3
739.404	26233.82
739.744	26177.32
740.084	26165.34
740.424	26147.26
740.764	26000.6
741.104	26029.75
741.444	25987.72
741.784	25855.75
742.124	25969.87
742.464	25907.27
742.804	25792.02
743.143	25779.59
743.483	25620.27
743.823	25624.11
744.162	25705.47
744.502	25734.17
744.841	25544.57
745.181	25674.51
745.52	25531.69
745.86	25626.37
746.199	25477.23
746.538	25396.55
746.877	25568.97
747.216	25406.27
747.556	25585.25
747.895	25414.4
748.234	25450.33
748.573	25262.77
748.911	25335.53
749.25	25263.45
749.589	25285.14
749.928	25283.56
750.267	25288.08
750.605	25226.16
750.944	25095.54
751.283	25078.14
751.621	25070.68
751.96	24957.69
752.298	24958.6
752.636	25074.52
752.975	24895.32
753.313	24774.65
753.651	24922.21
753.989	24805.38
754.327	24772.84
754.666	24720.41
755.004	24711.14
755.342	24813.97
755.679	24792.5
756.017	24556.12
756.355	24561.09
756.693	24591.37
757.031	24661.43
757.368	24489
757.706	24424.15
758.044	24376.69
758.381	24462.34
758.719	24299.4
759.056	24288.33
759.394	24156.36
759.731	24044.49
760.068	24120.88
760.405	24072.29
760.743	23992.74
761.08	23983.71
761.417	23844.95
761.754	23875.69
762.091	23815.8
762.428	23672.53
762.765	23739.19
763.102	23709.59
763.438	23570.16
763.775	23470.95
764.112	23548.91
764.449	23529.03
764.785	23376.04
765.122	23285.42
765.458	23107.8
765.795	23143.05
766.131	23122.71
766.467	23108.93
766.804	23007.01
767.14	22834.81
767.476	22869.38
767.812	22730.86
768.148	22822.83
768.485	22640.24
768.821	22568.15
769.157	22496.29
769.492	22468.49
769.828	22501.03
770.164	22289.29
770.5	22263.07
770.836	22220.81
771.171	22129.07
771.507	22059.91
771.842	21780.37
772.178	21916.42
772.513	21872.57
772.849	21802.07
773.184	21742.63
773.519	21531.79
773.855	21457.44
774.19	21522.75
774.525	21410.21
774.86	21328.41
775.195	21270.56
775.53	21154.18
775.865	21112.82
776.2	20960.06
776.535	20808.87
776.87	20763.45
777.205	20709.44
777.539	20636.45
777.874	20741.08
778.209	20662.21
778.543	20595.09
778.878	20365.5
779.212	20387.64
779.547	20212.73
779.881	20191.49
780.215	20156.46
780.55	20039.63
780.884	20038.5
781.218	19974.55
781.552	19957.37
781.886	19823.36
782.22	19625.18
782.554	19566.65
782.888	19518.06
783.222	19489.81
783.556	19462.69
783.889	19352.41
784.223	19147.22
784.557	19158.75
784.89	19175.02
785.224	19160.56
785.557	18972.09
785.891	18944.52
786.224	18873.78
786.558	18877.17
786.891	18700.68
787.224	18576.84
787.557	18552.21
787.891	18541.14
788.224	18524.64
788.557	18471.31
788.89	18395.6
789.223	18384.76
789.556	18220.69
789.888	18209.17
790.221	18100.24
790.554	17977.76
790.887	17982.96
791.219	17978.21
791.552	17869.06
791.884	17826.35
792.217	17747.26
792.549	17728.73
792.882	17508.85
793.214	17571.22
793.546	17579.58
793.879	17398.57
794.211	17347.27
794.543	17366.93
794.875	17234.96
795.207	17352.47
795.539	17218.46
795.871	17269.31
796.203	17072.7
796.535	16948.64
796.867	16852.37
797.198	16937.79
797.53	16842.42
797.862	16766.95
798.193	16811.24
798.525	16678.13
798.856	16667.51
799.188	16547.74
799.519	16515.43
799.85	16380.06
800.182	16403.57
800.513	16387.3
800.844	16278.6
801.175	16280.86
801.506	16314.08
801.837	16189.79
802.168	16107.75
802.499	16020.75
802.83	16098.04
803.161	15974.42
803.491	16016.46
803.822	15936.91
804.153	15811.49
804.483	15743.24
804.814	15689.69
805.145	15658.5
805.475	15629.57
805.805	15530.37
806.136	15513.87
806.466	15484.95
806.796	15485.4
807.126	15388.23
807.457	15350.71
807.787	15248.34
808.117	15181
808.447	15204.05
808.777	15251.28
809.107	15166.99
809.436	15152.75
809.766	15137.38
810.096	15061.45
810.426	14924.51
810.755	15045.41
811.085	14977.16
811.414	14988.91
811.744	14787.34
812.073	14740.56
812.403	14785.53
812.732	14693.78
813.061	14781.46
813.39	14626.21
813.719	14530.85
814.049	14627.79
814.378	14494.24
814.707	14448.59
815.036	14441.58
815.365	14419.89
815.693	14232.32
816.022	14268.03
816.351	14263.74
816.68	14140.57
817.008	14243.4
817.337	14141.03
817.665	13981.71
817.994	14088.15
818.322	14097.64
818.651	14020.35
818.979	13886.8
819.307	13991.43
819.636	13943.29
819.964	13854.25
820.292	13920.02
820.62	13897.42
820.948	13822.84
821.276	13852.45
821.604	13839.79
821.932	13926.57
822.259	13855.16
822.587	13819.23
822.915	13783.97
823.243	13817.19
823.57	13830.98
823.898	13799.57
824.225	13774.03
824.553	13767.25
824.88	13684.09
825.207	13722.51
825.535	13754.37
825.862	13763.18
826.189	13786.69
826.516	13823.07
826.843	13782.62
827.17	13788.72
827.497	13788.72
827.824	13769.96
828.151	13729.74
828.478	13722.51
828.805	13828.72
829.131	13727.48
829.458	13811.32
829.785	13724.31
830.111	13718.89
830.438	13812.22
830.764	13734.03
831.09	13730.64
831.417	13731.55
831.743	13681.15
832.069	13689.06
832.395	13527.94
832.722	13683.19
833.048	13631.89
833.374	13687.93
833.7	13588.5
834.026	13549.18
834.351	13582.85
834.677	13577.2
835.003	13603.41
835.329	13570.19
835.654	13498.33
835.98	13532
836.306	13475.06
836.631	13461.27
836.956	13472.8
837.282	13451.1
837.607	13452.01
837.932	13378.11
838.258	13421.27
838.583	13402.51
838.908	13350.76
839.233	13334.04
839.558	13363.19
839.883	13147.15
840.208	13214.5
840.533	13226.93
840.858	13240.71
841.182	13147.38
841.507	13135.4
841.832	13036.65
842.156	13094.05
842.481	13057.44
842.805	13006.59
843.13	12978.35
843.454	12972.24
843.778	12926.37
844.103	12918.23
844.427	12854.96
844.751	12875.07
845.075	12856.99
845.399	12785.36
845.723	12684.79
846.047	12711.91
846.371	12536.77
846.695	12587.85
847.019	12467.85
847.343	12464.69
847.666	12377.91
847.99	12341.53
848.313	12301.53
848.637	12264.92
848.96	12187.63
849.284	12159.38
849.607	12200.29
849.931	12068.76
850.254	12006.62
850.577	11922.33
850.9	11859.05
851.223	11883.68
851.546	11821.09
851.869	11697.25
852.192	11785.38
852.515	11662.67
852.838	11550.13
853.161	11589.46
853.483	11559.17
853.806	11612.73
854.129	11433.08
854.451	11393.98
854.774	11346.07
855.096	11334.77
855.419	11348.56
855.741	11400.08
856.063	11255.68
856.385	11194.66
856.708	11203.02
857.03	11141.11
857.352	11209.35
857.674	11089.58
857.996	11045.74
858.318	10996.48
858.64	11026.31
858.961	10963.03
859.283	10938.85
859.605	10871.06
859.926	10928
860.248	10876.03
860.57	10858.17
860.891	10818.18
861.212	10801.68
861.534	10739.53
861.855	10744.28
862.176	10754
862.498	10687.11
862.819	10746.77
863.14	10684.62
863.461	10616.15
863.782	10600.1
864.103	10594
864.424	10518.52
864.745	10544.06
865.065	10516.49
865.386	10423.84
865.707	10444.63
866.027	10541.35
866.348	10418.19
866.668	10396.04
866.989	10434.01
867.309	10329.38
867.63	10301.58
867.95	10318.98
868.27	10248.25
868.59	10307
868.91	10322.82
869.23	10268.13
869.55	10198.31
869.87	10316.49
870.19	10240.11
870.51	10305.42
870.83	10220.23
871.15	10150.62
871.469	10159.44
871.789	10182.94
872.109	10156.5
872.428	10057.52
872.748	10121.47
873.067	10112.88
873.386	10118.99
873.706	10114.01
874.025	10051.19
874.344	9993.34
874.663	9983.62
874.982	10042.6
875.301	9980.23
875.62	9902.72
875.939	9927.8
876.258	9940.68
876.577	9871.76
876.896	9866.56
877.214	9863.4
877.533	9869.27
877.852	9789.73
878.17	9880.57
878.489	9816.85
878.807	9810.29
879.125	9688.49
879.444	9785.43
879.762	9629.73
880.08	9751.99
880.398	9646
880.716	9643.07
881.034	9681.48
881.352	9587.25
881.67	9593.35
881.988	9560.13
882.306	9578.21
882.624	9524.42
882.941	9516.29
883.259	9465.44
883.577	9474.03
883.894	9479
884.212	9443.07
884.529	9387.71
884.846	9386.58
885.164	9373.47
885.481	9338.67
885.798	9335.73
886.115	9261.83
886.432	9299.12
886.75	9250.76
887.067	9248.95
887.383	9189.74
887.7	9192.46
888.017	9156.52
888.334	9161.04
888.651	9132.12
888.967	9129.18
889.284	9093.7
889.6	9100.71
889.917	8968.51
890.233	8960.6
890.55	8957.89
890.866	8952.46
891.182	8912.69
891.498	8905.68
891.815	8849.87
892.131	8794.5
892.447	8811.9
892.763	8777.1
893.079	8766.03
893.395	8752.69
893.71	8691
894.026	8738.68
894.342	8681.06
894.657	8516.54
894.973	8589.53
895.289	8575.07
895.604	8597.22
895.92	8456.2
896.235	8465.02
896.55	8470.67
896.865	8394.28
897.181	8403.32
897.496	8353.83
897.811	8362.65
898.126	8287.4
898.441	8294.85
898.756	8294.17
899.071	8227.06
899.386	8246.94
899.7	8137.79
900.015	8145.48
900.33	8049.66
900.644	8083.78
900.959	8115.87
901.273	8026.39
901.588	7982.32
901.902	7920.4
902.216	7908.87
902.531	7933.73
902.845	7895.99
903.159	7873.17
903.473	7808.76
903.787	7794.75
904.101	7733.96
904.415	7688.77
904.729	7682.67
905.042	7701.87
905.356	7639.95
905.67	7644.47
905.984	7657.58
906.297	7637.47
906.611	7521.31
906.924	7513.86
907.237	7486.29
907.551	7417.59
907.864	7423.91
908.177	7378.72
908.491	7332.62
908.804	7380.07
909.117	7272.28
909.43	7278.38
909.743	7259.63
910.056	7208.1
910.368	7137.37
910.681	7139.4
910.994	7139.4
911.307	7112.06
911.619	6983.47
911.932	7020.08
912.244	7019.18
912.557	6973.31
912.869	6899.86
913.181	6916.36
913.494	6919.52
913.806	6939.63
914.118	6828.22
914.43	6844.5
914.742	6820.77
915.054	6776.93
915.366	6719.53
915.678	6723.59
915.99	6692.18
916.302	6613.31
916.613	6595.46
916.925	6579.42
917.236	6592.98
917.548	6550.49
917.859	6575.8
918.171	6462.36
918.482	6453.32
918.794	6470.95
919.105	6399.76
919.416	6342.36
919.727	6334
920.038	6358.63
920.349	6268.92
920.66	6284.74
920.971	6256.26
921.282	6241.35
921.593	6167.68
921.903	6147.11
922.214	6177.85
922.525	6070.5
922.835	6062.59
923.146	6067.79
923.456	6054.91
923.767	6013.33
924.077	6011.75
924.387	6011.52
924.697	5899.21
925.008	5921.81
925.318	5889.72
925.628	5844.07
925.938	5823.05
926.248	5780.12
926.558	5746.9
926.867	5789.83
927.177	5739.44
927.487	5726.11
927.796	5679.78
928.106	5708.93
928.416	5640.69
928.725	5562.27
929.034	5551.87
929.344	5622.15
929.653	5560.69
929.962	5482.27
930.271	5512.55
930.581	5468.03
930.89	5411.09
931.199	5440.46
931.508	5370.18
931.817	5394.82
932.125	5354.82
932.434	5336.51
932.743	5343.07
933.051	5301.03
933.36	5210.41
933.669	5232.79
933.977	5240.24
934.286	5174.26
934.594	5221.94
934.902	5141.49
935.21	5164.31
935.519	5114.6
935.827	5114.82
936.135	5099.68
936.443	5001.38
936.751	5008.39
937.059	4986.01
937.367	4951.44
937.674	4965.67
937.982	4989.18
938.29	4917.31
938.597	4955.05
938.905	4881.61
939.213	4830.08
939.52	4888.39
939.827	4846.13
940.135	4834.83
940.442	4743.99
940.749	4779.01
941.056	4795.06
941.363	4707.38
941.67	4694.04
941.977	4722.74
942.284	4659.69
942.591	4613.37
942.898	4663.99
943.205	4637.55
943.511	4574.27
943.818	4552.58
944.125	4512.81
944.431	4516.87
944.738	4541.05
945.044	4512.35
945.35	4456.76
945.657	4434.84
945.963	4400.49
946.269	4368.18
946.575	4381.74
946.881	4398.01
947.187	4287.27
947.493	4302.64
947.799	4311.45
948.105	4287.05
948.41	4223.32
948.716	4229.65
949.022	4200.95
949.327	4211.34
949.633	4147.84
949.938	4174.06
950.244	4157.56
950.549	4098.35
950.854	4119.82
951.16	4101.29
951.465	4115.08
951.77	4100.84
952.075	4069.2
952.38	4024.91
952.685	4009.32
952.99	3979.71
953.294	3998.92
953.599	3921.18
953.904	3977.45
954.209	3913.27
954.513	3934.74
954.818	3861.52
955.122	3842.54
955.426	3879.38
955.731	3806.38
956.035	3839.38
956.339	3836.89
956.643	3803.22
956.948	3772.26
957.252	3761.19
957.556	3755.08
957.86	3714.63
958.163	3736.1
958.467	3736.1
958.771	3713.96
959.075	3668.53
959.378	3641.87
959.682	3625.82
959.985	3614.75
960.289	3583.34
960.592	3579.27
960.896	3540.18
961.199	3518.25
961.502	3504.92
961.805	3503.11
962.108	3514.41
962.411	3484.36
962.714	3474.41
963.017	3433.29
963.32	3450.46
963.623	3450.69
963.926	3426.73
964.228	3414.53
964.531	3420.4
964.833	3390.12
965.136	3372.72
965.438	3371.14
965.741	3341.76
966.043	3293.85
966.345	3328.43
966.648	3285.94
966.95	3299.73
967.252	3240.75
967.554	3251.6
967.856	3210.01
968.158	3217.02
968.46	3179.28
968.761	3159.17
969.063	3146.06
969.365	3187.64
969.666	3157.36
969.968	3131.82
970.269	3075.1
970.571	3124.82
970.872	3071.49
971.174	3116.01
971.475	3065.39
971.776	3044.37
972.077	3003.01
972.378	3021.54
972.679	2996.91
972.98	2979.74
973.281	2983.35
973.582	2963.24
973.883	2963.69
974.183	2930.7
974.484	2947.65
974.785	2931.38
975.085	2926.18
975.386	2942.68
975.686	2882.79
975.986	2901.55
976.287	2900.42
976.587	2837.37
976.887	2847.09
977.187	2804.6
977.487	2820.19
977.787	2730.71
978.087	2798.95
978.387	2763.02
978.687	2723.7
978.987	2765.73
979.286	2735
979.586	2710.82
979.885	2683.25
980.185	2680.99
980.484	2697.71
980.784	2664.72
981.083	2673.76
981.382	2675.11
981.682	2649.13
981.981	2598.96
982.28	2614.55
982.579	2573.87
982.878	2571.16
983.177	2603.25
983.475	2615
983.774	2560.09
984.073	2541.11
984.372	2529.13
984.67	2525.06
984.969	2513.31
985.267	2505.17
985.566	2497.94
985.864	2473.76
986.162	2473.99
986.461	2441.45
986.759	2445.51
987.057	2419.07
987.355	2407.32
987.653	2428.11
987.951	2388.79
988.249	2387.21
988.547	2388.12
988.844	2358.96
989.142	2393.99
989.44	2331.17
989.737	2339.98
990.035	2303.37
990.332	2318.51
990.63	2296.37
990.927	2290.72
991.224	2254.33
991.521	2282.36
991.819	2291.62
992.116	2283.03
992.413	2235.35
992.71	2196.26
993.006	2204.39
993.303	2229.93
993.6	2192.87
993.897	2191.96
994.193	2180.21
994.49	2177.27
994.787	2157.61
995.083	2144.96
995.379	2132.08
995.676	2132.53
995.972	2095.92
996.268	2093.21
996.565	2076.71
996.861	2081
997.157	2085.75
997.453	2052.98
997.749	2052.98
998.044	2069.25
998.34	2025.41
998.636	2029.25
998.932	2046.66
999.227	2037.62
999.523	1981.57
999.818	1997.39
1000.114	1975.47
1000.409	1955.58
1000.704	1962.14
1001	1945.19
1001.295	1911.97
1001.59	1927.34
1001.885	1897.51
1002.18	1878.75
1002.475	1877.39
1002.77	1872.65
1003.065	1874.68
1003.359	1827
1003.654	1867.45
1003.949	1841.69
1004.243	1807.57
1004.538	1815.47
1004.832	1822.03
1005.127	1800.56
1005.421	1802.59
1005.715	1746.55
1006.009	1800.11
1006.304	1779.09
1006.598	1719.66
1006.892	1745.42
1007.186	1721.69
1007.48	1732.09
1007.773	1711.52
1008.067	1698.19
1008.361	1658.64
1008.655	1716.04
1008.948	1642.37
1009.242	1697.74
1009.535	1671.52
1009.829	1658.19
1010.122	1645.99
1010.415	1621.81
1010.708	1622.71
1011.001	1587.91
1011.295	1586.78
1011.588	1607.12
1011.881	1582.71
1012.173	1588.81
1012.466	1590.17
1012.759	1542.26
1013.052	1541.58
1013.344	1522.38
1013.637	1509.27
1013.93	1504.07
1014.222	1520.57
1014.514	1504.75
1014.807	1487.35
1015.099	1464.07
1015.391	1481.47
1015.683	1481.92
1015.976	1455.26
1016.268	1477.63
1016.56	1458.42
1016.851	1445.99
1017.143	1461.59
1017.435	1393.34
1017.727	1402.38
1018.018	1385.66
1018.31	1402.38
1018.602	1371.19
1018.893	1389.27
1019.185	1360.8
1019.476	1358.99
1019.767	1350.18
1020.058	1333.45
1020.35	1328.93
1020.641	1329.84
1020.932	1315.38
1021.223	1309.95
1021.514	1307.69
1021.804	1300.69
1022.095	1286
1022.386	1272.21
1022.677	1264.08
1022.967	1242.16
1023.258	1254.59
1023.548	1254.13
1023.839	1222.27
1024.129	1241.03
1024.419	1206.9
1024.709	1216.39
1025	1200.58
1025.29	1199.22
1025.58	1174.36
1025.87	1175.27
1026.16	1151.99
1026.449	1165.55
1026.739	1169.16
1027.029	1175.72
1027.319	1151.31
1027.608	1129.62
1027.898	1125.55
1028.187	1144.31
1028.477	1095.72
1028.766	1115.83
1029.055	1074.48
1029.344	1082.61
1029.634	1069.51
1029.923	1082.16
1030.212	1058.21
1030.501	1083.97
1030.79	1062.95
1031.078	1048.72
1031.367	1042.16
1031.656	1046.91
1031.945	1041.03
1032.233	1024.31
1032.522	1043.52
1032.81	1009.17
1033.099	996.51
1033.387	998.77
1033.675	998.77
1033.963	980.24
1034.251	1016.17
1034.54	961.26
1034.828	957.87
1035.116	945.44
1035.403	956.74
1035.691	933.92
1035.979	948.15
1036.267	951.09
1036.554	931.66
1036.842	912.22
1037.129	929.17
1037.417	912.22
1037.704	931.88
1037.992	896.63
1038.279	885.1
1038.566	906.12
1038.853	906.12
1039.14	906.12
