Data from hue_28_FLMS001491_00026.txt Node
Date: Tue Feb 07 17:17:04 GMT 2017
User: dcchb
Spectrometer: FLMS00149
Trigger mode: 0
Integration Time (sec): 2.000000E-2
Scans to average: 10
Electric dark correction enabled: true
Nonlinearity correction enabled: false
Boxcar width: 0
XAxis mode: Wavelengths
Number of Pixels in Spectrum: 2048
>>>>>Begin Spectral Data<<<<<
341.393	-11.13
341.776	-11.13
342.16	-11.13
342.543	-75.08
342.927	-67.85
343.31	-77.79
343.693	-82.77
344.077	-75.99
344.46	-61.52
344.843	-45.25
345.226	-48.19
345.61	-38.25
345.993	-15.2
346.376	-1.64
346.759	8.53
347.142	30
347.525	50.79
347.908	57.57
348.291	80.17
348.674	110.68
349.057	108.87
349.44	115.65
349.823	137.12
350.206	165.14
350.588	183.44
350.971	190.22
351.354	232.03
351.737	244.91
352.119	236.55
352.502	263.67
352.884	274.51
353.267	267.28
353.65	292.37
354.032	310.44
354.414	295.08
354.797	304.79
355.179	312.7
355.562	335.53
355.944	334.17
356.326	330.78
356.709	312.48
357.091	323.55
357.473	334.85
357.855	344.79
358.238	348.86
358.62	344.34
359.002	353.61
359.384	357.9
359.766	338.69
360.148	351.8
360.53	340.73
360.912	353.15
361.294	345.7
361.676	328.3
362.057	327.62
362.439	342.99
362.821	319.48
363.203	324.45
363.584	338.69
363.966	340.73
364.348	319.26
364.729	307.96
365.111	327.39
365.493	312.7
365.874	319.26
366.256	322.19
366.637	302.53
367.019	306.15
367.4	337.56
367.781	303.44
368.163	336.66
368.544	312.48
368.925	330.56
369.306	316.09
369.688	313.61
370.069	329.88
370.45	306.83
370.831	328.3
371.212	325.81
371.593	323.32
371.974	310.44
372.355	320.61
372.736	317.68
373.117	303.44
373.498	323.1
373.879	314.96
374.26	322.87
374.641	327.17
375.021	307.73
375.402	337.79
375.783	336.43
376.163	340.95
376.544	335.3
376.925	342.53
377.305	331.91
377.686	327.17
378.066	311.8
378.447	315.87
378.827	346.6
379.208	316.32
379.588	335.98
379.968	330.78
380.349	363.78
380.729	345.7
381.109	333.95
381.489	353.83
381.87	358.35
382.25	356.32
382.63	351.35
383.01	345.92
383.39	353.15
383.77	335.08
384.15	332.59
384.53	347.96
384.91	357
385.29	344.79
385.67	375.75
386.049	341.4
386.429	339.14
386.809	335.75
387.189	342.31
387.568	387.05
387.948	352.02
388.328	367.62
388.707	339.14
389.087	359.71
389.466	380.72
389.846	371.23
390.225	357.67
390.605	352.93
390.984	362.42
391.363	368.3
391.743	392.93
392.122	362.19
392.501	394.51
392.881	372.36
393.26	392.25
393.639	369.88
394.018	373.27
394.397	365.58
394.776	392.25
395.155	406.71
395.534	382.98
395.913	391.12
396.292	411.91
396.671	392.48
397.05	393.83
397.429	383.89
397.808	399.26
398.186	381.63
398.565	398.13
398.944	398.13
399.323	409.42
399.701	398.13
400.08	412.14
400.458	404.9
400.837	425.02
401.215	416.66
401.594	411.23
401.972	399.48
402.351	428.18
402.729	415.07
403.107	411.23
403.486	426.37
403.864	400.84
404.242	405.36
404.62	426.6
404.999	432.25
405.377	434.51
405.755	444.45
406.133	416.43
406.511	444.9
406.889	428.41
407.267	452.36
407.645	431.57
408.023	436.32
408.401	458.91
408.779	452.14
409.156	464.11
409.534	493.72
409.912	474.73
410.29	457.33
410.667	435.19
411.045	468.63
411.422	471.57
411.8	484.68
412.178	474.51
412.555	500.5
412.933	443.32
413.31	484.45
413.687	499.82
414.065	503.43
414.442	490.55
414.819	500.04
415.197	488.52
415.574	511.57
415.951	514.28
416.328	507.95
416.705	514.73
417.082	527.39
417.46	521.06
417.837	529.42
418.214	524.9
418.591	522.19
418.967	523.77
419.344	526.94
419.721	551.79
420.098	538.69
420.475	548.4
420.852	539.36
421.228	564
421.605	584.56
421.982	548.63
422.358	547.95
422.735	598.8
423.111	558.12
423.488	582.75
423.864	567.16
424.241	567.16
424.617	574.62
424.994	589.53
425.37	579.14
425.746	583.21
426.123	604.67
426.499	572.13
426.875	587.5
427.251	631.79
427.627	625.01
428.003	611.9
428.379	628.85
428.756	629.08
429.132	637.21
429.507	648.29
429.883	652.36
430.259	654.39
430.635	658.91
431.011	656.2
431.387	684.9
431.763	681.73
432.138	693.48
432.514	693.48
432.89	687.61
433.265	681.06
433.641	709.08
434.016	692.13
434.392	694.16
434.767	735.74
435.143	723.54
435.518	749.53
435.894	716.99
436.269	740.49
436.644	755.63
437.02	769.41
437.395	760.38
437.77	794.72
438.145	772.35
438.52	761.73
438.895	790.88
439.271	793.59
439.646	795.4
440.021	803.99
440.395	814.39
440.77	799.24
441.145	821.39
441.52	841.5
441.895	827.04
442.27	825.01
442.645	844.89
443.019	858.45
443.394	808.06
443.769	869.07
444.143	851.45
444.518	851.9
444.892	855.06
445.267	879.69
445.641	844.44
446.016	871.78
446.39	897.1
446.764	897.77
447.139	886.7
447.513	895.97
447.887	882.63
448.262	891.9
448.636	893.25
449.01	923.31
449.384	922.41
449.758	918.11
450.132	930.54
450.506	950.2
450.88	952.23
451.254	930.54
451.628	954.04
452.002	964.89
452.376	957.66
452.75	983.65
453.123	989.52
453.497	1018.22
453.871	991.56
454.244	1022.97
454.618	1031.33
454.992	1050.54
455.365	1054.61
455.739	1064.77
456.112	1063.87
456.486	1087.37
456.859	1072.23
457.232	1120.59
457.606	1107.26
457.979	1120.14
458.352	1135.96
458.725	1141.16
459.099	1157.43
459.472	1198.78
459.845	1209.86
460.218	1201.04
460.591	1199.23
460.964	1243.3
461.337	1245.56
461.71	1253.02
462.083	1256.86
462.456	1278.78
462.829	1259.35
463.201	1294.82
463.574	1286.92
463.947	1311.32
464.32	1316.52
464.692	1340.02
465.065	1357.65
465.438	1391.09
465.81	1389.96
466.183	1396.74
466.555	1423.86
466.928	1427.02
467.3	1449.85
467.672	1457.76
468.045	1497.08
468.417	1500.92
468.789	1527.81
469.161	1547.7
469.534	1534.37
469.906	1599.22
470.278	1609.17
470.65	1635.15
471.022	1653.91
471.394	1707.7
471.766	1711.76
472.138	1744.76
472.51	1789.95
472.882	1805.55
473.253	1800.12
473.625	1838.31
473.997	1907.24
474.369	1892.32
474.74	1939.33
475.112	1938.2
475.484	2030.17
475.855	2034.92
476.227	2064.75
476.598	2118.08
476.97	2146.1
477.341	2192.65
477.713	2264.06
478.084	2235.59
478.455	2288.92
478.827	2323.72
479.198	2414.57
479.569	2433.55
479.94	2504.28
480.311	2510.39
480.682	2576.82
481.053	2647.11
481.424	2659.76
481.795	2753.09
482.166	2785.18
482.537	2824.95
482.908	2878.96
483.279	2944.05
483.65	3023.82
484.021	3075.57
484.391	3049.13
484.762	3158.28
485.133	3213.64
485.503	3257.48
485.874	3298.16
486.244	3364.15
486.615	3461.32
486.985	3525.5
487.356	3567.99
487.726	3598.27
488.097	3723.24
488.467	3692.28
488.837	3801.2
489.207	3818.37
489.578	3893.17
489.948	3948.54
490.318	4018.82
490.688	4054.53
491.058	4146.73
491.428	4225.37
491.798	4259.04
492.168	4365.7
492.538	4354.18
492.908	4459.94
493.278	4466.72
493.648	4510.33
494.017	4608.64
494.387	4632.36
494.757	4673.49
495.126	4724.57
495.496	4760.27
495.866	4795.07
496.235	4873.49
496.605	4929.31
496.974	4953.71
497.344	5040.26
497.713	5051.56
498.082	5083.88
498.452	5149.64
498.821	5218.11
499.19	5188.51
499.559	5239.35
499.928	5311.89
500.298	5340.37
500.667	5420.14
501.036	5353.93
501.405	5464.21
501.774	5473.25
502.143	5535.84
502.512	5574.49
502.88	5627.14
503.249	5599.34
503.618	5723.41
503.987	5707.59
504.356	5747.14
504.724	5776.74
505.093	5784.42
505.462	5804.76
505.83	5875.5
506.199	5931.76
506.567	5987.36
506.936	6014.7
507.304	6002.05
507.672	6018.32
508.041	6146.67
508.409	6117.07
508.777	6167.24
509.145	6203.85
509.514	6235.49
509.882	6244.75
510.25	6309.83
510.618	6302.38
510.986	6317.07
511.354	6376.27
511.722	6484.74
512.09	6546.89
512.458	6508.92
512.826	6553.67
513.193	6593.44
513.561	6566.55
513.929	6599.09
514.297	6672.99
514.664	6674.8
515.032	6699.2
515.4	6805.64
515.767	6773.55
516.135	6888.58
516.502	6819.65
516.869	6883.83
517.237	6913.66
517.604	6908.01
517.972	7006.76
518.339	7009.93
518.706	7039.98
519.073	7036.82
519.44	7037.72
519.808	7155.01
520.175	7131.51
520.542	7237.27
520.909	7252.18
521.276	7201.79
521.643	7328.56
522.009	7384.16
522.376	7391.61
522.743	7424.38
523.11	7481.78
523.477	7547.77
523.843	7546.86
524.21	7657.82
524.577	7688.1
524.943	7694.43
525.31	7708.22
525.676	7772.85
526.043	7807.42
526.409	7787.08
526.776	7882.9
527.142	7954.99
527.508	7954.08
527.874	8056.68
528.241	8044.48
528.607	8109.11
528.973	8222.33
529.339	8208.09
529.705	8254.42
530.071	8302.78
530.437	8305.94
530.803	8378.25
531.169	8441.98
531.535	8477.91
531.901	8481.75
532.267	8584.12
532.632	8541.64
532.998	8585.03
533.364	8622.54
533.73	8668.64
534.095	8730.34
534.461	8748.19
534.826	8844
535.192	8862.54
535.557	8945.25
535.923	8933.49
536.288	8913.38
536.653	8955.87
537.019	8928.52
537.384	9011.01
537.749	9058.69
538.114	9106.82
538.479	9102.08
538.845	9254.62
539.21	9158.35
539.575	9254.84
539.94	9297.1
540.305	9317.21
540.67	9324.67
541.034	9342.52
541.399	9453.93
541.764	9410.54
542.129	9479.47
542.494	9576.41
542.858	9578.67
543.223	9591.1
543.587	9691.21
543.952	9640.14
544.316	9700.03
544.681	9735.73
545.045	9749.52
545.41	9814.15
545.774	9907.03
546.138	9834.71
546.503	9891.21
546.867	9930.98
547.231	10016.63
547.595	10061.37
547.959	10080.81
548.324	10067.02
548.688	10085.55
549.052	10093.24
549.416	10134.37
549.779	10208.26
550.143	10195.61
550.507	10266.11
550.871	10326.23
551.235	10366.45
551.599	10319.45
551.962	10447.8
552.326	10439.22
552.689	10486.45
553.053	10469.5
553.417	10528.48
553.78	10679.66
554.143	10646.44
554.507	10646.44
554.87	10732.09
555.234	10843.5
555.597	10690.74
555.96	10785.65
556.323	10823.61
556.686	10878.75
557.05	10928.47
557.413	10968.02
557.776	10937.06
558.139	11051.4
558.502	11121.46
558.865	10992.42
559.228	11094.57
559.59	11213.43
559.953	11160.55
560.316	11259.53
560.679	11285.52
561.041	11399.19
561.404	11397.61
561.767	11454.11
562.129	11483.48
562.492	11476.03
562.854	11525.74
563.217	11524.84
563.579	11558.74
563.941	11647.55
564.304	11649.58
564.666	11711.5
565.028	11767.54
565.39	11800.76
565.753	11929.35
566.115	11842.57
566.477	11932.74
566.839	11919.18
567.201	12076.46
567.563	12076.46
567.925	12131.38
568.287	12156.23
568.648	12140.19
569.01	12214.54
569.372	12278.94
569.734	12233.07
570.095	12403.69
570.457	12491.82
570.819	12504.02
571.18	12527.98
571.542	12616.79
571.903	12598.93
572.265	12640.29
572.626	12749.21
572.987	12840.74
573.349	12866.5
573.71	12969.32
574.071	12952.6
574.432	13057.45
574.794	13160.28
575.155	13228.07
575.516	13192.59
575.877	13362.76
576.238	13337.45
576.599	13452.92
576.96	13526.14
577.32	13671
577.681	13650.66
578.042	13853.14
578.403	13827.15
578.763	14059.23
579.124	14100.59
579.485	14216.07
579.845	14445.89
580.206	14461.94
580.566	14572.89
580.927	14672.33
581.287	14960
581.648	14969.72
582.008	15155.7
582.368	15226.21
582.728	15516.82
583.089	15612.64
583.449	15762.47
583.809	16009.69
584.169	16177.82
584.529	16382.56
584.889	16741.65
585.249	16803.8
585.609	16975.32
585.969	17220.73
586.329	17392.93
586.688	17707.73
587.048	17902.3
587.408	18094.83
587.768	18286.02
588.127	18550.87
588.487	18709.51
588.846	19157.63
589.206	19288.25
589.565	19606.43
589.925	19879.65
590.284	20199.41
590.643	20494.32
591.003	20775.22
591.362	21034.42
591.721	21286.16
592.08	21635.53
592.44	21901.06
592.799	22169.3
593.158	22445.68
593.517	22654.72
593.876	23109.62
594.235	23257.19
594.593	23606.1
594.952	23827.79
595.311	24233.2
595.67	24415.57
596.029	24885.84
596.387	25258.26
596.746	25491.25
597.104	25760.62
597.463	26051.69
597.822	26427.72
598.18	26601.05
598.538	26857.54
598.897	27376.85
599.255	27405.78
599.613	28069.94
599.972	28254.12
600.33	28508.57
600.688	28799.41
601.046	29125.96
601.404	29459.51
601.762	29587.87
602.12	30057.91
602.478	30333.84
602.836	30673.71
603.194	30750.32
603.552	31123.87
603.91	31195.73
604.268	31688.38
604.625	31753.46
604.983	32145.99
605.341	32160
605.698	32727.44
606.056	32940.55
606.413	33202.46
606.771	33410.36
607.128	33770.81
607.485	33724.25
607.843	33924.7
608.2	34383.45
608.557	34752.25
608.914	34874.28
609.272	35201.5
609.629	35334.61
609.986	35773.69
610.343	35772.56
610.7	36220.01
611.057	36208.93
611.414	36328.71
611.771	36679.43
612.127	36896.6
612.484	37097.5
612.841	37454.78
613.198	37437.15
613.554	37695.45
613.911	37960.3
614.267	38077.59
614.624	38200.3
614.98	38502.21
615.337	38808.41
615.693	38887.73
616.05	38987.84
616.406	39162.3
616.762	39345.12
617.118	39492.92
617.475	39524.33
617.831	39882.96
618.187	40023.3
618.543	40173.12
618.899	40498.99
619.255	40471.2
619.611	40608.59
619.967	40770.4
620.323	40996.15
620.678	40897.4
621.034	40887.68
621.39	41065.76
621.746	40923.16
622.101	41472.98
622.457	41271.85
622.812	41426.88
623.168	41776.7
623.523	41730.15
623.879	41925.62
624.234	41800.2
624.589	41902.34
624.945	42075.67
625.3	42210.59
625.655	42240.87
626.01	42274.54
626.365	42459.39
626.72	42484.48
627.075	42493.52
627.43	42434.53
627.785	42575.55
628.14	42644.25
628.495	42754.3
628.85	42645.6
629.205	42662.55
629.559	42905.26
629.914	42772.38
630.269	42900.74
630.623	42838.59
630.978	42819.38
631.332	43082.88
631.687	43142.31
632.041	42997.46
632.396	43044.91
632.75	42959.49
633.104	43306.6
633.459	42987.51
633.813	43001.07
634.167	42992.26
634.521	43087.4
634.875	43233.16
635.229	43221.18
635.583	42990.9
635.937	43098.02
636.291	42941.64
636.645	43081.07
636.999	42952.03
637.352	43146.61
637.706	42943.9
638.06	43061.64
638.413	43037
638.767	42926.05
639.121	43079.26
639.474	42874.07
639.828	42931.47
640.181	42917.46
640.534	42892.83
640.888	42945.03
641.241	42686.5
641.594	42925.14
641.947	43113.39
642.301	42810.8
642.654	43042.43
643.007	42901.87
643.36	42814.18
643.713	42898.93
644.066	43041.52
644.419	42758.14
644.771	42622.78
645.124	42303.46
645.477	42111.83
645.83	41920.65
646.182	41829.35
646.535	41709.58
646.888	41756.81
647.24	41492.19
647.593	41811.5
647.945	41714.78
648.298	41616.02
648.65	41582.8
649.002	41394.34
649.355	41677.49
649.707	41460.55
650.059	41844.49
650.411	42170.59
650.763	42376
651.115	42788.87
651.467	42437.25
651.819	42513.4
652.171	42361.09
652.523	42323.58
652.875	42346.63
653.227	42126.97
653.578	42505.49
653.93	42374.65
654.282	42274.76
654.633	42130.36
654.985	42360.64
655.337	42353.63
655.688	42242.67
656.039	42400.41
656.391	42030.7
656.742	42126.07
657.094	42218.27
657.445	42337.36
657.796	42254.88
658.147	42211.04
658.498	42133.98
658.849	42239.74
659.2	42187.99
659.551	41963.81
659.902	42232.51
660.253	42220.75
660.604	42267.08
660.955	41975.56
661.306	42141.21
661.656	42078.16
662.007	42098.5
662.358	42040.19
662.708	42062.34
663.059	42046.75
663.409	41718.17
663.76	42069.12
664.11	42090.59
664.461	42083.58
664.811	42161.32
665.161	42271.37
665.511	42022.12
665.862	42115.22
666.212	42106.18
666.562	42111.83
666.912	41986.41
667.262	41984.38
667.612	42112.96
667.962	42088.78
668.312	42004.04
668.662	42121.32
669.011	41960.65
669.361	42006.75
669.711	42030.25
670.06	41885.4
670.41	41938.05
670.76	41736.25
671.109	41916.58
671.459	41826.87
671.808	41725.17
672.157	41919.75
672.507	41644.72
672.856	41749.58
673.205	41663.71
673.554	41880.65
673.904	41534.67
674.253	41882.23
674.602	41684.95
674.951	41203.83
675.3	41040.22
675.649	41671.16
675.998	41568.12
676.346	41529.25
676.695	41787.32
677.044	41459.42
677.393	41531.05
677.741	41617.38
678.09	41344.17
678.438	41396.37
678.787	41376.26
679.135	41519.08
679.484	41143.27
679.832	41298.52
680.181	41075.7
680.529	41375.35
680.877	41206.09
681.225	41241.57
681.573	41246.77
681.922	41030.28
682.27	40930.62
682.618	40912.54
682.966	40837.06
683.314	41029.83
683.661	40936.49
684.009	40744.41
684.357	40589.38
684.705	40545.32
685.053	40535.6
685.4	40499.44
685.748	40488.14
686.095	40408.15
686.443	40280.01
686.79	40068.27
687.138	40315.04
687.485	40323.63
687.832	40030.76
688.18	40021.04
688.527	39884.09
688.874	39915.96
689.221	39747.6
689.568	39716.19
689.915	39647.94
690.262	39666.7
690.609	39628.28
690.956	39369.76
691.303	39241.17
691.65	39161.63
691.997	39117.11
692.344	38918.24
692.69	39054.06
693.037	38919.82
693.383	38503.34
693.73	38634.18
694.077	38642.09
694.423	38513.06
694.769	38455.66
695.116	38460.85
695.462	38375.66
695.808	38156.68
696.155	38352.83
696.501	37876.24
696.847	37952.17
697.193	37671.27
697.539	37911.94
697.885	37569.35
698.231	37414.55
698.577	37339.53
698.923	37292.52
699.269	37297.95
699.614	37175.69
699.96	37068.8
700.306	37049.14
700.651	36921.46
700.997	36752.2
701.342	36749.49
701.688	36675.14
702.033	36527.34
702.379	36579.55
702.724	36439.44
703.069	36641.92
703.415	36077.64
703.76	36089.62
704.105	36274.92
704.45	35967.81
704.795	35844.2
705.14	35717.65
705.485	35706.35
705.83	35633.13
706.175	35552.91
706.52	35495.96
706.865	35409.41
707.209	35408.28
707.554	35136.87
707.899	35237.44
708.243	35092.35
708.588	35021.4
708.932	34799.71
709.277	34827.28
709.621	34842.87
709.966	34705.7
710.31	34675.64
710.654	34444.24
710.998	34444.69
711.342	34475.2
711.687	34262.32
712.031	34119.95
712.375	34064.81
712.719	34171.02
713.063	34219.16
713.407	34143
713.75	34004.47
714.094	34005.83
714.438	33886.28
714.782	33780.98
715.125	33600.42
715.469	33811.94
715.812	33559.51
716.156	33578.72
716.499	33393.87
716.843	33567.87
717.186	33239.97
717.53	33416.69
717.873	33317.49
718.216	33274.77
718.559	33126.3
718.902	32870.94
719.246	32993.88
719.589	32909.36
719.932	32875.69
720.275	32930.83
720.617	32579.43
720.96	32811.51
721.303	32701.91
721.646	32629.37
721.989	32344.63
722.331	32546.43
722.674	32496.04
723.016	32355.7
723.359	32253.33
723.701	32465.76
724.044	32216.72
724.386	31966.56
724.729	32184.41
725.071	32310.05
725.413	32001.14
725.755	32096.5
726.097	31934.47
726.439	31767.92
726.782	31876.62
727.124	31864.19
727.465	31695.38
727.807	31760.01
728.149	31678.43
728.491	31575.84
728.833	31625.78
729.175	31494.26
729.516	31508.04
729.858	31337.65
730.199	31369.74
730.541	31390.3
730.882	31370.87
731.224	31466.91
731.565	31212.68
731.906	31107.37
732.248	31140.82
732.589	31057.66
732.93	30923.88
733.271	30834.39
733.612	30917.77
733.953	30937.66
734.294	30836.65
734.635	30715.07
734.976	30868.28
735.317	30621.29
735.658	30647.5
735.999	30730.43
736.339	30575.18
736.68	30584
737.021	30511.46
737.361	30407.73
737.702	30610.66
738.042	30359.82
738.383	30469.2
738.723	30424.23
739.063	30283.67
739.404	30265.14
739.744	30251.35
740.084	30233.95
740.424	30217.68
740.764	29987.18
741.104	30200.73
741.444	30051.13
741.784	29879.61
742.124	29939.04
742.464	29919.16
742.804	29851.36
743.143	29803.91
743.483	29837.13
743.823	29518.04
744.162	29606.85
744.502	29517.36
744.841	29531.82
745.181	29590.8
745.52	29433.29
745.86	29543.35
746.199	29502.9
746.538	29400.75
746.877	29522.33
747.216	29460.41
747.556	29283.02
747.895	29338.61
748.234	29146.75
748.573	29135
748.911	29161.66
749.25	29142.91
749.589	29033.53
749.928	29038.95
750.267	29096.58
750.605	28902.46
750.944	28858.39
751.283	28851.61
751.621	28744.27
751.96	28769.81
752.298	28773.42
752.636	28749.47
752.975	28657.95
753.313	28530.27
753.651	28625.63
753.989	28497.5
754.327	28489.14
754.666	28364.62
755.004	28396.03
755.342	28312.42
755.679	28252.08
756.017	28145.19
756.355	28222.03
756.693	28127.11
757.031	28194.91
757.368	27925.54
757.706	27860.45
758.044	27881.47
758.381	27801.25
758.719	27727.35
759.056	27680.8
759.394	27752.21
759.731	27591.31
760.068	27467.7
760.405	27328.94
760.743	27291.66
761.08	27283.97
761.417	27185.44
761.754	27090.08
762.091	27118.33
762.428	27073.13
762.765	26732.57
763.102	26822.97
763.438	26770.09
763.775	26674.27
764.112	26720.6
764.449	26585.23
764.785	26449.64
765.122	26349.76
765.458	26214.4
765.795	26207.39
766.131	26241.97
766.467	25999.49
766.804	25951.35
767.14	25818.7
767.476	25781.41
767.812	25558.59
768.148	25694.41
768.485	25553.17
768.821	25400.86
769.157	25378.94
769.492	25333.97
769.828	25281.09
770.164	25117.7
770.5	24999.51
770.836	25170.36
771.171	24875.45
771.507	24855.79
771.842	24779.63
772.178	24644.95
772.513	24603.14
772.849	24509.58
773.184	24341.68
773.519	24439.07
773.855	24274.11
774.19	24211.28
774.525	24127.67
774.86	24132.19
775.195	24159.99
775.53	24046.99
775.865	23764.06
776.2	23680
776.535	23544.86
776.87	23563.39
777.205	23431.42
777.539	23324.3
777.874	23331.08
778.209	23085.21
778.543	23047.25
778.878	23035.04
779.212	22967.02
779.547	22846.12
779.881	22755.28
780.215	22689.06
780.55	22703.75
780.884	22484.55
781.218	22562.74
781.552	22350.09
781.886	22313.71
782.22	22207.04
782.554	22089.31
782.888	21854.74
783.222	21908.52
783.556	21803.89
783.889	21805.25
784.223	21571.58
784.557	21556.21
784.89	21626.72
785.224	21547.63
785.557	21334.3
785.891	21229.89
786.224	21148.99
786.558	21168.2
786.891	20997.58
787.224	20987.19
787.557	20909.9
787.891	20948.77
788.224	20809.57
788.557	20701.32
788.89	20656.12
789.223	20729.57
789.556	20441.21
789.888	20494.09
790.221	20367.32
790.554	20200.54
790.887	20217.72
791.219	20263.82
791.552	20172.07
791.884	20017.27
792.217	19911.06
792.549	19845.98
792.882	19761.01
793.214	19639.43
793.546	19792.19
793.879	19596.72
794.211	19536.38
794.543	19612.76
794.875	19470.17
795.207	19479.43
795.539	19235.82
795.871	19319.21
796.203	19128.93
796.535	19176.16
796.867	18999.22
797.198	19057.52
797.53	19068.82
797.862	18941.37
798.193	18830.18
798.525	18800.13
798.856	18768.49
799.188	18626.8
799.519	18552.68
799.85	18446.92
800.182	18463.41
800.513	18450.76
800.844	18318.33
801.175	18361.49
801.506	18246.47
801.837	18174.61
802.168	18223.87
802.499	18124.44
802.83	18003.76
803.161	17981.17
803.491	17975.97
803.822	17883.54
804.153	17762.41
804.483	17710.44
804.814	17652.36
805.145	17657.11
805.475	17653.49
805.805	17656.43
806.136	17524
806.466	17553.61
806.796	17495.08
807.126	17370.33
807.457	17246.95
807.787	17269.09
808.117	17204.46
808.447	17122.66
808.777	17169.44
809.107	17091.25
809.436	16993.39
809.766	17043.79
810.096	16911.82
810.426	16937.13
810.755	16916.11
811.085	16801.08
811.414	16625.72
811.744	16551.37
812.073	16621.43
812.403	16628.88
812.732	16580.52
813.061	16500.07
813.39	16470.02
813.719	16416.01
814.049	16402.45
814.378	16327.88
814.707	16292.4
815.036	16348.67
815.365	16147.99
815.693	16075.23
816.022	16094.44
816.351	16053.76
816.68	15914.78
817.008	15994.33
817.337	15912.97
817.665	15835.91
817.994	15891.5
818.322	15816.25
818.651	15762.47
818.979	15754.33
819.307	15819.19
819.636	15649.02
819.964	15614.9
820.292	15693.09
820.62	15660.1
820.948	15672.53
821.276	15631.85
821.604	15563.38
821.932	15599.53
822.259	15542.36
822.587	15561.79
822.915	15506.88
823.243	15606.31
823.57	15434.57
823.898	15424.85
824.225	15473.89
824.553	15474.34
824.88	15528.57
825.207	15549.82
825.535	15424.4
825.862	15515.92
826.189	15427.79
826.516	15466.2
826.843	15512.08
827.17	15510.5
827.497	15461.46
827.824	15424.17
828.151	15507.33
828.478	15529.93
828.805	15560.89
829.131	15431.4
829.458	15452.42
829.785	15325.19
830.111	15435.7
830.438	15428.24
830.764	15361.35
831.09	15500.55
831.417	15364.29
831.743	15453.77
832.069	15391.63
832.395	15390.95
832.722	15418.3
833.048	15309.6
833.374	15321.35
833.7	15255.59
834.026	15181.47
834.351	15314.12
834.677	15320.67
835.003	15407.45
835.329	15230.5
835.654	15274.12
835.98	15218.98
836.306	15166.32
836.631	15079.77
836.956	15167.45
837.282	15169.26
837.607	15061.24
837.932	14999.1
838.258	14978.98
838.583	14947.35
838.908	14922.04
839.233	14874.35
839.558	14882.04
839.883	14868.25
840.208	14823.96
840.533	14830.51
840.858	14790.74
841.182	14809.5
841.507	14727.47
841.832	14680.91
842.156	14748.26
842.481	14672.33
842.805	14606.34
843.13	14616.73
843.454	14607.24
843.778	14498.32
844.103	14500.58
844.427	14411.32
844.751	14423.75
845.075	14364.76
845.399	14344.2
845.723	14301.71
846.047	14296.97
846.371	14256.74
846.695	14258.1
847.019	14048.61
847.343	14037.99
847.666	13960.03
847.99	13915.51
848.313	13821.28
848.637	13774.27
848.96	13766.59
849.284	13760.94
849.607	13618.79
849.931	13527.95
850.254	13520.27
850.577	13410.89
850.9	13314.62
851.223	13355.75
851.546	13273.72
851.869	13104.91
852.192	13267.39
852.515	13113.72
852.838	13050.67
853.161	13089.09
853.483	12998.02
853.806	12933.39
854.129	12938.36
854.451	12891.13
854.774	12778.82
855.096	12751.25
855.419	12672.6
855.741	12732.04
856.063	12619.27
856.385	12621.98
856.708	12500.63
857.03	12590.57
857.352	12546.05
857.674	12427.87
857.996	12405.72
858.318	12358.26
858.64	12334.53
858.961	12263.8
859.283	12316
859.605	12186.97
859.926	12338.38
860.248	12239.17
860.57	12150.36
860.891	12107.65
861.212	12050.7
861.534	12151.04
861.855	12050.93
862.176	12032.85
862.498	12034.88
862.819	11991.94
863.14	12003.92
863.461	11944.26
863.782	11889.12
864.103	11975.22
864.424	11775.23
864.745	11895
865.065	11817.26
865.386	11698.17
865.707	11768.22
866.027	11774.78
866.348	11667.89
866.668	11756.92
866.989	11625.17
867.309	11657.26
867.63	11637.83
867.95	11661.11
868.27	11553.31
868.59	11585.18
868.91	11452.75
869.23	11546.76
869.55	11476.93
869.87	11539.98
870.19	11428.57
870.51	11449.59
870.83	11456.37
871.15	11405.29
871.469	11443.48
871.789	11375.24
872.109	11379.98
872.428	11284.17
872.748	11373.66
873.067	11370.72
873.386	11304.73
873.706	11289.36
874.025	11169.14
874.344	11145.87
874.663	11219.08
874.982	11144.51
875.301	11194.45
875.62	11079.88
875.939	11025.42
876.258	11092.08
876.577	11079.43
876.896	11100.89
877.214	11031.97
877.533	11041.91
877.852	11072.87
878.17	10966.89
878.489	10975.93
878.807	10965.53
879.125	10921.92
879.444	10902.26
879.762	10846.21
880.08	10831.3
880.398	10861.13
880.716	10897.74
881.034	10817.06
881.352	10839.88
881.67	10780.23
881.988	10810.96
882.306	10759.43
882.624	10677.85
882.941	10703.39
883.259	10651.41
883.577	10656.61
883.894	10557.63
884.212	10654.8
884.529	10578.87
884.846	10538.2
885.164	10580.68
885.481	10463.62
885.798	10486
886.115	10379.78
886.432	10413.91
886.75	10350.18
887.067	10392.44
887.383	10318.54
887.7	10387.69
888.017	10318.32
888.334	10295.94
888.651	10239
888.967	10289.84
889.284	10209.17
889.6	10166
889.917	10047.36
890.233	10085.78
890.55	10060.92
890.866	10097.31
891.182	10040.36
891.498	9940.25
891.815	10006.23
892.131	9894.15
892.447	9902.73
892.763	9839.68
893.079	9847.37
893.395	9727.37
893.71	9722.17
894.026	9776.64
894.342	9758.56
894.657	9653.25
894.973	9689.86
895.289	9625.23
895.604	9619.8
895.92	9532.57
896.235	9552.46
896.55	9508.85
896.865	9478.11
897.181	9451.22
897.496	9476.76
897.811	9320.38
898.126	9399.02
898.441	9331.9
898.756	9343.43
899.071	9215.07
899.386	9233.37
899.7	9210.55
900.015	9135.97
900.33	9079.25
900.644	9022.76
900.959	9079.03
901.273	9047.16
901.588	8982.76
901.902	8937.34
902.216	8911.12
902.531	8884.46
902.845	8850.11
903.159	8893.95
903.473	8779.37
903.787	8750
904.101	8685.59
904.415	8686.49
904.729	8725.82
905.042	8690.34
905.356	8543.45
905.67	8604.24
905.984	8529.66
906.297	8619.15
906.611	8441.53
906.924	8488.08
907.237	8425.71
907.551	8412.38
907.864	8343
908.177	8316.34
908.491	8290.35
908.804	8208.54
909.117	8243.57
909.43	8250.12
909.743	8160.86
910.056	8165.83
910.368	8143.46
910.681	8067.08
910.994	8090.8
911.307	8005.16
911.619	7910.24
911.932	7945.5
912.244	7859.17
912.557	7836.35
912.869	7832.05
913.181	7780.98
913.494	7709.8
913.806	7791.6
914.118	7702.11
914.43	7653.08
914.742	7606.3
915.054	7647.88
915.366	7596.35
915.678	7530.59
915.99	7543.47
916.302	7462.12
916.613	7418.05
916.925	7455.79
917.236	7402.01
917.548	7351.16
917.859	7346.42
918.171	7325.63
918.482	7223.48
918.794	7222.35
919.105	7157.95
919.416	7110.27
919.727	7144.39
920.038	7118.17
920.349	7051.74
920.66	7001.34
920.971	7060.55
921.282	6999.08
921.593	6949.59
921.903	6906.65
922.214	6859.42
922.525	6804.74
922.835	6803.15
923.146	6800.89
923.456	6825.75
923.767	6789.14
924.077	6780.1
924.387	6724.06
924.697	6632.31
925.008	6632.76
925.318	6632.99
925.628	6612.2
925.938	6507.57
926.248	6458.08
926.558	6514.57
926.867	6462.37
927.177	6427.35
927.487	6445.42
927.796	6351.87
928.106	6355.03
928.416	6306.67
928.725	6300.34
929.034	6250.85
929.344	6232.1
929.653	6272.55
929.962	6204.53
930.271	6163.4
930.581	6103.96
930.89	6136.05
931.199	6016.28
931.508	6051.99
931.817	6053.34
932.125	6030.97
932.434	6019.22
932.743	5976.96
933.051	5939.45
933.36	5887.02
933.669	5862.61
933.977	5905.1
934.286	5852.22
934.594	5802.28
934.902	5721.6
935.21	5765.89
935.519	5749.17
935.827	5774.71
936.135	5655.61
936.443	5593.92
936.751	5603.86
937.059	5619.91
937.367	5553.02
937.674	5548.27
937.982	5536.97
938.29	5555.73
938.597	5537.65
938.905	5462.4
939.213	5440.25
939.52	5411.55
939.827	5468.27
940.135	5359.8
940.442	5373.14
940.749	5392.12
941.056	5339.24
941.363	5278.45
941.67	5228.51
941.977	5228.96
942.284	5212.01
942.591	5204.33
942.898	5184.67
943.205	5174.5
943.511	5164.33
943.818	5133.59
944.125	5051.11
944.431	5101.5
944.738	5075.06
945.044	5009.76
945.35	5013.15
945.657	4946.93
945.963	4939.93
946.269	4886.37
946.575	4938.8
946.881	4910.77
947.187	4856.99
947.493	4798.91
947.799	4771.34
948.105	4755.98
948.41	4809.08
948.716	4768.86
949.022	4743.55
949.327	4730.67
949.633	4743.55
949.938	4704.23
950.244	4660.16
950.549	4583.55
950.854	4628.75
951.16	4579.94
951.465	4567.06
951.77	4636.66
952.075	4573.38
952.38	4496.55
952.685	4543.1
952.99	4450
953.294	4452.03
953.599	4424.69
953.904	4368.42
954.209	4367.29
954.513	4383.56
954.818	4355.08
955.122	4340.17
955.426	4352.82
955.731	4343.33
956.035	4306.72
956.339	4298.81
956.643	4234.18
956.948	4215.2
957.252	4158.25
957.556	4196.22
957.86	4234.41
958.163	4175.65
958.467	4123.22
958.771	4124.13
959.075	4099.95
959.378	4111.7
959.682	4125.26
959.985	4060.85
960.289	4035.77
960.592	4004.81
960.896	3988.09
961.199	3959.39
961.502	3999.84
961.805	3932.72
962.108	3910.58
962.411	3978.37
962.714	3916
963.017	3885.04
963.32	3903.57
963.623	3845.27
963.926	3864.47
964.228	3821.99
964.531	3777.02
964.833	3788.77
965.136	3762.56
965.438	3752.84
965.741	3718.72
966.043	3693.41
966.345	3694.31
966.648	3694.31
966.95	3674.2
967.252	3681.65
967.554	3648.44
967.856	3652.05
968.158	3619.96
968.46	3597.59
968.761	3579.74
969.063	3555.1
969.365	3558.95
969.666	3535.22
969.968	3521.66
970.269	3470.13
970.571	3487.76
970.872	3480.53
971.174	3432.85
971.475	3431.27
971.776	3409.57
972.077	3419.51
972.378	3407.99
972.679	3360.53
972.98	3355.34
973.281	3348.33
973.582	3340.87
973.883	3323.02
974.183	3299.29
974.484	3318.95
974.785	3286.64
975.085	3292.51
975.386	3249.8
975.686	3192.18
975.986	3212.97
976.287	3214.77
976.587	3178.39
976.887	3156.02
977.187	3191.5
977.487	3149.01
977.787	3117.6
978.087	3106.08
978.387	3103.36
978.687	3091.84
978.987	3064.27
979.286	3064.27
979.586	3069.02
979.885	3030.6
980.185	3041.22
980.484	3043.93
980.784	3012.29
981.083	2956.7
981.382	2977.49
981.682	2964.61
981.981	2935.23
982.28	2930.71
982.579	2895.91
982.878	2925.97
983.177	2870.83
983.475	2894.56
983.774	2877.61
984.073	2832.64
984.372	2812.75
984.67	2810.04
984.969	2812.3
985.267	2818.17
985.566	2770.94
985.864	2774.11
986.162	2779.08
986.461	2753.32
986.759	2745.41
987.057	2725.3
987.355	2679.2
987.653	2711.06
987.951	2706.99
988.249	2671.96
988.547	2699.99
988.844	2658.86
989.142	2667.67
989.44	2639.42
989.737	2634
990.035	2610.27
990.332	2587.22
990.63	2580.21
990.927	2579.54
991.224	2570.27
991.521	2562.36
991.819	2525.75
992.116	2525.53
992.413	2502.02
992.71	2474
993.006	2487.34
993.303	2452.76
993.6	2448.47
993.897	2441.69
994.193	2441.69
994.49	2471.74
994.787	2429.94
995.083	2401.69
995.379	2411.18
995.676	2411.18
995.972	2371.18
996.268	2346.32
996.565	2307
996.861	2331.18
997.157	2325.08
997.453	2316.49
997.749	2310.84
998.044	2279.21
998.34	2253.67
998.636	2249.15
998.932	2257.51
999.227	2268.36
999.523	2224.07
999.818	2225.2
1000.114	2205.54
1000.409	2211.18
1000.704	2196.04
1001	2211.41
1001.295	2177.74
1001.59	2133.22
1001.885	2157.4
1002.18	2127.8
1002.475	2089.83
1002.77	2084.86
1003.065	2101.13
1003.359	2075.37
1003.654	2066.1
1003.949	2054.8
1004.243	2055.26
1004.538	2013
1004.832	2052.54
1005.127	2027.46
1005.421	2025.43
1005.715	2022.04
1006.009	1976.39
1006.304	1998.54
1006.598	1971.19
1006.892	1961.02
1007.186	1947.91
1007.48	1931.87
1007.773	1953.56
1008.067	1897.97
1008.361	1878.76
1008.655	1877.41
1008.948	1869.95
1009.242	1867.47
1009.535	1866.34
1009.829	1860.91
1010.122	1828.6
1010.415	1813.68
1010.708	1822.72
1011.001	1816.39
1011.295	1799.44
1011.588	1777.98
1011.881	1761.25
1012.173	1736.4
1012.466	1759.22
1012.759	1752.21
1013.052	1724.64
1013.344	1733.46
1013.637	1692.33
1013.93	1716.73
1014.222	1674.02
1014.514	1697.07
1014.807	1655.95
1015.099	1667.24
1015.391	1660.24
1015.683	1633.12
1015.976	1646.45
1016.268	1580.24
1016.56	1605.55
1016.851	1598.55
1017.143	1575.04
1017.435	1566.23
1017.727	1577.76
1018.018	1577.53
1018.31	1559.45
1018.602	1535.27
1018.893	1528.49
1019.185	1530.07
1019.476	1504.31
1019.767	1513.8
1020.058	1503.18
1020.35	1468.38
1020.641	1453.92
1020.932	1469.74
1021.223	1457.53
1021.514	1453.69
1021.804	1429.06
1022.095	1421.38
1022.386	1420.7
1022.677	1416.18
1022.967	1394.94
1023.258	1392.68
1023.548	1375.27
1023.839	1380.02
1024.129	1366.91
1024.419	1352.68
1024.709	1352.45
1025	1358.33
1025.29	1326.46
1025.58	1309.97
1025.87	1302.06
1026.16	1290.76
1026.449	1302.51
1026.739	1288.95
1027.029	1265.45
1027.319	1274.26
1027.608	1249.85
1027.898	1265.45
1028.187	1217.31
1028.477	1220.48
1028.766	1257.09
1029.055	1231.55
1029.344	1191.32
1029.634	1220.02
1029.923	1184.09
1030.212	1214.15
1030.501	1176.18
1030.79	1176.64
1031.078	1146.35
1031.367	1152.68
1031.656	1159.01
1031.945	1145.9
1032.233	1155.62
1032.522	1137.31
1032.81	1127.6
1033.099	1136.41
1033.387	1112.91
1033.675	1114.94
1033.963	1072.46
1034.251	1098.45
1034.54	1070.88
1034.828	1078.11
1035.116	1068.39
1035.403	1056.64
1035.691	1060.25
1035.979	1059.58
1036.267	1042.4
1036.554	1020.03
1036.842	1032.91
1037.129	1009.63
1037.417	1008.5
1037.704	1004.44
1037.992	994.04
1038.279	991.33
1038.566	967.6
1038.853	967.6
1039.14	967.6
