Data from hue_38_FLMS001491_00088.txt Node
Date: Tue Feb 07 17:32:06 GMT 2017
User: dcchb
Spectrometer: FLMS00149
Trigger mode: 0
Integration Time (sec): 2.000000E-2
Scans to average: 10
Electric dark correction enabled: true
Nonlinearity correction enabled: false
Boxcar width: 0
XAxis mode: Wavelengths
Number of Pixels in Spectrum: 2048
>>>>>Begin Spectral Data<<<<<
341.393	4.9
341.776	4.9
342.16	4.9
342.543	-51.37
342.927	-72.39
343.31	-88.66
343.693	-72.84
344.077	-64.48
344.46	-77.58
344.843	-52.05
345.226	-52.95
345.61	-45.27
345.993	-2.78
346.376	9.65
346.759	8.74
347.142	17.33
347.525	46.93
347.908	60.49
348.291	94.62
348.674	96.65
349.057	122.19
349.44	120.6
349.823	136.42
350.206	173.03
350.588	194.27
350.971	191.34
351.354	249.19
351.737	240.83
352.119	263.65
352.502	269.53
352.884	288.96
353.267	288.74
353.65	286.25
354.032	295.29
354.414	293.26
354.797	310.2
355.179	328.28
355.562	322.41
355.944	339.13
356.326	333.71
356.709	346.59
357.091	341.62
357.473	333.71
357.855	350.88
358.238	349.3
358.62	359.47
359.002	337.1
359.384	346.81
359.766	351.33
360.148	374.61
360.53	343.42
360.912	343.42
361.294	338.68
361.676	332.35
362.057	323.99
362.439	308.62
362.821	343.42
363.203	337.55
363.584	309.07
363.966	326.47
364.348	329.41
364.729	336.19
365.111	321.5
365.493	304.33
365.874	325.34
366.256	322.41
366.637	334.38
367.019	312.24
367.4	312.01
367.781	311.11
368.163	320.82
368.544	299.13
368.925	302.07
369.306	320.15
369.688	323.31
370.069	314.72
370.45	303.2
370.831	313.37
371.212	324.21
371.593	325.8
371.974	318.11
372.355	335.06
372.736	309.07
373.117	302.29
373.498	322.63
373.879	316.53
374.26	324.89
374.641	308.62
375.021	332.8
375.402	333.48
375.783	319.47
376.163	346.36
376.544	331.22
376.925	327.38
377.305	333.48
377.686	337.32
378.066	314.72
378.447	313.59
378.827	309.75
379.208	332.58
379.588	356.53
379.968	315.4
380.349	326.93
380.729	325.8
381.109	323.08
381.489	336.19
381.87	344.55
382.25	344.55
382.63	363.76
383.01	344.33
383.39	346.59
383.77	353.37
384.15	342.97
384.53	342.52
384.91	335.74
385.29	355.85
385.67	358.11
386.049	361.73
386.429	366.93
386.809	346.59
387.189	372.35
387.568	366.7
387.948	365.12
388.328	359.92
388.707	368.96
389.087	381.84
389.466	352.91
389.846	366.25
390.225	360.37
390.605	384.78
390.984	366.47
391.363	381.16
391.743	348.62
392.122	370.99
392.501	363.76
392.881	370.99
393.26	371.45
393.639	372.12
394.018	362.63
394.397	383.87
394.776	383.87
395.155	383.87
395.534	375.29
395.913	370.32
396.292	368.73
396.671	384.33
397.05	375.06
397.429	394.5
397.808	404.66
398.186	395.4
398.565	378.45
398.944	408.28
399.323	396.08
399.701	384.55
400.08	386.36
400.458	412.57
400.837	376.64
401.215	410.99
401.594	412.12
401.972	405.12
402.351	402.4
402.729	385.68
403.107	430.2
403.486	429.75
403.864	402.18
404.242	425.68
404.62	438.11
404.999	424.78
405.377	438.56
405.755	424.78
406.133	445.12
406.511	430.65
406.889	473.82
407.267	427.94
407.645	439.47
408.023	425.91
408.401	444.44
408.779	441.73
409.156	446.7
409.534	442.63
409.912	454.15
410.29	453.7
410.667	470.43
411.045	449.41
411.422	465.68
411.8	467.04
412.178	440.37
412.555	488.5
412.933	479.24
413.31	483.53
413.687	482.4
414.065	453.48
414.442	492.12
414.819	456.64
415.197	494.15
415.574	499.8
415.951	494.15
416.328	481.27
416.705	504.1
417.082	501.16
417.46	509.29
417.837	520.14
418.214	495.06
418.591	509.52
418.967	528.05
419.344	524.89
419.721	524.89
420.098	523.53
420.475	553.14
420.852	531.21
421.228	544.1
421.605	574.6
421.982	533.47
422.358	557.65
422.735	547.71
423.111	546.36
423.488	554.94
423.864	553.59
424.241	559.01
424.617	547.94
424.994	580.03
425.37	579.58
425.746	586.13
426.123	604.43
426.499	587.26
426.875	583.64
427.251	592.23
427.627	605.56
428.003	606.47
428.379	609.18
428.756	594.04
429.132	621.83
429.507	637.88
429.883	617.99
430.259	645.34
430.635	620.03
431.011	636.97
431.387	652.34
431.763	651.66
432.138	644.43
432.514	664.32
432.89	677.65
433.265	670.87
433.641	688.05
434.016	704.32
434.392	705.45
434.767	692.79
435.143	690.76
435.518	712.68
435.894	690.76
436.269	736.41
436.644	714.26
437.02	711.1
437.395	729.85
437.77	730.53
438.145	749.74
438.52	743.86
438.895	755.84
439.271	767.37
439.646	744.54
440.021	751.55
440.395	770.3
440.77	773.47
441.145	783.86
441.52	811.43
441.895	788.38
442.27	801.26
442.645	801.04
443.019	795.61
443.394	808.95
443.769	806.24
444.143	806.01
444.518	800.81
444.892	790.19
445.267	789.51
445.641	824.09
446.016	852.34
446.39	842.62
446.764	849.17
447.139	810.3
447.513	843.3
447.887	859.34
448.262	835.84
448.636	876.97
449.01	886.23
449.384	888.72
449.758	916.06
450.132	876.74
450.506	900.92
450.88	898.44
451.254	891.66
451.628	921.49
452.002	902.73
452.376	940.92
452.75	929.17
453.123	970.07
453.497	952.45
453.871	960.13
454.244	974.59
454.618	966.91
454.992	1020.69
455.365	999.68
455.739	1003.07
456.112	1020.69
456.486	1012.56
456.859	1027.47
457.232	1049.62
457.606	1053.91
457.979	1055.49
458.352	1099.11
458.725	1091.88
459.099	1109.05
459.472	1107.24
459.845	1141.82
460.218	1126.45
460.591	1128.94
460.964	1133.01
461.337	1165.55
461.71	1177.53
462.083	1214.59
462.456	1221.59
462.829	1215.26
463.201	1249.61
463.574	1254.81
463.947	1258.65
464.32	1280.35
464.692	1301.36
465.065	1295.26
465.438	1319.22
465.81	1352.89
466.183	1374.81
466.555	1392.66
466.928	1403.28
467.3	1422.94
467.672	1435.37
468.045	1445.09
468.417	1467.24
468.789	1499.55
469.161	1514.69
469.534	1554.92
469.906	1553.56
470.278	1587.01
470.65	1601.24
471.022	1657.96
471.394	1690.96
471.766	1695.48
472.138	1727.79
472.51	1755.36
472.882	1787.45
473.253	1828.13
473.625	1857.96
473.997	1914
474.369	1887.79
474.74	1931.86
475.112	1977.5
475.484	2024.06
475.855	2114.9
476.227	2136.14
476.598	2182.02
476.97	2220.44
477.341	2285.52
477.713	2330.26
478.084	2373.88
478.455	2442.8
478.827	2503.14
479.198	2599.18
479.569	2610.48
479.94	2680.76
480.311	2757.15
480.682	2819.97
481.053	2923.02
481.424	2985.61
481.795	3043.92
482.166	3091.83
482.537	3186.74
482.908	3269.22
483.279	3339.73
483.65	3394.87
484.021	3518.03
484.391	3614.3
484.762	3685.48
485.133	3785.37
485.503	3829.21
485.874	3944.68
486.244	4026.72
486.615	4152.14
486.985	4226.48
487.356	4391.45
487.726	4438.23
488.097	4515.06
488.467	4583.99
488.837	4718.22
489.207	4841.84
489.578	4917.54
489.948	5072.11
490.318	5148.95
490.688	5257.19
491.058	5392.1
491.428	5458.99
491.798	5548.94
492.168	5764.07
492.538	5825.09
492.908	5954.58
493.278	6028.02
493.648	6134.23
494.017	6255.81
494.387	6285.41
494.757	6425.3
495.126	6528.8
495.496	6629.81
495.866	6712.52
496.235	6821.67
496.605	6937.15
496.974	6973.53
497.344	7099.4
497.713	7182.11
498.082	7288.33
498.452	7423.69
498.821	7531.71
499.19	7545.49
499.559	7682.44
499.928	7746.39
500.298	7854.19
500.667	8006.95
501.036	7985.93
501.405	8162.88
501.774	8213.5
502.143	8303.21
502.512	8330.33
502.88	8418.69
503.249	8454.85
503.618	8584.11
503.987	8657.55
504.356	8755.86
504.724	8805.12
505.093	8865.01
505.462	8912.46
505.83	8935.29
506.199	9185
506.567	9246.47
506.936	9300.7
507.304	9426.12
507.672	9434.94
508.041	9483.52
508.409	9655.27
508.777	9763.29
509.145	9783.63
509.514	9821.59
509.882	9898.88
510.25	9968.93
510.618	10070.85
510.986	10107.23
511.354	10223.16
511.722	10293.67
512.09	10412.08
512.458	10339.54
512.826	10425.87
513.193	10604.85
513.561	10607.33
513.929	10757.16
514.297	10765.3
514.664	10879.64
515.032	10897.5
515.4	11000.09
515.767	11034.22
516.135	11157.38
516.502	11115.57
516.869	11291.16
517.237	11346.07
517.604	11316.24
517.972	11523.24
518.339	11520.53
518.706	11594.43
519.073	11649.79
519.44	11761.65
519.808	11780.86
520.175	11816.34
520.542	11991.25
520.909	12068.54
521.276	11984.47
521.643	12202.77
522.009	12267.63
522.376	12328.19
522.743	12451.35
523.11	12519.15
523.477	12645.7
523.843	12678.01
524.21	12840.27
524.577	12835.07
524.943	12916.43
525.31	12948.97
525.676	13167.04
526.043	13199.81
526.409	13178.34
526.776	13339.01
527.142	13379.92
527.508	13512.57
527.874	13612.9
528.241	13636.86
528.607	13700.81
528.973	13826.23
529.339	13790.3
529.705	13933.57
530.071	14026.45
530.437	14117.75
530.803	14188.93
531.169	14345.09
531.535	14258.76
531.901	14442.26
532.267	14490.62
532.632	14517.06
532.998	14537.63
533.364	14625.31
533.73	14690.84
534.095	14799.54
534.461	14923.15
534.826	14839.09
535.192	15040.21
535.557	15168.57
535.923	15087.89
536.288	15126.99
536.653	15280.66
537.019	15186.42
537.384	15409.92
537.749	15393.42
538.114	15405.17
538.479	15473.19
538.845	15587.32
539.21	15552.97
539.575	15685.84
539.94	15727.2
540.305	15826.41
540.67	15848.78
541.034	15948.89
541.399	15969.23
541.764	15985.27
542.129	16193.18
542.494	16159.96
542.858	16149.56
543.223	16277.24
543.587	16340.74
543.952	16422.77
544.316	16400.85
544.681	16521.08
545.045	16449.21
545.41	16602.88
545.774	16730.11
546.138	16691.02
546.503	16837.9
546.867	16805.36
547.231	16992.02
547.595	16998.58
547.959	16986.38
548.324	17166.03
548.688	17224.56
549.052	17292.36
549.416	17228.85
549.779	17345.46
550.143	17283.77
550.507	17464.78
550.871	17526.47
551.235	17447.61
551.599	17621.61
551.962	17735.73
552.326	17646.7
552.689	17835.39
553.053	17785
553.417	17790.2
553.78	18076.06
554.143	17997.65
554.507	18091.21
554.87	18188.6
555.234	18335.72
555.597	18197.64
555.96	18283.97
556.323	18435.6
556.686	18404.87
557.05	18668.82
557.413	18648.03
557.776	18691.19
558.139	18799.89
558.502	18764.63
558.865	18837.63
559.228	18957.85
559.59	19058.86
559.953	19111.74
560.316	19260.67
560.679	19272.19
561.041	19287.11
561.404	19450.94
561.767	19542.69
562.129	19416.59
562.492	19685.74
562.854	19623.37
563.217	19697.94
563.579	19791.27
563.941	19841.67
564.304	19937.48
564.666	20047.54
565.028	20067.42
565.39	20151.72
565.753	20196.23
566.115	20305.84
566.477	20347.87
566.839	20423.35
567.201	20551.03
567.563	20591.03
567.925	20791.93
568.287	20690.91
568.648	20724.36
569.01	20878.93
569.372	21101.3
569.734	21072.14
570.095	21256.09
570.457	21217.22
570.819	21379.93
571.18	21324.79
571.542	21592.36
571.903	21629.19
572.265	21722.3
572.626	21824.44
572.987	21892.46
573.349	21981.27
573.71	22099.24
574.071	22162.74
574.432	22283.64
574.794	22498.09
575.155	22449.28
575.516	22446.8
575.877	22740.8
576.238	22610.18
576.599	22932.66
576.96	22899.89
577.32	23117.97
577.681	23261.46
578.042	23356.38
578.403	23534.9
578.763	23484.51
579.124	23734.9
579.485	23920.2
579.845	23979.19
580.206	24119.75
580.566	24340.31
580.927	24486.74
581.287	24601.77
581.648	24601.77
582.008	24917.69
582.368	25013.96
582.728	25196.33
583.089	25377.34
583.449	25535.08
583.809	25697.33
584.169	25932.35
584.529	25949.08
584.889	26402.4
585.249	26453.25
585.609	26535.95
585.969	26958.77
586.329	26967.58
586.688	27170.97
587.048	27382.49
587.408	27480.11
587.768	27881.91
588.127	27994
588.487	28147.21
588.846	28546.52
589.206	28521.44
589.565	28665.62
589.925	29147.86
590.284	29236.22
590.643	29490.45
591.003	29619.04
591.362	30017.22
591.721	30038.24
592.08	30276.2
592.44	30563.19
592.799	30805.9
593.158	30956.18
593.517	31117.53
593.876	31227.58
594.235	31458.99
594.593	31731.07
594.952	31940.11
595.311	32110.27
595.67	32286.09
596.029	32682.01
596.387	32854.66
596.746	33034.77
597.104	33100.53
597.463	33265.04
597.822	33678.37
598.18	33654.41
598.538	33902.77
598.897	34213.04
599.255	34123.78
599.613	34691.9
599.972	34675.18
600.33	34976.64
600.688	35037.43
601.046	35192.9
601.404	35664.3
601.762	35484.65
602.12	35776.84
602.478	35998.76
602.836	36044.86
603.194	36081.69
603.552	36337.05
603.91	36384.28
604.268	36768.68
604.625	36783.37
604.983	37032.18
605.341	36929.58
605.698	37234.2
606.056	37403.01
606.413	37567.76
606.771	37740.86
607.128	37950.8
607.485	37746.28
607.843	37964.35
608.2	38257
608.557	38442.99
608.914	38457.45
609.272	38780.15
609.629	38838
609.986	39001.39
610.343	39019.92
610.7	39375.39
611.057	39417.42
611.414	39362.74
611.771	39659
612.127	39810.86
612.484	39894.7
612.841	40113.45
613.198	40040.91
613.554	40159.55
613.911	40448.36
614.267	40397.96
614.624	40416.04
614.98	40634.34
615.337	40830.49
615.693	40736.26
616.05	40805.41
616.406	41061.22
616.762	41140.99
617.118	41178.73
617.475	41386.41
617.831	41368.11
618.187	41540.31
618.543	41573.53
618.899	41906.85
619.255	41841.77
619.611	41817.81
619.967	41990.92
620.323	42111.36
620.678	42036.56
621.034	42135.32
621.39	42138.93
621.746	42189.1
622.101	42781.18
622.457	42347.52
622.812	42456.89
623.168	42538.02
623.523	42649.43
623.879	42814.85
624.234	42653.05
624.589	42799.93
624.945	42774.4
625.3	42795.41
625.655	42929.65
626.01	42815.98
626.365	42995.41
626.72	42954.28
627.075	43047.84
627.43	42965.81
627.785	42964.68
628.14	43052.13
628.495	43196.08
628.85	43174.61
629.205	42991.34
629.559	43346.81
629.914	43127.83
630.269	43208.51
630.623	43107.27
630.978	43020.27
631.332	43249.41
631.687	43344.78
632.041	43149.76
632.396	43378.68
632.75	43197.66
633.104	43327.6
633.459	43185.69
633.813	43110.66
634.167	43138.46
634.521	43158.34
634.875	43293.71
635.229	43279.92
635.583	43160.83
635.937	43098.68
636.291	42999.25
636.645	43147.04
636.999	42995.18
637.352	43161.51
637.706	42907.5
638.06	43125.8
638.413	43000.83
638.767	42933.49
639.121	43012.36
639.474	42858.69
639.828	42911.57
640.181	42999.02
640.534	42909.31
640.888	42778.69
641.241	42548.87
641.594	42691.01
641.947	42807.62
642.301	42723.55
642.654	42734.62
643.007	42673.16
643.36	42624.12
643.713	42594.29
644.066	42758.58
644.419	42486.72
644.771	42302.55
645.124	41865.04
645.477	41856
645.83	41621.43
646.182	41442.23
646.535	41419.63
646.888	41484.04
647.24	41372.17
647.593	41641.55
647.945	41445.39
648.298	41329.46
648.65	41360.65
649.002	41145.51
649.355	41446.52
649.707	41403.13
650.059	41546.18
650.411	41930.8
650.763	41962.44
651.115	42301.19
651.467	42304.58
651.819	42237.91
652.171	42030.46
652.523	42079.05
652.875	42121.31
653.227	41895.1
653.578	42166.05
653.93	42131.93
654.282	41936.68
654.633	41799.51
654.985	41969.45
655.337	41884.03
655.688	41953.85
656.039	42060.52
656.391	41743.24
656.742	41810.58
657.094	41779.62
657.445	41945.04
657.796	41830.92
658.147	41902.33
658.498	41802.45
658.849	41789.34
659.2	41785.95
659.551	41682.22
659.902	41869.56
660.253	41764.71
660.604	41872.73
660.955	41579.63
661.306	41810.13
661.656	41703.47
662.007	41637.7
662.358	41677.93
662.708	41718.83
663.059	41676.35
663.409	41544.37
663.76	41623.92
664.11	41568.33
664.461	41732.62
664.811	41745.05
665.161	41568.78
665.511	41512.96
665.862	41532.17
666.212	41751.37
666.562	41717.25
666.912	41633.41
667.262	41459.18
667.612	41615.33
667.962	41616.91
668.312	41710.25
668.662	41769.45
669.011	41573.3
669.361	41460.76
669.711	41428.22
670.06	41308.45
670.41	41410.82
670.76	41350.48
671.109	41540.76
671.459	41366.07
671.808	41455.11
672.157	41337.37
672.507	41169.92
672.856	41301.44
673.205	41262.12
673.554	41413.53
673.904	41255.79
674.253	41581.21
674.602	41407.65
674.951	40766.09
675.3	40725.86
675.649	41184.61
675.998	41220.31
676.346	41285.62
676.695	41385.73
677.044	41166.76
677.393	41160.88
677.741	41173.99
678.09	41086.53
678.438	41004.05
678.787	41116.59
679.135	40936.71
679.484	40793.21
679.832	41015.8
680.181	40626.66
680.529	40882.02
680.877	40720.89
681.225	40693.55
681.573	40966.99
681.922	40620.78
682.27	40436.83
682.618	40559.99
682.966	40414.01
683.314	40555.93
683.661	40436.38
684.009	40207.91
684.357	40247.46
684.705	40114.35
685.053	40112.32
685.4	40138.76
685.748	39847.7
686.095	39927.02
686.443	39827.13
686.79	39828.26
687.138	39878.43
687.485	39749.39
687.832	39607.02
688.18	39737.87
688.527	39452.23
688.874	39396.86
689.221	39460.59
689.568	39260.14
689.915	39156.87
690.262	39335.62
690.609	39106.02
690.956	38989.41
691.303	38939.7
691.65	38798.46
691.997	38749.87
692.344	38652.25
692.69	38477.34
693.037	38494.96
693.383	38393.04
693.73	38320.73
694.077	38165.93
694.423	38051.81
694.769	37917.8
695.116	37968.2
695.462	37875.77
695.808	37720.07
696.155	37772.72
696.501	37542.9
696.847	37404.82
697.193	37125.73
697.539	37385.16
697.885	37104.26
698.231	37027.2
698.577	37174.77
698.923	36949.47
699.269	36867.89
699.614	36709.02
699.96	36491.63
700.306	36775.69
700.651	36583.83
700.997	36397.39
701.342	36324.17
701.688	36295.47
702.033	36290.5
702.379	36240.56
702.724	36011.86
703.069	36127.12
703.415	35718.99
703.76	35789.95
704.105	35729.84
704.45	35718.99
704.795	35347.93
705.14	35419.56
705.485	35372.56
705.83	35139.34
706.175	35271.54
706.52	35000.37
706.865	35106.58
707.209	34830.88
707.554	34889.41
707.899	34930.08
708.243	34682.41
708.588	34619.36
708.932	34391.79
709.277	34340.27
709.621	34504.56
709.966	34152.7
710.31	34312.47
710.654	34050.33
710.998	34181.63
711.342	34095.76
711.687	33897.8
712.031	33856.21
712.375	33729.66
712.719	33738.48
713.063	33680.17
713.407	33718.59
713.75	33668.87
714.094	33616.45
714.438	33374.65
714.782	33421.42
715.125	33290.13
715.469	33267.08
715.812	33209.68
716.156	33019.4
716.499	33119.51
716.843	33119.96
717.186	32797.26
717.53	33148.89
717.873	32996.8
718.216	32887.2
718.559	32658.96
718.902	32595.46
719.246	32695.34
719.589	32533.31
719.932	32321.34
720.275	32482.47
720.617	32371.28
720.96	32296.26
721.303	32286.09
721.646	32236.37
721.989	32018.52
722.331	32199.08
722.674	32051.97
723.016	32034.79
723.359	32063.04
723.701	32099.88
724.044	31804.97
724.386	31631.87
724.729	31875.93
725.071	31662.37
725.413	31705.54
725.755	31652.43
726.097	31399.78
726.439	31494.24
726.782	31465.99
727.124	31551.64
727.465	31393.68
727.807	31368.6
728.149	31184.42
728.491	31239.11
728.833	31246.79
729.175	31147.36
729.516	31000.02
729.858	31023.52
730.199	31129.96
730.541	30993.92
730.882	30802.28
731.224	30880.02
731.565	30778.1
731.906	30727.26
732.248	30891.55
732.589	30586.47
732.93	30528.84
733.271	30618.11
733.612	30630.54
733.953	30613.14
734.294	30433.25
734.635	30384.22
734.976	30398.9
735.317	30252.47
735.658	30250.21
735.999	30182.64
736.339	30242.98
736.68	30258.12
737.021	30125.69
737.361	29975.19
737.702	30172.02
738.042	30087.05
738.383	29918.92
738.723	30051.12
739.063	29821.29
739.404	29979.71
739.744	29878.69
740.084	29790.78
740.424	29774.51
740.764	29758.24
741.104	29849.77
741.444	29627.4
741.784	29599.15
742.124	29596.44
742.464	29548.98
742.804	29493.39
743.143	29426.27
743.483	29494.52
743.823	29263.79
744.162	29339.95
744.502	29286.84
744.841	29115.77
745.181	29274.87
745.52	29107.64
745.86	29172.72
746.199	29182.66
746.538	29014.31
746.877	29113.06
747.216	28999.62
747.556	28865.39
747.895	28959.17
748.234	28774.54
748.573	28779.06
748.911	28838.72
749.25	28648.67
749.589	28550.82
749.928	28667.88
750.267	28583.58
750.605	28652.06
750.944	28514.66
751.283	28290.71
751.621	28397.37
751.96	28380.88
752.298	28143.6
752.636	28253.65
752.975	28115.57
753.313	28125.74
753.651	28140.21
753.989	27987.22
754.327	27989.25
754.666	27854.11
755.004	27948.35
755.342	27848.01
755.679	27897.95
756.017	27722.59
756.355	27775.24
756.693	27623.84
757.031	27661.57
757.368	27455.48
757.706	27547.68
758.044	27358.76
758.381	27283.73
758.719	27326.22
759.056	27311.08
759.394	27107.47
759.731	26926
760.068	26952.44
760.405	26842.61
760.743	26817.53
761.08	26858.43
761.417	26577.31
761.754	26701.6
762.091	26691.2
762.428	26520.36
762.765	26408.5
763.102	26376.19
763.438	26380.03
763.775	26214.38
764.112	26190.65
764.449	26089.19
764.785	26064.55
765.122	25902.75
765.458	25775.52
765.795	25811.68
766.131	25658.92
766.467	25525.36
766.804	25415.76
767.14	25383.89
767.476	25265.93
767.812	25235.88
768.148	25292.37
768.485	25131.47
768.821	24948.43
769.157	24951.82
769.492	24912.27
769.828	24939.39
770.164	24588.89
770.5	24564.26
770.836	24570.81
771.171	24359.29
771.507	24431.6
771.842	24091.27
772.178	24230.03
772.513	24042.24
772.849	24075.23
773.184	24040.2
773.519	23787.55
773.855	23820.55
774.19	23678.4
774.525	23576.48
774.86	23632.75
775.195	23516.15
775.53	23512.31
775.865	23378.07
776.2	23214.23
776.535	23092.88
776.87	22991.42
777.205	22903.28
777.539	22923.62
777.874	22856.73
778.209	22701.93
778.543	22554.82
778.878	22519.79
779.212	22610.41
779.547	22371.32
779.881	22359.34
780.215	22239.12
780.55	22289.96
780.884	22063.3
781.218	22002.29
781.552	22035.28
781.886	21850.2
782.22	21700.83
782.554	21675.74
782.888	21517.1
783.222	21462.19
783.556	21421.74
783.889	21324.57
784.223	21238.47
784.557	21156.89
784.89	21196.43
785.224	20987.4
785.557	20954.18
785.891	20926.38
786.224	20827.18
786.558	20880.06
786.891	20625.38
787.224	20624.47
787.557	20582.67
787.891	20530.01
788.224	20450.47
788.557	20472.16
788.89	20372.95
789.223	20318.72
789.556	20145.39
789.888	20137.48
790.221	20097.03
790.554	19885.06
790.887	19921.21
791.219	19823.59
791.552	19831.27
791.884	19731.39
792.217	19662.01
792.549	19561.67
792.882	19467.67
793.214	19412.53
793.546	19324.84
793.879	19213.44
794.211	19127.56
794.543	19185.64
794.875	19072.87
795.207	19055.25
795.539	18901.58
795.871	18987.68
796.203	18846.67
796.535	18691.64
796.867	18635.82
797.198	18624.52
797.53	18629.27
797.862	18508.37
798.193	18472.44
798.525	18403.51
798.856	18404.42
799.188	18125.55
799.519	18125.33
799.85	18039.91
800.182	18067.02
800.513	18087.14
800.844	17812.34
801.175	18010.08
801.506	17977.54
801.837	18027.93
802.168	17796.98
802.499	17809.18
802.83	17639.01
803.161	17660.71
803.491	17664.32
803.822	17554.95
804.153	17525.12
804.483	17355.63
804.814	17270.89
805.145	17236.99
805.475	17296.88
805.805	17173.04
806.136	17241.06
806.466	17199.25
806.796	17197.9
807.126	17076.77
807.457	16950.22
807.787	16972.36
808.117	16861.63
808.447	16730.34
808.777	16822.31
809.107	16735.31
809.436	16639.27
809.766	16757.23
810.096	16672.26
810.426	16498.25
810.755	16509.55
811.085	16569.44
811.414	16490.8
811.744	16260.29
812.073	16363.57
812.403	16355.43
812.732	16185.27
813.061	16236.11
813.39	16125.61
813.719	16123.8
814.049	16184.81
814.378	16033.63
814.707	16053.74
815.036	15994.99
815.365	15945.27
815.693	15797.71
816.022	15820.08
816.351	15737.59
816.68	15621.44
817.008	15611.27
817.337	15560.88
817.665	15604.49
817.994	15599.07
818.322	15511.16
818.651	15367.43
818.979	15469.13
819.307	15507.54
819.636	15423.93
819.964	15381.22
820.292	15379.41
820.62	15278.4
820.948	15297.61
821.276	15264.39
821.604	15192.52
821.932	15245.63
822.259	15350.94
822.587	15253.99
822.915	15310.04
823.243	15316.59
823.57	15181.68
823.898	15210.38
824.225	15222.13
824.553	15152.07
824.88	15183.94
825.207	15208.12
825.535	15158.85
825.862	15288.34
826.189	15134.22
826.516	15174.67
826.843	15143.49
827.17	15263.93
827.497	15259.42
827.824	15179.64
828.151	15176.48
828.478	15190.72
828.805	15238.85
829.131	15197.27
829.458	15126.09
829.785	15092.41
830.111	15132.86
830.438	15261
830.764	15169.25
831.09	15188.46
831.417	15089.25
831.743	15116.59
832.069	15030.72
832.395	15102.36
832.722	15176.93
833.048	15071.17
833.374	15094.45
833.7	15039.53
834.026	15006.77
834.351	14967.67
834.677	14985.07
835.003	15016.48
835.329	15051.06
835.654	14942.36
835.98	14864.17
836.306	14860.1
836.631	14783.72
836.956	14911.63
837.282	14885.64
837.607	14710.28
837.932	14656.27
838.258	14777.39
838.583	14772.87
838.908	14609.04
839.233	14653.56
839.558	14686.1
839.883	14512.32
840.208	14530.39
840.533	14569.26
840.858	14561.35
841.182	14520
841.507	14500.11
841.832	14394.35
842.156	14325.2
842.481	14426.89
842.805	14315.71
843.13	14322.72
843.454	14235.71
843.778	14209.27
844.103	14261.25
844.427	14157.07
844.751	14150.74
845.075	14032.1
845.399	14114.13
845.723	13979
846.047	14104.64
846.371	13936.29
846.695	13957.08
847.019	13826.46
847.343	13730.42
847.666	13669.4
847.99	13691.55
848.313	13599.12
848.637	13455.85
848.96	13527.03
849.284	13434.15
849.607	13366.81
849.931	13384.44
850.254	13284.33
850.577	13156.19
850.9	13094.95
851.223	13087.49
851.546	13042.3
851.869	12986.03
852.192	13003.88
852.515	12964.11
852.838	12836.65
853.161	12795.75
853.483	12727.05
853.806	12706.26
854.129	12645.7
854.451	12630.33
854.774	12629.88
855.096	12548.98
855.419	12467.17
855.741	12491.13
856.063	12351.24
856.385	12428.98
856.708	12392.37
857.03	12228.99
857.352	12241.19
857.674	12213.85
857.996	12163
858.318	12129.1
858.64	12099.95
858.961	12052.49
859.283	11999.61
859.605	11959.39
859.926	12062.21
860.248	11912.61
860.57	11922.1
860.891	11938.37
861.212	11807.53
861.534	11831.03
861.855	11779.05
862.176	11803.46
862.498	11773.18
862.819	11771.82
863.14	11664.93
863.461	11570.02
863.782	11623.35
864.103	11730.47
864.424	11663.58
864.745	11654.76
865.065	11620.41
865.386	11519.63
865.707	11526.86
866.027	11522.56
866.348	11530.7
866.668	11469.46
866.989	11394.66
867.309	11389.69
867.63	11383.81
867.95	11340.2
868.27	11318.73
868.59	11330.48
868.91	11371.16
869.23	11279.63
869.55	11231.27
869.87	11351.5
870.19	11302.91
870.51	11321.89
870.83	11319.18
871.15	11161.22
871.469	11239.86
871.789	11214.32
872.109	11160.09
872.428	11148.34
872.748	11156.25
873.067	11145.63
873.386	11072.41
873.706	11050.49
874.025	11040.09
874.344	10984.5
874.663	11110.37
874.982	10983.37
875.301	10990.37
875.62	10896.37
875.939	10958.06
876.258	10882.58
876.577	10938.62
876.896	10848.68
877.214	10817.05
877.533	10852.75
877.852	10797.16
878.17	10864.5
878.489	10820.66
878.807	10771.62
879.125	10830.61
879.444	10820.66
879.762	10746.99
880.08	10787.44
880.398	10634.23
880.716	10728.23
881.034	10683.26
881.352	10591.52
881.67	10536.83
881.988	10571.63
882.306	10510.84
882.624	10472.2
882.941	10478.3
883.259	10427
883.577	10375.48
883.894	10382.03
884.212	10385.65
884.529	10377.96
884.846	10370.28
885.164	10370.28
885.481	10260.45
885.798	10253.45
886.115	10249.15
886.432	10199.89
886.75	10198.76
887.067	10219.1
887.383	10188.81
887.7	10173.45
888.017	10144.97
888.334	10122.83
888.651	10060.91
888.967	10128.02
889.284	9956.96
889.6	9945.43
889.917	9855.26
890.233	9970.06
890.55	9830.18
890.866	9909.27
891.182	9802.38
891.498	9757.64
891.815	9738.43
892.131	9699.56
892.447	9704.98
892.763	9726.45
893.079	9721.71
893.395	9618.66
893.71	9676.51
894.026	9622.95
894.342	9549.28
894.657	9615.5
894.973	9445.1
895.289	9434.26
895.604	9371.43
895.92	9418.66
896.235	9321.72
896.55	9331.44
896.865	9278.1
897.181	9352.45
897.496	9268.84
897.811	9164.21
898.126	9164.89
898.441	9143.87
898.756	9181.16
899.071	9100.03
899.386	9119.46
899.7	9000.14
900.015	9010.77
900.33	8922.63
900.644	8924.67
900.959	8906.14
901.273	8854.16
901.588	8806.48
901.902	8758.8
902.216	8725.8
902.531	8729.19
902.845	8724.45
903.159	8661.85
903.473	8621.4
903.787	8600.83
904.101	8505.02
904.415	8510.21
904.729	8488.29
905.042	8481.51
905.356	8457.33
905.67	8422.98
905.984	8443.78
906.297	8378.47
906.611	8343.44
906.924	8347.96
907.237	8222.76
907.551	8254.18
907.864	8231.35
908.177	8186.61
908.491	8128.3
908.804	8191.35
909.117	8056.67
909.43	8053.05
909.743	8035.88
910.056	7969.66
910.368	7931.25
910.681	7912.72
910.994	7880.4
911.307	7919.72
911.619	7812.61
911.932	7841.98
912.244	7678.82
912.557	7737.81
912.869	7623.01
913.181	7601.76
913.494	7676.11
913.806	7645.38
914.118	7594.08
914.43	7588.2
914.742	7498.04
915.054	7478.15
915.366	7457.59
915.678	7389.79
915.99	7319.74
916.302	7348.21
916.613	7296.46
916.925	7288.1
917.236	7191.38
917.548	7222.56
917.859	7275.9
918.171	7121.32
918.482	7156.58
918.794	7070.93
919.105	7103.47
919.416	7071.16
919.727	6949.58
920.038	6966.75
920.349	7003.36
920.66	6891.73
920.971	6909.58
921.282	6888.11
921.593	6872.52
921.903	6750.26
922.214	6794.78
922.525	6741.67
922.835	6780.99
923.146	6628
923.456	6635.01
923.767	6621.22
924.077	6617.16
924.387	6548.68
924.697	6594.56
925.008	6519.98
925.318	6523.6
925.628	6475.01
925.938	6468.69
926.248	6336.03
926.558	6358.41
926.867	6335.36
927.177	6325.64
927.487	6274.11
927.796	6238.18
928.106	6256.04
928.416	6193.89
928.725	6207
929.034	6214.68
929.344	6140.11
929.653	6153.89
929.962	6075.25
930.271	6020.56
930.581	5987.34
930.89	5998.42
931.199	5947.8
931.508	5897.63
931.817	5973.11
932.125	5962.03
932.434	5882.03
932.743	5884.29
933.051	5766.11
933.36	5828.93
933.669	5747.57
933.977	5760.23
934.286	5726.56
934.594	5721.36
934.902	5651.31
935.21	5665.09
935.519	5647.69
935.827	5640.69
936.135	5630.52
936.443	5577.86
936.751	5506
937.059	5512.33
937.367	5496.06
937.674	5494.93
937.982	5454.7
938.29	5424.19
938.597	5428.94
938.905	5358.66
939.213	5328.38
939.52	5301.71
939.827	5351.88
940.135	5271.88
940.442	5301.71
940.749	5263.07
941.056	5216.29
941.363	5193.47
941.67	5174.48
941.977	5123.86
942.284	5083.64
942.591	5128.16
942.898	5075.73
943.205	5045.45
943.511	5030.76
943.818	5044.54
944.125	4984.66
944.431	4938.33
944.738	4996.63
945.044	4922.74
945.35	4920.48
945.657	4861.95
945.963	4859.01
946.269	4862.4
946.575	4808.39
946.881	4837.77
947.187	4781.27
947.493	4783.31
947.799	4727.49
948.105	4729.07
948.41	4694.04
948.716	4710.99
949.022	4681.39
949.327	4596.64
949.633	4616.98
949.938	4602.07
950.244	4593.03
950.549	4537.21
950.854	4556.42
951.16	4494.05
951.465	4505.57
951.77	4423.32
952.075	4485.46
952.38	4452.24
952.685	4473.03
952.99	4367.05
953.294	4320.95
953.599	4377.67
953.904	4334.96
954.209	4304.22
954.513	4311.68
954.818	4257.22
955.122	4230.55
955.426	4268.52
955.731	4231.46
956.035	4238.69
956.339	4176.54
956.643	4193.94
956.948	4125.02
957.252	4155.98
957.556	4141.74
957.86	4119.14
958.163	4112.36
958.467	4095.41
958.771	4101.97
959.075	4083.44
959.378	4050.9
959.682	4050.44
959.985	3997.34
960.289	3951.92
960.592	3945.14
960.896	3971.35
961.199	3906.72
961.502	3928.41
961.805	3876.89
962.108	3864.46
962.411	3840.28
962.714	3856.1
963.017	3841.41
963.32	3845.7
963.623	3809.32
963.926	3763.67
964.228	3749.21
964.531	3744.92
964.833	3721.64
965.136	3704.92
965.438	3722.77
965.741	3674.41
966.043	3658.36
966.345	3635.99
966.648	3602.77
966.95	3610.68
967.252	3580.85
967.554	3539.5
967.856	3580.85
968.158	3546.5
968.46	3511.25
968.761	3496.56
969.063	3520.74
969.365	3494.07
969.666	3484.13
969.968	3447.52
970.269	3402.55
970.571	3438.48
970.872	3412.04
971.174	3381.76
971.475	3384.25
971.776	3417.24
972.077	3353.06
972.378	3332.05
972.679	3319.16
972.98	3307.41
973.281	3266.96
973.582	3301.31
973.883	3277.13
974.183	3268.54
974.484	3239.17
974.785	3195.33
975.085	3217.7
975.386	3233.97
975.686	3187.19
975.986	3115.78
976.287	3167.98
976.587	3148.32
976.887	3110.13
977.187	3091.83
977.487	3109.68
977.787	3116.23
978.087	3066.06
978.387	3043.24
978.687	3062.67
978.987	2992.62
979.286	3014.99
979.586	2989.23
979.885	2984.26
980.185	2953.3
980.484	2939.51
980.784	2944.71
981.083	2913.98
981.382	2906.07
981.682	2887.31
981.981	2873.75
982.28	2892.06
982.579	2875.56
982.878	2879.85
983.177	2852.28
983.475	2856.13
983.774	2836.24
984.073	2809.12
984.372	2786.97
984.67	2746.07
984.969	2758.73
985.267	2777.03
985.566	2714.21
985.864	2728.22
986.162	2739.97
986.461	2709.24
986.759	2715.11
987.057	2655.68
987.355	2675.79
987.653	2636.7
987.951	2628.56
988.249	2635.34
988.547	2643.02
988.844	2614.1
989.142	2587.43
989.44	2567.32
989.737	2571.16
990.035	2566.19
990.332	2579.07
990.63	2536.13
990.927	2506.08
991.224	2514.89
991.521	2495.91
991.819	2478.51
992.116	2468.79
992.413	2501.78
992.71	2479.86
993.006	2469.47
993.303	2450.03
993.6	2445.74
993.897	2428.79
994.193	2423.14
994.49	2383.14
994.787	2378.85
995.083	2373.65
995.379	2352.41
995.676	2346.99
995.972	2344.5
996.268	2312.64
996.565	2314.9
996.861	2295.46
997.157	2294.33
997.453	2296.37
997.749	2240.77
998.044	2253.88
998.34	2253.43
998.636	2225.86
998.932	2224.96
999.227	2183.37
999.523	2175.92
999.818	2175.01
1000.114	2150.16
1000.409	2168.91
1000.704	2141.57
1001	2128.01
1001.295	2133.88
1001.59	2111.29
1001.885	2111.06
1002.18	2089.59
1002.475	2074.68
1002.77	2050.04
1003.065	2036.03
1003.359	2042.14
1003.654	2032.19
1003.949	2029.71
1004.243	2023.38
1004.538	2002.36
1004.832	2026.54
1005.127	1957.84
1005.421	1974.11
1005.715	1965.53
1006.009	1956.26
1006.304	1945.41
1006.598	1917.39
1006.892	1911.52
1007.186	1907.22
1007.48	1876.04
1007.773	1930.95
1008.067	1891.41
1008.361	1865.87
1008.655	1828.13
1008.948	1847.11
1009.242	1826.32
1009.535	1844.17
1009.829	1795.14
1010.122	1823.84
1010.415	1791.52
1010.708	1778.19
1011.001	1776.61
1011.295	1756.72
1011.588	1740
1011.881	1750.62
1012.173	1715.14
1012.466	1718.53
1012.759	1717.17
1013.052	1694.12
1013.344	1688.02
1013.637	1715.36
1013.93	1676.04
1014.222	1671.3
1014.514	1652.32
1014.807	1639.89
1015.099	1637.63
1015.391	1628.36
1015.683	1616.38
1015.976	1631.3
1016.268	1596.27
1016.56	1601.02
1016.851	1597.4
1017.143	1558.08
1017.435	1575.71
1017.727	1555.59
1018.018	1528.25
1018.31	1535.48
1018.602	1532.54
1018.893	1532.32
1019.185	1524.86
1019.476	1507.91
1019.767	1486.22
1020.058	1451.19
1020.35	1463.39
1020.641	1453.45
1020.932	1446.45
1021.223	1420.91
1021.514	1410.29
1021.804	1453
1022.095	1408.25
1022.386	1432.66
1022.677	1392.44
1022.967	1362.15
1023.258	1349.05
1023.548	1356.96
1023.839	1338.2
1024.129	1357.41
1024.419	1341.82
1024.709	1342.27
1025	1318.31
1025.29	1297.52
1025.58	1291.87
1025.87	1290.52
1026.16	1288.03
1026.449	1274.92
1026.739	1270.63
1027.029	1267.47
1027.319	1259.33
1027.608	1221.14
1027.898	1251.2
1028.187	1232.21
1028.477	1205.77
1028.766	1216.85
1029.055	1239.22
1029.344	1193.12
1029.634	1185.89
1029.923	1191.99
1030.212	1191.31
1030.501	1177.07
1030.79	1164.42
1031.078	1151.99
1031.367	1121.93
1031.656	1138.88
1031.945	1121.03
1032.233	1130.52
1032.522	1110.86
1032.81	1103.86
1033.099	1149.28
1033.387	1102.5
1033.675	1092.1
1033.963	1093.91
1034.251	1072.9
1034.54	1059.79
1034.828	1049.39
1035.116	1062.95
1035.403	1030.64
1035.691	1016.85
1035.979	1035.16
1036.267	1036.51
1036.554	1013.24
1036.842	1015.27
1037.129	1039
1037.417	997.87
1037.704	995.61
1037.992	975.04
1038.279	972.79
1038.566	961.26
1038.853	961.26
1039.14	961.26
