Data from hue_110_FLMS001491_00095.txt Node
Date: Tue Feb 07 17:02:04 GMT 2017
User: dcchb
Spectrometer: FLMS00149
Trigger mode: 0
Integration Time (sec): 2.000000E-2
Scans to average: 10
Electric dark correction enabled: true
Nonlinearity correction enabled: false
Boxcar width: 0
XAxis mode: Wavelengths
Number of Pixels in Spectrum: 2048
>>>>>Begin Spectral Data<<<<<
341.393	-14.79
341.776	-14.79
342.16	-14.79
342.543	-71.96
342.927	-78.51
343.31	-59.31
343.693	-71.28
344.077	-56.59
344.46	-66.99
344.843	-67.22
345.226	-36.93
345.61	-40.1
345.993	-10.72
346.376	-13.88
346.759	16.17
347.142	19.34
347.525	38.77
347.908	41.71
348.291	80.8
348.674	112.44
349.057	113.8
349.44	131.65
349.823	131.2
350.206	165.32
350.588	201.93
350.971	221.59
351.354	228.82
351.737	225.21
352.119	244.19
352.502	263.17
352.884	274.24
353.267	290.97
353.65	276.28
354.032	306.56
354.414	312.66
354.797	304.98
355.179	306.56
355.562	324.64
355.944	334.13
356.326	348.59
356.709	321.25
357.091	312.66
357.473	361.25
357.855	324.19
358.238	347.24
358.62	335.26
359.002	352.21
359.384	338.42
359.766	340.01
360.148	339.55
360.53	353.79
360.912	337.97
361.294	320.12
361.676	343.17
362.057	325.77
362.439	330.51
362.821	321.25
363.203	320.12
363.584	306.79
363.966	323.28
364.348	313.34
364.729	313.57
365.111	320.57
365.493	312.44
365.874	315.83
366.256	306.11
366.637	305.66
367.019	325.09
367.4	302.27
367.781	327.35
368.163	319.67
368.544	318.99
368.925	320.8
369.306	307.46
369.688	315.83
370.069	322.38
370.45	338.88
370.831	315.37
371.212	317.41
371.593	333.68
371.974	317.86
372.355	325.09
372.736	316.28
373.117	312.66
373.498	319.89
373.879	340.23
374.26	313.57
374.641	310.85
375.021	323.96
375.402	332.32
375.783	335.49
376.163	333
376.544	326.22
376.925	355.15
377.305	318.76
377.686	338.42
378.066	313.11
378.447	348.14
378.827	345.88
379.208	345.65
379.588	307.69
379.968	311.08
380.349	308.82
380.729	337.07
381.109	318.31
381.489	342.27
381.87	337.29
382.25	335.71
382.63	340.23
383.01	353.79
383.39	352.43
383.77	350.85
384.15	356.28
384.53	379.55
384.91	366.22
385.29	365.32
385.67	364.41
386.049	333.45
386.429	349.27
386.809	384.98
387.189	364.86
387.568	345.2
387.948	364.41
388.328	365.54
388.707	377.07
389.087	370.51
389.466	337.97
389.846	358.31
390.225	374.35
390.605	375.26
390.984	368.03
391.363	382.04
391.743	357.86
392.122	391.08
392.501	373
392.881	374.13
393.26	391.76
393.639	381.81
394.018	394.69
394.397	405.54
394.776	380.68
395.155	388.37
395.534	383.85
395.913	384.52
396.292	399.66
396.671	399.21
397.05	390.63
397.429	402.38
397.808	401.25
398.186	388.82
398.565	400.57
398.944	412.32
399.323	410.51
399.701	394.47
400.08	403.28
400.458	418.87
400.837	443.73
401.215	421.58
401.594	416.39
401.972	421.36
402.351	416.84
402.729	413.68
403.107	443.05
403.486	446.44
403.864	456.39
404.242	439.44
404.62	430.62
404.999	439.21
405.377	419.1
405.755	439.21
406.133	427.69
406.511	443.73
406.889	437.4
407.267	455.26
407.645	455.48
408.023	437.18
408.401	456.84
408.779	456.61
409.156	455.03
409.534	487.35
409.912	473.34
410.29	478.31
410.667	450.28
411.045	466.33
411.422	474.01
411.8	484.18
412.178	490.51
412.555	492.54
412.933	473.56
413.31	487.12
413.687	497.06
414.065	499.32
414.442	532.99
414.819	528.47
415.197	532.77
415.574	504.29
415.951	511.53
416.328	530.28
416.705	533.9
417.082	517.63
417.46	545.65
417.837	539.32
418.214	564.41
418.591	549.27
418.967	560.79
419.344	548.81
419.721	563.28
420.098	539.1
420.475	579.55
420.852	575.25
421.228	575.48
421.605	568.7
421.982	583.84
422.358	547.23
422.735	583.61
423.111	577.29
423.488	597.4
423.864	582.71
424.241	597.17
424.617	599.43
424.994	601.69
425.37	584.07
425.746	616.83
426.123	619.09
426.499	613.44
426.875	622.71
427.251	631.52
427.627	645.99
428.003	639.43
428.379	628.59
428.756	652.99
429.132	655.48
429.507	667.23
429.883	648.02
430.259	672.43
430.635	678.98
431.011	662.03
431.387	678.08
431.763	687.34
432.138	705.42
432.514	725.76
432.89	714.23
433.265	725.31
433.641	738.86
434.016	708.36
434.392	723.27
434.767	749.71
435.143	768.69
435.518	773.89
435.894	765.98
436.269	789.48
436.644	805.08
437.02	775.7
437.395	784.74
437.77	791.52
438.145	819.31
438.52	805.08
438.895	795.36
439.271	820.22
439.646	812.31
440.021	806.43
440.395	833.78
440.77	850.73
441.145	854.79
441.52	850.5
441.895	839.65
442.27	878.07
442.645	882.82
443.019	909.71
443.394	865.64
443.769	894.79
444.143	882.59
444.518	902.48
444.892	900.22
445.267	914.45
445.641	904.06
446.016	932.76
446.39	910.39
446.764	929.59
447.139	930.27
447.513	941.8
447.887	953.55
448.262	936.15
448.636	949.93
449.01	954.45
449.384	963.04
449.758	970.27
450.132	972.76
450.506	981.34
450.88	1018.86
451.254	990.16
451.628	1017.05
452.002	1007.56
452.376	1038.52
452.75	1041.46
453.123	1048.46
453.497	1045.52
453.871	1070.83
454.244	1108.12
454.618	1094.56
454.992	1095.69
455.365	1110.15
455.739	1128.69
456.112	1129.36
456.486	1151.51
456.859	1166.88
457.232	1180.89
457.606	1191.06
457.979	1208.46
458.352	1222.24
458.725	1194.22
459.099	1245.29
459.472	1245.74
459.845	1269.47
460.218	1288.91
460.591	1311.51
460.964	1331.84
461.337	1365.51
461.71	1345.63
462.083	1357.15
462.456	1383.37
462.829	1380.43
463.201	1430.37
463.574	1452.74
463.947	1469.47
464.32	1479.41
464.692	1519.64
465.065	1512.86
465.438	1534.78
465.81	1538.17
466.183	1533.87
466.555	1603.7
466.928	1621.55
467.3	1614.55
467.672	1659.07
468.045	1688.22
468.417	1724.83
468.789	1763.24
469.161	1766.18
469.534	1781.78
469.906	1838.27
470.278	1879.63
470.65	1896.12
471.022	1910.81
471.394	2005.27
471.766	2009.57
472.138	2005.27
472.51	2098.15
472.882	2142.22
473.253	2126.4
473.625	2201.65
473.997	2245.72
474.369	2270.35
474.74	2337.24
475.112	2395.54
475.484	2449.33
475.855	2495.43
476.227	2516.22
476.598	2633.5
476.97	2688.42
477.341	2767.51
477.713	2787.17
478.084	2843.22
478.455	2975.64
478.827	3001.4
479.198	3100.61
479.569	3141.97
479.94	3266.26
480.311	3327.72
480.682	3446.36
481.053	3543.08
481.424	3604.78
481.795	3668.51
482.166	3832.12
482.537	3878.44
482.908	3988.5
483.279	4084.09
483.65	4198.66
484.021	4328.83
484.391	4439.11
484.762	4519.33
485.133	4568.82
485.503	4715.71
485.874	4904.63
486.244	4993.44
486.615	5136.26
486.985	5221.01
487.356	5371.29
487.726	5472.3
488.097	5663.93
488.467	5756.81
488.837	5929.46
489.207	6065.96
489.578	6192.28
489.948	6288.78
490.318	6461.88
490.688	6547.3
491.058	6747.75
491.428	6815.32
491.798	6957.68
492.168	7168.53
492.538	7233.38
492.908	7396.09
493.278	7602.87
493.648	7672.92
494.017	7896.42
494.387	7941.16
494.757	8120.14
495.126	8239.68
495.496	8351.77
495.866	8447.36
496.235	8608.94
496.605	8736.85
496.974	8813
497.344	8910.63
497.713	9109.04
498.082	9213.67
498.452	9290.05
498.821	9426.32
499.19	9518.07
499.559	9658.86
499.928	9769.14
500.298	9915.12
500.667	9997.38
501.036	10058.85
501.405	10165.96
501.774	10209.58
502.143	10414.54
502.512	10417.03
502.88	10535.44
503.249	10627.19
503.618	10786.28
503.987	10777.47
504.356	10907.18
504.724	11012.49
505.093	11103.34
505.462	11138.82
505.83	11272.15
506.199	11354.4
506.567	11463.78
506.936	11489.32
507.304	11597.56
507.672	11681.85
508.041	11761.17
508.409	11861.06
508.777	12038.91
509.145	12093.59
509.514	12160.03
509.882	12192.8
510.25	12100.83
510.618	12296.3
510.986	12333.59
511.354	12393.47
511.722	12536.52
512.09	12638.89
512.458	12589.63
512.826	12751.88
513.193	12745.78
513.561	12767.25
513.929	12890.18
514.297	12979.67
514.664	13021.93
515.032	13104.87
515.4	13172.44
515.767	13301.02
516.135	13240
516.502	13186.45
516.869	13393
517.237	13390.51
517.604	13360.23
517.972	13477.74
518.339	13618.53
518.706	13505.76
519.073	13680.67
519.44	13654.46
519.808	13789.14
520.175	13689.71
520.542	13943.94
520.909	13927.44
521.276	13804.51
521.643	13987.33
522.009	13954.79
522.376	14082.92
522.743	14134.9
523.11	14171.73
523.477	14336.47
523.843	14295.8
524.21	14346.19
524.577	14374.66
524.943	14398.39
525.31	14446.07
525.676	14644.26
526.043	14585.05
526.409	14559.29
526.776	14705.05
527.142	14751.6
527.508	14754.09
527.874	14760.19
528.241	14877.7
528.607	14821.43
528.973	14903.92
529.339	14850.58
529.705	14860.08
530.071	14965.61
530.437	14994.31
530.803	15010.35
531.169	14989.34
531.535	14941.43
531.901	14927.42
532.267	14932.84
532.632	14991.82
532.998	15077.02
533.364	14973.97
533.73	15091.26
534.095	15204.93
534.461	15090.35
534.826	15062.78
535.192	15161.31
535.557	15201.76
535.923	15033.63
536.288	15106.4
536.653	15100.52
537.019	15030.47
537.384	14968.1
537.749	14894.2
538.114	15055.1
538.479	14898.94
538.845	15005.38
539.21	14936.68
539.575	14941.43
539.94	14898.27
540.305	14954.54
540.67	14898.72
541.034	14910.24
541.399	14841.09
541.764	14885.39
542.129	14789.57
542.494	14746.41
542.858	14821.66
543.223	14789.79
543.587	14803.81
543.952	14627.99
544.316	14735.11
544.681	14649.46
545.045	14651.72
545.41	14713.19
545.774	14646.52
546.138	14665.05
546.503	14515.23
546.867	14522.01
547.231	14540.08
547.595	14534.66
547.959	14565.85
548.324	14463.93
548.688	14409.69
549.052	14410.14
549.416	14449.69
549.779	14351.84
550.143	14384.61
550.507	14310.26
550.871	14320.88
551.235	14341.9
551.599	14352.97
551.962	14274.55
552.326	14287.44
552.689	14325.63
553.053	14172.86
553.417	14193.65
553.78	14349.58
554.143	14172.41
554.507	14270.26
554.87	14217.15
555.234	14309.36
555.597	14150.94
555.96	14245.85
556.323	14148.91
556.686	14119.08
557.05	14187.32
557.413	14186.42
557.776	14130.6
558.139	14275.01
558.502	14217.15
558.865	14134.9
559.228	14216.25
559.59	14190.94
559.953	14224.39
560.316	14289.02
560.679	14332.86
561.041	14250.83
561.404	14301.22
561.767	14290.6
562.129	14217.83
562.492	14378.51
562.854	14311.84
563.217	14202.01
563.579	14263.93
563.941	14352.74
564.304	14415.34
564.666	14472.51
565.028	14406.08
565.39	14468.67
565.753	14454.44
566.115	14418.51
566.477	14459.18
566.839	14490.59
567.201	14559.52
567.563	14555
567.925	14557.26
568.287	14524.72
568.648	14525.17
569.01	14569.24
569.372	14686.97
569.734	14598.16
570.095	14733.98
570.457	14752.06
570.819	14684.71
571.18	14647.65
571.542	14695.33
571.903	14698.05
572.265	14693.3
572.626	14769
572.987	14825.73
573.349	14824.82
573.71	14852.39
574.071	14926.29
574.432	14907.08
574.794	14940.98
575.155	14849.68
575.516	14849.23
575.877	14955.67
576.238	14929.68
576.599	14965.38
576.96	14909.57
577.32	14958.6
577.681	15044.7
578.042	15088.09
578.403	15057.58
578.763	15003.12
579.124	15036.34
579.485	14971.94
579.845	15057.36
580.206	15008.77
580.566	15019.17
580.927	14974.65
581.287	15043.12
581.648	14940.3
582.008	15112.95
582.368	14988.43
582.728	15069.79
583.089	14983.24
583.449	15019.62
583.809	15032.05
584.169	14966.74
584.529	14920.19
584.889	15100.52
585.249	14950.02
585.609	14832.28
585.969	14962.22
586.329	14933.75
586.688	14921.99
587.048	14923.12
587.408	14820.08
587.768	14916.57
588.127	14871.37
588.487	14851.26
588.846	14818.49
589.206	14911.6
589.565	14783.47
589.925	14942.33
590.284	14905.27
590.643	14902.79
591.003	14821.21
591.362	14927.87
591.721	14847.65
592.08	14783.02
592.44	14882.22
592.799	14828.66
593.158	14871.37
593.517	14840.41
593.876	14744.82
594.235	14798.16
594.593	14798.38
594.952	14762.68
595.311	14717.03
595.67	14781.43
596.029	14844.03
596.387	14785.5
596.746	14848.32
597.104	14759.74
597.463	14766.52
597.822	14775.11
598.18	14729.46
598.538	14763.81
598.897	14762.9
599.255	14630.93
599.613	14895.78
599.972	14697.59
600.33	14743.02
600.688	14776.91
601.046	14768.55
601.404	14778.04
601.762	14806.52
602.12	14844.26
602.478	14831.15
602.836	14875.67
603.194	14757.71
603.552	14768.55
603.91	14705.96
604.268	14710.25
604.625	14769.68
604.983	14820.98
605.341	14752.06
605.698	14839.74
606.056	14791.83
606.413	14839.28
606.771	14808.55
607.128	14797.7
607.485	14765.61
607.843	14843.13
608.2	14884.03
608.557	14898.94
608.914	14880.41
609.272	14979.17
609.629	14927.64
609.986	14935.33
610.343	14914.54
610.7	14977.59
611.057	14928.55
611.414	14992.73
611.771	14933.07
612.127	15041.77
612.484	15022.56
612.841	15026.17
613.198	15015.33
613.554	14978.49
613.911	15013.07
614.267	15034.08
614.624	15029.56
614.98	15072.95
615.337	15042.22
615.693	15206.96
616.05	15095.55
616.406	15170.58
616.762	15095.78
617.118	15047.42
617.475	15181.2
617.831	15160.41
618.187	15181.42
618.543	15150.46
618.899	15331.93
619.255	15128.09
619.611	15201.54
619.967	15246.28
620.323	15270.91
620.678	15196.79
621.034	15258.93
621.39	15245.38
621.746	15263.23
622.101	15362.44
622.457	15254.64
622.812	15338.03
623.168	15406.5
623.523	15216.45
623.879	15345.03
624.234	15252.38
624.589	15316.56
624.945	15261.65
625.3	15410.34
625.655	15318.82
626.01	15249.44
626.365	15327.41
626.72	15272.49
627.075	15246.51
627.43	15345.49
627.785	15198.37
628.14	15334.19
628.495	15195.66
628.85	15205.38
629.205	15235.43
629.559	15266.39
629.914	15107.3
630.269	15194.76
630.623	15198.37
630.978	15116.11
631.332	15159.95
631.687	15198.37
632.041	15119.5
632.396	15160.41
632.75	15095.78
633.104	15079.5
633.459	15056.23
633.813	15001.54
634.167	15034.31
634.521	15100.3
634.875	15044.7
635.229	14985.27
635.583	14926.97
635.937	14902.11
636.291	14929.45
636.645	14954.31
636.999	14941.66
637.352	14933.97
637.706	14771.49
638.06	14957.7
638.413	14881.54
638.767	14814.2
639.121	14783.24
639.474	14764.26
639.828	14791.6
640.181	14786.4
640.534	14785.05
640.888	14781.21
641.241	14681.77
641.594	14679.06
641.947	14724.94
642.301	14637.03
642.654	14667.76
643.007	14653.75
643.36	14645.17
643.713	14634.32
644.066	14701.66
644.419	14577.37
644.771	14494.21
645.124	14412.63
645.477	14457.15
645.83	14315.23
646.182	14286.53
646.535	14197.72
646.888	14321.78
647.24	14141.68
647.593	14237.72
647.945	14120.21
648.298	14121.56
648.65	14100.77
649.002	14020.55
649.355	14153.43
649.707	14060.77
650.059	14143.26
650.411	14358.39
650.763	14317.04
651.115	14481.78
651.467	14493.53
651.819	14419.86
652.171	14390.48
652.523	14471.84
652.875	14406.53
653.227	14309.58
653.578	14486.3
653.93	14415.79
654.282	14409.01
654.633	14366.76
654.985	14411.95
655.337	14365.4
655.688	14427.54
656.039	14473.42
656.391	14363.82
656.742	14352.74
657.094	14434.1
657.445	14454.44
657.796	14369.92
658.147	14427.32
658.498	14372.86
658.849	14360.65
659.2	14341.22
659.551	14449.46
659.902	14445.62
660.253	14491.72
660.604	14416.47
660.955	14377.83
661.306	14449.69
661.656	14275.01
662.007	14432.97
662.358	14413.76
662.708	14471.61
663.059	14371.73
663.409	14354.55
663.76	14412.18
664.11	14456.7
664.461	14495.57
664.811	14443.82
665.161	14445.85
665.511	14477.26
665.862	14475.9
666.212	14526.75
666.562	14425.96
666.912	14427.32
667.262	14489.24
667.612	14572.63
667.962	14537.37
668.312	14521.55
668.662	14611.95
669.011	14532.4
669.361	14541.89
669.711	14507.99
670.06	14463.93
670.41	14507.54
670.76	14364.5
671.109	14437.94
671.459	14430.93
671.808	14346.19
672.157	14404.49
672.507	14301.45
672.856	14304.61
673.205	14355.46
673.554	14382.8
673.904	14350.71
674.253	14416.47
674.602	14297.15
674.951	14146.87
675.3	14133.99
675.649	14238.85
675.998	14251.96
676.346	14329.92
676.695	14248.57
677.044	14175.35
677.393	14302.8
677.741	14239.75
678.09	14215.57
678.438	14181.9
678.787	14207.66
679.135	14178.74
679.484	14081.56
679.832	14201.11
680.181	14038.63
680.529	14131.96
680.877	13928.8
681.225	13974.67
681.573	14066.42
681.922	13890.16
682.27	13988.91
682.618	13957.5
682.966	13934
683.314	14024.39
683.661	13865.53
684.009	13785.08
684.357	13730.39
684.705	13724.06
685.053	13705.76
685.4	13708.69
685.748	13668.69
686.095	13538.75
686.443	13567.45
686.79	13644.06
687.138	13567
687.485	13629.6
687.832	13489.26
688.18	13537.4
688.527	13397.29
688.874	13448.81
689.221	13375.82
689.568	13306.9
689.915	13405.42
690.262	13313.9
690.609	13246.11
690.956	13195.71
691.303	13228.71
691.65	13147.8
691.997	13091.31
692.344	12969.5
692.69	13003.63
693.037	12986.68
693.383	12915.95
693.73	12943.97
694.077	12856.74
694.423	12837.76
694.769	12804.31
695.116	12739.23
695.462	12746.46
695.808	12722.5
696.155	12716.85
696.501	12603.19
696.847	12503.75
697.193	12418.56
697.539	12469.18
697.885	12411.78
698.231	12367.26
698.577	12376.07
698.923	12380.37
699.269	12326.58
699.614	12208.39
699.96	12159.36
700.306	12138.34
700.651	12107.38
700.997	11977.21
701.342	11976.54
701.688	11993.94
702.033	11951.68
702.379	11892.92
702.724	11826.93
703.069	11807.05
703.415	11680.95
703.76	11781.06
704.105	11701.29
704.45	11652.02
704.795	11608.18
705.14	11617.9
705.485	11579.94
705.83	11447.51
706.175	11527.28
706.52	11433.5
706.865	11374.97
707.209	11362.77
707.554	11326.16
707.899	11351.24
708.243	11273.5
708.588	11203.22
708.932	11147.63
709.277	11174.3
709.621	11207.97
709.966	11136.78
710.31	11084.58
710.654	11007.52
710.998	11057.24
711.342	11046.62
711.687	11006.17
712.031	10973.62
712.375	10898.37
712.719	10917.81
713.063	10887.98
713.407	10938.14
713.75	10786.74
714.094	10847.07
714.438	10757.81
714.782	10795.1
715.125	10693.63
715.469	10766.85
715.812	10632.16
716.156	10679.39
716.499	10713.52
716.843	10628.1
717.186	10549
717.53	10634.2
717.873	10596.46
718.216	10539.51
718.559	10564.6
718.902	10497.25
719.246	10495.44
719.589	10463.81
719.932	10441.21
720.275	10443.69
720.617	10443.24
720.96	10404.6
721.303	10432.17
721.646	10463.58
721.989	10350.36
722.331	10385.84
722.674	10348.78
723.016	10317.37
723.359	10390.36
723.701	10407.54
724.044	10267.65
724.386	10316.47
724.729	10261.55
725.071	10332.06
725.413	10271.27
725.755	10306.52
726.097	10198.5
726.439	10131.39
726.782	10214.55
727.124	10246.86
727.465	10218.84
727.807	10227.65
728.149	10138.17
728.491	10144.27
728.833	10169.35
729.175	10165.96
729.516	10182.23
729.858	10096.13
730.199	10218.39
730.541	10205.28
730.882	10122.12
731.224	10234.66
731.565	10140.2
731.906	10059.07
732.248	10172.29
732.589	10142.23
732.93	10068.79
733.271	10135
733.612	10133.19
733.953	10091.16
734.294	10073.99
734.635	10044.38
734.976	10094.78
735.317	10071.95
735.658	10028.79
735.999	10027.21
736.339	10069.24
736.68	10158.5
737.021	10175
737.361	10053.87
737.702	10124.38
738.042	10067.43
738.383	10125.51
738.723	10133.42
739.063	10083.25
739.404	10127.32
739.744	10211.61
740.084	10143.59
740.424	10142.69
740.764	10083.93
741.104	10123.93
741.444	10129.58
741.784	10169.58
742.124	10170.26
742.464	10191.72
742.804	10194.21
743.143	10223.59
743.483	10305.84
743.823	10291.61
744.162	10254.55
744.502	10376.13
744.841	10311.49
745.181	10424.71
745.52	10431.72
745.86	10488.44
746.199	10398.72
746.538	10509
746.877	10611.15
747.216	10651.82
747.556	10665.61
747.895	10740.41
748.234	10684.14
748.573	10756.91
748.911	10826.28
749.25	10945.38
749.589	10955.77
749.928	11047.07
750.267	11155.99
750.605	11174.3
750.944	11248.19
751.283	11274.86
751.621	11394.63
751.96	11463.78
752.298	11518.69
752.636	11685.24
752.975	11707.62
753.313	11792.36
753.651	12026.03
753.989	11989.19
754.327	12016.53
754.666	12067.83
755.004	12300.82
755.342	12418.11
755.679	12503.75
756.017	12667.59
756.355	12789.17
756.693	12910.3
757.031	13078.43
757.368	13060.12
757.706	13292.21
758.044	13371.07
758.381	13535.36
758.719	13627.57
759.056	13925.64
759.394	13963.38
759.731	14031.85
760.068	14280.2
760.405	14389.81
760.743	14503.25
761.08	14616.92
761.417	14788.21
761.754	14994.31
762.091	15134.19
762.428	15182.55
762.765	15347.07
763.102	15594.75
763.438	15719.49
763.775	15822.31
764.112	16064.79
764.449	16145.01
764.785	16274.5
765.122	16332.13
765.458	16516.75
765.795	16660.48
766.131	16791.32
766.467	16878.1
766.804	16872.68
767.14	17134.14
767.476	17221.82
767.812	17308.15
768.148	17403.74
768.485	17551.53
768.821	17492.1
769.157	17709.49
769.492	17834.69
769.828	17982.48
770.164	17857.28
770.5	18038.75
770.836	18149.93
771.171	18218.86
771.507	18216.82
771.842	18328.23
772.178	18426.31
772.513	18508.12
772.849	18460.66
773.184	18515.12
773.519	18726.64
773.855	18739.97
774.19	18739.52
774.525	18658.17
774.86	18889.57
775.195	18872.4
775.53	18979.52
775.865	18969.12
776.2	18852.29
776.535	18857.48
776.87	18935.22
777.205	18947.2
777.539	18947.65
777.874	19026.07
778.209	18992.17
778.543	18990.59
778.878	18965.28
779.212	19092.05
779.547	18960.31
779.881	19158.04
780.215	19070.13
780.55	19100.19
780.884	19077.59
781.218	19050.25
781.552	19116.01
781.886	19042.34
782.22	18999.18
782.554	19132.96
782.888	18875.34
783.222	18821.1
783.556	18886.41
783.889	18866.75
784.223	18809.8
784.557	18893.42
784.89	18880.08
785.224	18720.76
785.557	18834.89
785.891	18812.06
786.224	18706.98
786.558	18750.59
786.891	18637.15
787.224	18600.32
787.557	18543.37
787.891	18538.4
788.224	18581.11
788.557	18581.56
788.89	18503.37
789.223	18494.78
789.556	18372.75
789.888	18292.98
790.221	18357.16
790.554	18283.71
790.887	18177.28
791.219	18089.37
791.552	18171.17
791.884	18139.31
792.217	18020.44
792.549	18043.72
792.882	17902.48
793.214	17921.01
793.546	17961.24
793.879	17850.05
794.211	17782.48
794.543	17830.39
794.875	17746.55
795.207	17819.77
795.539	17801.69
795.871	17704.97
796.203	17698.64
796.535	17546.56
796.867	17497.29
797.198	17421.14
797.53	17526.9
797.862	17372.1
798.193	17353.57
798.525	17340.24
798.856	17423.62
799.188	17229.28
799.519	17100.69
799.85	17035.39
800.182	17094.14
800.513	17090.53
800.844	16931.66
801.175	17162.84
801.506	17083.97
801.837	16935.28
802.168	16798.56
802.499	16800.14
802.83	16801.49
803.161	16720.82
803.491	16729.86
803.822	16699.8
804.153	16712.46
804.483	16554.49
804.814	16460.71
805.145	16414.38
805.475	16523.08
805.805	16367.38
806.136	16349.3
806.466	16399.92
806.796	16412.12
807.126	16169.87
807.457	16188.85
807.787	16161.51
808.117	16127.16
808.447	16041.97
808.777	16040.84
809.107	15946.6
809.436	15943.44
809.766	15921.29
810.096	15885.13
810.426	15733.27
810.755	15958.13
811.085	15826.38
811.414	15859.15
811.744	15684.46
812.073	15801.52
812.403	15726.72
812.732	15623.67
813.061	15681.97
813.39	15536.22
813.719	15473.62
814.049	15531.7
814.378	15446.73
814.707	15448.53
815.036	15340.29
815.365	15423
815.693	15157.02
816.022	15290.35
816.351	15178.03
816.68	15074.76
817.008	15247.18
817.337	15101.88
817.665	14996.57
817.994	15053.74
818.322	14959.96
818.651	14984.59
818.979	14849.91
819.307	14973.07
819.636	14964.48
819.964	14849.45
820.292	14943.01
820.62	14927.19
820.948	14874.99
821.276	14900.53
821.604	14816.69
821.932	14870.7
822.259	14848.55
822.587	14848.1
822.915	14751.6
823.243	14853.07
823.57	14815.78
823.898	14893.52
824.225	14821.43
824.553	14750.47
824.88	14820.3
825.207	14865.5
825.535	14837.03
825.862	14811.94
826.189	14832.96
826.516	14806.74
826.843	14944.37
827.17	14867.76
827.497	14810.59
827.824	14925.38
828.151	14887.87
828.478	14844.26
828.805	14893.29
829.131	14907.31
829.458	14838.38
829.785	14750.02
830.111	14844.48
830.438	14885.84
830.764	14874.76
831.09	14945.95
831.417	14794.99
831.743	14834.09
832.069	14799.06
832.395	14872.05
832.722	14925.38
833.048	14778.04
833.374	14808.55
833.7	14728.55
834.026	14683.36
834.351	14772.85
834.677	14683.13
835.003	14854.2
835.329	14681.32
835.654	14703.47
835.98	14681.55
836.306	14698.72
836.631	14613.3
836.956	14634.54
837.282	14635.45
837.607	14604.26
837.932	14517.94
838.258	14449.92
838.583	14493.98
838.908	14470.03
839.233	14504.83
839.558	14392.52
839.883	14331.73
840.208	14324.72
840.533	14269.13
840.858	14336.47
841.182	14328.79
841.507	14255.35
841.832	14176.93
842.156	14088.12
842.481	14219.41
842.805	14169.02
843.13	14166.76
843.454	14166.08
843.778	14076.14
844.103	14086.31
844.427	14112.98
844.751	13972.42
845.075	13970.61
845.399	13852.42
845.723	13772.65
846.047	13878.41
846.371	13749.37
846.695	13699.2
847.019	13618.98
847.343	13529.26
847.666	13421.92
847.99	13463.73
848.313	13420.11
848.637	13360.23
848.96	13364.97
849.284	13334.92
849.607	13184.87
849.931	13266.67
850.254	13157.52
850.577	13103.29
850.9	13010.41
851.223	12908.94
851.546	12863.07
851.869	12772.22
852.192	12883.63
852.515	12677.76
852.838	12669.4
853.161	12696.97
853.483	12584.43
853.806	12613.58
854.129	12602.06
854.451	12497.65
854.774	12442.74
855.096	12397.99
855.419	12374.94
855.741	12368.62
856.063	12200.94
856.385	12263.76
856.708	12141.95
857.03	12175.17
857.352	12183.76
857.674	12077.55
857.996	12054.73
858.318	11955.29
858.64	12053.6
858.961	11939.47
859.283	11910.55
859.605	11915.52
859.926	11875.52
860.248	11805.24
860.57	11801.4
860.891	11817.22
861.212	11714.4
861.534	11762.3
861.855	11594.62
862.176	11688.41
862.498	11689.76
862.819	11637.11
863.14	11633.04
863.461	11569.77
863.782	11612.03
864.103	11495.64
864.424	11579.71
864.745	11457
865.065	11471.92
865.386	11445.25
865.707	11405.25
866.027	11427.4
866.348	11397.57
866.668	11420.84
866.989	11426.27
867.309	11229.44
867.63	11320.06
867.95	11237.57
868.27	11256.1
868.59	11149.66
868.91	11185.82
869.23	11205.26
869.55	11122.55
869.87	11249.77
870.19	11214.3
870.51	11152.83
870.83	11196.67
871.15	11035.09
871.469	11099.27
871.789	11141.3
872.109	11084.58
872.428	10950.8
872.748	10953.06
873.067	10999.16
873.386	10970.69
873.706	10996.45
874.025	10969.78
874.344	10884.13
874.663	10940.63
874.982	10910.12
875.301	10903.57
875.62	10809.56
875.939	10865.83
876.258	10860.41
876.577	10789.67
876.896	10806.62
877.214	10756.23
877.533	10813.63
877.852	10737.02
878.17	10705.38
878.489	10772.27
878.807	10711.71
879.125	10725.27
879.444	10651.15
879.762	10610.92
880.08	10589
880.398	10615.67
880.716	10631.03
881.034	10511.72
881.352	10584.26
881.67	10469.91
881.988	10503.58
882.306	10459.74
882.624	10368.89
882.941	10390.14
883.259	10364.15
883.577	10294.77
883.894	10372.06
884.212	10347.88
884.529	10312.4
884.846	10236.47
885.164	10241.67
885.481	10203.7
885.798	10193.53
886.115	10110.37
886.432	10179.07
886.75	10154.66
887.067	10100.65
887.383	10104.72
887.7	10090.71
888.017	10130.26
888.334	10016.13
888.651	10015.23
888.967	9954.44
889.284	9924.84
889.6	9897.27
889.917	9777.72
890.233	9853.43
890.55	9725.75
890.866	9773.66
891.182	9813.88
891.498	9707.67
891.815	9755.58
892.131	9639.42
892.447	9636.48
892.763	9529.59
893.079	9606.2
893.395	9531.63
893.71	9519.65
894.026	9492.31
894.342	9477.39
894.657	9418.64
894.973	9426.32
895.289	9392.2
895.604	9380.9
895.92	9198.3
896.235	9234.91
896.55	9195.14
896.865	9216.38
897.181	9200.11
897.496	9217.06
897.811	9107.46
898.126	9137.51
898.441	9088.93
898.756	9058.65
899.071	8992.66
899.386	8956.28
899.7	8940.23
900.015	8816.62
900.33	8870.63
900.644	8776.62
900.959	8808.71
901.273	8800.12
901.588	8718.99
901.902	8633.35
902.216	8638.54
902.531	8622.73
902.845	8599.68
903.159	8587.25
903.473	8542.05
903.787	8495.04
904.101	8478.32
904.415	8460.92
904.729	8414.14
905.042	8352.45
905.356	8405.33
905.67	8323.75
905.984	8319
906.297	8325.33
906.611	8220.7
906.924	8202.85
907.237	8200.59
907.551	8214.37
907.864	8124.66
908.177	8072.46
908.491	8107.48
908.804	8043.98
909.117	7994.95
909.43	7941.39
909.743	7931.67
910.056	7898.22
910.368	7874.72
910.681	7806.93
910.994	7841.95
911.307	7763.54
911.619	7744.78
911.932	7752.69
912.244	7630.89
912.557	7691.45
912.869	7564.45
913.181	7560.38
913.494	7601.96
913.806	7466.37
914.118	7493.94
914.43	7413.49
914.742	7400.84
915.054	7364
915.366	7342.31
915.678	7341.85
915.99	7251.46
916.302	7220.73
916.613	7199.03
916.925	7165.36
917.236	7188.64
917.548	7106.61
917.859	7111.8
918.171	7060.05
918.482	7041.3
918.794	6967.63
919.105	6968.98
919.416	6943.45
919.727	6911.13
920.038	6933.5
920.349	6802.89
920.66	6869.78
920.971	6863.45
921.282	6835.88
921.593	6761.31
921.903	6705.94
922.214	6702.78
922.525	6698.71
922.835	6678.14
923.146	6618.48
923.456	6544.36
923.767	6557.69
924.077	6577.36
924.387	6481.31
924.697	6545.04
925.008	6389.11
925.318	6455.1
925.628	6383.01
925.938	6355.67
926.248	6332.62
926.558	6310.24
926.867	6240.87
927.177	6308.44
927.487	6206.97
927.796	6183.69
928.106	6240.64
928.416	6148.89
928.725	6142.34
929.034	6127.88
929.344	6077.71
929.653	6108.89
929.962	6028.9
930.271	6006.75
930.581	6027.54
930.89	5914.77
931.199	5868.45
931.508	5951.84
931.817	5910.03
932.125	5856.92
932.434	5876.13
932.743	5840.2
933.051	5806.75
933.36	5803.14
933.669	5752.07
933.977	5696.25
934.286	5697.15
934.594	5689.47
934.902	5615.12
935.21	5641.11
935.519	5584.16
935.827	5576.03
936.135	5577.83
936.443	5495.8
936.751	5500.77
937.059	5482.69
937.367	5436.14
937.674	5468.91
937.982	5444.73
938.29	5406.09
938.597	5399.31
938.905	5350.95
939.213	5330.16
939.52	5293.1
939.827	5295.13
940.135	5278.18
940.442	5244.51
940.749	5242.02
941.056	5193.66
941.363	5210.39
941.67	5202.25
941.977	5112.99
942.284	5136.49
942.591	5092.42
942.898	5090.84
943.205	5112.31
943.511	5025.53
943.818	5030.05
944.125	4975.14
944.431	4939.21
944.738	4948.47
945.044	4950.05
945.35	4884.74
945.657	4845.2
945.963	4875.25
946.269	4825.54
946.575	4826.21
946.881	4834.12
947.187	4726.78
947.493	4748.93
947.799	4745.99
948.105	4722.71
948.41	4716.16
948.716	4715.94
949.022	4669.83
949.327	4665.09
949.633	4623.51
949.938	4621.02
950.244	4560.69
950.549	4587.58
950.854	4508.03
951.16	4477.98
951.465	4526.11
951.77	4455.15
952.075	4475.04
952.38	4432.55
952.685	4411.76
952.99	4390.75
953.294	4353.68
953.599	4331.54
953.904	4322.73
954.209	4332.44
954.513	4316.62
954.818	4254.7
955.122	4215.16
955.426	4229.62
955.731	4228.04
956.035	4174.25
956.339	4179
956.643	4143.52
956.948	4112.34
957.252	4125.22
957.556	4111.88
957.86	4122.28
958.163	4082.96
958.467	4078.44
958.771	4033.02
959.075	4033.24
959.378	4029.17
959.682	4028.04
959.985	3973.36
960.289	3984.2
960.592	3973.81
960.896	3935.16
961.199	3960.02
961.502	3931.78
961.805	3900.59
962.108	3849.52
962.411	3868.73
962.714	3816.07
963.017	3824.43
963.32	3795.51
963.623	3787.37
963.926	3828.95
964.228	3697.88
964.531	3729.52
964.833	3734.27
965.136	3674.38
965.438	3656.08
965.741	3613.82
966.043	3674.83
966.345	3619.69
966.648	3622.18
966.95	3572.01
967.252	3594.83
967.554	3547.6
967.856	3565.68
968.158	3527.49
968.46	3526.81
968.761	3494.27
969.063	3489.3
969.365	3496.31
969.666	3485.23
969.968	3436.65
970.269	3456.31
970.571	3397.78
970.872	3415.4
971.174	3394.61
971.475	3367.27
971.776	3374.28
972.077	3376.31
972.378	3362.3
972.679	3349.42
972.98	3324.79
973.281	3287.72
973.582	3264.22
973.883	3265.8
974.183	3228.74
974.484	3259.93
974.785	3207.95
975.085	3231
975.386	3222.42
975.686	3162.53
975.986	3179.7
976.287	3168.18
976.587	3100.16
976.887	3134.51
977.187	3116.88
977.487	3141.06
977.787	3057.22
978.087	3066.71
978.387	3052.48
978.687	3028.3
978.987	3013.61
979.286	3004.12
979.586	3018.13
979.885	2985.59
980.185	2981.74
980.484	2932.93
980.784	2919.82
981.083	2917.11
981.382	2902.42
981.682	2924.12
981.981	2886.15
982.28	2897.23
982.579	2856.1
982.878	2858.13
983.177	2866.27
983.475	2827.85
983.774	2790.11
984.073	2802.77
984.372	2803.9
984.67	2812.48
984.969	2807.96
985.267	2772.26
985.566	2753.5
985.864	2718.47
986.162	2716.44
986.461	2723.9
986.759	2682.09
987.057	2695.2
987.355	2662.66
987.653	2647.97
987.951	2642.32
988.249	2650.45
988.547	2627.85
988.844	2591.7
989.142	2606.16
989.44	2563.45
989.737	2604.8
990.035	2561.87
990.332	2542.43
990.63	2569.55
990.927	2588.31
991.224	2525.71
991.521	2463.79
991.819	2470.34
992.116	2522.09
992.413	2473.96
992.71	2496.78
993.006	2432.15
993.303	2489.55
993.6	2449.55
993.897	2441.64
994.193	2430.8
994.49	2410.23
994.787	2383.57
995.083	2373.85
995.379	2370.91
995.676	2362.32
995.972	2317.81
996.268	2320.74
996.565	2294.53
996.861	2310.12
997.157	2292.72
997.453	2278.49
997.749	2260.18
998.044	2243.91
998.34	2212.27
998.636	2217.7
998.932	2241.42
999.227	2210.24
999.523	2192.84
999.818	2190.35
1000.114	2174.53
1000.409	2172.95
1000.704	2145.38
1001	2159.39
1001.295	2100.86
1001.59	2122.78
1001.885	2101.54
1002.18	2070.36
1002.475	2079.85
1002.77	2091.6
1003.065	2061.77
1003.359	2026.51
1003.654	2050.47
1003.949	2020.86
1004.243	2017.7
1004.538	2015.67
1004.832	1996.01
1005.127	1988.55
1005.421	1944.48
1005.715	1988.32
1006.009	1930.7
1006.304	1949.68
1006.598	1913.07
1006.892	1899.51
1007.186	1887.54
1007.48	1901.09
1007.773	1885.28
1008.067	1874.2
1008.361	1839.4
1008.655	1846.86
1008.948	1844.82
1009.242	1825.39
1009.535	1830.81
1009.829	1799.18
1010.122	1811.38
1010.415	1828.33
1010.708	1777.71
1011.001	1746.3
1011.295	1754.88
1011.588	1756.01
1011.881	1728.44
1012.173	1757.6
1012.466	1706.52
1012.759	1702.23
1013.052	1687.77
1013.344	1721.89
1013.637	1689.12
1013.93	1664.72
1014.222	1672.4
1014.514	1669.69
1014.807	1659.74
1015.099	1607.09
1015.391	1600.31
1015.683	1621.55
1015.976	1578.39
1016.268	1569.13
1016.56	1575.9
1016.851	1570.71
1017.143	1584.27
1017.435	1572.74
1017.727	1539.07
1018.018	1542.46
1018.31	1530.93
1018.602	1515.34
1018.893	1497.49
1019.185	1468.79
1019.476	1486.64
1019.767	1471.5
1020.058	1476.02
1020.35	1470.14
1020.641	1484.38
1020.932	1423.14
1021.223	1445.29
1021.514	1396.7
1021.804	1409.81
1022.095	1388.57
1022.386	1383.14
1022.677	1374.78
1022.967	1356.7
1023.258	1358.51
1023.548	1357.83
1023.839	1345.4
1024.129	1344.5
1024.419	1332.97
1024.709	1339.75
1025	1323.93
1025.29	1343.82
1025.58	1298.62
1025.87	1300.88
1026.16	1289.58
1026.449	1277.16
1026.739	1277.83
1027.029	1247.1
1027.319	1224.28
1027.608	1218.85
1027.898	1225.63
1028.187	1210.49
1028.477	1228.12
1028.766	1185.41
1029.055	1191.51
1029.344	1197.84
1029.634	1198.29
1029.923	1171.62
1030.212	1155.12
1030.501	1185.86
1030.79	1134.79
1031.078	1158.06
1031.367	1132.75
1031.656	1117.16
1031.945	1144.28
1032.233	1118.97
1032.522	1104.96
1032.81	1084.84
1033.099	1072.42
1033.387	1101.34
1033.675	1085.97
1033.963	1052.3
1034.251	1075.81
1034.54	1037.39
1034.828	1063.15
1035.116	1073.77
1035.403	1056.6
1035.691	1041.68
1035.979	1023.38
1036.267	1020.44
1036.554	1026.54
1036.842	1017.5
1037.129	1010.72
1037.417	993.55
1037.704	966.43
1037.992	980.67
1038.279	960.55
1038.566	956.03
1038.853	956.03
1039.14	956.03
