Data from hue_22_FLMS001491_00033.txt Node
Date: Tue Feb 07 17:10:01 GMT 2017
User: dcchb
Spectrometer: FLMS00149
Trigger mode: 0
Integration Time (sec): 2.000000E-2
Scans to average: 10
Electric dark correction enabled: true
Nonlinearity correction enabled: false
Boxcar width: 0
XAxis mode: Wavelengths
Number of Pixels in Spectrum: 2048
>>>>>Begin Spectral Data<<<<<
341.393	-14.62
341.776	-14.62
342.16	-14.62
342.543	-58.23
342.927	-67.5
343.31	-67.72
343.693	-66.14
344.077	-60.04
344.46	-53.71
344.843	-50.32
345.226	-45.13
345.61	-39.02
345.993	-34.5
346.376	-5.35
346.759	30.58
347.142	14.08
347.525	34.42
347.908	68.09
348.291	69
348.674	71.71
349.057	134.08
349.44	125.49
349.823	141.99
350.206	164.13
350.588	192.61
350.971	211.59
351.354	220.63
351.737	245.26
352.119	254.08
352.502	284.81
352.884	270.57
353.267	281.42
353.65	281.87
354.032	282.55
354.414	313.06
354.797	312.15
355.179	335.2
355.562	323.23
355.944	317.12
356.326	339.27
356.709	336.33
357.091	326.39
357.473	338.82
357.855	332.04
358.238	349.89
358.62	343.56
359.002	349.89
359.384	327.52
359.766	336.11
360.148	340.85
360.53	354.64
360.912	337.91
361.294	341.53
361.676	314.19
362.057	344.92
362.439	329.55
362.821	326.16
363.203	328.42
363.584	330.01
363.966	329.55
364.348	332.04
364.729	307.18
365.111	325.71
365.493	304.7
365.874	293.62
366.256	306.05
366.637	320.29
367.019	332.27
367.4	306.96
367.781	319.16
368.163	318.71
368.544	342.43
368.925	309.89
369.306	318.48
369.688	306.96
370.069	324.13
370.45	313.73
370.831	324.13
371.212	284.36
371.593	324.58
371.974	315.77
372.355	337.24
372.736	316.22
373.117	319.61
373.498	328.2
373.879	308.76
374.26	331.14
374.641	323.23
375.021	332.72
375.402	313.73
375.783	323.45
376.163	326.84
376.544	321.19
376.925	321.87
377.305	338.14
377.686	307.41
378.066	322.32
378.447	327.29
378.827	337.69
379.208	322.1
379.588	303.57
379.968	327.52
380.349	323.68
380.729	322.1
381.109	334.07
381.489	344.02
381.87	337.91
382.25	341.76
382.63	334.07
383.01	337.46
383.39	327.97
383.77	341.76
384.15	355.77
384.53	323.45
384.91	347.18
385.29	344.92
385.67	349.67
386.049	358.93
386.429	352.83
386.809	360.51
387.189	353.73
387.568	338.14
387.948	355.77
388.328	330.91
388.707	370.68
389.087	360.97
389.466	370.23
389.846	377.69
390.225	384.47
390.605	376.33
390.984	383.11
391.363	371.81
391.743	373.85
392.122	368.2
392.501	361.19
392.881	376.78
393.26	381.76
393.639	349.21
394.018	388.99
394.397	382.21
394.776	418.14
395.155	358.25
395.534	351.7
395.913	369.78
396.292	395.09
396.671	390.12
397.05	373.17
397.429	373.39
397.808	398.03
398.186	377.01
398.565	389.44
398.944	427.63
399.323	415.2
399.701	400.29
400.08	392.83
400.458	395.31
400.837	404.13
401.215	414.52
401.594	384.92
401.972	412.72
402.351	409.78
402.729	419.27
403.107	401.42
403.486	424.24
403.864	397.35
404.242	421.53
404.62	409.55
404.999	421.98
405.377	433.05
405.755	420.17
406.133	437.57
406.511	460.17
406.889	431.25
407.267	456.1
407.645	419.95
408.023	424.24
408.401	441.87
408.779	436.9
409.156	438.93
409.534	464.01
409.912	456.33
410.29	465.37
410.667	463.34
411.045	447.74
411.422	468.53
411.8	465.82
412.178	475.99
412.555	484.13
412.933	463.34
413.31	470.57
413.687	474.18
414.065	492.71
414.442	492.71
414.819	496.1
415.197	502.66
415.574	485.26
415.951	497.01
416.328	501.75
416.705	490.45
417.082	510.79
417.46	532.03
417.837	543.11
418.214	522.32
418.591	509.89
418.967	498.59
419.344	533.62
419.721	545.82
420.098	541.07
420.475	522.09
420.852	555.99
421.228	545.59
421.605	534.97
421.982	539.94
422.358	575.2
422.735	554.41
423.111	569.55
423.488	573.84
423.864	560.96
424.241	562.99
424.617	558.02
424.994	566.38
425.37	577.23
425.746	564.8
426.123	579.49
426.499	602.99
426.875	595.99
427.251	591.24
427.627	609.09
428.003	600.73
428.379	618.59
428.756	614.29
429.132	610.22
429.507	622.2
429.883	612.48
430.259	628.75
430.635	631.01
431.011	631.24
431.387	668.08
431.763	671.47
432.138	668.08
432.514	692.03
432.89	684.57
433.265	682.31
433.641	689.77
434.016	663.33
434.392	688.19
434.767	725.7
435.143	676.89
435.518	713.95
435.894	697
436.269	724.57
436.644	734.51
437.02	729.09
437.395	746.04
437.77	753.72
438.145	738.36
438.52	776.77
438.895	760.28
439.271	749.88
439.646	774.06
440.021	772.93
440.395	785.59
440.77	770.9
441.145	760.5
441.52	802.31
441.895	779.94
442.27	786.72
442.645	798.92
443.019	825.36
443.394	837.34
443.769	829.2
444.143	809.54
444.518	841.63
444.892	828.98
445.267	816.55
445.641	827.62
446.016	845.25
446.39	830.78
446.764	854.51
447.139	868.75
447.513	857
447.887	871.23
448.262	868.97
448.636	878.92
449.01	883.89
449.384	877.79
449.758	875.3
450.132	914.62
450.506	902.42
450.88	888.18
451.254	912.59
451.628	944
452.002	940.84
452.376	920.95
452.75	921.63
453.123	951.91
453.497	971.34
453.871	976.99
454.244	950.78
454.618	1008.41
454.992	1022.42
455.365	991.01
455.739	1042.53
456.112	1026.26
456.486	1037.33
456.859	1044.11
457.232	1071
457.606	1073.04
457.979	1050.66
458.352	1071.45
458.725	1113.26
459.099	1115.07
459.472	1127.72
459.845	1164.11
460.218	1148.97
460.591	1158.01
460.964	1152.13
461.337	1185.58
461.71	1195.97
462.083	1190.55
462.456	1217.21
462.829	1209.76
463.201	1245.69
463.574	1236.42
463.947	1256.08
464.32	1266.03
464.692	1301.28
465.065	1287.72
465.438	1309.19
465.81	1334.05
466.183	1348.28
466.555	1373.37
466.928	1388.28
467.3	1377.66
467.672	1423.76
468.045	1416.53
468.417	1419.92
468.789	1460.15
469.161	1478
469.534	1484.1
469.906	1523.87
470.278	1550.54
470.65	1550.54
471.022	1557.54
471.394	1600.25
471.766	1642.51
472.138	1611.33
472.51	1672.12
472.882	1719.35
473.253	1725.9
473.625	1760.93
473.997	1784.43
474.369	1768.84
474.74	1802.28
475.112	1853.36
475.484	1856.52
475.855	1920.47
476.227	1914.6
476.598	1987.81
476.97	1987.36
477.341	2049.51
477.713	2059
478.084	2093.35
478.455	2164.99
478.827	2180.13
479.198	2249.95
479.569	2209.96
479.94	2306.45
480.311	2330.18
480.682	2386.67
481.053	2438.2
481.424	2497.63
481.795	2508.93
482.166	2551.64
482.537	2600.45
482.908	2671.64
483.279	2681.13
483.65	2713.45
484.021	2805.87
484.391	2850.62
484.762	2872.76
485.133	2884.29
485.503	2954.57
485.874	3022.82
486.244	3028.24
486.615	3106.88
486.985	3186.65
487.356	3208.57
487.726	3200.44
488.097	3283.15
488.467	3360.89
488.837	3385.97
489.207	3423.71
489.578	3530.37
489.948	3554.33
490.318	3625.51
490.688	3659.64
491.058	3675.68
491.428	3728.33
491.798	3739.41
492.168	3864.15
492.538	3842.91
492.908	3937.14
493.278	3994.09
493.648	4006.52
494.017	4058.95
494.387	4085.39
494.757	4164.25
495.126	4123.8
495.496	4184.59
495.866	4236.57
496.235	4264.82
496.605	4316.57
496.974	4308.66
497.344	4387.53
497.713	4473.85
498.082	4442.44
498.452	4484.92
498.821	4554.3
499.19	4543.68
499.559	4608.31
499.928	4634.98
500.298	4614.41
500.667	4673.85
501.036	4691.02
501.405	4741.64
501.774	4760.85
502.143	4802.66
502.512	4820.51
502.88	4864.8
503.249	4888.98
503.618	4926.49
503.987	4933.05
504.356	4966.49
504.724	5008.53
505.093	5052.59
505.462	5041.75
505.83	5052.37
506.199	5107.96
506.567	5203.55
506.936	5177.56
507.304	5266.15
507.672	5217.33
508.041	5243.77
508.409	5301.17
508.777	5313.6
509.145	5329.42
509.514	5316.54
509.882	5424.56
510.25	5438.8
510.618	5426.37
510.986	5465.46
511.354	5488.97
511.722	5526.7
512.09	5559.02
512.458	5578.68
512.826	5671.79
513.193	5698.45
513.561	5641.96
513.929	5700.03
514.297	5772.57
514.664	5749.3
515.032	5795.85
515.4	5822.52
515.767	5823.65
516.135	5908.16
516.502	5834.04
516.869	5905.68
517.237	5948.39
517.604	5940.03
517.972	5975.05
518.339	6010.53
518.706	6051.21
519.073	6040.14
519.44	6069.74
519.808	6081.49
520.175	6126.24
520.542	6184.31
520.909	6239.23
521.276	6198.78
521.643	6282.17
522.009	6267.48
522.376	6326.01
522.743	6404.87
523.11	6402.84
523.477	6439.68
523.843	6496.62
524.21	6529.16
524.577	6547.7
524.943	6621.82
525.31	6637.86
525.676	6715.83
526.043	6733.45
526.409	6786.78
526.776	6870.62
527.142	6805.54
527.508	6824.52
527.874	6900.45
528.241	6904.75
528.607	6975.71
528.973	7059.55
529.339	7027.68
529.705	7098.19
530.071	7098.19
530.437	7188.13
530.803	7201.24
531.169	7217.06
531.535	7240.11
531.901	7259.77
532.267	7300.67
532.632	7321.69
532.998	7382.7
533.364	7389.25
533.73	7422.02
534.095	7477.16
534.461	7538.4
534.826	7539.31
535.192	7636.48
535.557	7647.78
535.923	7653.88
536.288	7710.6
536.653	7729.58
537.019	7679.64
537.384	7742.47
537.749	7789.47
538.114	7794.67
538.479	7840.54
538.845	7867.66
539.21	7865.85
539.575	7897.04
539.94	7895
540.305	7933.2
540.67	7953.31
541.034	8032.63
541.399	8070.59
541.764	8106.75
542.129	8098.16
542.494	8126.18
542.858	8172.06
543.223	8211.38
543.587	8256.35
543.952	8270.14
544.316	8311.04
544.681	8365.27
545.045	8365.73
545.41	8401.21
545.774	8464.03
546.138	8454.09
546.503	8468.32
546.867	8504.93
547.231	8563.01
547.595	8573.18
547.959	8567.98
548.324	8691.59
548.688	8588.77
549.052	8727.07
549.416	8683.91
549.779	8753.29
550.143	8793.74
550.507	8759.84
550.871	8850.91
551.235	8815.21
551.599	8919.84
551.962	8899.95
552.326	8939.5
552.689	9069.44
553.053	9013.17
553.417	9003.68
553.78	9097.68
554.143	9113.96
554.507	9114.86
554.87	9205.25
555.234	9225.36
555.597	9184.69
555.96	9253.61
556.323	9338.58
556.686	9321.41
557.05	9339.71
557.413	9398.02
557.776	9408.86
558.139	9440.73
558.502	9483.44
558.865	9509.65
559.228	9583.1
559.59	9595.52
559.953	9653.6
560.316	9710.78
560.679	9675.07
561.041	9749.87
561.404	9720.27
561.767	9915.29
562.129	9805.24
562.492	9929.98
562.854	9890.21
563.217	9908.96
563.579	9913.03
563.941	9967.04
564.304	9988.51
564.666	10087.04
565.028	10056.3
565.39	10123.19
565.753	10228.05
566.115	10183.76
566.477	10241.84
566.839	10329.97
567.201	10337.65
567.563	10389.18
567.925	10393.02
568.287	10459.91
568.648	10492.22
569.01	10476.41
569.372	10576.74
569.734	10589.62
570.095	10610.41
570.457	10633.24
570.819	10613.58
571.18	10709.39
571.542	10824.19
571.903	10888.15
572.265	10929.73
572.626	10922.95
572.987	10995.49
573.349	11045.43
573.71	11132.21
574.071	11153.9
574.432	11174.47
574.794	11274.8
575.155	11334.01
575.516	11386.66
575.877	11399.09
576.238	11532.87
576.599	11565.19
576.96	11612.87
577.32	11710.05
577.681	11812.19
578.042	11862.36
578.403	11960.66
578.763	11987.78
579.124	12024.39
579.485	12194.55
579.845	12366.3
580.206	12400.65
580.566	12541.66
580.927	12688.1
581.287	12725.84
581.648	12901.65
582.008	13002.21
582.368	13121.08
582.728	13298.25
583.089	13422.99
583.449	13534.63
583.809	13740.5
584.169	13816.43
584.529	13928.97
584.889	14174.84
585.249	14400.37
585.609	14476.53
585.969	14731.21
586.329	14910.41
586.688	15163.06
587.048	15300.01
587.408	15531.41
587.768	15694.12
588.127	15937.28
588.487	16115.58
588.846	16506.08
589.206	16645.51
589.565	16949.68
589.925	17304.7
590.284	17403
590.643	17741.53
591.003	18008.86
591.362	18303.54
591.721	18513.48
592.08	18773.81
592.44	19143.52
592.799	19415.83
593.158	19680.23
593.517	19998.64
593.876	20388.91
594.235	20505.29
594.593	20821.9
594.952	21250.13
595.311	21324.48
595.67	21752.04
596.029	22241.07
596.387	22451.01
596.746	22775.52
597.104	22927.15
597.463	23243.3
597.822	23695.04
598.18	23864.98
598.538	24236.04
598.897	24647.78
599.255	24745.18
599.613	25352.4
599.972	25429.91
600.33	25856.57
600.688	25980.86
601.046	26468.08
601.404	26789.2
601.762	27012.02
602.12	27482.29
602.478	27753.01
602.836	28050.86
603.194	28200.46
603.552	28538.76
603.91	28642.03
604.268	29189.81
604.625	29263.03
604.983	29771.27
605.341	29950.7
605.698	30254.19
606.056	30460.51
606.413	30923.1
606.771	31182.3
607.128	31427.94
607.485	31490.99
607.843	31819.35
608.2	32153.58
608.557	32547.01
608.914	32671.08
609.272	33028.35
609.629	33213.21
609.986	33655.46
610.343	33718.51
610.7	34066.97
611.057	34197.36
611.414	34411.37
611.771	34702.66
612.127	35061.07
612.484	35190.56
612.841	35520.94
613.198	35368.18
613.554	35666.25
613.911	36155.73
614.267	36194.83
614.624	36383.75
614.98	36547.36
615.337	36945.99
615.693	37109.15
616.05	37252.42
616.406	37541.23
616.762	37581.46
617.118	37796.14
617.475	37849.7
617.831	38131.72
618.187	38250.14
618.543	38425.95
618.899	38736.91
619.255	38756.34
619.611	38859.16
619.967	39233.16
620.323	39334.86
620.678	39398.36
621.034	39415.08
621.39	39575.53
621.746	39697.11
622.101	40095.97
622.457	39939.36
622.812	40095.29
623.168	40233.81
623.523	40337.32
623.879	40628.83
624.234	40457.54
624.589	40744.08
624.945	40843.06
625.3	40977.07
625.655	41035.83
626.01	40977.98
626.365	41169.84
626.72	41053.68
627.075	41111.08
627.43	41236.95
627.785	41341.13
628.14	41458.19
628.495	41607.34
628.85	41539.77
629.205	41442.6
629.559	41838.29
629.914	41697.96
630.269	41767.33
630.623	41776.37
630.978	41761.01
631.332	41931.17
631.687	41948.8
632.041	41963.04
632.396	42052.07
632.75	42041.68
633.104	42019.76
633.459	42000.32
633.813	42033.77
634.167	42114.67
634.521	42064.05
634.875	42119.19
635.229	42080.32
635.583	41911.51
635.937	42126.65
636.291	42037.84
636.645	42228.11
636.999	42136.82
637.352	42132.97
637.706	41958.06
638.06	42202.35
638.413	42062.92
638.767	42078.51
639.121	42035.58
639.474	42047.33
639.828	42036.25
640.181	41997.16
640.534	42035.58
640.888	42048.68
641.241	41833.55
641.594	42084.39
641.947	42182.24
642.301	42014.56
642.654	42099.98
643.007	42104.95
643.36	42079.87
643.713	41997.61
644.066	42255.91
644.419	41951.51
644.771	41696.15
645.124	41321.47
645.477	41246.44
645.83	41045.09
646.182	41002.61
646.535	40844.19
646.888	40860.69
647.24	40640.81
647.593	41006.9
647.945	40906.34
648.298	40754.93
648.65	40559.91
649.002	40537.54
649.355	40816.4
649.707	40780.02
650.059	40952.67
650.411	41456.61
650.763	41383.62
651.115	41892.75
651.467	41633.33
651.819	41621.8
652.171	41592.42
652.523	41535.93
652.875	41485.99
653.227	41390.39
653.578	41785.19
653.93	41596.27
654.282	41404.41
654.633	41306.78
654.985	41405.54
655.337	41416.61
655.688	41407.12
656.039	41640.56
656.391	41306.78
656.742	41403.5
657.094	41298.65
657.445	41549.49
657.796	41464.29
658.147	41351.3
658.498	41283.05
658.849	41371.86
659.2	41270.17
659.551	41288.25
659.902	41332.32
660.253	41343.16
660.604	41355.82
660.955	41143.62
661.306	41427.23
661.656	41239.44
662.007	41348.81
662.358	41335.48
662.708	41282.37
663.059	41248.93
663.409	40975.49
663.76	41403.95
664.11	41290.51
664.461	41351.53
664.811	41246.44
665.161	41285.54
665.511	41124.86
665.862	41276.73
666.212	41309.72
666.562	41330.51
666.912	41125.32
667.262	41071.08
667.612	41144.75
667.962	41347.23
668.312	41089.16
668.662	41303.39
669.011	41158.54
669.361	41095.49
669.711	41012.1
670.06	41144.53
670.41	41099.78
670.76	40974.59
671.109	41180.91
671.459	41057.75
671.808	41068.6
672.157	41082.15
672.507	40901.59
672.856	40937.98
673.205	41034.47
673.554	41107.01
673.904	41059.78
674.253	41144.07
674.602	40927.58
674.951	40456.18
675.3	40341.38
675.649	40866.57
675.998	40846.23
676.346	40810.52
676.695	41014.59
677.044	40713.35
677.393	40852.78
677.741	40756.29
678.09	40645.78
678.438	40701.15
678.787	40710.86
679.135	40769.85
679.484	40429.52
679.832	40535.05
680.181	40321.72
680.529	40490.08
680.877	40357.88
681.225	40293.25
681.573	40575.73
681.922	40245.79
682.27	40100.03
682.618	40277.88
682.966	40100.49
683.314	40152.01
683.661	40013.71
684.009	39768.74
684.357	39820.49
684.705	39815.29
685.053	39862.07
685.4	39772.58
685.748	39364.01
686.095	39492.37
686.443	39542.53
686.79	39481.52
687.138	39513.38
687.485	39547.28
687.832	39210.34
688.18	39364.69
688.527	39100.74
688.874	39169.89
689.221	38988.88
689.568	38986.39
689.915	38836.11
690.262	38958.82
690.609	38752.95
690.956	38650.58
691.303	38577.59
691.65	38455.78
691.997	38335.79
692.344	38173.76
692.69	38290.14
693.037	38343.24
693.383	37918.62
693.73	38133.08
694.077	37788.23
694.423	37863.71
694.769	37760.43
695.116	37674.56
695.462	37649.02
695.808	37434.34
696.155	37498.97
696.501	37091.07
696.847	37284.97
697.193	36909.16
697.539	37152.54
697.885	36820.8
698.231	36753
698.577	36818.99
698.923	36804.98
699.269	36600.69
699.614	36437.98
699.96	36330.41
700.306	36293.81
700.651	36185.33
700.997	36045.22
701.342	36000.48
701.688	36041.83
702.033	35864.44
702.379	35776.31
702.724	35683.65
703.069	35859.69
703.415	35379.93
703.76	35481.17
704.105	35452.25
704.45	35452.7
704.795	35081.86
705.14	35084.12
705.485	35084.57
705.83	34966.83
706.175	34859.94
706.52	34916.89
706.865	34857.69
707.209	34572.49
707.554	34563
707.899	34719.84
708.243	34315.78
708.588	34339.28
708.932	34289.56
709.277	34097.25
709.621	34184.71
709.966	34040.08
710.31	33986.97
710.654	33802.57
710.998	33851.16
711.342	33823.14
711.687	33598.28
712.031	33520.32
712.375	33412.53
712.719	33404.39
713.063	33461.34
713.407	33544.5
713.75	33283.94
714.094	33314.22
714.438	33229.48
714.782	33360.78
715.125	33038.52
715.469	33194.45
715.812	32973.44
716.156	32843.27
716.499	32769.6
716.843	32704.75
717.186	32669.27
717.53	32803.95
717.873	32697.74
718.216	32722.83
718.559	32486.22
718.902	32340.92
719.246	32457.75
719.589	32342.5
719.932	32104.99
720.275	32190.64
720.617	32297.53
720.96	32118.77
721.303	32000.13
721.646	32081.49
721.989	31848.05
722.331	31899.57
722.674	31752.23
723.016	31932.34
723.359	31741.38
723.701	31877.42
724.044	31681.27
724.386	31573.48
724.729	31693.93
725.071	31535.29
725.413	31561.27
725.755	31397.21
726.097	31293.94
726.439	31177.1
726.782	31138.69
727.124	31235.18
727.465	31119.93
727.807	31208.52
728.149	30998.13
728.491	30961.97
728.833	31036.99
729.175	30751.58
729.516	30830.22
729.858	30835.87
730.199	30858.47
730.541	30607.63
730.882	30757.45
731.224	30842.88
731.565	30556.1
731.906	30532.6
732.248	30665.7
732.589	30232.72
732.93	30374.64
733.271	30234.3
733.612	30374.19
733.953	30315.43
734.294	30226.39
734.635	30170.35
734.976	30188.66
735.317	29945.05
735.658	30115.44
735.999	30118.15
736.339	30015.1
736.68	30007.42
737.021	29949.11
737.361	29885.61
737.702	29909.34
738.042	29738.5
738.383	29677.93
738.723	29904.82
739.063	29614.43
739.404	29806.74
739.744	29650.59
740.084	29596.13
740.424	29565.39
740.764	29526.07
741.104	29663.7
741.444	29518.16
741.784	29313.2
742.124	29430.03
742.464	29313.2
742.804	29363.37
743.143	29235.46
743.483	29269.13
743.823	29144.39
744.162	29063.04
744.502	29221.68
744.841	28994.56
745.181	29090.15
745.52	28892.19
745.86	28995.01
746.199	28991.62
746.538	28839.09
746.877	28962.25
747.216	28906.43
747.556	28774.46
747.895	28702.82
748.234	28709.82
748.573	28746.89
748.911	28643.39
749.25	28603.39
749.589	28497.17
749.928	28610.39
750.267	28581.24
750.605	28424.18
750.944	28330.63
751.283	28283.62
751.621	28328.82
751.96	28133.34
752.298	28199.1
752.636	28300.12
752.975	28096.73
753.313	27894.25
753.651	28222.83
753.989	27902.16
754.327	27851.54
754.666	27745.78
755.004	27881.15
755.342	27900.13
755.679	27617.2
756.017	27578.33
756.355	27740.36
756.693	27413.59
757.031	27565
757.368	27440.48
757.706	27329.3
758.044	27249.52
758.381	27214.5
758.719	27170.43
759.056	27280.94
759.394	27101.28
759.731	27018.34
760.068	26925.01
760.405	26792.81
760.743	26728.86
761.08	26782.87
761.417	26719.82
761.754	26583.78
762.091	26598.24
762.428	26479.37
762.765	26305.37
763.102	26406.16
763.438	26310.57
763.775	26138.59
764.112	26137.69
764.449	26142.66
764.785	26101.53
765.122	25888.2
765.458	25863.57
765.795	25653.41
766.131	25580.41
766.467	25595.33
766.804	25479.17
767.14	25460.19
767.476	25444.37
767.812	25312.4
768.148	25278.5
768.485	25059.75
768.821	25024.5
769.157	24852.98
769.492	24918.74
769.828	24840.77
770.164	24602.14
770.5	24554.23
770.836	24667.44
771.171	24499.54
771.507	24523.95
771.842	24238.08
772.178	24296.15
772.513	24129.38
772.849	24147.23
773.184	23965.09
773.519	23996.05
773.855	23864.3
774.19	23880.12
774.525	23779.11
774.86	23714.48
775.195	23562.61
775.53	23460.92
775.865	23361.94
776.2	23216.41
776.535	23076.98
776.87	23135.06
777.205	22946.36
777.539	22937.09
777.874	22967.15
778.209	22740.26
778.543	22638.8
778.878	22500.5
779.212	22520.38
779.547	22512.7
779.881	22478.8
780.215	22283.55
780.55	22317.68
780.884	22195.42
781.218	22143.9
781.552	22050.34
781.886	21949.55
782.22	21846.28
782.554	21791.14
782.888	21623.23
783.222	21638.6
783.556	21505.27
783.889	21462.56
784.223	21207.42
784.557	21311.15
784.89	21268.66
785.224	21087.88
785.557	20950.25
785.891	20897.37
786.224	20921.1
786.558	20846.98
786.891	20623.48
787.224	20609.47
787.557	20582.81
787.891	20555.46
788.224	20400.21
788.557	20431.4
788.89	20297.39
789.223	20344.17
789.556	20231.86
789.888	20077.73
790.221	20021.47
790.554	19957.51
790.887	19967
791.219	19780.79
791.552	19691.08
791.884	19783.96
792.217	19687.46
792.549	19549.39
792.882	19508.26
793.214	19408.37
793.546	19436.17
793.879	19252.45
794.211	19243.18
794.543	19190.53
794.875	19209.51
795.207	19189.17
795.539	19014.03
795.871	19070.08
796.203	18855.85
796.535	18748.28
796.867	18697.88
797.198	18672.35
797.53	18634.38
797.862	18568.85
798.193	18535.85
798.525	18504.89
798.856	18491.79
799.188	18195.07
799.519	18236.88
799.85	18115.3
800.182	18101.97
800.513	18143.77
800.844	17887.06
801.175	18102.87
801.506	18037.11
801.837	17872.14
802.168	17869.66
802.499	17792.15
802.83	17694.07
803.161	17654.3
803.491	17651.58
803.822	17565.03
804.153	17559.38
804.483	17385.15
804.814	17297.47
805.145	17296.79
805.475	17292.05
805.805	17177.92
806.136	17170.24
806.466	17233.29
806.796	17220.63
807.126	16992.84
807.457	16931.38
807.787	17105.38
808.117	16861.32
808.447	16808.89
808.777	16873.53
809.107	16765.05
809.436	16670.14
809.766	16741.1
810.096	16602.8
810.426	16546.08
810.755	16567.54
811.085	16482.8
811.414	16511.5
811.744	16316.93
812.073	16303.6
812.403	16328.91
812.732	16263.82
813.061	16260.43
813.39	16141.79
813.719	16075.81
814.049	16163.26
814.378	16115.35
814.707	15971.85
815.036	16003.04
815.365	15954.68
815.693	15755.36
816.022	15809.15
816.351	15742.26
816.68	15715.59
817.008	15664.07
817.337	15630.62
817.665	15538.19
817.994	15643.28
818.322	15610.06
818.651	15585.2
818.979	15425.65
819.307	15520.57
819.636	15394.69
819.964	15334.81
820.292	15375.03
820.62	15362.6
820.948	15277.18
821.276	15402.83
821.604	15288.71
821.932	15354.02
822.259	15300.01
822.587	15170.75
822.915	15182.27
823.243	15273.57
823.57	15218.88
823.898	15277.64
824.225	15165.1
824.553	15108.6
824.88	15247.13
825.207	15253.23
825.535	15204.19
825.862	15256.84
826.189	15209.16
826.516	15237.41
826.843	15257.52
827.17	15234.7
827.497	15291.19
827.824	15239.67
828.151	15268.82
828.478	15260.23
828.805	15268.82
829.131	15146.57
829.458	15259.78
829.785	15088.71
830.111	15184.53
830.438	15230.86
830.764	15171.65
831.09	15174.59
831.417	15070.63
831.743	15122.61
832.069	15170.29
832.395	15084.19
832.722	15149.95
833.048	15114.25
833.374	15015.72
833.7	14994.03
834.026	15082.61
834.351	15071.76
834.677	14981.15
835.003	14983.18
835.329	15019.79
835.654	14925.78
835.98	14966.46
836.306	14895.5
836.631	14875.39
836.956	14848.49
837.282	14902.96
837.607	14832
837.932	14759.91
838.258	14870.41
838.583	14799.23
838.908	14686.24
839.233	14647.37
839.558	14655.73
839.883	14673.13
840.208	14611.44
840.533	14573.7
840.858	14547.71
841.182	14627.26
841.507	14596.97
841.832	14416.41
842.156	14481.27
842.481	14422.97
842.805	14353.14
843.13	14443.31
843.454	14335.29
843.778	14283.54
844.103	14228.17
844.427	14218
844.751	14105.69
845.075	14166.7
845.399	14116.99
845.723	14058.46
846.047	14050.55
846.371	13940.04
846.695	13934.17
847.019	13768.07
847.343	13805.81
847.666	13716.77
847.99	13606.49
848.313	13742.76
848.637	13484.91
848.96	13491.24
849.284	13463.9
849.607	13356.78
849.931	13338.25
850.254	13234.3
850.577	13204.92
850.9	13134.41
851.223	13138.93
851.546	13041.99
851.869	12950.69
852.192	13031.37
852.515	12787.53
852.838	12790.24
853.161	12856.46
853.483	12774.42
853.806	12698.72
854.129	12700.53
854.451	12611.04
854.774	12543.7
855.096	12474.77
855.419	12515.9
855.741	12494.88
856.063	12412.17
856.385	12484.49
856.708	12380.31
857.03	12280.43
857.352	12371.04
857.674	12261.67
857.996	12213.31
858.318	12112.52
858.64	12216.7
858.961	12128.57
859.283	12152.29
859.605	12049.25
859.926	12036.14
860.248	12047.89
860.57	11972.86
860.891	11978.96
861.212	11896.93
861.534	11898.97
861.855	11877.95
862.176	11853.77
862.498	11755.69
862.819	11766.31
863.14	11724.06
863.461	11695.13
863.782	11632.76
864.103	11692.87
864.424	11689.48
864.745	11664.85
865.065	11600.67
865.386	11613.1
865.707	11548.69
866.027	11539.65
866.348	11526.32
866.668	11564.96
866.989	11461.92
867.309	11380.79
867.63	11423.27
867.95	11429.37
868.27	11368.59
868.59	11367.91
868.91	11370.17
869.23	11313.67
869.55	11264.63
869.87	11339.21
870.19	11267.8
870.51	11285.42
870.83	11294.69
871.15	11186.44
871.469	11188.93
871.789	11219.44
872.109	11247.46
872.428	11134.92
872.748	11126.78
873.067	11074.81
873.386	11056.28
873.706	11039.55
874.025	11016.96
874.344	10947.81
874.663	10994.58
874.982	10983.06
875.301	11007.46
875.62	10927.69
875.939	10909.39
876.258	10949.39
876.577	10875.72
876.896	10895.6
877.214	10794.36
877.533	10778.77
877.852	10870.75
878.17	10808.15
878.489	10833.23
878.807	10764.99
879.125	10770.63
879.444	10796.62
879.762	10736.29
880.08	10712.33
880.398	10701.48
880.716	10675.72
881.034	10610.64
881.352	10701.48
881.67	10603.18
881.988	10609.28
882.306	10583.52
882.624	10532
882.941	10482.73
883.259	10466.69
883.577	10481.83
883.894	10423.3
884.212	10461.49
884.529	10437.31
884.846	10286.58
885.164	10285.9
885.481	10251.55
885.798	10277.09
886.115	10292.91
886.432	10328.16
886.75	10178.33
887.067	10170.42
887.383	10130.88
887.7	10135.62
888.017	10088.62
888.334	10082.74
888.651	10107.83
888.967	10057.89
889.284	10010.43
889.6	10008.4
889.917	9908.28
890.233	9933.37
890.55	9935.4
890.866	9909.87
891.182	9840.26
891.498	9841.17
891.815	9766.14
892.131	9710.55
892.447	9767.27
892.763	9666.03
893.079	9696.09
893.395	9633.72
893.71	9570.44
894.026	9558.46
894.342	9566.37
894.657	9509.88
894.973	9492.48
895.289	9491.35
895.604	9445.25
895.92	9357.34
896.235	9337.45
896.55	9349.2
896.865	9314.85
897.181	9369.77
897.496	9355.3
897.811	9190.34
898.126	9209.09
898.441	9147.4
898.756	9100.62
899.071	9106.5
899.386	9142.43
899.7	8947.63
900.015	9003.45
900.33	8906.5
900.644	8917.35
900.959	8897.92
901.273	8854.3
901.588	8847.97
901.902	8736.34
902.216	8773.4
902.531	8758.94
902.845	8707.41
903.159	8603.23
903.473	8654.76
903.787	8652.72
904.101	8525.95
904.415	8577.92
904.729	8527.76
905.042	8495.67
905.356	8478.27
905.67	8398.04
905.984	8433.52
906.297	8410.92
906.611	8284.6
906.924	8286.63
907.237	8297.48
907.551	8280.76
907.864	8241.66
908.177	8212.74
908.491	8133.64
908.804	8157.14
909.117	8068.79
909.43	7980.2
909.743	8053.87
910.056	7993.98
910.368	7949.69
910.681	7891.61
910.994	7927.32
911.307	7871.73
911.619	7817.27
911.932	7816.14
912.244	7747.66
912.557	7740.66
912.869	7670.83
913.181	7596.93
913.494	7707.66
913.806	7576.59
914.118	7517.84
914.43	7475.58
914.742	7554.22
915.054	7508.12
915.366	7517.16
915.678	7431.97
915.99	7382.48
916.302	7341.8
916.613	7274
916.925	7274.91
917.236	7265.42
917.548	7275.13
917.859	7236.49
918.171	7175.48
918.482	7129.37
918.794	7076.72
919.105	7064.29
919.416	7046.21
919.727	7034.91
920.038	6958.98
920.349	6980
920.66	6957.18
920.971	6890.51
921.282	6933.22
921.593	6894.8
921.903	6841.02
922.214	6838.08
922.525	6736.16
922.835	6751.76
923.146	6671.31
923.456	6605.55
923.767	6593.12
924.077	6602.61
924.387	6601.48
924.697	6537.07
925.008	6518.54
925.318	6460.92
925.628	6504.31
925.938	6446.23
926.248	6358.1
926.558	6386.8
926.867	6360.36
927.177	6319.45
927.487	6329.17
927.796	6256.63
928.106	6258.44
928.416	6232.9
928.725	6250.3
929.034	6161.26
929.344	6136.63
929.653	6135.5
929.962	6093.24
930.271	6062.96
930.581	6043.08
930.89	6037.2
931.199	5937.77
931.508	5963.98
931.817	5929.63
932.125	5921.95
932.434	5889.63
932.743	5825.68
933.051	5836.3
933.36	5748.85
933.669	5785.46
933.977	5753.14
934.286	5685.34
934.594	5721.05
934.902	5635.85
935.21	5622.3
935.519	5658.45
935.827	5622.3
936.135	5583.88
936.443	5544.56
936.751	5525.35
937.059	5499.36
937.367	5502.75
937.674	5516.08
937.982	5439.25
938.29	5409.42
938.597	5438.8
938.905	5336.2
939.213	5351.34
939.52	5328.07
939.827	5322.87
940.135	5298.91
940.442	5310.44
940.749	5236.32
941.056	5208.97
941.363	5172.36
941.67	5205.81
941.977	5115.87
942.284	5091.91
942.591	5100.28
942.898	5063.21
943.205	5089.88
943.511	5103.67
943.818	5075.87
944.125	5029.09
944.431	4948.19
944.738	4998.13
945.044	4932.82
945.35	4927.17
945.657	4842.2
945.963	4836.1
946.269	4816.89
946.575	4804.01
946.881	4739.61
947.187	4830.9
947.493	4777.8
947.799	4754.52
948.105	4717.69
948.41	4746.16
948.716	4663.22
949.022	4656.45
949.327	4650.34
949.633	4609.21
949.938	4601.98
950.244	4542.32
950.549	4550.23
950.854	4506.62
951.16	4513.17
951.465	4487.41
951.77	4470.69
952.075	4471.37
952.38	4466.17
952.685	4421.42
952.99	4388.88
953.294	4415.32
953.599	4368.77
953.904	4366.74
954.209	4317.47
954.513	4304.36
954.818	4314.08
955.122	4270.47
955.426	4197.25
955.731	4231.82
956.035	4240.19
956.339	4190.24
956.643	4178.49
956.948	4149.79
957.252	4136.46
957.556	4157.48
957.86	4121.09
958.163	4100.53
958.467	4067.76
958.771	4089.45
959.075	4031.83
959.378	4030.02
959.682	4023.92
959.985	4019.4
960.289	3951.15
960.592	3963.58
960.896	3962
961.199	3925.84
961.502	3925.39
961.805	3944.6
962.108	3893.08
962.411	3863.25
962.714	3855.56
963.017	3848.11
963.32	3834.32
963.623	3779.63
963.926	3790.48
964.228	3773.98
964.531	3750.48
964.833	3755
965.136	3709.8
965.438	3731.27
965.741	3688.79
966.043	3648.34
966.345	3675.68
966.648	3638.84
966.95	3618.96
967.252	3575.57
967.554	3583.03
967.856	3534.67
968.158	3506.87
968.46	3552.52
968.761	3520.43
969.063	3496.93
969.365	3484.95
969.666	3441.34
969.968	3422.58
970.269	3405.4
970.571	3367.67
970.872	3391.62
971.174	3380.77
971.475	3361.34
971.776	3369.7
972.077	3354.56
972.378	3359.98
972.679	3350.27
972.98	3286.09
973.281	3290.83
973.582	3270.27
973.883	3260.1
974.183	3251.06
974.484	3204.05
974.785	3227.78
975.085	3222.13
975.386	3219.42
975.686	3149.59
975.986	3132.19
976.287	3166.77
976.587	3151.63
976.887	3114.79
977.187	3121.57
977.487	3081.57
977.787	3048.13
978.087	3076.83
978.387	3051.74
978.687	3042.93
978.987	3015.81
979.286	3034.34
979.586	2967.22
979.885	2972.42
980.185	3000.9
980.484	2973.55
980.784	2920.9
981.083	2964.06
981.382	2898.07
981.682	2902.82
981.981	2865.31
982.28	2871.18
982.579	2880.22
982.878	2877.28
983.177	2874.12
983.475	2822.6
983.774	2786.66
984.073	2837.28
984.372	2791.41
984.67	2742.82
984.969	2758.19
985.267	2771.98
985.566	2727.46
985.864	2735.37
986.162	2734.46
986.461	2722.48
986.759	2717.51
987.057	2683.62
987.355	2639.32
987.653	2639.55
987.951	2621.24
988.249	2625.31
988.547	2634.13
988.844	2638.19
989.142	2628.93
989.44	2544.18
989.737	2572.21
990.035	2551.87
990.332	2562.26
990.63	2582.6
990.927	2514.58
991.224	2498.31
991.521	2506.45
991.819	2494.24
992.116	2499.67
992.413	2456.96
992.71	2482.49
993.006	2485.65
993.303	2488.14
993.6	2407.69
993.897	2425.09
994.193	2383.74
994.49	2358.65
994.787	2378.99
995.083	2356.84
995.379	2342.61
995.676	2331.08
995.972	2321.59
996.268	2306.68
996.565	2325.89
996.861	2318.88
997.157	2279.11
997.453	2286.56
997.749	2258.54
998.044	2297.86
998.34	2224.42
998.636	2234.36
998.932	2226
999.227	2204.98
999.523	2209.96
999.818	2219.45
1000.114	2201.14
1000.409	2147.58
1000.704	2155.72
1001	2136.96
1001.295	2133.57
1001.59	2127.47
1001.885	2132.9
1002.18	2111.43
1002.475	2085.67
1002.77	2047.93
1003.065	2033.46
1003.359	2067.13
1003.654	2067.13
1003.949	2031.43
1004.243	1993.69
1004.538	2022.16
1004.832	2002.73
1005.127	2012.22
1005.421	1983.97
1005.715	1973.58
1006.009	1939.23
1006.304	1974.71
1006.598	1927.7
1006.892	1900.36
1007.186	1887.25
1007.48	1877.31
1007.773	1918.44
1008.067	1863.98
1008.361	1850.19
1008.655	1848.38
1008.948	1870.76
1009.242	1820.36
1009.535	1804.77
1009.829	1826.69
1010.122	1793.92
1010.415	1783.98
1010.708	1801.15
1011.001	1794.37
1011.295	1769.06
1011.588	1780.59
1011.881	1720.7
1012.173	1723.42
1012.466	1725.22
1012.759	1718.44
1013.052	1714.38
1013.344	1720.93
1013.637	1690.87
1013.93	1668.73
1014.222	1647.26
1014.514	1669.18
1014.807	1668.5
1015.099	1621.5
1015.391	1615.62
1015.683	1612.46
1015.976	1624.89
1016.268	1619.92
1016.56	1607.26
1016.851	1580.37
1017.143	1573.81
1017.435	1566.81
1017.727	1565.45
1018.018	1530.88
1018.31	1508.05
1018.602	1552.8
1018.893	1498.79
1019.185	1515.74
1019.476	1507.15
1019.767	1489.3
1020.058	1485.46
1020.35	1452.91
1020.641	1423.99
1020.932	1450.65
1021.223	1429.19
1021.514	1436.64
1021.804	1404.33
1022.095	1405.01
1022.386	1387.15
1022.677	1397.1
1022.967	1365.46
1023.258	1350.09
1023.548	1353.03
1023.839	1367.27
1024.129	1349.41
1024.419	1349.41
1024.709	1301.96
1025	1320.49
1025.29	1295.63
1025.58	1300.6
1025.87	1271.22
1026.16	1292.47
1026.449	1285.69
1026.739	1268.51
1027.029	1244.33
1027.319	1250.43
1027.608	1256.08
1027.898	1204.78
1028.187	1223.99
1028.477	1247.5
1028.766	1208.17
1029.055	1212.92
1029.344	1211.79
1029.634	1183.09
1029.923	1184.22
1030.212	1131.57
1030.501	1183.32
1030.79	1150.55
1031.078	1135.41
1031.367	1130.21
1031.656	1108.97
1031.945	1144.67
1032.233	1123.43
1032.522	1108.06
1032.81	1087.27
1033.099	1073.26
1033.387	1074.39
1033.675	1089.08
1033.963	1098.8
1034.251	1063.55
1034.54	1053.15
1034.828	1071.45
1035.116	1058.12
1035.403	1056.31
1035.691	1029.42
1035.979	1040.5
1036.267	1036.88
1036.554	1014.73
1036.842	1031.46
1037.129	998.46
1037.417	972.7
1037.704	1000.72
1037.992	978.8
1038.279	983.55
1038.566	982.87
1038.853	982.87
1039.14	982.87
