Data from hue_340_FLMS001491_40.txt Node
Date: Mon Feb 06 15:43:03 GMT 2017
User: dcchb
Spectrometer: FLMS00149
Trigger mode: 0
Integration Time (sec): 2.000000E-2
Scans to average: 10
Electric dark correction enabled: true
Nonlinearity correction enabled: false
Boxcar width: 0
XAxis mode: Wavelengths
Number of Pixels in Spectrum: 2048
>>>>>Begin Spectral Data<<<<<
341.393	-0.35
341.776	-0.35
342.16	-0.35
342.543	-36.51
342.927	-74.25
343.31	-50.75
343.693	-68.37
344.077	-59.56
344.46	-51.88
344.843	-57.3
345.226	-57.3
345.61	-32.89
345.993	-29.5
346.376	-8.26
346.759	-11.65
347.142	39.87
347.525	48.01
347.908	54.79
348.291	67.89
348.674	86.65
349.057	130.26
349.44	161.9
349.823	142.02
350.206	161.22
350.588	201
350.971	206.87
351.354	226.53
351.737	238.06
352.119	242.8
352.502	265.4
352.884	269.92
353.267	291.16
353.65	305.4
354.032	283.71
354.414	311.5
354.797	313.76
355.179	324.84
355.562	322.35
355.944	321.45
356.326	332.97
356.709	336.14
357.091	340.43
357.473	345.63
357.855	332.07
358.238	330.03
358.62	315.12
359.002	319.19
359.384	347.21
359.766	333.65
360.148	322.58
360.53	330.94
360.912	339.3
361.294	333.2
361.676	335.23
362.057	311.05
362.439	323.71
362.821	336.14
363.203	325.06
363.584	297.72
363.966	323.93
364.348	319.86
364.729	317.6
365.111	322.35
365.493	303.59
365.874	297.27
366.256	308.57
366.637	317.6
367.019	305.18
367.4	315.57
367.781	321.22
368.163	297.72
368.544	300.2
368.925	313.99
369.306	304.27
369.688	308.34
370.069	308.79
370.45	319.64
370.831	315.8
371.212	294.1
371.593	306.31
371.974	292.97
372.355	308.11
372.736	306.53
373.117	307.21
373.498	316.93
373.879	309.02
374.26	300.43
374.641	322.35
375.021	291.84
375.402	315.57
375.783	313.31
376.163	339.75
376.544	309.24
376.925	315.34
377.305	304.5
377.686	333.2
378.066	324.84
378.447	326.42
378.827	330.26
379.208	317.38
379.588	328.68
379.968	310.6
380.349	337.27
380.729	328.9
381.109	332.75
381.489	347.21
381.87	334.55
382.25	312.41
382.63	345.17
383.01	339.3
383.39	323.93
383.77	345.4
384.15	348.79
384.53	335.68
384.91	350.15
385.29	326.87
385.67	321.67
386.049	340.65
386.429	332.52
386.809	371.61
387.189	347.66
387.568	339.98
387.948	340.65
388.328	351.28
388.707	353.31
389.087	344.95
389.466	336.14
389.846	358.28
390.225	337.72
390.605	352.86
390.984	351.73
391.363	360.32
391.743	338.17
392.122	354.89
392.501	354.21
392.881	357.83
393.26	376.59
393.639	371.16
394.018	356.93
394.397	338.4
394.776	364.84
395.155	369.35
395.534	342.69
395.913	356.25
396.292	361.22
396.671	390.37
397.05	353.99
397.429	356.7
397.808	346.3
398.186	383.59
398.565	370.03
398.944	389.92
399.323	362.58
399.701	370.03
400.08	374.33
400.458	367.32
400.837	384.27
401.215	408.68
401.594	384.95
401.972	378.85
402.351	389.02
402.729	390.6
403.107	400.77
403.486	405.96
403.864	382.46
404.242	387.21
404.62	371.39
404.999	385.63
405.377	425.62
405.755	416.59
406.133	420.43
406.511	388.34
406.889	427.21
407.267	406.42
407.645	430.82
408.023	400.31
408.401	426.75
408.779	417.72
409.156	426.75
409.534	417.94
409.912	450.03
410.29	440.54
410.667	432.63
411.045	444.38
411.422	450.26
411.8	453.42
412.178	475.79
412.555	451.84
412.933	454.32
413.31	487.09
413.687	481.22
414.065	479.86
414.442	488.45
414.819	486.41
415.197	517.15
415.574	483.02
415.951	492.52
416.328	493.19
416.705	508.33
417.082	493.87
417.46	516.7
417.837	495.91
418.214	506.3
418.591	518.96
418.967	545.62
419.344	532.51
419.721	537.49
420.098	544.49
420.475	535.23
420.852	545.62
421.228	537.26
421.605	553.53
421.982	565.28
422.358	549.24
422.735	575.68
423.111	551.5
423.488	575
423.864	562.12
424.241	590.82
424.617	587.88
424.994	579.74
425.37	600.99
425.746	635.34
426.123	605.73
426.499	603.92
426.875	621.78
427.251	606.41
427.627	624.49
428.003	641.21
428.379	625.62
428.756	636.24
429.132	633.98
429.507	645.28
429.883	680.31
430.259	692.96
430.635	659.06
431.011	671.49
431.387	693.41
431.763	695.9
432.138	686.41
432.514	690.48
432.89	699.74
433.265	718.05
433.641	716.92
434.016	705.84
434.392	730.48
434.767	747.2
435.143	729.8
435.518	744.49
435.894	761.66
436.269	765.5
436.644	759.4
437.02	787.65
437.395	787.2
437.77	798.27
438.145	780.64
438.52	786.52
438.895	782
439.271	819.06
439.646	825.16
440.021	822.22
440.395	834.2
440.77	814.99
441.145	807.31
441.52	836.91
441.895	837.14
442.27	839.85
442.645	846.18
443.019	873.97
443.394	859.06
443.769	854.54
444.143	848.66
444.518	874.88
444.892	885.73
445.267	871.94
445.641	866.74
446.016	902.9
446.39	878.72
446.764	882.79
447.139	895.67
447.513	892.5
447.887	912.17
448.262	895.22
448.636	915.33
449.01	930.24
449.384	937.7
449.758	951.26
450.132	916.01
450.506	922.33
450.88	926.18
451.254	958.27
451.628	954.2
452.002	969.11
452.376	958.94
452.75	955.78
453.123	991.94
453.497	974.99
453.871	981.54
454.244	982.9
454.618	1009.11
454.992	1039.62
455.365	1017.7
455.739	1003.91
456.112	1024.93
456.486	1036.68
456.859	1049.56
457.232	1047.08
457.606	1020.41
457.979	1057.7
458.352	1063.57
458.725	1082.78
459.099	1087.08
459.472	1090.69
459.845	1115.55
460.218	1127.53
460.591	1120.52
460.964	1136.79
461.337	1135.44
461.71	1160.75
462.083	1157.81
462.456	1184.47
462.829	1188.77
463.201	1192.38
463.574	1193.06
463.947	1222.67
464.32	1225.83
464.692	1254.53
465.065	1234.64
465.438	1270.8
465.81	1248.2
466.183	1285.26
466.555	1317.58
466.928	1308.31
467.3	1323.68
467.672	1322.78
468.045	1343.34
468.417	1352.83
468.789	1373.4
469.161	1416.33
469.534	1412.94
469.906	1426.28
470.278	1428.31
470.65	1410.23
471.022	1438.93
471.394	1492.49
471.766	1480.06
472.138	1518.03
472.51	1542.43
472.882	1552.37
473.253	1574.75
473.625	1576.55
473.997	1604.8
474.369	1617.46
474.74	1630.34
475.112	1655.42
475.484	1680.28
475.855	1707.62
476.227	1703.56
476.598	1750.11
476.97	1775.65
477.341	1811.58
477.713	1793.72
478.084	1829.88
478.455	1854.97
478.827	1864.23
479.198	1909.88
479.569	1922.99
479.94	1964.79
480.311	2026.49
480.682	2045.24
481.053	2098.8
481.424	2094.96
481.795	2146.48
482.166	2157.1
482.537	2149.19
482.908	2202.3
483.279	2232.58
483.65	2234.39
484.021	2305.35
484.391	2284.33
484.762	2346.25
485.133	2365.69
485.503	2386.25
485.874	2445.68
486.244	2461.73
486.615	2486.14
486.985	2511.9
487.356	2547.15
487.726	2550.09
488.097	2649.97
488.467	2636.19
488.837	2686.13
489.207	2711.44
489.578	2744.89
489.948	2771.33
490.318	2774.04
490.688	2835.05
491.058	2840.25
491.428	2870.76
491.798	2901.27
492.168	2946.69
492.538	2965.44
492.908	3015.61
493.278	3025.1
493.648	3052.22
494.017	3072.79
494.387	3077.53
494.757	3129.28
495.126	3160.24
495.496	3145.55
495.866	3166.12
496.235	3224.87
496.605	3237.3
496.974	3246.34
497.344	3268.94
497.713	3300.8
498.082	3352.78
498.452	3339.67
498.821	3371.31
499.19	3370.41
499.559	3401.82
499.928	3457.64
500.298	3461.7
500.667	3405.21
501.036	3472.32
501.405	3561.14
501.774	3517.52
502.143	3549.84
502.512	3521.14
502.88	3554.36
503.249	3560.68
503.618	3583.73
503.987	3558.88
504.356	3629.61
504.724	3650.4
505.093	3642.04
505.462	3662.38
505.83	3691.3
506.199	3749.6
506.567	3773.56
506.936	3740.34
507.304	3800
507.672	3795.25
508.041	3793.67
508.409	3794.12
508.777	3806.55
509.145	3862.14
509.514	3882.71
509.882	3847.23
510.25	3844.97
510.618	3885.65
510.986	3909.6
511.354	3944.18
511.722	3934.01
512.09	4029.15
512.458	3959.77
512.826	3979.2
513.193	4001.12
513.561	3982.82
513.929	4001.35
514.297	4046.77
514.664	4071.18
515.032	4042.93
515.4	4090.39
515.767	4093.78
516.135	4191.85
516.502	4090.16
516.869	4175.58
517.237	4205.19
517.604	4146.66
517.972	4145.75
518.339	4181.46
518.706	4206.09
519.073	4228.46
519.44	4225.52
519.808	4279.53
520.175	4260.78
520.542	4282.47
520.909	4323.38
521.276	4259.2
521.643	4321.12
522.009	4369.02
522.376	4379.87
522.743	4351.62
523.11	4477.5
523.477	4453.32
523.843	4457.16
524.21	4497.16
524.577	4522.92
524.943	4521.34
525.31	4541.9
525.676	4595.91
526.043	4605.4
526.409	4569.47
526.776	4637.27
527.142	4656.93
527.508	4670.26
527.874	4693.76
528.241	4684.27
528.607	4720.2
528.973	4746.87
529.339	4771.95
529.705	4801.78
530.071	4838.16
530.437	4834.55
530.803	4857.82
531.169	4893.3
531.535	4892.63
531.901	4891.27
532.267	4950.03
532.632	4958.39
532.998	4966.52
533.364	5003.13
533.73	5020.53
534.095	5067.76
534.461	5085.84
534.826	5105.95
535.192	5153.18
535.557	5176.69
535.923	5148.21
536.288	5200.87
536.653	5167.87
537.019	5165.16
537.384	5239.96
537.749	5280.41
538.114	5224.14
538.479	5288.55
538.845	5253.52
539.21	5282.9
539.575	5365.38
539.94	5382.33
540.305	5371.71
540.67	5410.13
541.034	5393.86
541.399	5421.43
541.764	5439.5
542.129	5514.3
542.494	5492.16
542.858	5519.73
543.223	5533.29
543.587	5600.18
543.952	5554.3
544.316	5563.79
544.681	5666.84
545.045	5645.6
545.41	5708.42
545.774	5726.28
546.138	5686.28
546.503	5751.36
546.867	5706.62
547.231	5752.94
547.595	5794.97
547.959	5844.24
548.324	5847.63
548.688	5842.43
549.052	5882.43
549.416	5865.03
549.779	5885.82
550.143	5922.2
550.507	5898.25
550.871	5957.91
551.235	6004.23
551.599	6031.8
551.962	6036.1
552.326	6029.77
552.689	6021.18
553.053	6038.58
553.417	6079.26
553.78	6108.41
554.143	6111.35
554.507	6194.06
554.87	6139.6
555.234	6181.18
555.597	6186.6
555.96	6248.07
556.323	6261.63
556.686	6217.56
557.05	6318.58
557.413	6298.24
557.776	6340.05
558.139	6369.42
558.502	6316.77
558.865	6391.8
559.228	6392.7
559.59	6420.27
559.953	6420.95
560.316	6491.68
560.679	6539.14
561.041	6487.16
561.404	6563.99
561.767	6524.9
562.129	6568.74
562.492	6550.21
562.854	6572.36
563.217	6634.05
563.579	6669.75
563.941	6657.78
564.304	6720.6
564.666	6719.92
565.028	6794.72
565.39	6779.81
565.753	6785.68
566.115	6822.52
566.477	6806.02
566.839	6879.92
567.201	6893.93
567.563	6913.14
567.925	6949.52
568.287	6944.78
568.648	6998.11
569.01	6998.78
569.372	7096.18
569.734	7003.76
570.095	7094.15
570.457	7107.71
570.819	7168.05
571.18	7188.16
571.542	7212.56
571.903	7166.24
572.265	7267.25
572.626	7267.48
572.987	7367.36
573.349	7415.27
573.71	7433.12
574.071	7403.29
574.432	7479
574.794	7521.26
575.155	7690.97
575.516	7609.16
575.877	7691.42
576.238	7751.31
576.599	7821.59
576.96	7901.59
577.32	7931.87
577.681	8044.63
578.042	8133.9
578.403	8177.96
578.763	8237.17
579.124	8270.84
579.485	8433.55
579.845	8549.7
580.206	8560.1
580.566	8618.63
580.927	8780.21
581.287	8925.97
581.648	8974.33
582.008	9170.93
582.368	9229.01
582.728	9372.28
583.089	9502.22
583.449	9612.28
583.809	9861.99
584.169	9922.55
584.529	10030.8
584.889	10356.66
585.249	10443.21
585.609	10546.71
585.969	10765.24
586.329	10982.41
586.688	11174.27
587.048	11383.98
587.408	11479.12
587.768	11683.41
588.127	11875.72
588.487	12061.25
588.846	12371.07
589.206	12568.81
589.565	12746.2
589.925	13018.97
590.284	13229.58
590.643	13452.85
591.003	13825.5
591.362	13979.17
591.721	14236.56
592.08	14502.09
592.44	14698.7
592.799	15032.02
593.158	15299.81
593.517	15545.9
593.876	15740.93
594.235	16082.61
594.593	16344.53
594.952	16626.78
595.311	16871.29
595.67	17194.68
596.029	17537.49
596.387	17834.88
596.746	18179.96
597.104	18203.46
597.463	18517.58
597.822	18833.05
598.18	19027.17
598.538	19299.93
598.897	19723.42
599.255	19786.25
599.613	20383.07
599.972	20473.01
600.33	20747.35
600.688	20978.76
601.046	21223.27
601.404	21587.78
601.762	21858.51
602.12	22123.13
602.478	22439.06
602.836	22621.65
603.194	22739.61
603.552	23074.52
603.91	23179.38
604.268	23563.55
604.625	23801.73
604.983	24050.99
605.341	24206.02
605.698	24489.17
606.056	24808.94
606.413	25000.35
606.771	25180.23
607.128	25559.65
607.485	25568.24
607.843	25883.71
608.2	26227.66
608.557	26429.91
608.914	26487.76
609.272	26770.47
609.629	27110.8
609.986	27254.3
610.343	27325.93
610.7	27777
611.057	27730.67
611.414	27921.85
611.771	28215.18
612.127	28409.97
612.484	28576.75
612.841	28848.61
613.198	28934.03
613.554	29112.78
613.911	29306.22
614.267	29442.49
614.624	29523.16
614.98	29786.21
615.337	30039.99
615.693	30221.23
616.05	30311.39
616.406	30553.42
616.762	30594.55
617.118	30583.02
617.475	30867.08
617.831	31082.45
618.187	31204.48
618.543	31255.55
618.899	31628.87
619.255	31576.67
619.611	31688.31
619.967	31938.92
620.323	32032.48
620.678	32049.43
621.034	32102.76
621.39	32249.42
621.746	32223.43
622.101	32731.67
622.457	32508.85
622.812	32632.69
623.168	32887.6
623.523	32870.2
623.879	33171.88
624.234	32956.75
624.589	33187.25
624.945	33217.53
625.3	33454.36
625.655	33366.45
626.01	33505.88
626.365	33547.24
626.72	33517.18
627.075	33704.98
627.43	33614.13
627.785	33526.67
628.14	33780.91
628.495	33778.87
628.85	33730.74
629.205	33604.41
629.559	33998.07
629.914	33849.6
630.269	33879.66
630.623	34010.05
630.978	33933.44
631.332	34070.16
631.687	34189.26
632.041	34094.34
632.396	34250.05
632.75	34139.54
633.104	34191.06
633.459	34030.39
633.813	34233.1
634.167	34171.4
634.521	34240.1
634.875	34344.05
635.229	34379.08
635.583	34160.33
635.937	34325.75
636.291	34212.08
636.645	34235.58
636.999	34179.99
637.352	34143.61
637.706	34025.64
638.06	34370.04
638.413	34203.49
638.767	34262.25
639.121	34167.79
639.474	34025.87
639.828	34113.78
640.181	34168.01
640.534	34265.64
640.888	34050.5
641.241	34135.47
641.594	34101.12
641.947	34221.57
642.301	34164.85
642.654	34183.61
643.007	34140.22
643.36	34201.23
643.713	34055.25
644.066	34147.9
644.419	33927.79
644.771	33780
645.124	33643.06
645.477	33450.52
645.83	33241.26
646.182	33195.61
646.535	33056.4
646.888	33208.27
647.24	32926.46
647.593	33047.82
647.945	33003.07
648.298	33041.94
648.65	32969.85
649.002	32789.52
649.355	33073.35
649.707	32933.47
650.059	33018.67
650.411	33436.51
650.763	33565.09
651.115	33810.74
651.467	33680.34
651.819	33762.6
652.171	33604.86
652.523	33600.8
652.875	33667.24
653.227	33375.72
653.578	33767.57
653.93	33636.95
654.282	33516.28
654.633	33494.59
654.985	33538.2
655.337	33416.4
655.688	33502.72
656.039	33723.05
656.391	33322.16
656.742	33508.37
657.094	33402.61
657.445	33566.22
657.796	33504.53
658.147	33458.65
658.498	33413.46
658.849	33199.23
659.2	33465.43
659.551	33482.83
659.902	33560.8
660.253	33435.83
660.604	33556.05
660.955	33262.73
661.306	33426.34
661.656	33302.05
662.007	33434.02
662.358	33279.9
662.708	33396.73
663.059	33421.37
663.409	33109.96
663.76	33534.81
664.11	33301.37
664.461	33333.91
664.811	33271.31
665.161	33213.91
665.511	33117.42
665.862	33217.53
666.212	33329.62
666.562	33244.87
666.912	33307.92
667.262	33256.63
667.612	33120.81
667.962	33401.25
668.312	33175.05
668.662	33381.82
669.011	33239.68
669.361	33212.11
669.711	33130.3
670.06	33191.77
670.41	33126.91
670.76	33086.91
671.109	33249.17
671.459	33100.25
671.808	33083.07
672.157	33230.41
672.507	32973.47
672.856	33121.04
673.205	33009.63
673.554	33152.45
673.904	32915.17
674.253	33241.48
674.602	32897.54
674.951	32601.73
675.3	32337.78
675.649	33007.14
675.998	32887.37
676.346	32947.03
676.695	33058.21
677.044	32681.5
677.393	32720.59
677.741	32943.19
678.09	32784.32
678.438	32826.58
678.787	32810.76
679.135	32701.84
679.484	32626.59
679.832	32722.85
680.181	32545.23
680.529	32590.65
680.877	32453.93
681.225	32525.57
681.573	32704.78
681.922	32412.13
682.27	32424.78
682.618	32382.52
682.966	32225.24
683.314	32260.95
683.661	32278.8
684.009	32105.24
684.357	32049.2
684.705	31891.69
685.053	31999.94
685.4	31912.93
685.748	31771.01
686.095	31850.11
686.443	31776.66
686.79	31738.02
687.138	31801.75
687.485	31746.61
687.832	31692.82
688.18	31575.77
688.527	31483.79
688.874	31447.41
689.221	31413.51
689.568	31227.3
689.915	31272.27
690.262	31178.71
690.609	31187.08
690.956	31004.48
691.303	30901.43
691.65	30960.19
691.997	30804.71
692.344	30653.3
692.69	30700.08
693.037	30804.26
693.383	30447.89
693.73	30662.34
694.077	30334.22
694.423	30309.13
694.769	30219.19
695.116	30252.86
695.462	30163.6
695.808	29929.48
696.155	30214.9
696.501	29860.33
696.847	29865.3
697.193	29705.53
697.539	29835.7
697.885	29489.94
698.231	29452.21
698.577	29357.52
698.923	29353.45
699.269	29221.7
699.614	29083.4
699.96	29069.39
700.306	29082.72
700.651	28907.14
700.997	28897.87
701.342	28957.98
701.688	28852.45
702.033	28784.65
702.379	28862.62
702.724	28577.2
703.069	28675.28
703.415	28461.95
703.76	28490.42
704.105	28348.96
704.45	28250.43
704.795	28149.64
705.14	28084.33
705.485	28002.53
705.83	27907.16
706.175	27971.57
706.52	27912.36
706.865	27785.81
707.209	27822.19
707.554	27753.04
707.899	27701.07
708.243	27599.6
708.588	27532.93
708.932	27274.18
709.277	27348.31
709.621	27337.69
709.966	27219.95
710.31	27276.9
710.654	26970.92
710.998	27040.74
711.342	27026.51
711.687	26973.63
712.031	26901.76
712.375	26859.73
712.719	26779.51
713.063	26718.49
713.407	26840.52
713.75	26510.14
714.094	26662.45
714.438	26441.44
714.782	26593.3
715.125	26365.51
715.469	26499.74
715.812	26369.58
716.156	26161.9
716.499	26129.13
716.843	26222.91
717.186	25980.21
717.53	26205.74
717.873	26099.53
718.216	25980.43
718.559	25947.44
718.902	25747.44
719.246	25931.85
719.589	25762.59
719.932	25781.79
720.275	25702.02
720.617	25668.12
720.96	25626.54
721.303	25560.33
721.646	25567.11
721.989	25443.27
722.331	25511.97
722.674	25346.55
723.016	25495.7
723.359	25282.37
723.701	25308.36
724.044	25195.14
724.386	25147.91
724.729	25249.83
725.071	25093.68
725.413	25094.81
725.755	25167.35
726.097	24969.39
726.439	24881.93
726.782	24863.63
727.124	24981.81
727.465	24834.47
727.807	24863.63
728.149	24691.2
728.491	24677.42
728.833	24733.46
729.175	24524.2
729.516	24651.65
729.858	24552
730.199	24556.97
730.541	24560.13
730.882	24528.04
731.224	24488.04
731.565	24398.78
731.906	24356.97
732.248	24444.65
732.589	24300.48
732.93	24220.48
733.271	24266.58
733.612	24285.79
733.953	24212.12
734.294	24135.28
734.635	24102.52
734.976	24129.41
735.317	24077.88
735.658	24003.76
735.999	24030.65
736.339	23996.08
736.68	24053.25
737.021	23901.17
737.361	23949.75
737.702	23973.71
738.042	23888.28
738.383	23874.5
738.723	23814.16
739.063	23722.64
739.404	23765.8
739.744	23657.1
740.084	23597.67
740.424	23571.68
740.764	23577.56
741.104	23646.93
741.444	23408.3
741.784	23450.78
742.124	23455.3
742.464	23391.35
742.804	23347.51
743.143	23310.22
743.483	23320.62
743.823	23189.77
744.162	23182.31
744.502	23335.08
744.841	23134.86
745.181	23267.96
745.52	23130.79
745.86	23118.14
746.199	23039.27
746.538	22875.88
746.877	23045.37
747.216	23015.54
747.556	22931.93
747.895	22943.68
748.234	22846.28
748.573	22762.66
748.911	22819.39
749.25	22810.8
749.589	22719.73
749.928	22769.22
750.267	22745.26
750.605	22707.52
750.944	22634.53
751.283	22559.73
751.621	22609
751.96	22455.78
752.298	22584.82
752.636	22436.57
752.975	22396.57
753.313	22314.31
753.651	22430.47
753.989	22231.6
754.327	22162.91
754.666	22062.34
755.004	22121.33
755.342	22078.84
755.679	21984.61
756.017	21971.5
756.355	21992.51
756.693	21864.38
757.031	21903.03
757.368	21700.55
757.706	21720.88
758.044	21754.78
758.381	21715.01
758.719	21524.5
759.056	21614.67
759.394	21496.93
759.731	21499.65
760.068	21431.4
760.405	21235.47
760.743	21197.28
761.08	21270.05
761.417	21131.52
761.754	21094.46
762.091	20975.82
762.428	21060.11
762.765	20821.02
763.102	20881.58
763.438	20720.01
763.775	20649.27
764.112	20642.04
764.449	20661.25
764.785	20599.56
765.122	20480.46
765.458	20356.4
765.795	20361.37
766.131	20347.13
766.467	20294.48
766.804	20165.9
767.14	20068.05
767.476	20151.89
767.812	20008.61
768.148	20020.14
768.485	19948.27
768.821	19803.65
769.157	19765.45
769.492	19669.86
769.828	19716.42
770.164	19527.95
770.5	19504.67
770.836	19404.33
771.171	19347.61
771.507	19296.54
771.842	19173.61
772.178	19145.13
772.513	19064
772.849	19045.93
773.184	19003.22
773.519	18965.7
773.855	18900.17
774.19	18803.67
774.525	18672.6
774.86	18687.07
775.195	18685.48
775.53	18609.55
775.865	18451.59
776.2	18294.31
776.535	18242.33
776.87	18261.09
777.205	18118.27
777.539	18001.89
777.874	18092.28
778.209	17925.05
778.543	17870.59
778.878	17792.63
779.212	17859.06
779.547	17639.18
779.881	17673.76
780.215	17566.64
780.55	17625.62
780.884	17449.13
781.218	17458.17
781.552	17511.05
781.886	17418.85
782.22	17223.6
782.554	17260.66
782.888	17082.59
783.222	16985.64
783.556	16949.71
783.889	16847.11
784.223	16730.05
784.557	16770.28
784.89	16757.4
785.224	16698.42
785.557	16608.48
785.891	16520.79
786.224	16529.16
786.558	16502.94
786.891	16293.23
787.224	16305.43
787.557	16162.61
787.891	16298.65
788.224	16116.96
788.557	16114.7
788.89	16057.53
789.223	15987.25
789.556	15868.38
789.888	15808.72
790.221	15790.19
790.554	15803.98
790.887	15710.65
791.219	15693.47
791.552	15644.43
791.884	15553.36
792.217	15538.67
792.549	15414.61
792.882	15378.45
793.214	15290.09
793.546	15301.39
793.879	15182.98
794.211	15133.26
794.543	15203.54
794.875	15105.01
795.207	15183.2
795.539	15031.79
795.871	15052.58
796.203	14912.7
796.535	14849.2
796.867	14909.76
797.198	14665.02
797.53	14700.5
797.862	14604.01
798.193	14652.59
798.525	14538.7
798.856	14522.43
799.188	14385.94
799.519	14467.52
799.85	14230.69
800.182	14297.8
800.513	14240.85
800.844	14210.8
801.175	14213.96
801.506	14160.4
801.837	14069.79
802.168	13988.43
802.499	14090.12
802.83	13975.1
803.161	13925.38
803.491	13924.25
803.822	13915.89
804.153	13804.71
804.483	13686.74
804.814	13624.37
805.145	13624.15
805.475	13662.56
805.805	13547.99
806.136	13564.04
806.466	13595.9
806.796	13481.78
807.126	13357.49
807.457	13410.14
807.787	13427.54
808.117	13278.62
808.447	13251.73
808.777	13303.93
809.107	13247.43
809.436	13237.49
809.766	13099.87
810.096	13132.86
810.426	13080.43
810.755	13150.71
811.085	13043.6
811.414	13067.55
811.744	12953.88
812.073	12896.26
812.403	12802.47
812.732	12834.11
813.061	12779.2
813.39	12634.57
813.719	12755.02
814.049	12835.92
814.378	12689.26
814.707	12611.07
815.036	12646.77
815.365	12585.98
815.693	12496.95
816.022	12492.43
816.351	12442.03
816.68	12352.32
817.008	12421.02
817.337	12320.23
817.665	12266.44
817.994	12306.22
818.322	12319.77
818.651	12234.35
818.979	12179.21
819.307	12210.63
819.636	12265.54
819.964	12068.71
820.292	12174.47
820.62	12138.08
820.948	12066.9
821.276	12142.6
821.604	12018.54
821.932	12053.57
822.259	12068.03
822.587	12100.12
822.915	12127.69
823.243	12064.41
823.57	11949.62
823.898	12031.19
824.225	12001.37
824.553	11962.72
824.88	11944.42
825.207	11989.61
825.535	11947.58
825.862	12032.55
826.189	11922.27
826.516	11994.81
826.843	12071.42
827.17	12066.67
827.497	12009.05
827.824	12057.41
828.151	12021.7
828.478	12052.21
828.805	12035.04
829.131	11976.28
829.458	11929.05
829.785	12023.29
830.111	11906.9
830.438	12017.18
830.764	12015.83
831.09	11999.33
831.417	11911.2
831.743	11939.45
832.069	11944.87
832.395	11895.15
832.722	11933.34
833.048	11901.03
833.374	11840.47
833.7	11810.41
834.026	11909.16
834.351	11960.01
834.677	11788.72
835.003	11866.23
835.329	11801.82
835.654	11793.69
835.98	11770.64
836.306	11738.55
836.631	11766.57
836.956	11779.45
837.282	11717.76
837.607	11703.52
837.932	11644.54
838.258	11689.74
838.583	11632.79
838.908	11524.09
839.233	11653.13
839.558	11589.4
839.883	11616.06
840.208	11529.51
840.533	11527.71
840.858	11560.25
841.182	11484.32
841.507	11477.31
841.832	11358.22
842.156	11379.46
842.481	11422.85
842.805	11369.97
843.13	11336.75
843.454	11292.23
843.778	11232.12
844.103	11242.29
844.427	11266.92
844.751	11261.27
845.075	11119.81
845.399	11180.14
845.723	11117.09
846.047	11085.91
846.371	11069.41
846.695	11026.48
847.019	10914.61
847.343	10818.35
847.666	10833.71
847.99	10702.64
848.313	10814.5
848.637	10709.42
848.96	10662.19
849.284	10708.29
849.607	10539.93
849.931	10526.15
850.254	10469.88
850.577	10431.24
850.9	10277.57
851.223	10343.1
851.546	10376.1
851.869	10233.5
852.192	10274.4
852.515	10211.58
852.838	10182.2
853.161	10149.66
853.483	10101.75
853.806	10101.53
854.129	10061.53
854.451	9983.11
854.774	9959.61
855.096	9911.02
855.419	9922.55
855.741	9873.51
856.063	9787.41
856.385	9840.07
856.708	9725.72
857.03	9765.94
857.352	9736.79
857.674	9711.03
857.996	9633.97
858.318	9556.46
858.64	9640.3
858.961	9558.27
859.283	9579.28
859.605	9518.72
859.926	9450.25
860.248	9520.53
860.57	9454.99
860.891	9457.93
861.212	9412.51
861.534	9351.27
861.855	9405.73
862.176	9384.48
862.498	9412.05
862.819	9354.88
863.14	9308.78
863.461	9209.35
863.782	9249.8
864.103	9264.94
864.424	9214.32
864.745	9229.23
865.065	9228.56
865.386	9234.43
865.707	9161.44
866.027	9173.64
866.348	9131.16
866.668	9094.32
866.989	9110.59
867.309	8999.86
867.63	9073.08
867.95	9024.72
868.27	9007.55
868.59	9012.74
868.91	9021.33
869.23	8988.56
869.55	8971.61
869.87	8941.33
870.19	8914.67
870.51	8967.09
870.83	8897.49
871.15	8876.93
871.469	8875.12
871.789	8922.35
872.109	8883.48
872.428	8809.81
872.748	8836.7
873.067	8777.27
873.386	8798.06
873.706	8791.73
874.025	8752.41
874.344	8672.87
874.663	8753.99
874.982	8653.66
875.301	8709.7
875.62	8630.83
875.939	8688.23
876.258	8655.92
876.577	8640.1
876.896	8617.5
877.214	8557.16
877.533	8636.48
877.852	8575.92
878.17	8626.31
878.489	8583.38
878.807	8530.72
879.125	8509.71
879.444	8511.06
879.762	8514.68
880.08	8439.88
880.398	8405.98
880.716	8470.84
881.034	8460.22
881.352	8486.88
881.67	8355.13
881.988	8482.14
882.306	8427
882.624	8326.21
882.941	8325.76
883.259	8227.91
883.577	8262.48
883.894	8244.4
884.212	8245.76
884.529	8196.72
884.846	8169.15
885.164	8188.58
885.481	8195.59
885.798	8222.48
886.115	8103.16
886.432	8095.03
886.75	7985.43
887.067	8021.13
887.383	8050.06
887.7	8073.78
888.017	7987.46
888.334	8016.39
888.651	7996.95
888.967	7938.42
889.284	7932.55
889.6	7843.28
889.917	7836.95
890.233	7837.63
890.55	7852.32
890.866	7809.84
891.182	7840.8
891.498	7790.18
891.815	7681.7
892.131	7689.84
892.447	7746.79
892.763	7698.2
893.079	7717.64
893.395	7638.32
893.71	7598.54
894.026	7664.08
894.342	7605.32
894.657	7530.75
894.973	7526.68
895.289	7478.77
895.604	7512.44
895.92	7408.72
896.235	7441.71
896.55	7388.15
896.865	7386.57
897.181	7358.78
897.496	7361.49
897.811	7320.36
898.126	7324.88
898.441	7269.06
898.756	7339.57
899.071	7207.82
899.386	7229.97
899.7	7128.05
900.015	7134.37
900.33	7065.45
900.644	7124.88
900.959	7096.86
901.273	7024.32
901.588	7012.57
901.902	6989.97
902.216	6965.11
902.531	6970.76
902.845	6935.28
903.159	6903.19
903.473	6812.8
903.787	6858
904.101	6802.63
904.415	6778.45
904.729	6790.43
905.042	6719.7
905.356	6674.27
905.67	6700.04
905.984	6674.05
906.297	6617.78
906.611	6614.84
906.924	6628.17
907.237	6584.11
907.551	6567.84
907.864	6569.64
908.177	6495.97
908.491	6472.7
908.804	6474.05
909.117	6418.69
909.43	6352.93
909.743	6382.53
910.056	6337.33
910.368	6341.63
910.681	6328.75
910.994	6266.6
911.307	6235.19
911.619	6200.16
911.932	6250.78
912.244	6179.37
912.557	6173.27
912.869	6137.11
913.181	6104.12
913.494	6083.1
913.806	6050.56
914.118	6014.86
914.43	5981.18
914.742	6008.08
915.054	5931.47
915.366	5955.65
915.678	5904.58
915.99	5865.48
916.302	5841.53
916.613	5863
916.925	5842.43
917.236	5792.26
917.548	5729.89
917.859	5805.6
918.171	5755.43
918.482	5732.83
918.794	5669.33
919.105	5687.63
919.416	5566.96
919.727	5631.14
920.038	5558.37
920.349	5573.74
920.66	5506.85
920.971	5521.31
921.282	5475.66
921.593	5440.18
921.903	5420.97
922.214	5402.44
922.525	5368.32
922.835	5386.4
923.146	5325.16
923.456	5319.96
923.767	5329
924.077	5295.1
924.387	5257.81
924.697	5236.57
925.008	5217.14
925.318	5168.32
925.628	5214.43
925.938	5149.57
926.248	5117.93
926.558	5085.61
926.867	5118.83
927.177	5099.85
927.487	5012.62
927.796	5005.84
928.106	5008.1
928.416	4983.47
928.725	4986.86
929.034	4969.69
929.344	4911.83
929.653	4921.1
929.962	4867.54
930.271	4875.68
930.581	4848.11
930.89	4823.02
931.199	4754.78
931.508	4733.08
931.817	4754.78
932.125	4723.82
932.434	4718.84
932.743	4664.38
933.051	4609.24
933.36	4656.02
933.669	4636.59
933.977	4613.99
934.286	4595.68
934.594	4580.09
934.902	4552.07
935.21	4544.61
935.519	4551.62
935.827	4506.87
936.135	4462.81
936.443	4439.76
936.751	4439.98
937.059	4440.89
937.367	4390.94
937.674	4438.85
937.982	4365.18
938.29	4351.17
938.597	4351.4
938.905	4297.84
939.213	4283.38
939.52	4262.81
939.827	4295.13
940.135	4246.54
940.442	4163.15
940.749	4183.49
941.056	4155.92
941.363	4138.97
941.67	4177.39
941.977	4101.01
942.284	4099.2
942.591	4145.3
942.898	4102.36
943.205	4104.4
943.511	4039.99
943.818	4058.75
944.125	3993.89
944.431	3972.42
944.738	4004.51
945.044	3956.83
945.35	3873.44
945.657	3934.23
945.963	3916.61
946.269	3866.44
946.575	3873.67
946.881	3872.54
947.187	3835.93
947.493	3825.76
947.799	3811.52
948.105	3815.59
948.41	3788.47
948.716	3787.57
949.022	3765.2
949.327	3780.56
949.633	3694.69
949.938	3738.31
950.244	3653.56
950.549	3623.51
950.854	3643.84
951.16	3656.5
951.465	3630.96
951.77	3613.34
952.075	3582.15
952.38	3615.82
952.685	3572.21
952.99	3525.43
953.294	3524.75
953.599	3557.97
953.904	3507.35
954.209	3519.33
954.513	3497.18
954.818	3478.65
955.122	3473
955.426	3423.06
955.731	3422.83
956.035	3392.1
956.339	3418.31
956.643	3365.43
956.948	3367.47
957.252	3345.55
957.556	3339.9
957.86	3303.06
958.163	3323.85
958.467	3293.12
958.771	3265.1
959.075	3249.73
959.378	3240.47
959.682	3162.5
959.985	3211.77
960.289	3203.63
960.592	3204.31
960.896	3205.21
961.199	3167.47
961.502	3124.08
961.805	3154.37
962.108	3113.46
962.411	3122.73
962.714	3122.05
963.017	3099.68
963.32	3068.72
963.623	3077.53
963.926	3032.11
964.228	3031.43
964.531	3018.32
964.833	3003.64
965.136	2983.07
965.438	2981.49
965.741	2973.35
966.043	2971.77
966.345	2970.64
966.648	2922.28
966.95	2927.48
967.252	2910.3
967.554	2870.98
967.856	2892.9
968.158	2840.7
968.46	2854.71
968.761	2842.96
969.063	2821.95
969.365	2817.65
969.666	2814.49
969.968	2802.74
970.269	2779.23
970.571	2756.18
970.872	2741.72
971.174	2747.37
971.475	2744.21
971.776	2724.32
972.077	2714.6
972.378	2660.14
972.679	2691.33
972.98	2717.09
973.281	2685.9
973.582	2666.92
973.883	2663.08
974.183	2656.3
974.484	2637.77
974.785	2594.15
975.085	2598.22
975.386	2585.34
975.686	2589.41
975.986	2569.75
976.287	2582.86
976.587	2547.83
976.887	2561.16
977.187	2531.78
977.487	2534.95
977.787	2509.86
978.087	2499.02
978.387	2499.92
978.687	2467.38
978.987	2465.8
979.286	2467.15
979.586	2449.3
979.885	2388.51
980.185	2421.05
980.484	2400.04
980.784	2394.16
981.083	2407.72
981.382	2363.88
981.682	2342.64
981.981	2382.64
982.28	2363.88
982.579	2309.87
982.878	2335.86
983.177	2316.2
983.475	2335.18
983.774	2295.86
984.073	2282.07
984.372	2276.2
984.67	2269.42
984.969	2261.73
985.267	2239.81
985.566	2231.45
985.864	2200.72
986.162	2233.49
986.461	2229.42
986.759	2205.01
987.057	2167.05
987.355	2154.62
987.653	2160.95
987.951	2116.88
988.249	2141.74
988.547	2122.98
988.844	2145.35
989.142	2117.56
989.44	2103.09
989.737	2133.38
990.035	2106.03
990.332	2075.07
990.63	2072.81
990.927	2088.18
991.224	2025.81
991.521	2032.81
991.819	2024.9
992.116	2025.58
992.413	2038.69
992.71	2040.5
993.006	2002.76
993.303	1983.78
993.6	1993.04
993.897	1954.4
994.193	1961.63
994.49	1989.43
994.787	1927.73
995.083	1935.64
995.379	1945.13
995.676	1900.61
995.972	1910.78
996.268	1885.7
996.565	1904.23
996.861	1882.31
997.157	1888.64
997.453	1866.26
997.749	1862.42
998.044	1848.19
998.34	1833.5
998.636	1845.93
998.932	1824.91
999.227	1817
999.523	1831.92
999.818	1807.51
1000.114	1784.23
1000.409	1772.03
1000.704	1759.83
1001	1749.88
1001.295	1780.62
1001.59	1766.38
1001.885	1729.54
1002.18	1733.61
1002.475	1706.95
1002.77	1728.87
1003.065	1713.73
1003.359	1677.57
1003.654	1697.23
1003.949	1712.37
1004.243	1664.46
1004.538	1694.07
1004.832	1662.43
1005.127	1633.95
1005.421	1631.69
1005.715	1615.88
1006.009	1607.51
1006.304	1605.03
1006.598	1588.76
1006.892	1590.11
1007.186	1559.83
1007.48	1561.87
1007.773	1576.33
1008.067	1566.61
1008.361	1546.05
1008.655	1523
1008.948	1544.47
1009.242	1513.73
1009.535	1496.78
1009.829	1515.31
1010.122	1527.52
1010.415	1481.87
1010.708	1509.89
1011.001	1484.13
1011.295	1462.66
1011.588	1459.5
1011.881	1455.65
1012.173	1452.04
1012.466	1441.42
1012.759	1419.04
1013.052	1411.36
1013.344	1430.12
1013.637	1398.71
1013.93	1385.37
1014.222	1406.16
1014.514	1383.34
1014.807	1382.44
1015.099	1371.14
1015.391	1362.1
1015.683	1355.09
1015.976	1351.7
1016.268	1316.22
1016.56	1338.82
1016.851	1284.81
1017.143	1311.48
1017.435	1317.8
1017.727	1311.25
1018.018	1310.35
1018.31	1283.91
1018.602	1257.92
1018.893	1287.97
1019.185	1275.77
1019.476	1233.29
1019.767	1245.49
1020.058	1261.31
1020.35	1228.54
1020.641	1210.24
1020.932	1188.54
1021.223	1200.52
1021.514	1220.86
1021.804	1189.9
1022.095	1181.99
1022.386	1196.23
1022.677	1178.82
1022.967	1168.66
1023.258	1150.58
1023.548	1153.97
1023.839	1115.1
1024.129	1134.08
1024.419	1128.66
1024.709	1120.75
1025	1115.32
1025.29	1089.34
1025.58	1108.54
1025.87	1086.62
1026.16	1083.23
1026.449	1098.6
1026.739	1067.64
1027.029	1061.54
1027.319	1053.4
1027.608	1095.44
1027.898	1052.27
1028.187	1035.33
1028.477	1038.94
1028.766	1043.69
1029.055	1021.99
1029.344	1003.46
1029.634	999.17
1029.923	1012.73
1030.212	1011.6
1030.501	979.96
1030.79	991.03
1031.078	994.42
1031.367	957.36
1031.656	961.2
1031.945	970.69
1032.233	946.97
1032.522	932.96
1032.81	943.12
1033.099	929.11
1033.387	957.59
1033.675	925.5
1033.963	931.6
1034.251	915.33
1034.54	892.96
1034.828	890.24
1035.116	898.83
1035.403	887.76
1035.691	907.19
1035.979	856.12
1036.267	891.83
1036.554	881.66
1036.842	856.57
1037.129	897.02
1037.417	862.68
1037.704	826.97
1037.992	840.08
1038.279	843.01
1038.566	836.91
1038.853	836.91
1039.14	836.91
