Data from hue_300_FLMS001491_00052.txt Node
Date: Tue Feb 07 15:50:54 GMT 2017
User: dcchb
Spectrometer: FLMS00149
Trigger mode: 0
Integration Time (sec): 2.000000E-2
Scans to average: 10
Electric dark correction enabled: true
Nonlinearity correction enabled: false
Boxcar width: 0
XAxis mode: Wavelengths
Number of Pixels in Spectrum: 2048
>>>>>Begin Spectral Data<<<<<
341.393	-8.47
341.776	-8.47
342.16	-8.47
342.543	-50.51
342.927	-78.75
343.31	-69.49
343.693	-74.69
344.077	-69.04
344.46	-46.67
344.843	-35.82
345.226	-65.87
345.61	-11.64
345.993	-18.19
346.376	-11.86
346.759	4.86
347.142	30.85
347.525	45.76
347.908	70.85
348.291	78.53
348.674	86.44
349.057	85.99
349.44	113.33
349.823	143.84
350.206	159.66
350.588	185.64
350.971	172.54
351.354	220.9
351.737	241.69
352.119	222.03
352.502	242.82
352.884	263.61
353.267	275.59
353.65	276.49
354.032	289.37
354.414	301.8
354.797	325.53
355.179	292.08
355.562	311.07
355.944	311.52
356.326	328.92
356.709	322.82
357.091	326.66
357.473	330.05
357.855	336.6
358.238	318.07
358.62	332.08
359.002	338.86
359.384	343.61
359.766	356.26
360.148	320.33
360.53	332.31
360.912	301.12
361.294	327.79
361.676	324.62
362.057	332.76
362.439	315.36
362.821	327.11
363.203	319.2
363.584	314.91
363.966	304.74
364.348	342.93
364.729	316.49
365.111	322.14
365.493	296.6
365.874	326.88
366.256	325.08
366.637	319.43
367.019	318.75
367.4	301.8
367.781	315.58
368.163	307.9
368.544	300.9
368.925	300.9
369.306	299.09
369.688	299.77
370.069	293.66
370.45	323.04
370.831	299.77
371.212	291.18
371.593	330.27
371.974	315.36
372.355	293.89
372.736	284.85
373.117	308.35
373.498	304.74
373.879	311.97
374.26	320.78
374.641	299.77
375.021	325.98
375.402	330.73
375.783	313.33
376.163	312.42
376.544	304.06
376.925	311.29
377.305	316.94
377.686	321.91
378.066	311.52
378.447	324.4
378.827	323.95
379.208	328.47
379.588	327.79
379.968	339.31
380.349	323.27
380.729	319.88
381.109	336.38
381.489	330.05
381.87	342.02
382.25	341.57
382.63	310.16
383.01	332.99
383.39	323.95
383.77	338.41
384.15	346.09
384.53	343.38
384.91	345.19
385.29	338.18
385.67	333.89
386.049	339.54
386.429	342.25
386.809	346.77
387.189	333.21
387.568	346.32
387.948	351.29
388.328	337.96
388.707	350.84
389.087	359.43
389.466	344.06
389.846	378.63
390.225	348.35
390.605	379.76
390.984	344.28
391.363	373.21
391.743	367.79
392.122	350.39
392.501	367.33
392.881	372.76
393.26	369.14
393.639	372.08
394.018	366.88
394.397	384.74
394.776	371.4
395.155	364.85
395.534	378.18
395.913	405.75
396.292	381.35
396.671	389.71
397.05	385.87
397.429	393.1
397.808	395.58
398.186	389.71
398.565	384.28
398.944	401.68
399.323	384.06
399.701	390.39
400.08	420.89
400.458	390.61
400.837	389.48
401.215	394
401.594	400.55
401.972	444.4
402.351	419.31
402.729	426.77
403.107	419.99
403.486	406.88
403.864	419.99
404.242	428.35
404.62	437.16
404.999	420.89
405.377	431.51
405.755	431.51
406.133	438.75
406.511	460.21
406.889	466.09
407.267	464.28
407.645	474.68
408.023	476.94
408.401	479.65
408.779	506.31
409.156	490.72
409.534	488.24
409.912	496.6
410.29	507.22
410.667	514.68
411.045	504.73
411.422	513.32
411.8	539.31
412.178	539.53
412.555	530.27
412.933	561.68
413.31	580.66
413.687	570.27
414.065	593.09
414.442	561.45
414.819	594.9
415.197	583.15
415.574	608.01
415.951	614.56
416.328	614.56
416.705	631.28
417.082	650.27
417.46	647.33
417.837	661.11
418.214	679.42
418.591	664.95
418.967	667.67
419.344	693.65
419.721	692.07
420.098	698.85
420.475	701.34
420.852	725.52
421.228	709.25
421.605	730.72
421.982	739.08
422.358	733.65
422.735	749.47
423.111	745.86
423.488	773.65
423.864	775.46
424.241	806.42
424.617	804.16
424.994	824.05
425.37	811.17
425.746	814.55
426.123	840.54
426.499	853.42
426.875	855.91
427.251	854.33
427.627	898.17
428.003	863.14
428.379	888.45
428.756	906.08
429.132	938.17
429.507	954.89
429.883	940.88
430.259	954.44
430.635	965.74
431.011	952.86
431.387	979.3
431.763	991.73
432.138	999.86
432.514	1033.53
432.89	1008.45
433.265	1039.18
433.641	1063.14
434.016	1057.03
434.392	1056.36
434.767	1089.35
435.143	1057.26
435.518	1113.76
435.894	1127.54
436.269	1114.89
436.644	1148.56
437.02	1144.49
437.395	1158.27
437.77	1187.2
438.145	1207.99
438.52	1188.56
438.895	1218.84
439.271	1191.95
439.646	1219.29
440.021	1247.99
440.395	1245.96
440.77	1237.82
441.145	1246.86
441.52	1283.02
441.895	1266.52
442.27	1267.42
442.645	1290.7
443.019	1261.77
443.394	1285.95
443.769	1294.32
444.143	1282.34
444.518	1296.35
444.892	1287.54
445.267	1296.35
445.641	1324.6
446.016	1333.41
446.39	1390.36
446.764	1326.41
447.139	1322.34
447.513	1341.09
447.887	1342.22
448.262	1347.42
448.636	1344.26
449.01	1375.22
449.384	1393.07
449.758	1358.95
450.132	1405.73
450.506	1389.45
450.88	1406.4
451.254	1361.89
451.628	1421.77
452.002	1428.55
452.376	1442.79
452.75	1434.88
453.123	1429.45
453.497	1436.23
453.871	1447.31
454.244	1511.49
454.618	1472.39
454.992	1504.48
455.365	1493.41
455.739	1522.56
456.112	1540.19
456.486	1530.02
456.859	1514.88
457.232	1558.26
457.606	1551.94
457.979	1563.46
458.352	1558.94
458.725	1590.35
459.099	1618.38
459.472	1611.14
459.845	1640.3
460.218	1649.56
460.591	1643.23
460.964	1647.75
461.337	1678.94
461.71	1692.27
462.083	1711.71
462.456	1702.22
462.829	1667.19
463.201	1716.68
463.574	1722.78
463.947	1719.16
464.32	1780.18
464.692	1787.41
465.065	1796.45
465.438	1813.62
465.81	1798.48
466.183	1810.23
466.555	1840.97
466.928	1867.86
467.3	1860.86
467.672	1847.3
468.045	1934.98
468.417	1922.1
468.789	1910.35
469.161	1942.21
469.534	1932.49
469.906	1983.79
470.278	2004.58
470.65	2021.75
471.022	2033.05
471.394	2050.91
471.766	2073.73
472.138	2057.23
472.51	2123.9
472.882	2160.28
473.253	2170.23
473.625	2135.88
473.997	2198.93
474.369	2198.47
474.74	2198.02
475.112	2214.29
475.484	2267.85
475.855	2285.02
476.227	2303.33
476.598	2337.23
476.97	2334.97
477.341	2371.8
477.713	2379.03
478.084	2386.04
478.455	2454.96
478.827	2449.31
479.198	2493.38
479.569	2477.79
479.94	2544.45
480.311	2583.1
480.682	2616.09
481.053	2616.54
481.424	2659.25
481.795	2666.71
482.166	2688.4
482.537	2692.02
482.908	2755.29
483.279	2778.12
483.65	2773.37
484.021	2843.43
484.391	2874.39
484.762	2886.82
485.133	2894.5
485.503	2889.08
485.874	2993.93
486.244	2978.34
486.615	3012.24
486.985	3046.36
487.356	3029.64
487.726	3103.31
488.097	3174.27
488.467	3129.52
488.837	3202.06
489.207	3215.85
489.578	3228.05
489.948	3253.13
490.318	3277.54
490.688	3297.65
491.058	3342.62
491.428	3364.09
491.798	3363.41
492.168	3416.75
492.538	3440.25
492.908	3444.77
493.278	3483.64
493.648	3486.12
494.017	3520.7
494.387	3521.38
494.757	3562.51
495.126	3610.64
495.496	3557.08
495.866	3599.57
496.235	3638.66
496.605	3670.75
496.974	3665.55
497.344	3653.58
497.713	3701.03
498.082	3715.95
498.452	3719.79
498.821	3720.02
499.19	3707.36
499.559	3780.8
499.928	3778.54
500.298	3772.9
500.667	3835.04
501.036	3814.02
501.405	3824.42
501.774	3856.28
502.143	3877.3
502.512	3877.53
502.88	3866
503.249	3912.55
503.618	3903.06
503.987	3955.49
504.356	3934.25
504.724	3963.85
505.093	3924.76
505.462	4000.23
505.83	4000.69
506.199	3982.38
506.567	4046.56
506.936	4006.11
507.304	4023.74
507.672	4077.07
508.041	4070.51
508.409	4098.76
508.777	4067.58
509.145	4150.51
509.514	4125.43
509.882	4126.33
510.25	4153
510.618	4187.12
510.986	4161.81
511.354	4209.04
511.722	4218.76
512.09	4249.72
512.458	4201.81
512.826	4249.04
513.193	4214.47
513.561	4270.51
513.929	4276.61
514.297	4305.54
514.664	4288.36
515.032	4352.77
515.4	4307.34
515.767	4320.9
516.135	4321.36
516.502	4311.64
516.869	4379.43
517.237	4330.17
517.604	4321.13
517.972	4411.97
518.339	4362.03
518.706	4368.36
519.073	4359.77
519.44	4399.32
519.808	4421.92
520.175	4428.02
520.542	4504.18
520.909	4466.21
521.276	4484.74
521.643	4474.8
522.009	4486.1
522.376	4571.29
522.743	4549.6
523.11	4607
523.477	4647.45
523.843	4661.46
524.21	4644.06
524.577	4669.82
524.943	4647.67
525.31	4701.91
525.676	4727.9
526.043	4699.88
526.409	4748.46
526.776	4838.86
527.142	4828.91
527.508	4804.51
527.874	4860.55
528.241	4849.03
528.607	4864.84
528.973	4921.79
529.339	4940.55
529.705	4927.22
530.071	5009.47
530.437	5018.74
530.803	5071.62
531.169	5062.58
531.535	5087.44
531.901	5079.3
532.267	5026.2
532.632	5113.65
532.998	5155.68
533.364	5157.72
533.73	5185.97
534.095	5183.25
534.461	5251.73
534.826	5263.25
535.192	5281.78
535.557	5307.32
535.923	5251.73
536.288	5289.01
536.653	5366.75
537.019	5390.25
537.384	5369.92
537.749	5396.81
538.114	5366.07
538.479	5400.87
538.845	5478.39
539.21	5425.96
539.575	5464.15
539.94	5521.55
540.305	5580.53
540.67	5566.75
541.034	5561.32
541.399	5547.31
541.764	5611.49
542.129	5673.86
542.494	5672.05
542.858	5691.94
543.223	5685.61
543.587	5756.12
543.952	5755.44
544.316	5795.44
544.681	5778.04
545.045	5840.41
545.41	5827.53
545.774	5877.47
546.138	5850.35
546.503	5893.74
546.867	5931.71
547.231	6020.75
547.595	5929.22
547.959	5949.79
548.324	6038.15
548.688	6074.76
549.052	6029.11
549.416	6059.16
549.779	6076.11
550.143	6147.07
550.507	6147.52
550.871	6171.02
551.235	6133.06
551.599	6161.08
551.962	6201.98
552.326	6268.2
552.689	6330.79
553.053	6253.28
553.417	6265.03
553.78	6348.19
554.143	6333.28
554.507	6327.18
554.87	6293.05
555.234	6334.64
555.597	6371.92
555.96	6424.12
556.323	6412.6
556.686	6384.35
557.05	6466.38
557.413	6456.89
557.776	6485.14
558.139	6517.23
558.502	6512.48
558.865	6543.44
559.228	6549.32
559.59	6599.94
559.953	6602.88
560.316	6695.76
560.679	6706.38
561.041	6648.07
561.404	6688.98
561.767	6758.35
562.129	6765.36
562.492	6778.24
562.854	6740.05
563.217	6777.56
563.579	6820.95
563.941	6848.07
564.304	6822.53
564.666	6877.22
565.028	6926.03
565.39	6929.42
565.753	6961.06
566.115	6981.17
566.477	6983.66
566.839	6973.71
567.201	7112.92
567.563	7059.36
567.925	7065.69
568.287	7110.66
568.648	7076.09
569.01	7141.39
569.372	7206.93
569.734	7181.17
570.095	7274.95
570.457	7338.23
570.819	7377.09
571.18	7393.59
571.542	7379.35
571.903	7396.3
572.265	7521.27
572.626	7596.75
572.987	7566.47
573.349	7659.12
573.71	7614.83
574.071	7661.15
574.432	7776.86
574.794	7854.6
575.155	7839
575.516	7870.64
575.877	7932.11
576.238	8051.2
576.599	8109.5
576.96	8148.6
577.32	8283.06
577.681	8357.86
578.042	8445.54
578.403	8490.74
578.763	8597.4
579.124	8640.79
579.485	8822.71
579.845	8907.45
580.206	8954.45
580.566	9130.04
580.927	9224.28
581.287	9355.12
581.648	9516.47
582.008	9675.34
582.368	9833.07
582.728	10011.6
583.089	10067.19
583.449	10304.47
583.809	10454.98
584.169	10620.4
584.529	10842.31
584.889	11075.75
585.249	11234.85
585.609	11337.67
585.969	11628.06
586.329	11854.26
586.688	12110.3
587.048	12252.67
587.408	12515.94
587.768	12790.96
588.127	12978.98
588.487	13235.7
588.846	13546.65
589.206	13696.02
589.565	13931.27
589.925	14312.73
590.284	14600.41
590.643	14848.08
591.003	15166.95
591.362	15430.44
591.721	15655.07
592.08	15939.81
592.44	16308.16
592.799	16688.04
593.158	16874.25
593.517	17224.74
593.876	17555.58
594.235	17773.2
594.593	18119.41
594.952	18444.6
595.311	18605.5
595.67	19052.49
596.029	19467.85
596.387	19749.2
596.746	20058.57
597.104	20325.45
597.463	20566.13
597.822	20963.4
598.18	21131.53
598.538	21456.72
598.897	21927.45
599.255	22056.03
599.613	22569.46
599.972	22671.83
600.33	23145.95
600.688	23293.06
601.046	23623.45
601.404	23987.5
601.762	24154.51
602.12	24600.82
602.478	24890.31
602.836	25091.2
603.194	25251.88
603.552	25661.81
603.91	25877.17
604.268	26078.52
604.625	26373.43
604.983	26748.34
605.341	26694.55
605.698	27185.16
606.056	27533.4
606.413	27708.31
606.771	27837.8
607.128	28282.31
607.485	28316.43
607.843	28565.01
608.2	28876.19
608.557	29175.62
608.914	29339
609.272	29693.57
609.629	29956.61
609.986	30144.86
610.343	30209.04
610.7	30586.43
611.057	30840.43
611.414	31024.16
611.771	31095.57
612.127	31410.13
612.484	31557.25
612.841	31790.92
613.198	31889.67
613.554	32152.71
613.911	32382.76
614.267	32647.16
614.624	32634.06
614.98	32924.67
615.337	33255.74
615.693	33234.72
616.05	33372.12
616.406	33710.19
616.762	33628.16
617.118	33900.69
617.475	33980.01
617.831	34263.84
618.187	34410.06
618.543	34532.99
618.899	34728.01
619.255	34737.28
619.611	34930.27
619.967	34977.72
620.323	35111.05
620.678	35219.07
621.034	35322.8
621.39	35449.12
621.746	35421.1
622.101	36017.47
622.457	35828.55
622.812	36047.3
623.168	36264.02
623.523	36252.04
623.879	36434.64
624.234	36169.11
624.589	36553.73
624.945	36608.42
625.3	36654.74
625.655	36797.34
626.01	36764.12
626.365	37028.29
626.72	36800.28
627.075	37023.09
627.43	36969.76
627.785	36974.06
628.14	37234.16
628.495	37124.33
628.85	37208.17
629.205	37089.08
629.559	37453.37
629.914	37286.59
630.269	37331.11
630.623	37391.22
630.978	37318
631.332	37614.27
631.687	37569.97
632.041	37581.72
632.396	37530.88
632.75	37440.48
633.104	37651.55
633.459	37421.73
633.813	37536.75
634.167	37471.67
634.521	37578.33
634.875	37540.59
635.229	37619.01
635.583	37443.2
635.937	37553.7
636.291	37481.39
636.645	37673.02
636.999	37566.81
637.352	37712.79
637.706	37462.63
638.06	37657.43
638.413	37703.08
638.767	37643.87
639.121	37650.65
639.474	37410.2
639.828	37476.64
640.181	37560.71
640.534	37680.93
640.888	37503.31
641.241	37372.24
641.594	37522.06
641.947	37606.13
642.301	37482.97
642.654	37626.24
643.007	37639.12
643.36	37551.44
643.713	37451.56
644.066	37548.05
644.419	37440.94
644.771	37270.77
645.124	36782.65
645.477	36843.44
645.83	36519.38
646.182	36589.43
646.535	36548.98
646.888	36480.28
647.24	36266.05
647.593	36666.95
647.945	36519.15
648.298	36462.21
648.65	36261.98
649.002	36290.01
649.355	36407.29
649.707	36504.92
650.059	36497.01
650.411	36889.99
650.763	36930.44
651.115	37367.27
651.467	37193.26
651.819	37328.4
652.171	37219.47
652.523	37116.65
652.875	37076.2
653.227	37080.04
653.578	37211.34
653.93	37169.31
654.282	37050.44
654.633	36808.18
654.985	37110.1
655.337	37021.74
655.688	37069.65
656.039	37142.87
656.391	36853.61
656.742	36966.6
657.094	36987.62
657.445	37128.18
657.796	37033.49
658.147	36967.5
658.498	37036.43
658.849	37071.68
659.2	36879.37
659.551	36883.66
659.902	37039.82
660.253	36974.51
660.604	37082.75
660.955	36857.9
661.306	36952.36
661.656	36765.02
662.007	36875.08
662.358	36884.34
662.708	36990.1
663.059	36882.31
663.409	36664.46
663.76	37021.51
664.11	36924.11
664.461	36997.78
664.811	36952.81
665.161	36869.2
665.511	36960.72
665.862	36727.28
666.212	36784.46
666.562	37052.25
666.912	36944
667.262	36746.94
667.612	36937.9
667.962	36718.7
668.312	36717.79
668.662	36955.98
669.011	36817
669.361	36820.61
669.711	36772.71
670.06	36665.36
670.41	36638.02
670.76	36533.62
671.109	36740.39
671.459	36667.17
671.808	36687.96
672.157	36729.09
672.507	36484.8
672.856	36392.38
673.205	36581.07
673.554	36616.78
673.904	36554.18
674.253	36664.01
674.602	36522.99
674.951	36008.43
675.3	35780.19
675.649	36418.59
675.998	36467.85
676.346	36482.09
676.695	36599.83
677.044	36385.14
677.393	36437.12
677.741	36406.84
678.09	36332.04
678.438	36268.76
678.787	36306.73
679.135	36375.65
679.484	36150.57
679.832	36264.24
680.181	36083.23
680.529	36196.45
680.877	36099.05
681.225	36019.73
681.573	36353.73
681.922	35915.55
682.27	35865.38
682.618	35976.12
682.966	35739.74
683.314	35953.74
683.661	35837.36
684.009	35582.23
684.357	35607.99
684.705	35586.75
685.053	35580.65
685.4	35482.34
685.748	35390.37
686.095	35272.86
686.443	35094.78
686.79	35056.37
687.138	35290.48
687.485	35151.05
687.832	35147.89
688.18	35073.09
688.527	34927.56
688.874	34858.86
689.221	34844.17
689.568	34690.05
689.915	34561.92
690.262	34603.5
690.609	34483.95
690.956	34456.16
691.303	34318.53
691.65	34315.59
691.997	34298.65
692.344	33986.56
692.69	34020.91
693.037	34107.01
693.383	33807.59
693.73	33908.6
694.077	33771.88
694.423	33727.81
694.769	33739.11
695.116	33458.67
695.462	33378.22
695.808	33493.24
696.155	33455.05
696.501	33222.29
696.847	33200.14
697.193	33079.02
697.539	33185
697.885	32923.09
698.231	32783.66
698.577	32715.41
698.923	32656.43
699.269	32571.46
699.614	32443.55
699.96	32287.17
700.306	32414.85
700.651	32169.89
700.997	32159.04
701.342	32151.58
701.688	31982.55
702.033	31981.64
702.379	31864.81
702.724	31803.8
703.069	31789.11
703.415	31439.51
703.76	31694.42
704.105	31505.05
704.45	31439.74
704.795	31270.03
705.14	31199.74
705.485	31188.22
705.83	31036.59
706.175	31193.64
706.52	30940.09
706.865	30918.62
707.209	30984.61
707.554	30896.25
707.899	30805.18
708.243	30652.87
708.588	30572.87
708.932	30377.17
709.277	30354.12
709.621	30438.18
709.966	30254.68
710.31	30322.48
710.654	30030.74
710.998	29991.41
711.342	30079.55
711.687	29925.65
712.031	29970.4
712.375	29853.11
712.719	29842.49
713.063	29794.13
713.407	29766.56
713.75	29649.05
714.094	29531.77
714.438	29508.26
714.782	29550.97
715.125	29248.38
715.469	29484.76
715.812	29189.18
716.156	29115.28
716.499	29186.46
716.843	29153.02
717.186	28917.54
717.53	29168.84
717.873	29065.34
718.216	29029.86
718.559	28855.85
718.902	28648.85
719.246	28847.72
719.589	28711.67
719.932	28656.76
720.275	28616.54
720.617	28566.82
720.96	28467.16
721.303	28487.27
721.646	28511
721.989	28324.34
722.331	28366.6
722.674	28410.89
723.016	28203.89
723.359	28112.82
723.701	28353.27
724.044	28088.64
724.386	27953.95
724.729	28051.8
725.071	27983.33
725.413	27858.14
725.755	27958.7
726.097	27832.15
726.439	27720.06
726.782	27748.76
727.124	27832.38
727.465	27639.16
727.807	27694.75
728.149	27568.65
728.491	27589.9
728.833	27635.32
729.175	27510.35
729.516	27389.45
729.858	27530.01
730.199	27482.33
730.541	27253.18
730.882	27222
731.224	27367.98
731.565	27134.09
731.906	27215.22
732.248	27208.66
732.589	27065.39
732.93	27021.1
733.271	27096.58
733.612	27030.81
733.953	27027.65
734.294	26900.65
734.635	26761.9
734.976	26951.95
735.317	26756.47
735.658	26847.32
735.999	26748.56
736.339	26737.94
736.68	26634.21
737.021	26696.36
737.361	26657.27
737.702	26690.71
738.042	26604.61
738.383	26559.41
738.723	26787.88
739.063	26545.4
739.404	26622.46
739.744	26421.11
740.084	26261.34
740.424	26376.37
740.764	26418.63
741.104	26452.75
741.444	26201.01
741.784	26051.41
742.124	26227.9
742.464	26190.16
742.804	26142.93
743.143	25986.1
743.483	26105.42
743.823	25938.19
744.162	25874.69
744.502	25914.46
744.841	25713.79
745.181	25863.16
745.52	25900.67
745.86	25944.74
746.199	25856.38
746.538	25755.59
746.877	25876.49
747.216	25736.39
747.556	25714.24
747.895	25649.61
748.234	25513.57
748.573	25431.76
748.911	25652.09
749.25	25505.88
749.589	25459.78
749.928	25511.53
750.267	25461.59
750.605	25485.77
750.944	25304.31
751.283	25214.14
751.621	25357.19
751.96	25165.1
752.298	25130.75
752.636	25119.9
752.975	25073.8
753.313	25027.93
753.651	25203.29
753.989	24986.35
754.327	24952
754.666	24825.67
755.004	24913.81
755.342	24884.66
755.679	24691.67
756.017	24753.13
756.355	24755.17
756.693	24643.31
757.031	24777.99
757.368	24525.34
757.706	24535.29
758.044	24437.44
758.381	24521.5
758.719	24354.27
759.056	24397.21
759.394	24287.16
759.731	24195.63
760.068	24128.52
760.405	24021.85
760.743	24087.62
761.08	24032.02
761.417	24014.85
761.754	23920.61
762.091	23844.01
762.428	23839.03
762.765	23636.78
763.102	23796.55
763.438	23614.86
763.775	23542.09
764.112	23480.85
764.449	23566.72
764.785	23483.34
765.122	23283.79
765.458	23147.98
765.795	23224.81
766.131	23093.74
766.467	23052.39
766.804	22945.5
767.14	22853.07
767.476	22818.5
767.812	22846.74
768.148	22757.71
768.485	22696.47
768.821	22487.21
769.157	22404.95
769.492	22408.79
769.828	22391.16
770.164	22183.71
770.5	22203.6
770.836	22195.46
771.171	22062.81
771.507	22055.13
771.842	21967.9
772.178	21934.23
772.513	21856.49
772.849	21703.95
773.184	21707.34
773.519	21720.22
773.855	21468.93
774.19	21366.1
774.525	21301.25
774.86	21341.02
775.195	21333.34
775.53	21157.75
775.865	21017.64
776.2	20952.33
776.535	20814.03
776.87	20856.51
777.205	20759.34
777.539	20661.72
777.874	20684.54
778.209	20457.2
778.543	20417.66
778.878	20408.16
779.212	20388.28
779.547	20170.43
779.881	20181.28
780.215	20099.25
780.55	20233.93
780.884	19930.44
781.218	19936.09
781.552	19932.47
781.886	19774.28
782.22	19679.82
782.554	19694.06
782.888	19519.6
783.222	19452.26
783.556	19442.09
783.889	19402.54
784.223	19120.06
784.557	19152.83
784.89	19207.97
785.224	19011.14
785.557	19011.59
785.891	18906.96
786.224	18807.3
786.558	18854.31
786.891	18709.9
787.224	18583.35
787.557	18522.56
787.891	18556.46
788.224	18511.04
788.557	18449.57
788.89	18343.36
789.223	18347.65
789.556	18323.47
789.888	18227.88
790.221	18152.86
790.554	17950.38
790.887	18096.81
791.219	17948.34
791.552	17906.76
791.884	17772.98
792.217	17718.52
792.549	17689.82
792.882	17581.57
793.214	17405.53
793.546	17544.74
793.879	17364.85
794.211	17257.29
794.543	17370.05
794.875	17392.88
795.207	17255.7
795.539	17137.06
795.871	17172.09
796.203	17041.02
796.535	16963.28
796.867	16827.92
797.198	16956.96
797.53	16728.94
797.862	16781.14
798.193	16686.91
798.525	16633.35
798.856	16724.19
799.188	16427.7
799.519	16504.54
799.85	16334.82
800.182	16356.29
800.513	16363.07
800.844	16251.21
801.175	16282.62
801.506	16200.59
801.837	16148.84
802.168	16137.77
802.499	15952.69
802.83	15965.34
803.161	15830.66
803.491	15847.15
803.822	15815.29
804.153	15791.34
804.483	15712.02
804.814	15628.63
805.145	15622.3
805.475	15612.81
805.805	15518.35
806.136	15532.59
806.466	15464.57
806.796	15434.96
807.126	15307.28
807.457	15349.54
807.787	15247.4
808.117	15199.04
808.447	15152.03
808.777	15204.68
809.107	15124.69
809.436	15061.86
809.766	15076.78
810.096	15080.62
810.426	14951.58
810.755	14996.33
811.085	14885.82
811.414	14903
811.744	14778.71
812.073	14806.28
812.403	14776.45
812.732	14689.9
813.061	14666.62
813.39	14570.13
813.719	14505.72
814.049	14547.98
814.378	14511.82
814.707	14501.43
815.036	14478.15
815.365	14357.25
815.693	14264.37
816.022	14334.65
816.351	14169.23
816.68	14177.82
817.008	14299.17
817.337	14067.54
817.665	14034.32
817.994	14086.3
818.322	14118.84
818.651	14016.47
818.979	13954.1
819.307	13966.53
819.636	13900.54
819.964	13870.48
820.292	13920.88
820.62	13885.4
820.948	13842.01
821.276	13779.19
821.604	13819.64
821.932	13870.48
822.259	13776.93
822.587	13715.23
822.915	13742.12
823.243	13741.67
823.57	13784.84
823.898	13788.68
824.225	13676.59
824.553	13795.23
824.88	13715.46
825.207	13783.03
825.535	13678.4
825.862	13764.72
826.189	13692.86
826.516	13833.65
826.843	13843.36
827.17	13695.8
827.497	13824.61
827.824	13792.74
828.151	13768.56
828.478	13694.67
828.805	13734.44
829.131	13696.7
829.458	13695.8
829.785	13688.57
830.111	13703.48
830.438	13752.29
830.764	13706.65
831.09	13686.31
831.417	13673.2
831.743	13649.25
832.069	13638.4
832.395	13677.95
832.722	13753.42
833.048	13558.4
833.374	13572.64
833.7	13598.85
834.026	13637.49
834.351	13611.05
834.677	13617.61
835.003	13653.77
835.329	13520.44
835.654	13518.4
835.98	13516.82
836.306	13435.01
836.631	13409.48
836.956	13483.15
837.282	13447.22
837.607	13431.4
837.932	13329.25
838.258	13382.59
838.583	13368.58
838.908	13265.98
839.233	13323.38
839.558	13206.09
839.883	13236.83
840.208	13108.69
840.533	13164.29
840.858	13131.75
841.182	13182.82
841.507	13128.13
841.832	13177.62
842.156	13058.53
842.481	13112.08
842.805	13022.6
843.13	13009.26
843.454	12954.12
843.778	12940.56
844.103	12845.88
844.427	12860.11
844.751	12857.18
845.075	12833.22
845.399	12841.13
845.723	12663.96
846.047	12672.1
846.371	12578.09
846.695	12605.43
847.019	12495.15
847.343	12438.43
847.666	12384.42
847.99	12297.64
848.313	12299.68
848.637	12238.66
848.96	12162.51
849.284	12142.39
849.607	12052.23
849.931	12106.24
850.254	11988.72
850.577	11952.34
850.9	11801.38
851.223	11836.19
851.546	11828.28
851.869	11744.89
852.192	11712.12
852.515	11607.27
852.838	11635.06
853.161	11593.48
853.483	11596.87
853.806	11494.95
854.129	11463.77
854.451	11408.85
854.774	11366.82
855.096	11370.44
855.419	11304.9
855.741	11311.91
856.063	11169.31
856.385	11240.72
856.708	11242.76
857.03	11124.79
857.352	11083.89
857.674	11095.19
857.996	11067.84
858.318	10894.74
858.64	11058.35
858.961	10936.1
859.283	10883.44
859.605	10850.68
859.926	10876.89
860.248	10878.02
860.57	10762.99
860.891	10836.66
861.212	10775.65
861.534	10725.93
861.855	10675.54
862.176	10723.9
862.498	10657.69
862.819	10690.91
863.14	10596.22
863.461	10600.29
863.782	10545.15
864.103	10554.86
864.424	10541.98
864.745	10503.34
865.065	10469.22
865.386	10387.64
865.707	10414.75
866.027	10408.43
866.348	10444.81
866.668	10436
866.989	10388.77
867.309	10276.23
867.63	10298.37
867.95	10263.12
868.27	10223.57
868.59	10248.21
868.91	10250.69
869.23	10273.74
869.55	10254.98
869.87	10264.93
870.19	10169.79
870.51	10147.87
870.83	10247.08
871.15	10100.19
871.469	10193.07
871.789	10179.28
872.109	10086.18
872.428	10049.57
872.748	10099.96
873.067	10092.5
873.386	10116.46
873.706	10057.93
874.025	9993.52
874.344	9942.22
874.663	10012.05
874.982	9891.6
875.301	9926.63
875.62	9902.9
875.939	9870.14
876.258	9883.47
876.577	9872.62
876.896	9866.07
877.214	9784.04
877.533	9832.85
877.852	9826.75
878.17	9810.25
878.489	9800.76
878.807	9773.19
879.125	9671.05
879.444	9753.53
879.762	9649.12
880.08	9645.74
880.398	9572.52
880.716	9634.89
881.034	9582.46
881.352	9552.4
881.67	9603.02
881.988	9556.02
882.306	9571.84
882.624	9549.24
882.941	9491.84
883.259	9529.81
883.577	9423.37
883.894	9445.97
884.212	9398.96
884.529	9332.52
884.846	9429.24
885.164	9379.53
885.481	9267.44
885.798	9315.57
886.115	9210.49
886.432	9334.1
886.75	9213.43
887.067	9258.4
887.383	9197.16
887.7	9230.6
888.017	9200.1
888.334	9131.62
888.651	9080.55
888.967	9137.95
889.284	9089.82
889.6	8959.65
889.917	8966.88
890.233	9025.64
890.55	8985.64
890.866	8934.57
891.182	8919.2
891.498	8875.13
891.815	8821.8
892.131	8779.77
892.447	8770.73
892.763	8732.99
893.079	8728.7
893.395	8680.11
893.71	8740.9
894.026	8661.81
894.342	8661.35
894.657	8557.85
894.973	8573.22
895.289	8590.85
895.604	8509.95
895.92	8516.05
896.235	8435.15
896.55	8429.27
896.865	8446.44
897.181	8410.06
897.496	8411.19
897.811	8338.42
898.126	8290.52
898.441	8245.77
898.756	8261.59
899.071	8200.58
899.386	8229.28
899.7	8166.68
900.015	8133.01
900.33	8064.99
900.644	8115.15
900.959	8052.1
901.273	8041.03
901.588	7988.38
901.902	7964.88
902.216	7937.31
902.531	7907.02
902.845	7854.82
903.159	7784.77
903.473	7763.52
903.787	7749.29
904.101	7729.18
904.415	7756.52
904.729	7709.06
905.042	7622.06
905.356	7626.35
905.67	7577.09
905.984	7604.21
906.297	7542.06
906.611	7556.3
906.924	7454.83
907.237	7508.16
907.551	7454.15
907.864	7388.17
908.177	7367.83
908.491	7371.67
908.804	7347.04
909.117	7246.02
909.43	7275.63
909.743	7232.92
910.056	7208.06
910.368	7206.25
910.681	7158.34
910.994	7088.51
911.307	7044
911.619	7046.03
911.932	7046.93
912.244	6927.61
912.557	6986.82
912.869	6941.85
913.181	6962.19
913.494	6877.45
913.806	6874.96
914.118	6844
914.43	6782.99
914.742	6812.14
915.054	6721.29
915.366	6684.23
915.678	6700.28
915.99	6658.02
916.302	6583.89
916.613	6576.21
916.925	6590.9
917.236	6567.17
917.548	6447.63
917.859	6526.04
918.171	6400.62
918.482	6420.28
918.794	6382.54
919.105	6403.11
919.416	6362.21
919.727	6362.88
920.038	6310
920.349	6267.29
920.66	6251.47
920.971	6208.76
921.282	6218.03
921.593	6181.87
921.903	6180.29
922.214	6062.33
922.525	6084.47
922.835	6044.93
923.146	6006.51
923.456	6043.8
923.767	5982.78
924.077	6036.79
924.387	5932.61
924.697	5912.73
925.008	5898.26
925.318	5869.79
925.628	5871.15
925.938	5847.64
926.248	5805.61
926.558	5736.46
926.867	5709.57
927.177	5713.18
927.487	5733.75
927.796	5615.56
928.106	5618.72
928.416	5632.73
928.725	5612.85
929.034	5564.71
929.344	5627.54
929.653	5576.92
929.962	5508.22
930.271	5437.03
930.581	5444.49
930.89	5409.91
931.199	5380.99
931.508	5383.25
931.817	5397.49
932.125	5336.7
932.434	5332.63
932.743	5240.88
933.051	5258.51
933.36	5195.23
933.669	5255.12
933.977	5216.25
934.286	5182.58
934.594	5205.63
934.902	5114.78
935.21	5088.79
935.519	5122.01
935.827	5085.63
936.135	5050.38
936.443	5002.02
936.751	4995.91
937.059	4984.84
937.367	4966.08
937.674	4957.72
937.982	4919.53
938.29	4857.39
938.597	4909.36
938.905	4832.3
939.213	4894.22
939.52	4790.5
939.827	4813.77
940.135	4783.94
940.442	4736.26
940.749	4758.86
941.056	4768.58
941.363	4686.54
941.67	4699.65
941.977	4642.7
942.284	4620.78
942.591	4636.83
942.898	4593.21
943.205	4595.25
943.511	4539.2
943.818	4525.87
944.125	4517.06
944.431	4499.43
944.738	4482.26
945.044	4457.85
945.35	4425.08
945.657	4415.14
945.963	4379.66
946.269	4378.98
946.575	4360.9
946.881	4339.66
947.187	4342.82
947.493	4287.46
947.799	4287.23
948.105	4292.66
948.41	4242.94
948.716	4225.99
949.022	4209.27
949.327	4192.77
949.633	4163.17
949.938	4188.93
950.244	4167.01
950.549	4148.48
950.854	4110.97
951.16	4041.81
951.465	4061.93
951.77	4044.07
952.075	4040.23
952.38	4023.06
952.685	4023.28
952.99	3975.38
953.294	3936.96
953.599	3942.16
953.904	3932.89
954.209	3918.2
954.513	3851.54
954.818	3877.75
955.122	3892.44
955.426	3832.78
955.731	3811.54
956.035	3800.01
956.339	3786.91
956.643	3771.09
956.948	3779.67
957.252	3735.61
957.556	3734.7
957.86	3727.25
958.163	3699.9
958.467	3682.5
958.771	3682.28
959.075	3655.38
959.378	3641.37
959.682	3628.49
959.985	3608.61
960.289	3558.44
960.592	3602.05
960.896	3524.09
961.199	3546.23
961.502	3523.41
961.805	3500.36
962.108	3459.91
962.411	3501.49
962.714	3503.3
963.017	3478.89
963.32	3459.01
963.623	3457.88
963.926	3423.75
964.228	3374.04
964.531	3378.78
964.833	3389.63
965.136	3337.43
965.438	3298.56
965.741	3325.22
966.043	3288.39
966.345	3270.76
966.648	3281.83
966.95	3256.98
967.252	3256.98
967.554	3246.81
967.856	3203.87
968.158	3161.39
968.46	3197.77
968.761	3190.76
969.063	3141.27
969.365	3138.11
969.666	3131.1
969.968	3126.13
970.269	3108.73
970.571	3059.24
970.872	3090.88
971.174	3065.12
971.475	3071.22
971.776	3014.5
972.077	2997.1
972.378	3016.98
972.679	3002.07
972.98	2973.59
973.281	2953.48
973.582	2978.11
973.883	2972.24
974.183	2907.61
974.484	2939.24
974.785	2914.39
975.085	2899.02
975.386	2928.17
975.686	2884.56
975.986	2872.13
976.287	2856.76
976.587	2800.49
976.887	2827.84
977.187	2796.65
977.487	2806.59
977.787	2795.52
978.087	2743.09
978.387	2771.34
978.687	2753.49
978.987	2728.4
979.286	2702.41
979.586	2721.17
979.885	2709.65
980.185	2706.71
980.484	2681.85
980.784	2693.83
981.083	2603.21
981.382	2617.22
981.682	2642.08
981.981	2602.53
982.28	2599.14
982.579	2579.48
982.878	2556.66
983.177	2587.39
983.475	2604.56
983.774	2529.99
984.073	2547.39
984.372	2521.63
984.67	2522.98
984.969	2510.1
985.267	2504.68
985.566	2485.02
985.864	2454.74
986.162	2463.78
986.461	2423.55
986.759	2441.63
987.057	2422.87
987.355	2435.98
987.653	2379.03
987.951	2358.7
988.249	2370.67
988.547	2363.89
988.844	2333.38
989.142	2386.94
989.44	2338.58
989.737	2370.9
990.035	2309.66
990.332	2328.41
990.63	2313.27
990.927	2291.58
991.224	2277.57
991.521	2283.89
991.819	2292.48
992.116	2247.51
992.413	2226.5
992.71	2228.75
993.006	2235.76
993.303	2205.48
993.6	2194.86
993.897	2188.08
994.193	2191.24
994.49	2169.77
994.787	2159.15
995.083	2146.5
995.379	2143.11
995.676	2132.26
995.972	2095.2
996.268	2086.61
996.565	2094.75
996.861	2070.57
997.157	2047.06
997.453	2063.56
997.749	2076.44
998.044	2006.61
998.34	2013.39
998.636	2033.96
998.932	1998.93
999.227	2004.35
999.523	1995.77
999.818	1982.89
1000.114	1970.91
1000.409	1961.19
1000.704	1945.82
1001	1908.76
1001.295	1904.02
1001.59	1908.09
1001.885	1927.52
1002.18	1890.23
1002.475	1869.44
1002.77	1866.05
1003.065	1861.08
1003.359	1869.89
1003.654	1874.41
1003.949	1830.35
1004.243	1833.96
1004.538	1825.6
1004.832	1821.31
1005.127	1796
1005.421	1763.46
1005.715	1800.07
1006.009	1774.98
1006.304	1747.41
1006.598	1749.9
1006.892	1745.15
1007.186	1716
1007.48	1718.94
1007.773	1722.1
1008.067	1694.53
1008.361	1715.77
1008.655	1681.42
1008.948	1675.55
1009.242	1654.53
1009.535	1673.74
1009.829	1650.01
1010.122	1642.1
1010.415	1607.98
1010.708	1624.48
1011.001	1603.46
1011.295	1594.87
1011.588	1565.04
1011.881	1570.69
1012.173	1567.3
1012.466	1548.55
1012.759	1568.89
1013.052	1552.39
1013.344	1544.25
1013.637	1516.46
1013.93	1547.19
1014.222	1472.84
1014.514	1484.82
1014.807	1496.34
1015.099	1481.88
1015.391	1473.29
1015.683	1498.38
1015.976	1473.29
1016.268	1457.25
1016.56	1419.74
1016.851	1423.8
1017.143	1419.28
1017.435	1412.51
1017.727	1390.58
1018.018	1372.73
1018.31	1383.13
1018.602	1385.16
1018.893	1345.61
1019.185	1332.73
1019.476	1358.95
1019.767	1351.49
1020.058	1339.96
1020.35	1341.09
1020.641	1307.88
1020.932	1293.41
1021.223	1280.98
1021.514	1305.16
1021.804	1287.31
1022.095	1263.36
1022.386	1283.92
1022.677	1247.99
1022.967	1255.9
1023.258	1247.09
1023.548	1260.42
1023.839	1226.97
1024.129	1222.23
1024.419	1211.61
1024.709	1181.78
1025	1192.17
1025.29	1191.27
1025.58	1185.62
1025.87	1179.07
1026.16	1146.98
1026.449	1167.77
1026.739	1158.5
1027.029	1171.16
1027.319	1143.36
1027.608	1118.95
1027.898	1125.73
1028.187	1117.37
1028.477	1100.42
1028.766	1099.52
1029.055	1099.07
1029.344	1070.82
1029.634	1098.39
1029.923	1070.82
1030.212	1060.65
1030.501	1070.59
1030.79	1060.2
1031.078	1047.09
1031.367	1026.07
1031.656	1050.25
1031.945	1017.94
1032.233	1000.54
1032.522	1005.96
1032.81	1002.12
1033.099	985.4
1033.387	1013.42
1033.675	987.43
1033.963	975
1034.251	981.78
1034.54	975
1034.828	987.43
1035.116	961.22
1035.403	953.76
1035.691	963.7
1035.979	941.56
1036.267	940.2
1036.554	924.83
1036.842	930.26
1037.129	928.9
1037.417	927.32
1037.704	886.42
1037.992	920.99
1038.279	909.02
1038.566	880.99
1038.853	880.99
1039.14	880.99
