Data from hue_90_FLMS001491_84.txt Node
Date: Mon Feb 06 15:25:47 GMT 2017
User: dcchb
Spectrometer: FLMS00149
Trigger mode: 0
Integration Time (sec): 2.000000E-2
Scans to average: 10
Electric dark correction enabled: true
Nonlinearity correction enabled: false
Boxcar width: 0
XAxis mode: Wavelengths
Number of Pixels in Spectrum: 2048
>>>>>Begin Spectral Data<<<<<
341.393	-3.98
341.776	-3.98
342.16	-3.98
342.543	-58.9
342.927	-56.86
343.31	-66.58
343.693	-59.35
344.077	-69.07
344.46	-67.26
344.843	-44.43
345.226	-31.33
345.61	-28.16
345.993	-47.15
346.376	-8.28
346.759	-12.12
347.142	38.05
347.525	57.71
347.908	50.48
348.291	69.01
348.674	99.97
349.057	118.5
349.44	110.36
349.823	143.81
350.206	181.1
350.588	194.66
350.971	222.9
351.354	246.86
351.737	239.17
352.119	240.3
352.502	247.54
352.884	283.02
353.267	280.98
353.65	283.92
354.032	287.53
354.414	294.54
354.797	302.68
355.179	330.02
355.562	340.87
355.944	295.9
356.326	335.9
356.709	316.91
357.091	340.41
357.473	345.39
357.855	335.44
358.238	340.19
358.62	327.31
359.002	339.06
359.384	332.05
359.766	340.41
360.148	353.97
360.53	324.6
360.912	339.51
361.294	318.49
361.676	322.11
362.057	308.78
362.439	320.75
362.821	342
363.203	343.58
363.584	341.09
363.966	321.88
364.348	333.86
364.729	328.89
365.111	332.96
365.493	328.66
365.874	318.49
366.256	298.61
366.637	307.42
367.019	313.97
367.4	302.68
367.781	302.22
368.163	311.26
368.544	313.52
368.925	334.54
369.306	326.63
369.688	302.9
370.069	297.48
370.45	309.91
370.831	304.48
371.212	299.51
371.593	332.05
371.974	321.66
372.355	301.55
372.736	314.65
373.117	316.23
373.498	330.02
373.879	330.47
374.26	309
374.641	311.71
375.021	304.48
375.402	330.7
375.783	315.33
376.163	316.91
376.544	336.12
376.925	328.44
377.305	322.34
377.686	311.71
378.066	345.39
378.447	333.41
378.827	320.3
379.208	340.41
379.588	327.31
379.968	347.42
380.349	337.93
380.729	334.09
381.109	318.27
381.489	354.65
381.87	344.26
382.25	335.67
382.63	334.31
383.01	350.36
383.39	364.82
383.77	367.31
384.15	354.65
384.53	341.32
384.91	356.01
385.29	335.22
385.67	356.46
386.049	364.14
386.429	359.4
386.809	365.27
387.189	343.8
387.568	346.06
387.948	363.47
388.328	379.96
388.707	365.72
389.087	370.02
389.466	377.02
389.846	362.34
390.225	364.37
390.605	366.18
390.984	365.05
391.363	366.63
391.743	375.22
392.122	379.06
392.501	361.21
392.881	383.58
393.26	382.67
393.639	370.92
394.018	379.28
394.397	384.93
394.776	387.87
395.155	377.93
395.534	389.45
395.913	385.16
396.292	399.4
396.671	407.08
397.05	386.52
397.429	396.91
397.808	407.76
398.186	401.88
398.565	410.47
398.944	420.19
399.323	425.16
399.701	377.7
400.08	407.08
400.458	406.63
400.837	422.45
401.215	410.02
401.594	417.47
401.972	411.37
402.351	408.21
402.729	423.8
403.107	416.8
403.486	438.72
403.864	426.51
404.242	425.61
404.62	433.97
404.999	436.46
405.377	435.55
405.755	432.62
406.133	444.82
406.511	444.59
406.889	458.6
407.267	441.66
407.645	462.45
408.023	445.72
408.401	447.76
408.779	462.22
409.156	438.72
409.534	473.74
409.912	465.38
410.29	474.2
410.667	471.71
411.045	479.85
411.422	474.87
411.8	477.81
412.178	475.33
412.555	510.81
412.933	479.17
413.31	495.66
413.687	497.47
414.065	490.24
414.442	503.57
414.819	527.3
415.197	504.03
415.574	527.75
415.951	530.69
416.328	524.36
416.705	514.42
417.082	513.07
417.46	551.48
417.837	529.79
418.214	531.37
418.591	545.61
418.967	526.62
419.344	541.77
419.721	569.56
420.098	551.48
420.475	548.54
420.852	555.55
421.228	560.3
421.605	561.65
421.982	568.66
422.358	570.92
422.735	560.52
423.111	580.63
423.488	565.04
423.864	605.27
424.241	608.88
424.617	599.17
424.994	602.55
425.37	596.91
425.746	617.7
426.123	608.66
426.499	616.57
426.875	649.79
427.251	627.64
427.627	630.8
428.003	635.77
428.379	645.72
428.756	629.45
429.132	640.29
429.507	671.25
429.883	685.04
430.259	671.03
430.635	664.02
431.011	690.69
431.387	693.85
431.763	690.01
432.138	687.3
432.514	706.51
432.89	701.08
433.265	720.29
433.641	726.85
434.016	737.47
434.392	747.18
434.767	726.85
435.143	765.04
435.518	743.34
435.894	781.08
436.269	774.08
436.644	782.66
437.02	763.23
437.395	778.6
437.77	810.91
438.145	810.68
438.52	809.33
438.895	809.33
439.271	810.01
439.646	826.28
440.021	820.4
440.395	815.88
440.77	821.98
441.145	849.78
441.52	881.64
441.895	867.18
442.27	888.2
442.645	874.64
443.019	887.07
443.394	868.99
443.769	862.89
444.143	906.5
444.518	880.74
444.892	910.57
445.267	913.51
445.641	892.04
446.016	914.86
446.39	904.24
446.764	920.96
447.139	928.87
447.513	933.85
447.887	962.77
448.262	955.09
448.636	952.15
449.01	967.29
449.384	958.93
449.758	970.91
450.132	975.65
450.506	988.31
450.88	1009.32
451.254	987.86
451.628	1009.78
452.002	1019.94
452.376	1017.23
452.75	1024.46
453.123	1056.78
453.497	1052.26
453.871	1080.06
454.244	1061.75
454.618	1073.05
454.992	1107.63
455.365	1122.09
455.739	1120.06
456.112	1134.07
456.486	1148.76
456.859	1167.06
457.232	1194.4
457.606	1193.73
457.979	1175.2
458.352	1204.12
458.725	1234.63
459.099	1248.19
459.472	1279.83
459.845	1273.72
460.218	1283.21
460.591	1279.37
460.964	1308.07
461.337	1323.89
461.71	1315.3
462.083	1364.79
462.456	1387.39
462.829	1386.49
463.201	1397.79
463.574	1421.06
463.947	1426.26
464.32	1454.51
464.692	1477.33
465.065	1513.04
465.438	1521.4
465.81	1555.75
466.183	1551.46
466.555	1596.88
466.928	1631.68
467.3	1601.4
467.672	1645.24
468.045	1705.35
468.417	1731.56
468.789	1711.45
469.161	1759.36
469.534	1770.21
469.906	1778.57
470.278	1838.68
470.65	1871.22
471.022	1896.08
471.394	1931.11
471.766	1991.44
472.138	2002.52
472.51	2039.35
472.882	2065.12
473.253	2126.36
473.625	2173.36
473.997	2209.29
474.369	2256.97
474.74	2292.68
475.112	2324.32
475.484	2388.72
475.855	2450.87
476.227	2473.01
476.598	2575.16
476.97	2604.76
477.341	2644.08
477.713	2704.65
478.084	2771.54
478.455	2898.09
478.827	2900.8
479.198	3026.67
479.569	3047.69
479.94	3189.38
480.311	3226.21
480.682	3352.76
481.053	3465.53
481.424	3482.71
481.795	3556.15
482.166	3690.16
482.537	3735.35
482.908	3846.54
483.279	3957.95
483.65	4082.24
484.021	4162.46
484.391	4270.03
484.762	4369.24
485.133	4432.96
485.503	4521.55
485.874	4668.89
486.244	4773.52
486.615	4841.31
486.985	4996.79
487.356	5123.11
487.726	5278.82
488.097	5438.59
488.467	5459.38
488.837	5640.84
489.207	5793.15
489.578	5946.14
489.948	6025.46
490.318	6105.46
490.688	6211.22
491.058	6376.41
491.428	6510.2
491.798	6651.66
492.168	6834.48
492.538	6901.6
492.908	7097.53
493.278	7230.18
493.648	7274.47
494.017	7464.07
494.387	7498.19
494.757	7703.84
495.126	7812.76
495.496	7965.07
495.866	8012.76
496.235	8183.82
496.605	8311.05
496.974	8350.83
497.344	8565.74
497.713	8627.43
498.082	8736.8
498.452	8793.3
498.821	8958.04
499.19	9101.31
499.559	9154.65
499.928	9229.67
500.298	9367.97
500.667	9547.18
501.036	9482.32
501.405	9658.14
501.774	9754.18
502.143	9831.46
502.512	9884.34
502.88	10014.51
503.249	10110.55
503.618	10169.08
503.987	10271.45
504.356	10344.45
504.724	10386.25
505.093	10514.38
505.462	10588.96
505.83	10619.24
506.199	10760.25
506.567	10873.92
506.936	10903.3
507.304	11004.54
507.672	11080.47
508.041	11239.79
508.409	11227.59
508.777	11312.33
509.145	11421.03
509.514	11440.91
509.882	11502.83
510.25	11560.46
510.618	11583.96
510.986	11742.37
511.354	11738.08
511.722	11835.93
512.09	12003.38
512.458	11965.87
512.826	12024.18
513.193	11993.89
513.561	12109.37
513.929	12199.09
514.297	12318.18
514.664	12337.84
515.032	12398.85
515.4	12498.74
515.767	12522.47
516.135	12507.33
516.502	12458.97
516.869	12655.35
517.237	12673.42
517.604	12652.18
517.972	12731.5
518.339	12872.51
518.706	12798.84
519.073	12894.89
519.44	12934.66
519.808	13025.28
520.175	12969.24
520.542	13079.29
520.909	13162.68
521.276	13140.3
521.643	13199.74
522.009	13323.35
522.376	13297.81
522.743	13383.24
523.11	13542.55
523.477	13508.88
523.843	13619.61
524.21	13599.05
524.577	13669.1
524.943	13712.49
525.31	13738.93
525.676	13848.76
526.043	13878.14
526.409	13867.74
526.776	13916.55
527.142	13992.03
527.508	13937.8
527.874	14050.56
528.241	14098.25
528.607	14041.52
528.973	14093.05
529.339	14064.8
529.705	14185.93
530.071	14262.31
530.437	14203.1
530.803	14285.58
531.169	14368.29
531.535	14273.83
531.901	14230.45
532.267	14319.03
532.632	14240.61
532.998	14346.37
533.364	14308.86
533.73	14323.32
534.095	14341.85
534.461	14350.22
534.826	14396.32
535.192	14426.15
535.557	14449.2
535.923	14334.17
536.288	14383.66
536.653	14375.3
537.019	14287.84
537.384	14252.59
537.749	14382.53
538.114	14293.04
538.479	14298.24
538.845	14244.23
539.21	14234.29
539.575	14245.59
539.94	14174.4
540.305	14243.55
540.67	14264.12
541.034	14177.34
541.399	14167.4
541.764	14142.31
542.129	14186.15
542.494	14155.19
542.858	14182.76
543.223	14138.47
543.587	14129.66
543.952	14079.26
544.316	14044.69
544.681	13982.99
545.045	13989.32
545.41	14004.01
545.774	13925.82
546.138	13956.33
546.503	13950.23
546.867	13938.02
547.231	14008.98
547.595	13939.61
547.959	13942.32
548.324	13901.19
548.688	13818.7
549.052	13809.44
549.416	13835.2
549.779	13785.48
550.143	13753.4
550.507	13783.45
550.871	13747.52
551.235	13718.59
551.599	13789.1
551.962	13668.2
552.326	13686.5
552.689	13775.09
553.053	13590.46
553.417	13647.41
553.78	13770.12
554.143	13590.01
554.507	13623
554.87	13614.42
555.234	13735.32
555.597	13581.2
555.96	13584.36
556.323	13704.58
556.686	13548.2
557.05	13632.04
557.413	13633.85
557.776	13651.7
558.139	13744.58
558.502	13678.82
558.865	13650.57
559.228	13707.97
559.59	13694.19
559.953	13682.44
560.316	13730.12
560.679	13783
561.041	13772.6
561.404	13871.81
561.767	13841.3
562.129	13658.71
562.492	13854.41
562.854	13801.3
563.217	13780.51
563.579	13792.26
563.941	13874.07
564.304	13924.01
564.666	13877.01
565.028	13912.04
565.39	13891.7
565.753	13923.11
566.115	13997.23
566.477	13923.33
566.839	14062.09
567.201	14052.82
567.563	13957.46
567.925	14091.01
568.287	14000.85
568.648	14051.69
569.01	14147.06
569.372	14133.95
569.734	14078.58
570.095	14215.98
570.457	14154.29
570.819	14353.61
571.18	14162.42
571.542	14213.5
571.903	14259.82
572.265	14335.08
572.626	14293.95
572.987	14321.74
573.349	14354.06
573.71	14361.97
574.071	14363.55
574.432	14432.93
574.794	14533.49
575.155	14372.81
575.516	14437.22
575.877	14477.22
576.238	14540.49
576.599	14549.76
576.96	14484
577.32	14478.35
577.681	14400.61
578.042	14584.56
578.403	14431.12
578.763	14503.66
579.124	14542.98
579.485	14564
579.845	14613.94
580.206	14479.48
580.566	14526.03
580.927	14544.11
581.287	14541.85
581.648	14587.27
582.008	14636.08
582.368	14574.16
582.728	14632.02
583.089	14556.54
583.449	14585.92
583.809	14572.36
584.169	14505.24
584.529	14613.26
584.889	14655.74
585.249	14564.67
585.609	14442.42
585.969	14593.6
586.329	14495.97
586.688	14501.17
587.048	14433.83
587.408	14389.54
587.768	14409.42
588.127	14462.98
588.487	14353.83
588.846	14564.22
589.206	14363.32
589.565	14356.32
589.925	14505.01
590.284	14401.06
590.643	14415.75
591.003	14422.53
591.362	14475.86
591.721	14443.77
592.08	14409.2
592.44	14372.14
592.799	14347.73
593.158	14296.21
593.517	14392.25
593.876	14321.52
594.235	14363.77
594.593	14352.93
594.952	14385.7
595.311	14312.48
595.67	14297.79
596.029	14421.4
596.387	14364.68
596.746	14384.34
597.104	14347.73
597.463	14385.7
597.822	14355.64
598.18	14302.53
598.538	14276.32
598.897	14442.64
599.255	14201.29
599.613	14466.82
599.972	14420.95
600.33	14453.04
600.688	14335.98
601.046	14355.64
601.404	14396.09
601.762	14411.23
602.12	14364.9
602.478	14404
602.836	14404.45
603.194	14279.03
603.552	14314.96
603.91	14317.22
604.268	14405.58
604.625	14230.67
604.983	14346.15
605.341	14256.89
605.698	14378.92
606.056	14440.16
606.413	14421.17
606.771	14375.75
607.128	14414.85
607.485	14349.99
607.843	14294.17
608.2	14398.58
608.557	14495.07
608.914	14411.46
609.272	14453.26
609.629	14443.09
609.986	14476.99
610.343	14420.95
610.7	14554.96
611.057	14520.61
611.414	14555.86
611.771	14555.86
612.127	14626.82
612.484	14551.11
612.841	14597.89
613.198	14547.27
613.554	14514.73
613.911	14589.76
614.267	14556.99
614.624	14649.87
614.98	14668.85
615.337	14682.18
615.693	14638.34
616.05	14708.62
616.406	14714.5
616.762	14693.48
617.118	14657.55
617.475	14666.14
617.831	14635.86
618.187	14751.34
618.543	14754.5
618.899	14813.71
619.255	14732.35
619.611	14733.03
619.967	14803.99
620.323	14829.07
620.678	14772.8
621.034	14732.58
621.39	14737.32
621.746	14723.99
622.101	14907.26
622.457	14794.95
622.812	14840.15
623.168	14904.33
623.523	14837.21
623.879	14853.25
624.234	14741.39
624.589	14916.08
624.945	14794.05
625.3	14836.53
625.655	14798.34
626.01	14816.42
626.365	14812.8
626.72	14783.88
627.075	14852.35
627.43	14871.11
627.785	14730.09
628.14	14766.48
628.495	14781.39
628.85	14711.34
629.205	14725.8
629.559	14785.46
629.914	14727.38
630.269	14710.21
630.623	14741.62
630.978	14662.3
631.332	14698.46
631.687	14787.27
632.041	14731.45
632.396	14671.79
632.75	14635.41
633.104	14688.96
633.459	14603.09
633.813	14611.23
634.167	14622.98
634.521	14593.83
634.875	14569.65
635.229	14573.49
635.583	14492.13
635.937	14469.08
636.291	14449.42
636.645	14462.08
636.999	14402.19
637.352	14435.64
637.706	14360.39
638.06	14431.34
638.413	14351.12
638.767	14343.44
639.121	14396.77
639.474	14271.12
639.828	14248.07
640.181	14291.91
640.534	14293.27
640.888	14283.33
641.241	14224.12
641.594	14210.78
641.947	14216.43
642.301	14247.39
642.654	14196.1
643.007	14100.5
643.36	14233.16
643.713	14127.62
644.066	14187.28
644.419	14092.37
644.771	13973.28
645.124	13939.15
645.477	13847.63
645.83	13799.95
646.182	13770.8
646.535	13685.6
646.888	13730.35
647.24	13642.89
647.593	13764.92
647.945	13729.22
648.298	13578.26
648.65	13604.47
649.002	13543.46
649.355	13608.31
649.707	13608.99
650.059	13726.28
650.411	13832.49
650.763	13884.92
651.115	13981.19
651.467	13938.7
651.819	14007.17
652.171	14025.93
652.523	13853.73
652.875	13925.37
653.227	13910.68
653.578	13910.23
653.93	13921.07
654.282	13852.38
654.633	13883.34
654.985	13937.57
655.337	13933.28
655.688	13878.14
656.039	13950.23
656.391	13745.49
656.742	13884.24
657.094	13897.57
657.445	13974.18
657.796	13909.32
658.147	13954.75
658.498	13895.31
658.849	13877.91
659.2	14003.11
659.551	13904.8
659.902	13931.7
660.253	13966.5
660.604	13960.17
660.955	13870.23
661.306	14051.47
661.656	13898.48
662.007	13953.84
662.358	13874.52
662.708	13995.2
663.059	13875.2
663.409	13910.23
663.76	13956.55
664.11	13968.08
664.461	14017.8
664.811	13915.2
665.161	13965.59
665.511	13869.1
665.862	13919.72
666.212	13997.91
666.562	13953.16
666.912	13966.5
667.262	13910.45
667.612	14072.26
667.962	13944.35
668.312	13968.08
668.662	14011.69
669.011	14022.09
669.361	13952.26
669.711	13933.96
670.06	13850.12
670.41	13804.69
670.76	13811.02
671.109	13861.64
671.459	13855.99
671.808	13784.58
672.157	13819.16
672.507	13779.61
672.856	13784.13
673.205	13771.7
673.554	13743.23
673.904	13757.92
674.253	13764.92
674.602	13751.14
674.951	13665.71
675.3	13531.48
675.649	13751.36
675.998	13757.92
676.346	13806.95
676.695	13703.45
677.044	13697.58
677.393	13745.03
677.741	13666.62
678.09	13706.84
678.438	13619.39
678.787	13724.92
679.135	13624.59
679.484	13575.77
679.832	13571.03
680.181	13491.03
680.529	13601.31
680.877	13602.21
681.225	13610.12
681.573	13599.05
681.922	13531.25
682.27	13421.65
682.618	13517.7
682.966	13345.27
683.314	13308.21
683.661	13335.1
684.009	13318.15
684.357	13251.04
684.705	13212.84
685.053	13233.41
685.4	13192.05
685.748	13112.06
686.095	13166.07
686.443	13119.51
686.79	13005.62
687.138	13126.07
687.485	13026.63
687.832	12941.67
688.18	12961.1
688.527	12900.31
688.874	12911.84
689.221	12891.27
689.568	12812.18
689.915	12871.84
690.262	12828.45
690.609	12697.6
690.956	12725.4
691.303	12743.48
691.65	12626.87
691.997	12617.61
692.344	12499.64
692.69	12432.75
693.037	12544.39
693.383	12376.48
693.73	12388.23
694.077	12325.64
694.423	12353.66
694.769	12300.33
695.116	12209.48
695.462	12223.04
695.808	12147.79
696.155	12180.56
696.501	12026.21
696.847	12034.12
697.193	11896.04
697.539	12021.46
697.885	11917.29
698.231	11862.37
698.577	11868.47
698.923	11791.19
699.269	11792.77
699.614	11629.16
699.96	11640
700.306	11642.72
700.651	11614.92
700.997	11540.12
701.342	11522.49
701.688	11548.48
702.033	11447.47
702.379	11504.87
702.724	11395.72
703.069	11372.22
703.415	11299.22
703.76	11277.75
704.105	11263.52
704.45	11301.03
704.795	11152.33
705.14	11141.03
705.485	11169.51
705.83	11081.83
706.175	11049.29
706.52	11044.99
706.865	11026.46
707.209	10939.91
707.554	10931.32
707.899	10953.24
708.243	10859.01
708.588	10805
708.932	10711.44
709.277	10726.81
709.621	10704.66
709.966	10707.37
710.31	10663.53
710.654	10626.25
710.998	10642.29
711.342	10589.86
711.687	10598.68
712.031	10519.36
712.375	10443.2
712.719	10452.47
713.063	10478.23
713.407	10521.16
713.75	10489.53
714.094	10368.17
714.438	10333.37
714.782	10404.56
715.125	10282.75
715.469	10306.48
715.812	10277.1
716.156	10280.94
716.499	10251.34
716.843	10233.94
717.186	10229.65
717.53	10200.72
717.873	10325.01
718.216	10260.61
718.559	10174.51
718.902	10146.03
719.246	10139.71
719.589	10107.16
719.932	10052.25
720.275	10086.15
720.617	10104.9
720.96	10099.71
721.303	10023.1
721.646	9986.26
721.989	10007.05
722.331	10044.34
722.674	9998.24
723.016	9938.35
723.359	9953.95
723.701	9995.53
724.044	9993.27
724.386	9880.95
724.729	9869.66
725.071	9841.41
725.413	9850.67
725.755	9887.28
726.097	9824.23
726.439	9735.65
726.782	9781.07
727.124	9796.21
727.465	9811.8
727.807	9774.74
728.149	9783.56
728.491	9762.31
728.833	9768.42
729.175	9771.58
729.516	9690
729.858	9733.39
730.199	9783.78
730.541	9738.81
730.882	9778.13
731.224	9804.35
731.565	9678.47
731.906	9738.59
732.248	9644.12
732.589	9684.58
732.93	9705.37
733.271	9692.26
733.612	9686.84
733.953	9752.6
734.294	9707.17
734.635	9640.28
734.976	9687.06
735.317	9681.86
735.658	9693.62
735.999	9670.34
736.339	9626.72
736.68	9674.86
737.021	9697.68
737.361	9612.49
737.702	9639.83
738.042	9675.08
738.383	9674.18
738.723	9717.34
739.063	9585.82
739.404	9640.51
739.744	9645.93
740.084	9600.28
740.424	9727.29
740.764	9608.87
741.104	9780.84
741.444	9645.03
741.784	9732.94
742.124	9756.44
742.464	9685.93
742.804	9732.03
743.143	9764.57
743.483	9822.88
743.823	9774.07
744.162	9748.98
744.502	9879.6
744.841	9820.39
745.181	9889.54
745.52	9903.33
745.86	9916.66
746.199	9963.66
746.538	10047.73
746.877	10077.11
747.216	10088.63
747.556	10110.33
747.895	10209.76
748.234	10199.36
748.573	10157.11
748.911	10217.9
749.25	10299.02
749.589	10240.04
749.928	10365.01
750.267	10505.35
750.605	10460.15
750.944	10564.1
751.283	10565
751.621	10700.82
751.96	10699.46
752.298	10879.8
752.636	10976.75
752.975	10983.75
753.313	11065.33
753.651	11130.41
753.989	11221.48
754.327	11266
754.666	11335.38
755.004	11529.27
755.342	11573.57
755.679	11715.26
756.017	11814.46
756.355	11909.15
756.693	11939.66
757.031	12211.29
757.368	12218.07
757.706	12312.98
758.044	12471.4
758.381	12649.24
758.719	12783.25
759.056	12904.6
759.394	13080.87
759.731	13094.43
760.068	13273.86
760.405	13310.24
760.743	13402.67
761.08	13611.25
761.417	13729.67
761.754	13791.59
762.091	13968.98
762.428	14059.15
762.765	14128.07
763.102	14426.37
763.438	14482.64
763.775	14529.42
764.112	14732.8
764.449	14911.11
764.785	14960.14
765.122	15106.35
765.458	15121.5
765.795	15287.14
766.131	15445.1
766.467	15573.46
766.804	15656.4
767.14	15700.46
767.476	15785.21
767.812	15961.25
768.148	16126.89
768.485	16146.55
768.821	16079.89
769.157	16222.03
769.492	16358.52
769.828	16520.1
770.164	16416.83
770.5	16602.36
770.836	16708.57
771.171	16673.77
771.507	16960.32
771.842	16787.67
772.178	16866.31
772.513	16864.73
772.849	17074.44
773.184	17130.93
773.519	17200.08
773.855	17144.72
774.19	17135.68
774.525	17201.67
774.86	17340.65
775.195	17335.22
775.53	17356.46
775.865	17324.83
776.2	17375
776.535	17379.06
776.87	17333.19
777.205	17365.28
777.539	17417.25
777.874	17532.73
778.209	17443.92
778.543	17417.93
778.878	17376.13
779.212	17446.63
779.547	17377.93
779.881	17508.32
780.215	17522.34
780.55	17520.08
780.884	17433.07
781.218	17546.29
781.552	17442.79
781.886	17600.98
782.22	17355.11
782.554	17465.39
782.888	17307.2
783.222	17317.82
783.556	17270.37
783.889	17274.88
784.223	17150.37
784.557	17235.34
784.89	17263.81
785.224	17271.04
785.557	17280.31
785.891	17231.72
786.224	17184.27
786.558	17253.19
786.891	17080.31
787.224	16977.72
787.557	17036.47
787.891	17012.97
788.224	17050.03
788.557	17143.81
788.89	17004.16
789.223	17008.9
789.556	16936.36
789.888	16840.55
790.221	16865.4
790.554	16643.26
790.887	16797.84
791.219	16757.61
791.552	16796.03
791.884	16582.7
792.217	16679.87
792.549	16553.55
792.882	16503.15
793.214	16504.28
793.546	16538.18
793.879	16364.63
794.211	16326.66
794.543	16375.93
794.875	16347.23
795.207	16464.06
795.539	16365.53
795.871	16366.21
796.203	16159.66
796.535	16092.09
796.867	16135.48
797.198	16146.33
797.53	16042.6
797.862	15977.07
798.193	16000.12
798.525	15873.11
798.856	16008.93
799.188	15841.7
799.519	15769.84
799.85	15742.04
800.182	15779.78
800.513	15662.5
800.844	15613.46
801.175	15613.23
801.506	15613.46
801.837	15483.75
802.168	15497.08
802.499	15421.37
802.83	15367.14
803.161	15379.79
803.491	15366.01
803.822	15357.65
804.153	15291.89
804.483	15126.01
804.814	15153.13
805.145	15152.23
805.475	15154.49
805.805	15120.82
806.136	15101.61
806.466	15122.85
806.796	14981.39
807.126	14879.69
807.457	14911.56
807.787	14885.57
808.117	14867.94
808.447	14704.33
808.777	14750.43
809.107	14723.99
809.436	14728.51
809.766	14707.72
810.096	14648.51
810.426	14686.7
810.755	14603.99
811.085	14620.04
811.414	14488.29
811.744	14498.91
812.073	14503.21
812.403	14467.73
812.732	14389.08
813.061	14389.31
813.39	14233.16
813.719	14269.31
814.049	14235.19
814.378	14244
814.707	14211.24
815.036	14182.54
815.365	14170.79
815.693	14006.5
816.022	14084.91
816.351	13995.65
816.68	13989.32
817.008	14029.55
817.337	13910.91
817.665	13851.92
817.994	13912.94
818.322	13963.33
818.651	13787.97
818.979	13738.93
819.307	13917.91
819.636	13822.55
819.964	13740.06
820.292	13756.33
820.62	13657.35
820.948	13668.65
821.276	13761.3
821.604	13649.22
821.932	13610.57
822.259	13726.73
822.587	13670.01
822.915	13678.6
823.243	13705.71
823.57	13667.97
823.898	13675.43
824.225	13629.56
824.553	13558.6
824.88	13604.47
825.207	13689.89
825.535	13648.31
825.862	13607.41
826.189	13600.86
826.516	13758.37
826.843	13700.97
827.17	13722.21
827.497	13676.11
827.824	13733.96
828.151	13678.14
828.478	13660.06
828.805	13686.28
829.131	13625.49
829.458	13632.72
829.785	13624.81
830.111	13630.46
830.438	13779.16
830.764	13568.54
831.09	13724.7
831.417	13521.09
831.743	13673.62
832.069	13716.11
832.395	13547.75
832.722	13668.43
833.048	13586.62
833.374	13615.32
833.7	13540.52
834.026	13563.8
834.351	13523.8
834.677	13521.76
835.003	13533.97
835.329	13527.41
835.654	13470.01
835.98	13449.67
836.306	13461.88
836.631	13473.18
836.956	13434.08
837.282	13497.81
837.607	13381.65
837.932	13311.37
838.258	13361.99
838.583	13377.13
838.908	13291.03
839.233	13321.54
839.558	13295.33
839.883	13245.84
840.208	13214.2
840.533	13179.4
840.858	13227.53
841.182	13142.34
841.507	13217.82
841.832	13112.51
842.156	13054.88
842.481	13076.58
842.805	13069.57
843.13	13102.57
843.454	13008.78
843.778	12981.21
844.103	12889.69
844.427	12891.5
844.751	12918.16
845.075	12845.85
845.399	12858.05
845.723	12730.37
846.047	12742.57
846.371	12675.01
846.695	12615.57
847.019	12487.21
847.343	12523.15
847.666	12463.03
847.99	12407.89
848.313	12354.34
848.637	12283.38
848.96	12293.09
849.284	12227.11
849.607	12244.28
849.931	12134.23
850.254	12047.23
850.577	11950.28
850.9	11953.22
851.223	11879.32
851.546	11836.61
851.869	11658.99
852.192	11844.97
852.515	11700.34
852.838	11668.03
853.161	11671.64
853.483	11600.91
853.806	11513.23
854.129	11504.19
854.451	11496.96
854.774	11429.39
855.096	11400.01
855.419	11403.63
855.741	11309.62
856.063	11296.28
856.385	11256.29
856.708	11214.25
857.03	11169.51
857.352	11191.43
857.674	11107.59
857.996	11043.86
858.318	11054.26
858.64	11065.56
858.961	10989.85
859.283	10952.79
859.605	10866.24
859.926	10936.97
860.248	10863.98
860.57	10831.21
860.891	10813.81
861.212	10783.08
861.534	10687.49
861.855	10767.71
862.176	10776.75
862.498	10748.28
862.819	10678.45
863.14	10687.26
863.461	10656.75
863.782	10535.63
864.103	10566.13
864.424	10537.66
864.745	10571.33
865.065	10583.08
865.386	10525.46
865.707	10543.76
866.027	10504.22
866.348	10457.21
866.668	10474.16
866.989	10443.88
867.309	10387.61
867.63	10415.63
867.95	10401.17
868.27	10325.01
868.59	10302.41
868.91	10306.93
869.23	10309.64
869.55	10245.24
869.87	10314.39
870.19	10242.3
870.51	10296.76
870.83	10282.98
871.15	10179.93
871.469	10218.57
871.789	10208.86
872.109	10224.9
872.428	10109.42
872.748	10106.71
873.067	10080.27
873.386	10156.43
873.706	10066.49
874.025	10082.53
874.344	10049.31
874.663	10081.18
874.982	10079.37
875.301	9999.82
875.62	9982.65
875.939	9969.54
876.258	9953.95
876.577	9944.23
876.896	9933.83
877.214	9967.51
877.533	9855.42
877.852	9903.1
878.17	9879.37
878.489	9848.19
878.807	9878.02
879.125	9814.06
879.444	9810.9
879.762	9713.05
880.08	9842.31
880.398	9666.5
880.716	9718.02
881.034	9722.54
881.352	9744.24
881.67	9687.06
881.988	9705.37
882.306	9625.59
882.624	9589.21
882.941	9572.94
883.259	9567.29
883.577	9555.31
883.894	9532.26
884.212	9492.04
884.529	9460.17
884.846	9536.33
885.164	9432.38
885.481	9399.84
885.798	9383.34
886.115	9325.04
886.432	9320.07
886.75	9309.9
887.067	9328.2
887.383	9315.55
887.7	9228.99
888.017	9221.76
888.334	9231.71
888.651	9234.19
888.967	9189.22
889.284	9113.97
889.6	9132.05
889.917	8984.93
890.233	9060.86
890.55	9003.46
890.866	9009.34
891.182	9047.53
891.498	8935.89
891.815	8968.66
892.131	8879.17
892.447	8894.31
892.763	8859.06
893.079	8828.33
893.395	8756.46
893.71	8775
894.026	8721.44
894.342	8717.37
894.657	8623.81
894.973	8642.57
895.289	8582.01
895.604	8597.37
895.92	8555.57
896.235	8524.15
896.55	8500.43
896.865	8478.28
897.181	8419.3
897.496	8492.52
897.811	8444.38
898.126	8393.99
898.441	8308.57
898.756	8304.27
899.071	8135.92
899.386	8295.23
899.7	8262.47
900.015	8188.34
900.33	8098.63
900.644	8135.24
900.959	8118.29
901.273	8034.68
901.588	8076.26
901.902	8010.27
902.216	7981.8
902.531	7998.97
902.845	7960.55
903.159	7948.12
903.473	7871.97
903.787	7847.34
904.101	7800.78
904.415	7763.5
904.729	7739.32
905.042	7731.63
905.356	7646.21
905.67	7671.97
905.984	7665.19
906.297	7652.31
906.611	7566.89
906.924	7542.26
907.237	7539.55
907.551	7462.49
907.864	7494.35
908.177	7395.6
908.491	7404.64
908.804	7351.53
909.117	7332.1
909.43	7288.71
909.743	7319.44
910.056	7293.45
910.368	7211.87
910.681	7186.79
910.994	7194.7
911.307	7063.63
911.619	7097.07
911.932	7083.51
912.244	6990.64
912.557	7026.57
912.869	6949.28
913.181	6915.61
913.494	6976.62
913.806	6861.15
914.118	6848.72
914.43	6825.44
914.742	6775.73
915.054	6767.82
915.366	6765.78
915.678	6721.49
915.99	6748.83
916.302	6661.15
916.613	6633.81
916.925	6612.34
917.236	6595.39
917.548	6569.4
917.859	6587.48
918.171	6484.21
918.482	6515.17
918.794	6420.03
919.105	6442.85
919.416	6417.77
919.727	6377.54
920.038	6375.74
920.349	6347.49
920.66	6283.54
920.971	6301.16
921.282	6259.36
921.593	6265.91
921.903	6165.57
922.214	6163.31
922.525	6161.5
922.835	6137.1
923.146	6082.64
923.456	6131.67
923.767	6061.62
924.077	6000.38
924.387	6010.77
924.697	5940.49
925.008	5998.35
925.318	5937.78
925.628	5961.51
925.938	5925.8
926.248	5842.19
926.558	5819.82
926.867	5845.35
927.177	5795.19
927.487	5795.41
927.796	5728.97
928.106	5741.63
928.416	5665.7
928.725	5701.86
929.034	5658.24
929.344	5660.73
929.653	5677
929.962	5616.21
930.271	5564.46
930.581	5545.02
930.89	5512.48
931.199	5505.48
931.508	5473.16
931.817	5481.52
932.125	5441.75
932.434	5385.71
932.743	5382.54
933.051	5387.06
933.36	5306.61
933.669	5271.13
933.977	5255.31
934.286	5265.71
934.594	5283.56
934.902	5184.13
935.21	5215.54
935.519	5190.23
935.827	5173.28
936.135	5157.69
936.443	5080.86
936.751	5067.3
937.059	5061.87
937.367	5052.83
937.674	5053.51
937.982	5024.13
938.29	4976.9
938.597	4996.11
938.905	4899.62
939.213	4950.01
939.52	4931.71
939.827	4841.31
940.135	4852.16
940.442	4839.73
940.749	4865.49
941.056	4824.36
941.363	4747.08
941.67	4769.68
941.977	4740.53
942.284	4698.72
942.591	4683.13
942.898	4651.94
943.205	4636.57
943.511	4639.06
943.818	4638.38
944.125	4623.92
944.431	4565.39
944.738	4585.73
945.044	4568.33
945.35	4545.73
945.657	4498.05
945.963	4512.96
946.269	4470.02
946.575	4445.84
946.881	4438.39
947.187	4411.27
947.493	4387.77
947.799	4377.37
948.105	4343.25
948.41	4325.62
948.716	4327.65
949.022	4274.1
949.327	4260.31
949.633	4279.52
949.938	4256.24
950.244	4248.56
950.549	4218.5
950.854	4180.54
951.16	4162.91
951.465	4177.15
951.77	4114.1
952.075	4106.19
952.38	4142.57
952.685	4087.21
952.99	4073.65
953.294	4072.29
953.599	4033.2
953.904	3986.65
954.209	3983.71
954.513	4024.16
954.818	3929.47
955.122	3949.36
955.426	3903.03
955.731	3902.58
956.035	3896.03
956.339	3846.31
956.643	3845.86
956.948	3833.43
957.252	3818.97
957.556	3816.03
957.86	3781.23
958.163	3788.01
958.467	3773.32
958.771	3736.03
959.075	3769.03
959.378	3737.84
959.682	3710.95
959.985	3697.61
960.289	3633.89
960.592	3676.37
960.896	3679.76
961.199	3623.27
961.502	3611.74
961.805	3625.07
962.108	3556.83
962.411	3564.28
962.714	3546.43
963.017	3536.71
963.32	3514.57
963.623	3474.34
963.926	3507.34
964.228	3458.3
964.531	3422.82
964.833	3425.98
965.136	3415.59
965.438	3402.26
965.741	3388.24
966.043	3385.76
966.345	3373.56
966.648	3348.47
966.95	3374.69
967.252	3315.25
967.554	3316.16
967.856	3285.42
968.158	3285.2
968.46	3260.79
968.761	3277.96
969.063	3246.78
969.365	3249.49
969.666	3206.78
969.968	3200.23
970.269	3183.28
970.571	3165.88
970.872	3164.3
971.174	3147.35
971.475	3103.05
971.776	3162.49
972.077	3113.22
972.378	3063.96
972.679	3065.54
972.98	3088.82
973.281	3061.93
973.582	3057.18
973.883	3071.87
974.183	3015.15
974.484	3004.3
974.785	2994.81
975.085	2977.18
975.386	2935.6
975.686	2950.29
975.986	2954.36
976.287	2918.43
976.587	2915.49
976.887	2869.16
977.187	2903.96
977.487	2875.49
977.787	2861.48
978.087	2858.54
978.387	2840.01
978.687	2846.11
978.987	2842.04
979.286	2777.41
979.586	2781.71
979.885	2761.59
980.185	2789.62
980.484	2769.73
980.784	2757.07
981.083	2737.87
981.382	2707.81
981.682	2716.62
981.981	2687.25
982.28	2687.92
982.579	2706.45
982.878	2675.49
983.177	2665.1
983.475	2649.05
983.774	2647.92
984.073	2612.9
984.372	2608.6
984.67	2588.94
984.969	2554.14
985.267	2592.33
985.566	2553.24
985.864	2535.16
986.162	2533.8
986.461	2501.94
986.759	2511.43
987.057	2483.18
987.355	2482.05
987.653	2494.93
987.951	2486.12
988.249	2453.81
988.547	2454.48
988.844	2426.91
989.142	2443.86
989.44	2401.15
989.737	2393.69
990.035	2393.47
990.332	2368.16
990.63	2352.11
990.927	2383.75
991.224	2351.66
991.521	2295.84
991.819	2311.21
992.116	2320.25
992.413	2270.08
992.71	2284.77
993.006	2287.48
993.303	2275.28
993.6	2244.77
993.897	2229.4
994.193	2225.56
994.49	2240.03
994.787	2208.39
995.083	2191.67
995.379	2185.11
995.676	2206.35
995.972	2176.98
996.268	2185.34
996.565	2139.24
996.861	2149.41
997.157	2119.58
997.453	2115.74
997.749	2123.87
998.044	2108.5
998.34	2103.08
998.636	2076.87
998.932	2061.27
999.227	2034.83
999.523	2017.66
999.818	2057.43
1000.114	2016.3
1000.409	2010.88
1000.704	2006.13
1001	1993.7
1001.295	2007.26
1001.59	1975.85
1001.885	1990.09
1002.18	1925.01
1002.475	1913.25
1002.77	1950.77
1003.065	1917.77
1003.359	1908.51
1003.654	1935.85
1003.949	1879.58
1004.243	1864.44
1004.538	1871.22
1004.832	1876.42
1005.127	1850.21
1005.421	1832.8
1005.715	1814.5
1006.009	1833.93
1006.304	1829.64
1006.598	1820.83
1006.892	1817.21
1007.186	1793.94
1007.48	1771.56
1007.773	1750.77
1008.067	1748.06
1008.361	1719.14
1008.655	1730.43
1008.948	1710.32
1009.242	1695.63
1009.535	1687.5
1009.829	1668.29
1010.122	1683.88
1010.415	1655.63
1010.708	1673.26
1011.001	1651.79
1011.295	1630.1
1011.588	1628.52
1011.881	1629.65
1012.173	1594.39
1012.466	1619.25
1012.759	1590.78
1013.052	1596.65
1013.344	1567.73
1013.637	1599.36
1013.93	1555.98
1014.222	1569.08
1014.514	1545.35
1014.807	1551.46
1015.099	1513.49
1015.391	1526.37
1015.683	1533.38
1015.976	1519.82
1016.268	1489.09
1016.56	1466.94
1016.851	1461.74
1017.143	1469.65
1017.435	1471.46
1017.727	1447.73
1018.018	1437.56
1018.31	1448.41
1018.602	1437.11
1018.893	1407.96
1019.185	1399.14
1019.476	1418.58
1019.767	1400.95
1020.058	1390.56
1020.35	1359.37
1020.641	1370.67
1020.932	1360.95
1021.223	1361.18
1021.514	1372.48
1021.804	1340.84
1022.095	1343.55
1022.386	1320.05
1022.677	1311.69
1022.967	1284.8
1023.258	1279.15
1023.548	1286.15
1023.839	1240.05
1024.129	1264.46
1024.419	1236.89
1024.709	1256.77
1025	1229.88
1025.29	1208.64
1025.58	1206.61
1025.87	1197.12
1026.16	1194.18
1026.449	1213.84
1026.739	1191.69
1027.029	1189.88
1027.319	1180.62
1027.608	1158.7
1027.898	1148.76
1028.187	1148.08
1028.477	1130.22
1028.766	1164.12
1029.055	1143.56
1029.344	1143.78
1029.634	1125.03
1029.923	1101.07
1030.212	1115.31
1030.501	1084.35
1030.79	1110.79
1031.078	1075.99
1031.367	1064.01
1031.656	1045.93
1031.945	1071.47
1032.233	1029.66
1032.522	1062.43
1032.81	1041.64
1033.099	1043
1033.387	1029.66
1033.675	1016.56
1033.963	1032.6
1034.251	1027.18
1034.54	1015.43
1034.828	999.61
1035.116	979.72
1035.403	977.01
1035.691	966.16
1035.979	992.6
1036.267	967.97
1036.554	958.03
1036.842	937.24
1037.129	924.81
1037.417	917.8
1037.704	934.98
1037.992	946.95
1038.279	922.77
1038.566	928.65
1038.853	928.65
1039.14	928.65
