Data from hue_60_FLMS001491_28.txt Node
Date: Mon Feb 06 15:17:09 GMT 2017
User: dcchb
Spectrometer: FLMS00149
Trigger mode: 0
Integration Time (sec): 2.000000E-2
Scans to average: 10
Electric dark correction enabled: true
Nonlinearity correction enabled: false
Boxcar width: 0
XAxis mode: Wavelengths
Number of Pixels in Spectrum: 2048
>>>>>Begin Spectral Data<<<<<
341.393	-13.29
341.776	-13.29
342.16	-13.29
342.543	-72.05
342.927	-73.4
343.31	-53.06
343.693	-61.88
344.077	-64.81
344.46	-70.69
344.843	-57.81
345.226	-58.71
345.61	-31.37
345.993	-20.75
346.376	0.04
346.759	16.54
347.142	26.03
347.525	36.43
347.908	59.93
348.291	80.27
348.674	97.44
349.057	102.41
349.44	120.27
349.823	145.12
350.206	145.8
350.588	195.74
350.971	214.27
351.354	244.56
351.737	238.68
352.119	266.93
352.502	246.82
352.884	278.45
353.267	289.75
353.65	306.25
354.032	294.27
354.414	325.91
354.797	328.17
355.179	315.97
355.562	341.95
355.944	326.59
356.326	322.29
356.709	344.89
357.091	338.56
357.473	339.02
357.855	334.72
358.238	338.34
358.62	329.98
359.002	346.7
359.384	343.08
359.766	335.63
360.148	339.47
360.53	315.29
360.912	328.62
361.294	305.12
361.676	347.83
362.057	336.98
362.439	319.13
362.821	347.6
363.203	312.58
363.584	336.76
363.966	347.38
364.348	334.72
364.729	334.95
365.111	337.89
365.493	312.58
365.874	294.27
366.256	325.23
366.637	320.71
367.019	307.38
367.4	327.49
367.781	325.68
368.163	301.28
368.544	307.83
368.925	316.64
369.306	342.41
369.688	334.04
370.069	308.73
370.45	312.12
370.831	309.64
371.212	327.04
371.593	334.04
371.974	317.32
372.355	307.6
372.736	326.81
373.117	339.92
373.498	315.51
373.879	321.84
374.26	302.86
374.641	324.1
375.021	305.12
375.402	321.39
375.783	314.61
376.163	316.42
376.544	320.26
376.925	330.2
377.305	320.03
377.686	305.57
378.066	302.86
378.447	320.26
378.827	334.04
379.208	311.9
379.588	332.01
379.968	308.51
380.349	343.99
380.729	320.03
381.109	326.81
381.489	351.22
381.87	342.86
382.25	345.34
382.63	334.04
383.01	324.1
383.39	319.58
383.77	336.76
384.15	343.99
384.53	336.76
384.91	350.99
385.29	349.64
385.67	362.52
386.049	347.38
386.429	343.76
386.809	341.95
387.189	352.12
387.568	356.19
387.948	349.86
388.328	367.26
388.707	358.9
389.087	348.28
389.466	343.76
389.846	363.87
390.225	370.88
390.605	350.32
390.984	343.99
391.363	339.24
391.743	365.23
392.122	354.38
392.501	337.66
392.881	334.95
393.26	374.5
393.639	367.72
394.018	354.84
394.397	375.17
394.776	368.39
395.155	344.21
395.534	361.84
395.913	362.29
396.292	375.85
396.671	375.4
397.05	383.76
397.429	365.46
397.808	382.41
398.186	376.08
398.565	387.83
398.944	380.37
399.323	380.6
399.701	380.15
400.08	381.05
400.458	374.72
400.837	372.24
401.215	375.63
401.594	380.37
401.972	370.43
402.351	375.17
402.729	379.47
403.107	390.77
403.486	406.59
403.864	393.48
404.242	391.22
404.62	391.9
404.999	403.65
405.377	384.89
405.755	421.27
406.133	405.68
406.511	411.33
406.889	412.01
407.267	412.46
407.645	406.81
408.023	424.89
408.401	391.67
408.779	407.26
409.156	430.09
409.534	428.96
409.912	432.8
410.29	438.45
410.667	442.97
411.045	420.82
411.422	422.18
411.8	412.91
412.178	462.86
412.555	446.58
412.933	440.93
413.31	445.45
413.687	465.57
414.065	455.17
414.442	446.81
414.819	451.78
415.197	474.38
415.574	444.32
415.951	458.34
416.328	468.96
416.705	444.32
417.082	450.2
417.46	482.06
417.837	471.22
418.214	475.28
418.591	486.13
418.967	496.3
419.344	487.49
419.721	492.68
420.098	499.69
420.475	514.38
420.852	507.6
421.228	487.71
421.605	507.83
421.982	496.75
422.358	506.92
422.735	503.98
423.111	520.03
423.488	502.85
423.864	513.7
424.241	507.37
424.617	510.76
424.994	529.75
425.37	540.59
425.746	551.89
426.123	543.53
426.499	518.22
426.875	528.84
427.251	559.35
427.627	539.24
428.003	520.48
428.379	554.38
428.756	553.02
429.132	577.2
429.507	554.38
429.883	563.42
430.259	578.11
430.635	567.49
431.011	580.59
431.387	576.52
431.763	583.98
432.138	592.8
432.514	583.53
432.89	600.93
433.265	625.79
433.641	639.35
434.016	620.59
434.392	613.59
434.767	621.27
435.143	620.59
435.518	630.08
435.894	641.16
436.269	652
436.644	649.97
437.02	661.04
437.395	632.12
437.77	642.29
438.145	666.69
438.52	661.27
438.895	660.82
439.271	682.51
439.646	674.6
440.021	684.09
440.395	682.96
440.77	676.86
441.145	683.19
441.52	715.96
441.895	705.79
442.27	684.09
442.645	698.33
443.019	692.45
443.394	716.86
443.769	723.41
444.143	703.75
444.518	732.9
444.892	748.95
445.267	725.45
445.641	743.07
446.016	736.75
446.39	717.54
446.764	724.32
447.139	743.53
447.513	771.55
447.887	733.81
448.262	748.27
448.636	727.25
449.01	780.13
449.384	762.51
449.758	800.93
450.132	802.73
450.506	768.38
450.88	787.37
451.254	789.4
451.628	814.71
452.002	797.54
452.376	834.37
452.75	813.35
453.123	832.79
453.497	803.64
453.871	822.85
454.244	826.24
454.618	844.09
454.992	855.39
455.365	869.62
455.739	872.11
456.112	889.51
456.486	895.16
456.859	872.34
457.232	912.79
457.606	922.28
457.979	924.76
458.352	921.6
458.725	948.27
459.099	946.46
459.472	981.49
459.845	983.29
460.218	1000.47
460.591	984.65
460.964	991.65
461.337	1028.72
461.71	1042.73
462.083	1082.05
462.456	1020.35
462.829	1042.95
463.201	1076.62
463.574	1070.3
463.947	1091.09
464.32	1106.23
464.692	1133.35
465.065	1155.94
465.438	1141.03
465.81	1177.86
466.183	1174.7
466.555	1208.37
466.928	1222.84
467.3	1253.34
467.672	1237.75
468.045	1277.97
468.417	1310.06
468.789	1303.96
469.161	1306.9
469.534	1342.15
469.906	1371.53
470.278	1376.28
470.65	1422.15
471.022	1469.16
471.394	1480.68
471.766	1499.89
472.138	1531.08
472.51	1582.6
472.882	1596.16
473.253	1658.08
473.625	1665.99
473.997	1708.7
474.369	1734.46
474.74	1793.44
475.112	1848.81
475.484	1858.98
475.855	1895.59
476.227	1930.84
476.598	2029.14
476.97	2064.39
477.341	2116.14
477.713	2181.68
478.084	2234.79
478.455	2297.61
478.827	2350.26
479.198	2462.8
479.569	2483.14
479.94	2565.4
480.311	2651.27
480.682	2701.67
481.053	2780.53
481.424	2901.66
481.795	2949.8
482.166	3047.65
482.537	3122.22
482.908	3237.47
483.279	3309.33
483.65	3407.18
484.021	3575.09
484.391	3661.19
484.762	3714.97
485.133	3834.74
485.503	3953.38
485.874	4079.71
486.244	4172.59
486.615	4324.67
486.985	4425.24
487.356	4578.23
487.726	4658.68
488.097	4872.68
488.467	4900.25
488.837	5148.16
489.207	5194.48
489.578	5375.27
489.948	5527.58
490.318	5643.74
490.688	5759.89
491.058	5914.69
491.428	6075.36
491.798	6249.14
492.168	6443.71
492.538	6540.66
492.908	6662.47
493.278	6853.42
493.648	7014.32
494.017	7126.63
494.387	7287.76
494.757	7466.29
495.126	7661.54
495.496	7760.06
495.866	7921.64
496.235	8030.11
496.605	8167.74
496.974	8353.72
497.344	8571.12
497.713	8690.44
498.082	8795.07
498.452	9032.12
498.821	9125.23
499.19	9320.25
499.559	9499
499.928	9629.39
500.298	9735.61
500.667	9919.56
501.036	9947.58
501.405	10192.99
501.774	10343.27
502.143	10492.87
502.512	10588.69
502.88	10726.99
503.249	10841.11
503.618	10984.61
503.987	11148.9
504.356	11250.59
504.724	11437.48
505.093	11603.35
505.462	11689.68
505.83	11856.68
506.199	12088.99
506.567	12213.51
506.936	12252.83
507.304	12593.16
507.672	12599.94
508.041	12780.05
508.409	12847.61
508.777	13111.34
509.145	13165.35
509.514	13266.59
509.882	13393.36
510.25	13539.35
510.618	13664.54
510.986	13792.22
511.354	13929.39
511.722	14141.14
512.09	14346.11
512.458	14287.12
512.826	14535.25
513.193	14562.6
513.561	14758.75
513.929	14929.14
514.297	15089.59
514.664	15131.85
515.032	15285.74
515.4	15447.55
515.767	15605.51
516.135	15671.72
516.502	15740.65
516.869	16012.5
517.237	16165.72
517.604	16059.28
517.972	16255.43
518.339	16435.09
518.706	16591.92
519.073	16671.02
519.44	16849.77
519.808	16962.08
520.175	16964.79
520.542	17292.47
520.909	17491.56
521.276	17489.3
521.643	17652.69
522.009	17728.62
522.376	17988.72
522.743	18116.4
523.11	18273.46
523.477	18501.25
523.843	18562.72
524.21	18815.82
524.577	18934.01
524.943	19148.69
525.31	19152.99
525.676	19418.74
526.043	19490.83
526.409	19572.86
526.776	19946.86
527.142	19790.93
527.508	20041.78
527.874	20174.43
528.241	20323.58
528.607	20445.38
528.973	20586.85
529.339	20592.72
529.705	20839.72
530.071	20972.37
530.437	21098.7
530.803	21252.36
531.169	21407.16
531.535	21496.43
531.901	21454.62
532.267	21610.32
532.632	21806.7
532.998	21890.31
533.364	21933.93
533.73	21994.27
534.095	22327.59
534.461	22265.67
534.826	22494.14
535.192	22534.59
535.557	22745.88
535.923	22672.67
536.288	22808.71
536.653	22978.42
537.019	22976.84
537.384	23054.58
537.749	23137.29
538.114	23184.97
538.479	23252.09
538.845	23454.79
539.21	23320.11
539.575	23493.21
539.94	23614.11
540.305	23762.81
540.67	23676.03
541.034	23786.54
541.399	23998.06
541.764	24019.75
542.129	24060.65
542.494	24207.32
542.858	24254.77
543.223	24307.65
543.587	24502.22
543.952	24337.93
544.316	24439.4
544.681	24565.05
545.045	24738.37
545.41	24871.7
545.774	24863.8
546.138	24915.32
546.503	25008.2
546.867	25042.77
547.231	25266.27
547.595	25304.91
547.959	25408.87
548.324	25399.37
548.688	25495.19
549.052	25539.48
549.416	25550.78
549.779	25740.61
550.143	25832.36
550.507	26018.79
550.871	25877.78
551.235	26041.62
551.599	26268.05
551.962	26200.48
552.326	26359.8
552.689	26398.9
553.053	26483.41
553.417	26402.74
553.78	26782.16
554.143	26722.28
554.507	26877.08
554.87	26950.75
555.234	27204.07
555.597	27097.86
555.96	27338.08
556.323	27352.32
556.686	27496.72
557.05	27592.54
557.413	27555.48
557.776	27828.46
558.139	28017.84
558.502	27976.48
558.865	28088.12
559.228	28350.48
559.59	28413.53
559.953	28363.59
560.316	28696.24
560.679	28794.99
561.041	28898.27
561.404	29001.77
561.767	29129.22
562.129	29185.94
562.492	29491.47
562.854	29397.24
563.217	29469.1
563.579	29580.96
563.941	29838.81
564.304	29932.81
564.666	30085.35
565.028	30229.3
565.39	30251.22
565.753	30475.63
566.115	30501.84
566.477	30684.66
566.839	30787.71
567.201	31034.25
567.563	31100.69
567.925	31263.18
568.287	31312.21
568.648	31422.04
569.01	31491.19
569.372	31723.95
569.734	31587.23
570.095	31817.74
570.457	31971.86
570.819	32092.31
571.18	31954.23
571.542	32215.24
571.903	32227.44
572.265	32485.06
572.626	32624.72
572.987	32655.45
573.349	32752.85
573.71	32829.69
574.071	32929.8
574.432	33061.77
574.794	33300.18
575.155	33200.07
575.516	33144.71
575.877	33316.68
576.238	33392.16
576.599	33481.65
576.96	33443.91
577.32	33612.72
577.681	33763.9
578.042	33800.06
578.403	33737.23
578.763	33750.34
579.124	33915.99
579.485	34055.42
579.845	34166.83
580.206	34055.87
580.566	34027.17
580.927	34113.04
581.287	34329.31
581.648	34150.78
582.008	34354.85
582.368	34355.52
582.728	34391.91
583.089	34321.85
583.449	34325.24
583.809	34516.87
584.169	34537.44
584.529	34515.97
584.889	34661.96
585.249	34431.68
585.609	34390.78
585.969	34529.3
586.329	34445.46
586.688	34659.47
587.048	34641.62
587.408	34482.3
587.768	34642.97
588.127	34608.62
588.487	34530.43
588.846	34899.46
589.206	34661.28
589.565	34694.95
589.925	34792.35
590.284	34611.56
590.643	34892.91
591.003	34941.5
591.362	34970.87
591.721	34897.88
592.08	34962.74
592.44	34990.31
592.799	35056.75
593.158	34963.19
593.517	35067.14
593.876	35077.76
594.235	35033.47
594.593	35075.5
594.952	35138.33
595.311	35033.02
595.67	35127.93
596.029	35443.18
596.387	35397.3
596.746	35364.76
597.104	35161.83
597.463	35149.85
597.822	35557.53
598.18	35348.72
598.538	35295.84
598.897	35532.67
599.255	35324.76
599.613	35777.63
599.972	35506.91
600.33	35670.97
600.688	35508.04
601.046	35697.18
601.404	35739.67
601.762	35747.58
602.12	35873.22
602.478	35894.01
602.836	35973.79
603.194	35873.45
603.552	35849.95
603.91	35841.59
604.268	36057.85
604.625	35908.7
604.983	36093.78
605.341	35972.2
605.698	36231.18
606.056	36243.38
606.413	36330.39
606.771	36479.54
607.128	36571.74
607.485	36228.69
607.843	36343.04
608.2	36632.3
608.557	36721.11
608.914	36624.62
609.272	36715.91
609.629	36808.11
609.986	36966.08
610.343	36747.78
610.7	37096.69
611.057	37100.31
611.414	37007.2
611.771	37126.52
612.127	37317.93
612.484	37264.15
612.841	37477.02
613.198	37263.47
613.554	37314.09
613.911	37514.54
614.267	37603.8
614.624	37570.35
614.98	37645.83
615.337	37854.41
615.693	37723.34
616.05	37716.56
616.406	38006.95
616.762	37887.41
617.118	37849.89
617.475	37763.34
617.831	38156.55
618.187	38064.35
618.543	38221.18
618.899	38354.29
619.255	38352.48
619.611	38371.91
619.967	38556.09
620.323	38530.78
620.678	38448.52
621.034	38413.27
621.39	38332.37
621.746	38304.12
622.101	38836.99
622.457	38487.62
622.812	38680.83
623.168	38670.89
623.523	38838.12
623.879	38808.29
624.234	38637.44
624.589	38739.36
624.945	38850.55
625.3	38873.6
625.655	38898.23
626.01	38846.25
626.365	38924.22
626.72	38882.41
627.075	38790.21
627.43	38834.5
627.785	38729.65
628.14	38784.79
628.495	38918.12
628.85	38962.63
629.205	38773.26
629.559	39024.78
629.914	38796.54
630.269	38957.89
630.623	38851.68
630.978	38767.61
631.332	38951.56
631.687	38946.81
632.041	38879.92
632.396	38971
632.75	38759.93
633.104	38871.56
633.459	38766.71
633.813	38718.8
634.167	38721.74
634.521	38706.82
634.875	38691.91
635.229	38692.13
635.583	38532.81
635.937	38661.62
636.291	38658.01
636.645	38595.41
636.999	38583.21
637.352	38636.77
637.706	38387.96
638.06	38655.07
638.413	38380.05
638.767	38378.69
639.121	38425.25
639.474	38190
639.828	38318.36
640.181	38286.49
640.534	38331.92
640.888	38275.42
641.241	38055.99
641.594	38230.45
641.947	38288.08
642.301	38286.72
642.654	38213.05
643.007	38179.15
643.36	38109.32
643.713	38206.04
644.066	38223.9
644.419	37917.92
644.771	37675.21
645.124	37278.61
645.477	37375.33
645.83	37183.25
646.182	36993.42
646.535	36980.99
646.888	36900.99
647.24	36794.78
647.593	37048.79
647.945	36836.59
648.298	36803.14
648.65	36678.85
649.002	36584.39
649.355	36745.52
649.707	36670.26
650.059	36730.15
650.411	37237.71
650.763	37198.16
651.115	37532.84
651.467	37574.42
651.819	37519.51
652.171	37440.64
652.523	37480.41
652.875	37432.5
653.227	37346.63
653.578	37357.03
653.93	37427.31
654.282	37314.54
654.633	37205.17
654.985	37310.93
655.337	37206.3
655.688	37302.34
656.039	37289.23
656.391	36997.71
656.742	37070.71
657.094	37158.61
657.445	37217.59
657.796	37069.12
658.147	37094.66
658.498	37034.55
658.849	37083.36
659.2	37029.13
659.551	36930.6
659.902	37129.01
660.253	36914.78
660.604	37103.47
660.955	36830.26
661.306	36988.9
661.656	36829.58
662.007	36997.49
662.358	36763.82
662.708	36819.19
663.059	36856.7
663.409	36682.92
663.76	36983.93
664.11	36883.37
664.461	36747.32
664.811	36865.97
665.161	36791.62
665.511	36824.61
665.862	36858.51
666.212	36916.59
666.562	36795.69
666.912	36804.05
667.262	36707.78
667.612	36800.88
667.962	36900.32
668.312	36757.27
668.662	36949.58
669.011	36800.88
669.361	36653.54
669.711	36736.7
670.06	36478.18
670.41	36754.78
670.76	36556.6
671.109	36771.96
671.459	36606.76
671.808	36618.29
672.157	36621.68
672.507	36383.27
672.856	36516.6
673.205	36561.79
673.554	36687.67
673.904	36511.85
674.253	36548.69
674.602	36566.99
674.951	35935.37
675.3	35865.99
675.649	36503.04
675.998	36293.55
676.346	36324.51
676.695	36443.38
677.044	36171.52
677.393	36219.2
677.741	36229.6
678.09	36284.74
678.438	36176.49
678.787	36153.22
679.135	36211.75
679.484	35978.98
679.832	36043.61
680.181	35931.53
680.529	36103.05
680.877	35916.16
681.225	35799.55
681.573	36060.34
681.922	35810.17
682.27	35712.1
682.618	35714.58
682.966	35687.47
683.314	35766.11
683.661	35437.98
684.009	35409.96
684.357	35436.85
684.705	35393.01
685.053	35447.25
685.4	35347.36
685.748	35127.03
686.095	35090.87
686.443	34991.21
686.79	34915.51
687.138	35148.04
687.485	35108.5
687.832	34917.09
688.18	34948.05
688.527	34820.37
688.874	34685.68
689.221	34727.49
689.568	34637.55
689.915	34412.92
690.262	34503.09
690.609	34493.37
690.956	34210.44
691.303	34197.56
691.65	34011.8
691.997	34034.18
692.344	33908.53
692.69	33848.87
693.037	33940.84
693.383	33621.08
693.73	33541.99
694.077	33440.07
694.423	33562.1
694.769	33457.47
695.116	33372.95
695.462	33373.4
695.808	33219.28
696.155	33190.36
696.501	32976.8
696.847	33111.94
697.193	32835.56
697.539	32806.19
697.885	32729.35
698.231	32466.08
698.577	32556.02
698.923	32484.61
699.269	32348.8
699.614	32325.52
699.96	32174.34
700.306	32147.22
700.651	32074
700.997	31850.05
701.342	31934.12
701.688	31757.85
702.033	31725.54
702.379	31793.1
702.724	31566.9
703.069	31630.62
703.415	31305.43
703.76	31495.26
704.105	31318.77
704.45	31213.91
704.795	31136.85
705.14	31066.12
705.485	31110.41
705.83	30908.83
706.175	30846.91
706.52	30749.29
706.865	30631.78
707.209	30653.7
707.554	30552.69
707.899	30629.75
708.243	30353.82
708.588	30426.59
708.932	30159.02
709.277	30122.87
709.621	30179.81
709.966	29940.05
710.31	30039.25
710.654	29839.26
710.998	29865.47
711.342	29894.62
711.687	29742.09
712.031	29721.97
712.375	29527.4
712.719	29610.11
713.063	29554.97
713.407	29728.75
713.75	29352.49
714.094	29467.29
714.438	29252.15
714.782	29364.92
715.125	29176.22
715.469	29215.32
715.812	29148.88
716.156	28957.47
716.499	28890.36
716.843	28919.06
717.186	28774.88
717.53	28871.83
717.873	28720.19
718.216	28704.15
718.559	28664.6
718.902	28435.45
719.246	28544.38
719.589	28462.8
719.932	28420.76
720.275	28322.91
720.617	28272.07
720.96	28219.64
721.303	28294.44
721.646	28224.84
721.989	28061
722.331	28220.09
722.674	28092.86
723.016	28160.88
723.359	27995.69
723.701	28047.67
724.044	27776.94
724.386	27629.37
724.729	27828.01
725.071	27630.95
725.413	27726.77
725.755	27585.08
726.097	27508.25
726.439	27275.26
726.782	27411.07
727.124	27556.15
727.465	27360.45
727.807	27279.33
728.149	27286.56
728.491	27214.24
728.833	27266.22
729.175	27171.53
729.516	27020.8
729.858	27164.75
730.199	27063.74
730.541	27052.89
730.882	26942.38
731.224	27061.93
731.565	26838.43
731.906	26881.82
732.248	26822.84
732.589	26690.41
732.93	26591.21
733.271	26531.1
733.612	26698.78
733.953	26653.8
734.294	26470.76
734.635	26470.31
734.976	26558.21
735.317	26391.89
735.658	26336.3
735.999	26364.77
736.339	26276.41
736.68	26351.21
737.021	26356.86
737.361	26219.24
737.702	26317.77
738.042	26393.02
738.383	26087.49
738.723	26132.24
739.063	26020.38
739.404	26114.16
739.744	26076.64
740.084	25914.16
740.424	25974.5
740.764	25967.04
741.104	25930.43
741.444	25690.89
741.784	25729.31
742.124	25706.71
742.464	25680.95
742.804	25680.5
743.143	25675.07
743.483	25677.56
743.823	25564.34
744.162	25410
744.502	25529.99
744.841	25337
745.181	25426.72
745.52	25330.45
745.86	25413.84
746.199	25220.4
746.538	25170.68
746.877	25228.31
747.216	25217.01
747.556	25101.76
747.895	25023.11
748.234	24941.08
748.573	25058.82
748.911	24984.92
749.25	25009.55
749.589	24841.88
749.928	24826.51
750.267	24846.85
750.605	24799.84
750.944	24725.04
751.283	24635.78
751.621	24647.76
751.96	24552.39
752.298	24449.57
752.636	24428.78
752.975	24388.33
753.313	24306.75
753.651	24426.74
753.989	24171.38
754.327	24360.76
754.666	24177.71
755.004	24176.81
755.342	24113.76
755.679	23970.71
756.017	23931.62
756.355	24028.11
756.693	23912.86
757.031	23893.2
757.368	23775.46
757.706	23731.4
758.044	23593.55
758.381	23624.05
758.719	23577.28
759.056	23593.77
759.394	23422.25
759.731	23293.44
760.068	23259.77
760.405	23184.07
760.743	23113.11
761.08	23135.03
761.417	22985.65
761.754	22917.18
762.091	22902.94
762.428	22819.78
762.765	22697.98
763.102	22897.52
763.438	22724.19
763.775	22560.58
764.112	22530.52
764.449	22573.46
764.785	22431.09
765.122	22289.4
765.458	22145
765.795	22316.29
766.131	22235.84
766.467	22038.56
766.804	21898
767.14	21853.93
767.476	21886.02
767.812	21763.99
768.148	21735.06
768.485	21652.81
768.821	21520.38
769.157	21469.53
769.492	21430.67
769.828	21510.44
770.164	21237.9
770.5	21218.92
770.836	21179.82
771.171	21099.6
771.507	20959.94
771.842	20832.26
772.178	20846.27
772.513	20792.94
772.849	20670.69
773.184	20660.74
773.519	20533.97
773.855	20519.95
774.19	20436.79
774.525	20399.51
774.86	20321.09
775.195	20290.36
775.53	20201.09
775.865	20081.32
776.2	19941.66
776.535	19831.16
776.87	19841.55
777.205	19750.48
777.539	19695.57
777.874	19696.93
778.209	19455.58
778.543	19397.05
778.878	19297.61
779.212	19282.25
779.547	19183.94
779.881	19273.43
780.215	19047.45
780.55	19104.4
780.884	19009.71
781.218	19023.95
781.552	18945.31
781.886	18765.42
782.22	18736.27
782.554	18606.11
782.888	18475.49
783.222	18473
783.556	18349.62
783.889	18421.93
784.223	18300.8
784.557	18232.78
784.89	18282.5
785.224	18109.4
785.557	18103.3
785.891	18026.91
786.224	17914.37
786.558	17906.69
786.891	17755.28
787.224	17814.04
787.557	17703.31
787.891	17694.04
788.224	17562.29
788.557	17677.77
788.89	17487.49
789.223	17482.29
789.556	17320.04
789.888	17287.5
790.221	17204.34
790.554	17083.66
790.887	17121.17
791.219	17010.44
791.552	16969.54
791.884	16872.59
792.217	16878.92
792.549	16777.23
792.882	16647.97
793.214	16608.19
793.546	16613.62
793.879	16486.84
794.211	16460.63
794.543	16446.16
794.875	16346.28
795.207	16376.33
795.539	16234.19
795.871	16272.38
796.203	16129.79
796.535	15981.09
796.867	16030.13
797.198	15956.91
797.53	16017.25
797.862	15822
798.193	15826.52
798.525	15775.45
798.856	15805.5
799.188	15580.65
799.519	15578.84
799.85	15570.93
800.182	15605.51
800.513	15491.61
800.844	15313.54
801.175	15430.37
801.506	15394.67
801.837	15269.02
802.168	15242.13
802.499	15275.35
802.83	15063.15
803.161	15056.6
803.491	15097.72
803.822	15060.44
804.153	14986.31
804.483	14953.55
804.814	14791.97
805.145	14783.16
805.475	14770.5
805.805	14668.13
806.136	14684.18
806.466	14703.84
806.796	14638.75
807.126	14549.26
807.457	14652.31
807.787	14546.55
808.117	14508.36
808.447	14438.76
808.777	14384.97
809.107	14413
809.436	14331.64
809.766	14330.51
810.096	14277.41
810.426	14209.61
810.755	14231.53
811.085	14167.81
811.414	14170.74
811.744	14065.66
812.073	14006.45
812.403	13955.61
812.732	13872.22
813.061	13844.2
813.39	13851.43
813.719	13777.08
814.049	13923.74
814.378	13772.56
814.707	13726.69
815.036	13688.27
815.365	13627.03
815.693	13491.89
816.022	13527.14
816.351	13485.79
816.68	13410.76
817.008	13431.78
817.337	13316.3
817.665	13320.82
817.994	13285.12
818.322	13306.59
818.651	13216.87
818.979	13234.95
819.307	13275.63
819.636	13152.69
819.964	13073.6
820.292	13158.11
820.62	13150.21
820.948	13154.27
821.276	13076.76
821.604	13063.88
821.932	13121.28
822.259	13097.55
822.587	13034.28
822.915	13001.96
823.243	13077.44
823.57	12997.89
823.898	13110.43
824.225	12939.82
824.553	13015.75
824.88	12986.37
825.207	13072.02
825.535	12973.94
825.862	13030.66
826.189	12927.61
826.516	12937.33
826.843	13121.05
827.17	13071.79
827.497	13051
827.824	13048.96
828.151	13022.3
828.478	12986.37
828.805	13007.16
829.131	12971.9
829.458	13040.15
829.785	12932.81
830.111	12918.12
830.438	12970.32
830.764	12967.16
831.09	12935.3
831.417	12898.46
831.743	12933.26
832.069	13020.04
832.395	12856.88
832.722	12884.9
833.048	12973.71
833.374	12896.65
833.7	12878.8
834.026	12923.09
834.351	12843.55
834.677	12834.73
835.003	12839.25
835.329	12870.89
835.654	12760.84
835.98	12779.59
836.306	12706.83
836.631	12705.7
836.956	12792.7
837.282	12731.91
837.607	12632.7
837.932	12660.5
838.258	12604.91
838.583	12585.47
838.908	12575.53
839.233	12606.04
839.558	12486.49
839.883	12531.24
840.208	12491.69
840.533	12467.06
840.858	12475.87
841.182	12501.86
841.507	12414.41
841.832	12336.67
842.156	12309.1
842.481	12349.77
842.805	12265.26
843.13	12303.9
843.454	12288.08
843.778	12197.69
844.103	12123.11
844.427	12174.41
844.751	12069.1
845.075	12073.17
845.399	12013.29
845.723	11996.34
846.047	11960.86
846.371	11864.36
846.695	11940.07
847.019	11767.42
847.343	11766.96
847.666	11748.43
847.99	11647.42
848.313	11640.64
848.637	11442.68
848.96	11535.11
849.284	11573.75
849.607	11496.24
849.931	11428.44
850.254	11433.64
850.577	11246.07
850.9	11197.71
851.223	11165.85
851.546	11139.86
851.869	11065.74
852.192	11100.99
852.515	11068.45
852.838	10966.08
853.161	10969.92
853.483	10930.15
853.806	10870.94
854.129	10871.62
854.451	10846.54
854.774	10730.61
855.096	10691.06
855.419	10691.06
855.741	10669.82
856.063	10617.84
856.385	10601.8
856.708	10588.92
857.03	10500.56
857.352	10483.38
857.674	10454.23
857.996	10386.44
858.318	10426.21
858.64	10416.94
858.961	10323.39
859.283	10325.42
859.605	10275.93
859.926	10279.77
860.248	10236.61
860.57	10223.05
860.891	10124.75
861.212	10227.8
861.534	10138.08
861.855	10133.79
862.176	10103.51
862.498	10112.77
862.819	10071.87
863.14	10024.64
863.461	9999.1
863.782	10034.13
864.103	10015.37
864.424	9958.2
864.745	9930.18
865.065	9869.39
865.386	9854.47
865.707	9900.12
866.027	9862.61
866.348	9872.78
866.668	9843.4
866.989	9792.55
867.309	9736.51
867.63	9774.25
867.95	9857.86
868.27	9723.4
868.59	9734.48
868.91	9704.19
869.23	9683.86
869.55	9634.14
869.87	9646.34
870.19	9607.7
870.51	9706.23
870.83	9671.88
871.15	9536.29
871.469	9590.07
871.789	9630.98
872.109	9532
872.428	9600.02
872.748	9521.37
873.067	9527.02
873.386	9489.74
873.706	9487.93
874.025	9473.24
874.344	9427.37
874.663	9446.57
874.982	9467.14
875.301	9353.02
875.62	9348.95
875.939	9356.63
876.258	9323.41
876.577	9227.37
876.896	9335.84
877.214	9264.66
877.533	9333.36
877.852	9240.25
878.17	9287.03
878.489	9268.5
878.807	9233.47
879.125	9196.86
879.444	9227.82
879.762	9133.14
880.08	9149.18
880.398	9148.73
880.716	9126.58
881.034	9130.2
881.352	9146.02
881.67	9055.4
881.988	9097.88
882.306	9054.95
882.624	8999.13
882.941	8948.28
883.259	8943.31
883.577	8961.61
883.894	8913.71
884.212	8919.58
884.529	8886.36
884.846	8871
885.164	8829.87
885.481	8772.47
885.798	8827.38
886.115	8718.23
886.432	8801.62
886.75	8737.44
887.067	8668.06
887.383	8704.45
887.7	8743.54
888.017	8601.4
888.334	8634.39
888.651	8579.03
888.967	8617.44
889.284	8534.28
889.6	8520.27
889.917	8487.05
890.233	8445.47
890.55	8464.9
890.866	8440.72
891.182	8460.16
891.498	8369.31
891.815	8359.37
892.131	8318.24
892.447	8326.15
892.763	8337.22
893.079	8258.36
893.395	8251.8
893.71	8221.75
894.026	8244.35
894.342	8124.57
894.657	8123.9
894.973	8104.91
895.289	8075.31
895.604	8090.23
895.92	7986.95
896.235	8036.67
896.55	8000.74
896.865	7943.11
897.181	7946.73
897.496	7952.15
897.811	7877.58
898.126	7848.2
898.441	7832.38
898.756	7902.21
899.071	7763.45
899.386	7817.01
899.7	7681.2
900.015	7712.16
900.33	7711.25
900.644	7655.21
900.959	7620.63
901.273	7619.05
901.588	7507.87
901.902	7507.87
902.216	7482.33
902.531	7463.12
902.845	7405.05
903.159	7393.52
903.473	7391.94
903.787	7323.24
904.101	7278.04
904.415	7299.96
904.729	7279.85
905.042	7241.43
905.356	7217.93
905.67	7172.51
905.984	7246.18
906.297	7181.77
906.611	7165.5
906.924	7117.82
907.237	7122.57
907.551	7021.55
907.864	7011.16
908.177	7015.9
908.491	6949.46
908.804	6921.22
909.117	6884.61
909.43	6890.26
909.743	6833.99
910.056	6854.78
910.368	6792.41
910.681	6797.15
910.994	6740.43
911.307	6693.43
911.619	6664.27
911.932	6639.87
912.244	6634.67
912.557	6674.9
912.869	6559.64
913.181	6568.91
913.494	6569.14
913.806	6482.58
914.118	6515.58
914.43	6421.79
914.742	6463.15
915.054	6434.22
915.366	6417.73
915.678	6344.73
915.99	6293.89
916.302	6301.8
916.613	6225.42
916.925	6236.71
917.236	6221.12
917.548	6179.09
917.859	6168.47
918.171	6111.52
918.482	6140.45
918.794	6059.77
919.105	6086.66
919.416	6034.91
919.727	5997.85
920.038	6011.41
920.349	5923.95
920.66	5914.24
920.971	5877.85
921.282	5885.54
921.593	5852.54
921.903	5782.94
922.214	5848.02
922.525	5803.28
922.835	5775.03
923.146	5742.49
923.456	5715.15
923.767	5713.56
924.077	5683.28
924.387	5657.07
924.697	5579.56
925.008	5648.93
925.318	5568.94
925.628	5595.6
925.938	5527.13
926.248	5468.6
926.558	5465.66
926.867	5480.35
927.177	5397.64
927.487	5363.07
927.796	5376.4
928.106	5387.92
928.416	5325.78
928.725	5330.98
929.034	5318.77
929.344	5331.43
929.653	5256.18
929.962	5243.07
930.271	5188.15
930.581	5173.24
930.89	5159.68
931.199	5193.8
931.508	5132.34
931.817	5148.38
932.125	5121.26
932.434	5070.87
932.743	5046.46
933.051	5017.76
933.36	4976.86
933.669	4943.87
933.977	4968.05
934.286	4947.26
934.594	4916.52
934.902	4864.77
935.21	4868.39
935.519	4857.09
935.827	4826.13
936.135	4791.1
936.443	4755.85
936.751	4741.39
937.059	4742.52
937.367	4690.31
937.674	4724.21
937.982	4729.18
938.29	4671.78
938.597	4671.11
938.905	4595.4
939.213	4625.01
939.52	4599.47
939.827	4600.6
940.135	4561.28
940.442	4549.53
940.749	4545.01
941.056	4478.79
941.363	4498.23
941.67	4445.8
941.977	4439.93
942.284	4422.75
942.591	4420.49
942.898	4364.67
943.205	4364.22
943.511	4361.74
943.818	4326.03
944.125	4321.28
944.431	4296.43
944.738	4212.14
945.044	4247.16
945.35	4252.81
945.657	4273.83
945.963	4196.77
946.269	4174.17
946.575	4176.88
946.881	4125.58
947.187	4129.88
947.493	4076.32
947.799	4065.7
948.105	4097.79
948.41	4076.55
948.716	4080.84
949.022	4034.74
949.327	4037.9
949.633	3977.11
949.938	3958.58
950.244	3974.18
950.549	3890.79
950.854	3907.74
951.16	3937.34
951.465	3889.21
951.77	3858.47
952.075	3860.51
952.38	3804.91
952.685	3832.94
952.99	3783.9
953.294	3823.9
953.599	3789.55
953.904	3777.57
954.209	3701.41
954.513	3689.21
954.818	3696.22
955.122	3715.88
955.426	3688.76
955.731	3658.03
956.035	3602.43
956.339	3622.77
956.643	3601.98
956.948	3574.19
957.252	3591.81
957.556	3564.92
957.86	3501.19
958.163	3561.76
958.467	3572.83
958.771	3468.43
959.075	3504.81
959.378	3456
959.682	3456.45
959.985	3492.38
960.289	3426.39
960.592	3419.61
960.896	3372.16
961.199	3367.19
961.502	3386.62
961.805	3406.51
962.108	3309.79
962.411	3352.5
962.714	3307.98
963.017	3301.2
963.32	3310.24
963.623	3234.08
963.926	3258.49
964.228	3245.61
964.531	3230.47
964.833	3206.51
965.136	3182.11
965.438	3181.65
965.741	3161.09
966.043	3161.32
966.345	3151.82
966.648	3132.39
966.95	3131.03
967.252	3096.68
967.554	3125.38
967.856	3059.4
968.158	3062.11
968.46	3044.03
968.761	3046.29
969.063	3008.1
969.365	3063.92
969.666	2987.99
969.968	2998.16
970.269	2947.54
970.571	2976.46
970.872	2955.44
971.174	2920.64
971.475	2958.16
971.776	2900.53
972.077	2883.58
972.378	2893.75
972.679	2875.9
972.98	2851.49
973.281	2838.16
973.582	2831.61
973.883	2804.94
974.183	2783.92
974.484	2774.88
974.785	2793.87
975.085	2806.75
975.386	2779.63
975.686	2758.16
975.986	2760.2
976.287	2722.23
976.587	2681.1
976.887	2678.62
977.187	2677.26
977.487	2694.43
977.787	2659.18
978.087	2663.7
978.387	2636.13
978.687	2627.77
978.987	2631.61
979.286	2609.92
979.586	2597.04
979.885	2603.82
980.185	2584.38
980.484	2563.59
980.784	2560.88
981.083	2506.87
981.382	2502.35
981.682	2498.28
981.981	2497.83
982.28	2466.87
982.579	2456.93
982.878	2475.91
983.177	2466.64
983.475	2463.93
983.774	2452.63
984.073	2441.33
984.372	2443.37
984.67	2393.2
984.969	2427.1
985.267	2421.9
985.566	2387.78
985.864	2360.66
986.162	2359.3
986.461	2348.68
986.759	2339.64
987.057	2332.64
987.355	2312.3
987.653	2292.19
987.951	2327.44
988.249	2281.34
988.547	2284.73
988.844	2289.93
989.142	2256.48
989.44	2231.17
989.737	2219.42
990.035	2207.67
990.332	2212.19
990.63	2203.37
990.927	2176.03
991.224	2220.77
991.521	2157.05
991.819	2178.74
992.116	2162.25
992.413	2151.85
992.71	2108.69
993.006	2138.52
993.303	2156.6
993.6	2118.86
993.897	2083.83
994.193	2083.6
994.49	2082.02
994.787	2087.45
995.083	2082.02
995.379	2028.01
995.676	2047.9
995.972	2058.07
996.268	2018.97
996.565	2017.16
996.861	1998.18
997.157	1967.67
997.453	1962.02
997.749	1966.54
998.044	1965.41
998.34	1980.1
998.636	1949.6
998.932	1944.62
999.227	1909.6
999.523	1897.62
999.818	1938.3
1000.114	1898.52
1000.409	1851.75
1000.704	1867.79
1001	1886.32
1001.295	1877.51
1001.59	1874.57
1001.885	1860.56
1002.18	1842.03
1002.475	1828.69
1002.77	1833.67
1003.065	1765.42
1003.359	1797.28
1003.654	1814.46
1003.949	1792.09
1004.243	1767.23
1004.538	1752.31
1004.832	1757.74
1005.127	1743.05
1005.421	1763.16
1005.715	1741.01
1006.009	1718.42
1006.304	1695.82
1006.598	1686.55
1006.892	1682.48
1007.186	1656.04
1007.48	1667.8
1007.773	1650.62
1008.067	1657.4
1008.361	1620.34
1008.655	1636.38
1008.948	1618.3
1009.242	1615.14
1009.535	1606.1
1009.829	1585.31
1010.122	1582.6
1010.415	1588.25
1010.708	1570.85
1011.001	1544.63
1011.295	1539.44
1011.588	1572.66
1011.881	1505.99
1012.173	1497.4
1012.466	1532.88
1012.759	1489.27
1013.052	1505.31
1013.344	1464.64
1013.637	1463.51
1013.93	1469.61
1014.222	1455.15
1014.514	1441.81
1014.807	1451.76
1015.099	1404.98
1015.391	1426.67
1015.683	1430.29
1015.976	1389.84
1016.268	1411.98
1016.56	1392.55
1016.851	1391.87
1017.143	1404.3
1017.435	1368.14
1017.727	1369.05
1018.018	1367.69
1018.31	1361.14
1018.602	1332.44
1018.893	1346
1019.185	1317.52
1019.476	1286.56
1019.767	1292.66
1020.058	1328.37
1020.35	1290.86
1020.641	1275.04
1020.932	1268.26
1021.223	1260.35
1021.514	1243.85
1021.804	1270.74
1022.095	1243.63
1022.386	1236.39
1022.677	1227.81
1022.967	1243.63
1023.258	1207.47
1023.548	1207.69
1023.839	1223.06
1024.129	1182.61
1024.419	1194.59
1024.709	1196.17
1025	1181.93
1025.29	1168.83
1025.58	1164.98
1025.87	1159.11
1026.16	1151.2
1026.449	1126.79
1026.739	1151.88
1027.029	1132.67
1027.319	1102.84
1027.608	1110.75
1027.898	1102.84
1028.187	1084.08
1028.477	1098.32
1028.766	1074.59
1029.055	1057.19
1029.344	1088.83
1029.634	1059
1029.923	1074.59
1030.212	1055.61
1030.501	1036.4
1030.79	1066.23
1031.078	1016.74
1031.367	1001.37
1031.656	1019.68
1031.945	1008.38
1032.233	989.62
1032.522	967.25
1032.81	1001.37
1033.099	992.11
1033.387	997.53
1033.675	980.36
1033.963	936.06
1034.251	958.66
1034.54	946.23
1034.828	944.42
1035.116	962.05
1035.403	937.64
1035.691	922.05
1035.979	966.57
1036.267	942.62
1036.554	904.2
1036.842	909.85
1037.129	882.96
1037.417	903.52
1037.704	896.06
1037.992	881.38
1038.279	877.53
1038.566	862.39
1038.853	862.39
1039.14	862.39
