Data from hue_160_FLMS001491_00046.txt Node
Date: Tue Feb 07 16:51:14 GMT 2017
User: dcchb
Spectrometer: FLMS00149
Trigger mode: 0
Integration Time (sec): 2.000000E-2
Scans to average: 10
Electric dark correction enabled: true
Nonlinearity correction enabled: false
Boxcar width: 0
XAxis mode: Wavelengths
Number of Pixels in Spectrum: 2048
>>>>>Begin Spectral Data<<<<<
341.393	-35.41
341.776	-35.41
342.16	-35.41
342.543	-64.56
342.927	-66.14
343.31	-81.96
343.693	-71.57
344.077	-47.39
344.46	-72.24
344.843	-40.38
345.226	-55.97
345.61	-29.76
345.993	-19.59
346.376	3.01
346.759	1.2
347.142	27.19
347.525	34.42
347.908	48.66
348.291	88.2
348.674	94.76
349.057	121.42
349.44	105.6
349.823	142.21
350.206	147.19
350.588	179.95
350.971	217.69
351.354	223.12
351.737	223.79
352.119	243.91
352.502	260.63
352.884	280.52
353.267	273.96
353.65	289.78
354.032	276.67
354.414	306.05
354.797	301.31
355.179	304.47
355.562	320.74
355.944	301.31
356.326	339.95
356.709	319.61
357.091	324.36
357.473	346.28
357.855	323.45
358.238	327.75
358.62	353.51
359.002	332.49
359.384	339.5
359.766	339.04
360.148	328.65
360.53	315.09
360.912	324.58
361.294	315.32
361.676	314.86
362.057	320.74
362.439	304.02
362.821	325.03
363.203	313.51
363.584	302.21
363.966	304.02
364.348	306.96
364.729	299.05
365.111	306.73
365.493	302.44
365.874	291.59
366.256	335.66
366.637	329.78
367.019	330.01
367.4	306.05
367.781	291.14
368.163	307.41
368.544	303.57
368.925	310.12
369.306	312.38
369.688	301.76
370.069	313.06
370.45	294.53
370.831	303.34
371.212	302.66
371.593	301.08
371.974	322.32
372.355	288.65
372.736	322.1
373.117	315.99
373.498	299.27
373.879	304.24
374.26	318.03
374.641	307.41
375.021	308.54
375.402	287.52
375.783	295.88
376.163	305.83
376.544	311.47
376.925	315.77
377.305	302.89
377.686	315.99
378.066	313.73
378.447	328.42
378.827	333.4
379.208	332.04
379.588	341.3
379.968	328.88
380.349	318.71
380.729	317.35
381.109	349.67
381.489	313.73
381.87	330.68
382.25	313.06
382.63	309.44
383.01	342.66
383.39	312.6
383.77	343.79
384.15	332.49
384.53	341.3
384.91	342.21
385.29	353.51
385.67	337.46
386.049	321.87
386.429	320.29
386.809	341.08
387.189	336.56
387.568	337.01
387.948	336.56
388.328	349.89
388.707	330.23
389.087	365.26
389.466	340.4
389.846	350.8
390.225	336.11
390.605	324.13
390.984	347.86
391.363	347.41
391.743	354.41
392.122	366.16
392.501	365.94
392.881	328.42
393.26	357.8
393.639	358.71
394.018	380.4
394.397	363.9
394.776	356.9
395.155	369.33
395.534	374.52
395.913	371.13
396.292	371.59
396.671	384.02
397.05	363
397.429	362.32
397.808	381.08
398.186	376.33
398.565	385.37
398.944	367.97
399.323	363.22
399.701	392.38
400.08	380.17
400.458	372.26
400.837	392.83
401.215	386.28
401.594	388.08
401.972	385.6
402.351	382.89
402.729	377.24
403.107	414.07
403.486	376.33
403.864	399.83
404.242	383.56
404.62	391.47
404.999	421.75
405.377	419.95
405.755	414.75
406.133	410.23
406.511	419.72
406.889	419.49
407.267	437.12
407.645	400.51
408.023	438.7
408.401	420.4
408.779	418.14
409.156	416.78
409.534	435.99
409.912	431.25
410.29	444.35
410.667	450.91
411.045	449.78
411.422	445.71
411.8	440.96
412.178	452.49
412.555	456.78
412.933	452.71
413.31	451.36
413.687	441.87
414.065	473.5
414.442	457.69
414.819	461.3
415.197	493.84
415.574	479.38
415.951	501.98
416.328	478.02
416.705	492.26
417.082	507.63
417.46	497.46
417.837	505.59
418.214	504.46
418.591	486.39
418.967	512.15
419.344	498.14
419.721	495.42
420.098	509.44
420.475	506.72
420.852	507.4
421.228	535.2
421.605	533.16
421.982	531.13
422.358	539.27
422.735	542.88
423.111	542.43
423.488	565.93
423.864	546.04
424.241	555.54
424.617	551.02
424.994	573.39
425.37	573.84
425.746	552.82
426.123	583.33
426.499	582.2
426.875	568.42
427.251	559.83
427.627	595.31
428.003	575.87
428.379	609.77
428.756	602.09
429.132	584.24
429.507	623.78
429.883	611.35
430.259	608.64
430.635	623.78
431.011	639.38
431.387	685.7
431.763	667.17
432.138	654.06
432.514	663.56
432.89	651.8
433.265	680.5
433.641	685.48
434.016	689.32
434.392	696.55
434.767	723.44
435.143	699.94
435.518	723.22
435.894	702.88
436.269	712.59
436.644	704.46
437.02	729.09
437.395	739.71
437.77	767.06
438.145	759.6
438.52	753.5
438.895	760.73
439.271	777
439.646	787.62
440.021	785.59
440.395	787.17
440.77	770.22
441.145	791.01
441.52	845.02
441.895	822.42
442.27	821.74
442.645	809.77
443.019	825.36
443.394	817
443.769	861.97
444.143	853.16
444.518	853.83
444.892	858.13
445.267	858.35
445.641	882.76
446.016	885.7
446.39	864.91
446.764	892.48
447.139	876.88
447.513	882.99
447.887	925.47
448.262	904
448.636	915.07
449.01	901.52
449.384	943.32
449.758	938.8
450.132	932.7
450.506	932.93
450.88	964.57
451.254	954.4
451.628	959.82
452.002	998.24
452.376	985.58
452.75	1013.6
453.123	992.81
453.497	1001.85
453.871	1008.41
454.244	1037.33
454.618	1051.12
454.992	1066.94
455.365	1061.51
455.739	1078.01
456.112	1115.07
456.486	1102.41
456.859	1082.53
457.232	1121.85
457.606	1129.53
457.979	1134.73
458.352	1166.14
458.725	1176.54
459.099	1199.59
459.472	1240.26
459.845	1217.44
460.218	1216.99
460.591	1238.91
460.964	1242.52
461.337	1252.02
461.71	1288.62
462.083	1299.25
462.456	1315.52
462.829	1326.59
463.201	1347.61
463.574	1355.29
463.947	1388.73
464.32	1435.29
464.692	1415.85
465.065	1444.55
465.438	1452.69
465.81	1501.95
466.183	1508.05
466.555	1550.31
466.928	1516.87
467.3	1557.32
467.672	1590.99
468.045	1626.47
468.417	1632.8
468.789	1648.39
469.161	1728.61
469.534	1699.69
469.906	1765.45
470.278	1762.96
470.65	1830.76
471.022	1843.64
471.394	1885.67
471.766	1917.31
472.138	1928.38
472.51	1958.44
472.882	2040.69
473.253	2089.28
473.625	2110.98
473.997	2167.92
474.369	2225.32
474.74	2254.93
475.112	2298.32
475.484	2349.84
475.855	2414.02
476.227	2436.39
476.598	2468.25
476.97	2595.71
477.341	2629.61
477.713	2710.96
478.084	2743.95
478.455	2822.6
478.827	2895.36
479.198	2951.41
479.569	3046.54
479.94	3125.64
480.311	3188.01
480.682	3275.92
481.053	3402.92
481.424	3474.33
481.795	3565.4
482.166	3611.95
482.537	3714.78
482.908	3806.3
483.279	3906.63
483.65	4050.81
484.021	4131.49
484.391	4239.28
484.762	4315.44
485.133	4399.05
485.503	4466.17
485.874	4656.67
486.244	4741.19
486.615	4898.47
486.985	4970.79
487.356	5157
487.726	5215.53
488.097	5357.44
488.467	5400.38
488.837	5613.71
489.207	5709.98
489.578	5855.06
489.948	5937.77
490.318	6087.82
490.688	6213.24
491.058	6389.06
491.428	6469.96
491.798	6579.11
492.168	6706.56
492.538	6868.59
492.908	6985.42
493.278	7133.44
493.648	7155.59
494.017	7360.33
494.387	7481.91
494.757	7525.52
495.126	7708.34
495.496	7768.91
495.866	7829.24
496.235	8019.52
496.605	8124.83
496.974	8219.97
497.344	8349.23
497.713	8460.87
498.082	8520.52
498.452	8663.8
498.821	8751.25
499.19	8767.52
499.559	8960.51
499.928	9065.37
500.298	9062.21
500.667	9260.84
501.036	9243.67
501.405	9407.05
501.774	9430.33
502.143	9530.44
502.512	9618.8
502.88	9697.22
503.249	9697.89
503.618	9779.25
503.987	9865.57
504.356	9991.9
504.724	10005.46
505.093	10055.17
505.462	10099.47
505.83	10180.82
506.199	10285
506.567	10350.53
506.936	10373.36
507.304	10515.27
507.672	10585.33
508.041	10664.65
508.409	10664.65
508.777	10781.03
509.145	10873.23
509.514	10893.34
509.882	10886.56
510.25	10884.53
510.618	11025.54
510.986	10971.31
511.354	11083.85
511.722	11116.16
512.09	11260.57
512.458	11210.85
512.826	11345.08
513.193	11404.29
513.561	11367
513.929	11511.18
514.297	11475.25
514.664	11586.88
515.032	11606.09
515.4	11627.56
515.767	11602.25
516.135	11662.81
516.502	11603.61
516.869	11743.94
517.237	11762.25
517.604	11748.46
517.972	11803.38
518.339	11898.97
518.706	11826.88
519.073	11855.35
519.44	11971.28
519.808	12009.92
520.175	11931.96
520.542	12032.75
520.909	12076.82
521.276	12057.61
521.643	12156.81
522.009	12159.07
522.376	12151.16
522.743	12119.75
523.11	12300.31
523.477	12269.58
523.843	12293.08
524.21	12490.36
524.577	12389.8
524.943	12413.98
525.31	12387.99
525.676	12493.08
526.043	12507.99
526.409	12482.68
526.776	12632.28
527.142	12548.44
527.508	12562.9
527.874	12611.26
528.241	12583.47
528.607	12559.29
528.973	12649.23
529.339	12593.64
529.705	12609.68
530.071	12732.39
530.437	12644.26
530.803	12729.23
531.169	12684.26
531.535	12580.08
531.901	12594.77
532.267	12590.7
532.632	12623.02
532.998	12585.73
533.364	12624.6
533.73	12583.02
534.095	12605.39
534.461	12592.96
534.826	12560.19
535.192	12569.46
535.557	12590.7
535.923	12517.93
536.288	12509.8
536.653	12495.56
537.019	12383.93
537.384	12472.29
537.749	12403.13
538.114	12373.98
538.479	12261.9
538.845	12382.34
539.21	12180.32
539.575	12179.19
539.94	12252.63
540.305	12265.51
540.67	12085.18
541.034	12111.84
541.399	12076.59
541.764	12091.28
542.129	12051.05
542.494	11990.26
542.858	12002.69
543.223	11952.52
543.587	12006.99
543.952	11891.06
544.316	11821.68
544.681	11805.18
545.045	11778.97
545.41	11884.05
545.774	11767.22
546.138	11664.4
546.503	11712.98
546.867	11636.37
547.231	11690.38
547.595	11632.76
547.959	11576.72
548.324	11594.57
548.688	11512.54
549.052	11539.88
549.416	11476.83
549.779	11439.09
550.143	11408.81
550.507	11410.84
550.871	11342.6
551.235	11315.03
551.599	11339.43
551.962	11264.41
552.326	11231.19
552.689	11218.98
553.053	11109.83
553.417	11168.59
553.78	11250.4
554.143	11108.71
554.507	11131.76
554.87	11138.53
555.234	11091.08
555.597	11071.19
555.96	11083.17
556.323	11017.18
556.686	11005.43
557.05	11000.69
557.413	11060.34
557.776	10954.13
558.139	10937.64
558.502	10986
558.865	10972.21
559.228	10988.03
559.59	10968.37
559.953	10984.64
560.316	10988.93
560.679	10888.15
561.041	10947.13
561.404	11036.84
561.767	11069.84
562.129	11031.87
562.492	11019.67
562.854	10932.89
563.217	10971.53
563.579	11005.43
563.941	11002.95
564.304	11022.83
564.666	11025.09
565.028	11001.14
565.39	11039.55
565.753	11038.2
566.115	10989.39
566.477	11047.69
566.839	11080.91
567.201	11040.01
567.563	11101.7
567.925	11114.13
568.287	11128.82
568.648	11090.63
569.01	11098.54
569.372	11122.94
569.734	11125.65
570.095	11219.44
570.457	11243.62
570.819	11150.51
571.18	11251.53
571.542	11222.15
571.903	11175.82
572.265	11300.34
572.626	11260.11
572.987	11211.08
573.349	11221.02
573.71	11240
574.071	11223.28
574.432	11322.26
574.794	11298.08
575.155	11274.8
575.516	11246.55
575.877	11285.42
576.238	11353.67
576.599	11350.96
576.96	11345.99
577.32	11338.98
577.681	11371.3
578.042	11371.75
578.403	11321.35
578.763	11282.94
579.124	11423.95
579.485	11364.07
579.845	11323.16
580.206	11346.21
580.566	11317.74
580.927	11309.6
581.287	11350.96
581.648	11251.98
582.008	11409.94
582.368	11344.86
582.728	11327.91
583.089	11310.06
583.449	11281.81
583.809	11315.48
584.169	11355.48
584.529	11299.66
584.889	11331.75
585.249	11247.91
585.609	11211.98
585.969	11432.99
586.329	11263.05
586.688	11270.96
587.048	11258.76
587.408	11266.44
587.768	11238.65
588.127	11261.7
588.487	11156.16
588.846	11225.09
589.206	11186.44
589.565	11167.01
589.925	11173.11
590.284	11165.65
590.643	11129.72
591.003	11218.76
591.362	11195.48
591.721	11161.13
592.08	11175.6
592.44	11229.83
592.799	11192.54
593.158	11135.6
593.517	11042.04
593.876	11155.48
594.235	11118.65
594.593	11035.49
594.952	11096.5
595.311	11113.22
595.67	11020.57
596.029	11163.84
596.387	11125.65
596.746	11064.19
597.104	11080.23
597.463	11045.2
597.822	11111.64
598.18	11071.42
598.538	11019.67
598.897	11030.74
599.255	11014.92
599.613	11103.73
599.972	11059.44
600.33	11047.01
600.688	11048.59
601.046	11076.16
601.404	11094.24
601.762	11029.84
602.12	11092.43
602.478	11009.27
602.836	11149.83
603.194	11041.14
603.552	11093.11
603.91	10947.13
604.268	11044.98
604.625	11102.38
604.983	11068.25
605.341	11007.69
605.698	11087.69
606.056	11007.01
606.413	11079.33
606.771	11141.02
607.128	11127.46
607.485	11013.11
607.843	11074.36
608.2	11113.45
608.557	11150.06
608.914	11029.39
609.272	11115.03
609.629	11138.08
609.986	11158.2
610.343	11133.79
610.7	11185.54
611.057	11183.73
611.414	11176.05
611.771	11148.03
612.127	11200.45
612.484	11164.75
612.841	11258.98
613.198	11159.78
613.554	11202.26
613.911	11264.63
614.267	11197.74
614.624	11254.01
614.98	11265.09
615.337	11292.66
615.693	11262.37
616.05	11248.14
616.406	11253.56
616.762	11283.16
617.118	11254.69
617.475	11298.53
617.831	11286.1
618.187	11336.04
618.543	11321.81
618.899	11341.02
619.255	11345.99
619.611	11345.76
619.967	11360.22
620.323	11412.2
620.678	11289.94
621.034	11325.87
621.39	11251.75
621.746	11344.63
622.101	11455.59
622.457	11312.54
622.812	11381.47
623.168	11446.1
623.523	11315.25
623.879	11419.21
624.234	11245.2
624.589	11338.53
624.945	11356.38
625.3	11388.02
625.655	11453.1
626.01	11384.63
626.365	11331.98
626.72	11358.19
627.075	11377.85
627.43	11265.31
627.785	11300.34
628.14	11314.35
628.495	11412.43
628.85	11329.04
629.205	11349.83
629.559	11377.85
629.914	11289.27
630.269	11330.62
630.623	11281.81
630.978	11229.61
631.332	11275.71
631.687	11286.78
632.041	11264.63
632.396	11251.53
632.75	11211.08
633.104	11163.17
633.459	11167.46
633.813	11181.02
634.167	11200.68
634.521	11189.38
634.875	11188.03
635.229	11141.7
635.583	11147.8
635.937	11131.76
636.291	11042.27
636.645	11152.55
636.999	11029.61
637.352	11088.37
637.706	11081.81
638.06	11096.5
638.413	11038.2
638.767	10901.03
639.121	11004.3
639.474	10892.44
639.828	11013.34
640.181	11003.4
640.534	10965.43
640.888	10997.07
641.241	10895.15
641.594	10964.08
641.947	10961.14
642.301	10907.13
642.654	10917.98
643.007	10937.86
643.36	10914.13
643.713	10916.62
644.066	10888.82
644.419	10813.12
644.771	10729.28
645.124	10629.4
645.477	10690.19
645.83	10617.64
646.182	10551.66
646.535	10579.23
646.888	10576.06
647.24	10538.78
647.593	10584.43
647.945	10560.7
648.298	10527.93
648.65	10527.7
649.002	10495.84
649.355	10501.94
649.707	10536.52
650.059	10512.56
650.411	10662.39
650.763	10647.25
651.115	10808.6
651.467	10713.01
651.819	10720.92
652.171	10736.74
652.523	10700.13
652.875	10717.98
653.227	10559.79
653.578	10755.49
653.93	10702.61
654.282	10686.12
654.633	10625.78
654.985	10709.17
655.337	10716.4
655.688	10681.82
656.039	10733.35
656.391	10673.91
656.742	10748.49
657.094	10750.75
657.445	10756.17
657.796	10700.35
658.147	10764.53
658.498	10694.93
658.849	10754.14
659.2	10650.19
659.551	10703.52
659.902	10775.83
660.253	10723.63
660.604	10747.58
660.955	10707.36
661.306	10732.67
661.656	10717.08
662.007	10751.2
662.358	10720.24
662.708	10779.67
663.059	10758.66
663.409	10737.42
663.76	10807.7
664.11	10767.7
664.461	10823.06
664.811	10830.29
665.161	10787.13
665.511	10757.08
665.862	10799.56
666.212	10842.95
666.562	10814.25
666.912	10752.33
667.262	10746.45
667.612	10755.04
667.962	10804.08
668.312	10836.62
668.662	10787.36
669.011	10779.9
669.361	10782.84
669.711	10783.97
670.06	10765.66
670.41	10686.57
670.76	10809.5
671.109	10738.32
671.459	10771.76
671.808	10724.76
672.157	10732.22
672.507	10695.83
672.856	10706.68
673.205	10664.2
673.554	10689.51
673.904	10706
674.253	10743.52
674.602	10712.33
674.951	10588.94
675.3	10426.46
675.649	10603.41
675.998	10625.1
676.346	10596.63
676.695	10623.75
677.044	10546.69
677.393	10628.27
677.741	10591.2
678.09	10607.7
678.438	10514.82
678.787	10569.51
679.135	10594.82
679.484	10499.46
679.832	10514.37
680.181	10434.15
680.529	10471.21
680.877	10481.83
681.225	10428.27
681.573	10444.32
681.922	10337.2
682.27	10368.39
682.618	10290.87
682.966	10341.72
683.314	10352.79
683.661	10310.31
684.009	10275.73
684.357	10280.93
684.705	10230.99
685.053	10208.16
685.4	10146.7
685.748	10185.11
686.095	10095.17
686.443	10101.5
686.79	10084.1
687.138	10106.92
687.485	10100.6
687.832	10020.37
688.18	10068.28
688.527	10032.35
688.874	9997.55
689.221	10005.01
689.568	9920.71
689.915	9930.88
690.262	9919.58
690.609	9855.18
690.956	9777.21
691.303	9797.78
691.65	9745.8
691.997	9772.92
692.344	9731.57
692.69	9625.81
693.037	9606.15
693.383	9606.37
693.73	9581.74
694.077	9522.98
694.423	9531.8
694.769	9567.73
695.116	9472.82
695.462	9401.41
695.808	9445.92
696.155	9362.99
696.501	9334.29
696.847	9345.81
697.193	9260.39
697.539	9258.81
697.885	9226.04
698.231	9140.17
698.577	9198.47
698.923	9149.43
699.269	9155.54
699.614	9065.37
699.96	9006.16
700.306	8974.07
700.651	8939.04
700.997	8977.01
701.342	8911.25
701.688	8906.96
702.033	8877.13
702.379	8823.79
702.724	8748.77
703.069	8812.27
703.415	8659.5
703.76	8708.99
704.105	8686.17
704.45	8670.35
704.795	8579.73
705.14	8540.41
705.485	8556.68
705.83	8493.41
706.175	8584.48
706.52	8511.26
706.865	8465.84
707.209	8516.68
707.554	8417.48
707.899	8476.01
708.243	8377.03
708.588	8339.06
708.932	8299.51
709.277	8230.81
709.621	8289.12
709.966	8226.07
710.31	8238.95
710.654	8209.35
710.998	8199.4
711.342	8206.86
711.687	8168.44
712.031	8145.85
712.375	8104.26
712.719	8151.95
713.063	8146.52
713.407	8087.54
713.75	8097.26
714.094	8020.42
714.438	7974.55
714.782	8059.97
715.125	7931.39
715.469	8062.01
715.812	7925.74
716.156	7892.52
716.499	7915.57
716.843	7975.68
717.186	7913.76
717.53	7889.81
717.873	7910.37
718.216	7896.13
718.559	7805.97
718.902	7841.67
719.246	7797.15
719.589	7771.39
719.932	7766.19
720.275	7786.76
720.617	7832.86
720.96	7762.13
721.303	7788.34
721.646	7717.38
721.989	7744.05
722.331	7817.49
722.674	7735.46
723.016	7745.18
723.359	7720.09
723.701	7736.36
724.044	7708.34
724.386	7682.81
724.729	7665.41
725.071	7738.17
725.413	7680.55
725.755	7651.85
726.097	7692.3
726.439	7626.99
726.782	7664.95
727.124	7631.28
727.465	7586.76
727.807	7593.54
728.149	7584.05
728.491	7576.37
728.833	7615.01
729.175	7666.08
729.516	7617.05
729.858	7620.44
730.199	7641
730.541	7599.19
730.882	7662.92
731.224	7630.15
731.565	7554.45
731.906	7621.34
732.248	7608.91
732.589	7570.94
732.93	7552.87
733.271	7517.16
733.612	7549.02
733.953	7563.94
734.294	7555.13
734.635	7547.89
734.976	7570.49
735.317	7489.59
735.658	7533.21
735.999	7533.43
736.339	7524.62
736.68	7569.82
737.021	7537.05
737.361	7580.44
737.702	7575.69
738.042	7575.69
738.383	7603.94
738.723	7627.44
739.063	7594.45
739.404	7635.58
739.744	7603.94
740.084	7650.26
740.424	7625.86
740.764	7635.58
741.104	7678.29
741.444	7657.5
741.784	7669.02
742.124	7753.77
742.464	7719.87
742.804	7726.42
743.143	7729.36
743.483	7709.25
743.823	7750.15
744.162	7733.65
744.502	7823.14
744.841	7855.46
745.181	7872.86
745.52	7875.34
745.86	7977.26
746.199	8003.7
746.538	7975.23
746.877	8072.17
747.216	8062.68
747.556	8112.63
747.895	8198.95
748.234	8180.19
748.573	8201.89
748.911	8299.51
749.25	8312.62
749.589	8374.54
749.928	8426.52
750.267	8570.69
750.605	8531.82
750.944	8634.65
751.283	8706.51
751.621	8714.64
751.96	8868.99
752.298	8968.87
752.636	9055.2
752.975	9057.69
753.313	9162.54
753.651	9297.68
753.989	9360.73
754.327	9522.08
754.666	9579.71
755.004	9671.68
755.342	9814.28
755.679	9977.21
756.017	9970.2
756.355	10184.44
756.693	10302.17
757.031	10405.22
757.368	10506.91
757.706	10616.74
758.044	10859.45
758.381	10953.68
758.719	11066.67
759.056	11281.36
759.394	11375.82
759.731	11514.57
760.068	11651.97
760.405	11780.78
760.743	11869.82
761.08	12094.89
761.417	12272.97
761.754	12423.02
762.091	12544.37
762.428	12670.02
762.765	12798.6
763.102	13000.18
763.438	13128.99
763.775	13246.28
764.112	13432.03
764.449	13667.28
764.785	13667.28
765.122	13807.17
765.458	13965.81
765.795	14142.3
766.131	14327.15
766.467	14400.37
766.804	14630.65
767.14	14611.66
767.476	14782.05
767.812	14994.93
768.148	15151.76
768.485	15142.27
768.821	15238.09
769.157	15378.2
769.492	15501.36
769.828	15678.53
770.164	15704.06
770.5	15784.74
770.836	15969.14
771.171	16027.45
771.507	16148.57
771.842	16119.87
772.178	16303.6
772.513	16407.77
772.849	16471.28
773.184	16589.01
773.519	16713.98
773.855	16648.9
774.19	16752.4
774.525	16807.09
774.86	16900.19
775.195	17037.81
775.53	17016.12
775.865	16997.14
776.2	17050.92
776.535	16928.89
776.87	17099.06
777.205	17107.19
777.539	17118.26
777.874	17370.46
778.209	17189.68
778.543	17265.83
778.878	17282.33
779.212	17327.75
779.547	17339.73
779.881	17378.37
780.215	17389.67
780.55	17491.36
780.884	17390.57
781.218	17404.81
781.552	17436.67
781.886	17488.88
782.22	17421.08
782.554	17428.99
782.888	17269
783.222	17323.23
783.556	17305.38
783.889	17365.94
784.223	17316.45
784.557	17286.62
784.89	17292.27
785.224	17262.22
785.557	17231.03
785.891	17177.7
786.224	17217.7
786.558	17324.13
786.891	17166.85
787.224	17154.2
787.557	17016.12
787.891	17076.01
788.224	17123.24
788.557	17169.56
788.89	17065.38
789.223	17153.29
789.556	16977.25
789.888	17004.82
790.221	16955.33
790.554	16892.06
790.887	16968.89
791.219	16896.58
791.552	16877.82
791.884	16800.76
792.217	16767.54
792.549	16714.21
792.882	16624.27
793.214	16539.07
793.546	16721.66
793.879	16602.12
794.211	16532.97
794.543	16572.97
794.875	16515.12
795.207	16699.29
795.539	16554.89
795.871	16522.8
796.203	16389.92
796.535	16324.84
796.867	16406.19
797.198	16325.97
797.53	16273.54
797.862	16237.16
798.193	16203.71
798.525	16198.51
798.856	16166.2
799.188	16070.16
799.519	16090.27
799.85	16017.73
800.182	16004.85
800.513	15949.71
800.844	15857.05
801.175	16006.88
801.506	15922.59
801.837	15839.2
802.168	15694.35
802.499	15700.9
802.83	15683.73
803.161	15661.58
803.491	15542.49
803.822	15590.62
804.153	15554.01
804.483	15420.46
804.814	15416.84
805.145	15421.13
805.475	15343.17
805.805	15318.99
806.136	15304.07
806.466	15404.19
806.796	15387.91
807.126	15151.54
807.457	15156.06
807.787	15256.17
808.117	15121.71
808.447	15127.58
808.777	15230.4
809.107	15001.94
809.436	15008.72
809.766	15063.4
810.096	14870.64
810.426	14939.56
810.755	14904.76
811.085	14908.15
811.414	14923.97
811.744	14780.7
812.073	14759.23
812.403	14782.51
812.732	14637.43
813.061	14674.26
813.39	14631.55
813.719	14650.98
814.049	14714.03
814.378	14614.15
814.707	14567.37
815.036	14554.94
815.365	14482.4
815.693	14390.65
816.022	14401.05
816.351	14427.26
816.68	14321.5
817.008	14285.12
817.337	14215.52
817.665	14183.65
817.994	14188.17
818.322	14193.14
818.651	14150.88
818.979	14046.93
819.307	14187.95
819.636	14147.95
819.964	14093.71
820.292	14203.99
820.62	14121.28
820.948	14061.17
821.276	14025.46
821.604	14008.52
821.932	14035.86
822.259	14043.09
822.587	13936.2
822.915	14003.32
823.243	14063.2
823.57	14032.7
823.898	14016.88
824.225	13994.96
824.553	13950.66
824.88	14032.7
825.207	13960.16
825.535	14046.48
825.862	14054.62
826.189	14014.84
826.516	14074.5
826.843	14052.36
827.17	14044.22
827.497	14048.74
827.824	14029.08
828.151	14079.7
828.478	14049.87
828.805	14128.74
829.131	13986.6
829.458	14143.43
829.785	14033.15
830.111	14113.6
830.438	14049.19
830.764	14119.25
831.09	14025.46
831.417	14051.23
831.743	14022.53
832.069	14049.42
832.395	13997.89
832.722	14100.94
833.048	14067.72
833.374	14037.22
833.7	13933.72
834.026	13984.79
834.351	13978.91
834.677	13910.21
835.003	13995.86
835.329	13892.81
835.654	13929.42
835.98	13790.22
836.306	13932.36
836.631	13887.16
836.956	13895.98
837.282	13896.2
837.607	13777.11
837.932	13816.88
838.258	13849.2
838.583	13761.74
838.908	13645.36
839.233	13737.11
839.558	13659.37
839.883	13600.84
840.208	13604.01
840.533	13550
840.858	13482.2
841.182	13641.52
841.507	13539.15
841.832	13472.26
842.156	13444.46
842.481	13391.58
842.805	13434.97
843.13	13439.72
843.454	13372.6
843.778	13291.25
844.103	13264.35
844.427	13210.12
844.751	13285.37
845.075	13121.99
845.399	13173.06
845.723	13027.98
846.047	13128.54
846.371	12976.9
846.695	13037.24
847.019	12927.41
847.343	12937.81
847.666	12790.24
847.99	12775.1
848.313	12800.19
848.637	12579.17
848.96	12637.48
849.284	12735.55
849.607	12536.92
849.931	12571.27
850.254	12436.58
850.577	12435.9
850.9	12228.9
851.223	12279.07
851.546	12235.46
851.869	12163.37
852.192	12197.26
852.515	12114.1
852.838	12001.34
853.161	11966.99
853.483	11926.99
853.806	11849.02
854.129	11922.47
854.451	11833.66
854.774	11769.93
855.096	11770.16
855.419	11726.99
855.741	11765.18
856.063	11694.45
856.385	11660.78
856.708	11566.09
857.03	11539.88
857.352	11501.46
857.674	11522.71
857.996	11460.79
858.318	11411.97
858.64	11390.28
858.961	11335.37
859.283	11282.49
859.605	11296.72
859.926	11286.78
860.248	11150.29
860.57	11176.73
860.891	11171.75
861.212	11108.25
861.534	11079.33
861.855	11078.65
862.176	11070.06
862.498	11061.47
862.819	11034.13
863.14	10983.96
863.461	10983.51
863.782	10937.86
864.103	10937.18
864.424	10952.33
864.745	10979.67
865.065	10919.11
865.386	10844.98
865.707	10855.38
866.027	10817.64
866.348	10781.48
866.668	10788.04
866.989	10784.65
867.309	10693.35
867.63	10720.92
867.95	10785.1
868.27	10664.2
868.59	10583.07
868.91	10697.19
869.23	10640.47
869.55	10598.44
869.87	10722.27
870.19	10606.57
870.51	10574.93
870.83	10593.24
871.15	10528.83
871.469	10527.25
871.789	10569.06
872.109	10510.53
872.428	10369.74
872.748	10488.83
873.067	10511.66
873.386	10477.76
873.706	10431.89
874.025	10405.22
874.344	10373.13
874.663	10375.17
874.982	10346.01
875.301	10277.09
875.62	10322.51
875.939	10290.2
876.258	10275.28
876.577	10197.32
876.896	10296.52
877.214	10212.68
877.533	10205
877.852	10191.67
878.17	10206.36
878.489	10145.57
878.807	10169.97
879.125	10124.32
879.444	10089.07
879.762	10082.29
880.08	10071.44
880.398	10082.52
880.716	9967.72
881.034	10056.53
881.352	10056.08
881.67	9969.75
881.988	9920.26
882.306	9899.25
882.624	9864.9
882.941	9847.72
883.259	9805.46
883.577	9835.74
883.894	9813.6
884.212	9807.5
884.529	9792.81
884.846	9812.69
885.164	9746.26
885.481	9708.97
885.798	9696.54
886.115	9582.87
886.432	9655.86
886.75	9633.26
887.067	9604.79
887.383	9578.35
887.7	9525.92
888.017	9488.18
888.334	9505.58
888.651	9525.92
888.967	9496.54
889.284	9428.07
889.6	9414.51
889.917	9341.97
890.233	9355.98
890.55	9319.83
890.866	9283.67
891.182	9373.61
891.498	9180.85
891.815	9211.13
892.131	9195.08
892.447	9161.19
892.763	9111.24
893.079	9133.62
893.395	9073.96
893.71	9046.61
894.026	9038.25
894.342	8946.95
894.657	8898.14
894.973	8920.51
895.289	8829.67
895.604	8824.25
895.92	8787.41
896.235	8798.26
896.55	8787.86
896.865	8804.36
897.181	8736.79
897.496	8681.65
897.811	8647.98
898.126	8647.07
898.441	8575.89
898.756	8556
899.071	8480.75
899.386	8457.02
899.7	8438.72
900.015	8363.24
900.33	8342.9
900.644	8342
900.959	8323.92
901.273	8341.09
901.588	8326.41
901.902	8177.71
902.216	8214.32
902.531	8190.36
902.845	8116.24
903.159	8148.78
903.473	8071.5
903.787	8028.56
904.101	8036.47
904.415	7979.97
904.729	7947.88
905.042	7953.08
905.356	7938.39
905.67	7852.29
905.984	7891.39
906.297	7883.25
906.611	7808.9
906.924	7784.27
907.237	7758.74
907.551	7753.54
907.864	7687.55
908.177	7616.14
908.491	7606.42
908.804	7576.59
909.117	7521.45
909.43	7552.41
909.743	7489.14
910.056	7424.06
910.368	7399.65
910.681	7359.43
910.994	7399.42
911.307	7383.61
911.619	7257.05
911.932	7299.54
912.244	7170.96
912.557	7202.37
912.869	7186.55
913.181	7156.94
913.494	7155.59
913.806	7074.69
914.118	7107.91
914.43	6993.11
914.742	7042.6
915.054	7003.05
915.366	6916.72
915.678	6914.47
915.99	6889.16
916.302	6889.16
916.613	6850.74
916.925	6793.34
917.236	6762.38
917.548	6752.89
917.859	6790.63
918.171	6692.55
918.482	6692.55
918.794	6633.57
919.105	6658.65
919.416	6588.37
919.727	6585.66
920.038	6573.91
920.349	6484.19
920.66	6490.07
920.971	6486.91
921.282	6455.72
921.593	6431.09
921.903	6355.16
922.214	6408.04
922.525	6345.44
922.835	6306.8
923.146	6277.42
923.456	6297.76
923.767	6219.12
924.077	6211.21
924.387	6209.85
924.697	6162.62
925.008	6117.2
925.318	6082.4
925.628	6041.72
925.938	6050.98
926.248	6001.49
926.558	5999.91
926.867	6030.42
927.177	5937.32
927.487	5959.01
927.796	5892.57
928.106	5867.03
928.416	5853.25
928.725	5883.98
929.034	5763.76
929.344	5802.18
929.653	5786.59
929.962	5722.86
930.271	5687.38
930.581	5689.86
930.89	5678.34
931.199	5625.91
931.508	5594.95
931.817	5599.47
932.125	5622.52
932.434	5572.13
932.743	5470.89
933.051	5491.9
933.36	5506.59
933.669	5446.48
933.977	5430.89
934.286	5421.62
934.594	5388.86
934.902	5444.22
935.21	5380.72
935.519	5369.42
935.827	5307.28
936.135	5283.1
936.443	5229.09
936.751	5275.64
937.059	5256.88
937.367	5208.52
937.674	5236.32
937.982	5171.46
938.29	5180.95
938.597	5168.07
938.905	5046.94
939.213	5077.23
939.52	5011.24
939.827	5070.22
940.135	4990.22
940.442	4977.57
940.749	4946.38
941.056	4959.49
941.363	4913.16
941.67	4901.86
941.977	4890.56
942.284	4846.95
942.591	4841.07
942.898	4822.09
943.205	4796.1
943.511	4768.31
943.818	4759.72
944.125	4727.4
944.431	4708.65
944.738	4712.72
945.044	4655.77
945.35	4644.02
945.657	4609.44
945.963	4626.16
946.269	4586.16
946.575	4599.05
946.881	4549.33
947.187	4558.82
947.493	4545.94
947.799	4503.91
948.105	4462.55
948.41	4450.8
948.716	4454.87
949.022	4422.33
949.327	4411.48
949.633	4399.28
949.938	4391.59
950.244	4382.78
950.549	4344.36
950.854	4306.4
951.16	4276.12
951.465	4257.13
951.77	4246.06
952.075	4261.65
952.38	4220.3
952.685	4218.04
952.99	4158.61
953.294	4165.38
953.599	4135.1
953.904	4098.27
954.209	4145.27
954.513	4112.73
954.818	4100.75
955.122	4090.58
955.426	4057.14
955.731	4008.1
956.035	4008.55
956.339	3958.84
956.643	3998.61
956.948	3953.64
957.252	3898.95
957.556	3876.35
957.86	3892.4
958.163	3871.61
958.467	3857.37
958.771	3871.61
959.075	3889.01
959.378	3848.11
959.682	3826.41
959.985	3808.11
960.289	3766.07
960.592	3788.22
960.896	3751.61
961.199	3742.12
961.502	3748.45
961.805	3730.59
962.108	3676.81
962.411	3644.72
962.714	3655.34
963.017	3621.44
963.32	3606.76
963.623	3600.2
963.926	3563.59
964.228	3570.82
964.531	3537.38
964.833	3542.35
965.136	3517.72
965.438	3490.15
965.741	3518.4
966.043	3477.72
966.345	3483.37
966.648	3439.98
966.95	3457.83
967.252	3405.86
967.554	3376.25
967.856	3395.24
968.158	3350.94
968.46	3361.56
968.761	3353.43
969.063	3353.88
969.365	3301.45
969.666	3289.7
969.968	3294.45
970.269	3267.78
970.571	3270.49
970.872	3258.97
971.174	3200.44
971.475	3214.45
971.776	3212.87
972.077	3179.42
972.378	3156.6
972.679	3161.8
972.98	3141.23
973.281	3124.28
973.582	3126.32
973.883	3101.23
974.183	3114.56
974.484	3108.92
974.785	3071.4
975.085	3041.57
975.386	3053.78
975.686	3055.13
975.986	3041.8
976.287	3037.28
976.587	2987.79
976.887	2960.22
977.187	2998.64
977.487	2915.93
977.787	2908.92
978.087	2927
978.387	2912.08
978.687	2884.29
978.987	2903.05
979.286	2881.35
979.586	2867.11
979.885	2849.94
980.185	2813.78
980.484	2816.49
980.784	2792.54
981.083	2799.32
981.382	2774.23
981.682	2768.13
981.981	2774.23
982.28	2748.92
982.579	2739.21
982.878	2729.72
983.177	2733.56
983.475	2703.05
983.774	2703.5
984.073	2659.89
984.372	2638.42
984.67	2621.24
984.969	2628.93
985.267	2624.41
985.566	2620.57
985.864	2589.38
986.162	2616.95
986.461	2570.62
986.759	2531.3
987.057	2575.37
987.355	2513.45
987.653	2523.39
987.951	2506.45
988.249	2516.61
988.547	2510.06
988.844	2464.19
989.142	2447.01
989.44	2454.92
989.737	2467.35
990.035	2428.93
990.332	2428.48
990.63	2412.66
990.927	2390.52
991.224	2398.65
991.521	2374.47
991.819	2388.26
992.116	2364.98
992.413	2360.01
992.71	2349.61
993.006	2321.59
993.303	2333.79
993.6	2310.52
993.897	2314.81
994.193	2251.08
994.49	2285.89
994.787	2259.9
995.083	2256.96
995.379	2223.06
995.676	2226.45
995.972	2234.14
996.268	2215.61
996.565	2195.72
996.861	2185.55
997.157	2178.54
997.453	2152.33
997.749	2146.91
998.044	2129.05
998.34	2159.56
998.636	2121.82
998.932	2146
999.227	2083.86
999.523	2084.99
999.818	2076.85
1000.114	2073.91
1000.409	2043.86
1000.704	2056.51
1001	2054.03
1001.295	2050.41
1001.59	2038.89
1001.885	1981.04
1002.18	2010.41
1002.475	2011.09
1002.77	1967.25
1003.065	1933.13
1003.359	1942.84
1003.654	1952.56
1003.949	1947.14
1004.243	1932
1004.538	1913.92
1004.832	1899.68
1005.127	1885.44
1005.421	1890.87
1005.715	1836.63
1006.009	1863.75
1006.304	1833.24
1006.598	1868.5
1006.892	1807.03
1007.186	1823.3
1007.48	1809.74
1007.773	1786.01
1008.067	1799.35
1008.361	1761.61
1008.655	1743.53
1008.948	1776.97
1009.242	1735.84
1009.535	1736.52
1009.829	1708.5
1010.122	1694.26
1010.415	1690.42
1010.708	1703.53
1011.001	1701.49
1011.295	1690.87
1011.588	1679.57
1011.881	1697.2
1012.173	1652.68
1012.466	1635.73
1012.759	1625.56
1013.052	1657.65
1013.344	1616.07
1013.637	1598.22
1013.93	1583.31
1014.222	1597.99
1014.514	1598.67
1014.807	1567.26
1015.099	1562.97
1015.391	1558.67
1015.683	1539.92
1015.976	1503.08
1016.268	1532.91
1016.56	1507.38
1016.851	1511.44
1017.143	1477.55
1017.435	1491.56
1017.727	1469.41
1018.018	1486.13
1018.31	1465.12
1018.602	1439.81
1018.893	1440.48
1019.185	1444.78
1019.476	1429.19
1019.767	1425.34
1020.058	1399.58
1020.35	1387.38
1020.641	1368.62
1020.932	1399.81
1021.223	1334.05
1021.514	1345.8
1021.804	1337.21
1022.095	1338.57
1022.386	1344.89
1022.677	1328.85
1022.967	1288.62
1023.258	1289.3
1023.548	1252.24
1023.839	1269.19
1024.129	1291.34
1024.419	1268.29
1024.709	1263.09
1025	1269.87
1025.29	1259.25
1025.58	1226.25
1025.87	1240.49
1026.16	1228.29
1026.449	1214.05
1026.739	1181.73
1027.029	1190.32
1027.319	1203.88
1027.608	1172.92
1027.898	1179.02
1028.187	1174.95
1028.477	1155.75
1028.766	1135.41
1029.055	1144.22
1029.344	1133.83
1029.634	1133.6
1029.923	1137.89
1030.212	1135.86
1030.501	1125.24
1030.79	1067.84
1031.078	1075.07
1031.367	1083.66
1031.656	1062.64
1031.945	1078.69
1032.233	1052.25
1032.522	1082.75
1032.81	1031.91
1033.099	1045.47
1033.387	1059.03
1033.675	1043.43
1033.963	1039.37
1034.251	1049.99
1034.54	1012.47
1034.828	1012.47
1035.116	1001.4
1035.403	985.81
1035.691	997.78
1035.979	954.62
1036.267	991.68
1036.554	980.16
1036.842	953.49
1037.129	968.18
1037.417	948.52
1037.704	936.09
1037.992	939.03
1038.279	933.38
1038.566	899.71
1038.853	899.71
1039.14	899.71
