Data from hue_320_FLMS001491_62.txt Node
Date: Mon Feb 06 15:47:31 GMT 2017
User: dcchb
Spectrometer: FLMS00149
Trigger mode: 0
Integration Time (sec): 2.000000E-2
Scans to average: 10
Electric dark correction enabled: true
Nonlinearity correction enabled: false
Boxcar width: 0
XAxis mode: Wavelengths
Number of Pixels in Spectrum: 2048
>>>>>Begin Spectral Data<<<<<
341.393	-20.52
341.776	-20.52
342.16	-20.52
342.543	-62.1
342.927	-69.79
343.31	-57.13
343.693	-51.48
344.077	-63.01
344.46	-91.25
344.843	-41.76
345.226	-44.48
345.61	-23.23
345.993	-22.1
346.376	9.76
346.759	12.25
347.142	34.62
347.525	34.17
347.908	62.64
348.291	65.35
348.674	79.14
349.057	96.54
349.44	125.24
349.823	131.79
350.206	154.16
350.588	205.01
350.971	214.95
351.354	198.91
351.737	226.7
352.119	245.46
352.502	253.37
352.884	256.76
353.267	254.95
353.65	257.89
354.032	297.44
354.414	300.6
354.797	308.06
355.179	310.99
355.562	324.1
355.944	334.27
356.326	304.67
356.709	321.62
357.091	322.75
357.473	348.73
357.855	327.72
358.238	348.06
358.62	350.32
359.002	326.81
359.384	357.32
359.766	352.35
360.148	316.19
360.53	327.72
360.912	329.98
361.294	314.61
361.676	328.4
362.057	332.46
362.439	326.59
362.821	313.93
363.203	298.57
363.584	315.74
363.966	313.48
364.348	334.72
364.729	309.41
365.111	311.45
365.493	310.99
365.874	323.2
366.256	280.71
366.637	307.6
367.019	317.77
367.4	302.18
367.781	306.47
368.163	295.63
368.544	291.11
368.925	299.7
369.306	312.35
369.688	301.5
370.069	296.08
370.45	297.89
370.831	305.57
371.212	318
371.593	308.06
371.974	313.93
372.355	329.75
372.736	315.29
373.117	289.07
373.498	299.24
373.879	308.28
374.26	305.12
374.641	291.79
375.021	313.25
375.402	301.73
375.783	318.23
376.163	325.01
376.544	312.12
376.925	305.12
377.305	326.14
377.686	308.06
378.066	323.88
378.447	309.41
378.827	306.25
379.208	313.03
379.588	315.97
379.968	305.12
380.349	307.83
380.729	318.9
381.109	321.62
381.489	331.56
381.87	338.56
382.25	326.36
382.63	304.22
383.01	320.94
383.39	323.42
383.77	315.51
384.15	310.09
384.53	309.41
384.91	339.24
385.29	347.38
385.67	341.73
386.049	333.82
386.429	313.25
386.809	330.66
387.189	343.76
387.568	345.12
387.948	348.06
388.328	329.98
388.707	346.25
389.087	319.13
389.466	345.34
389.846	342.18
390.225	348.06
390.605	344.44
390.984	353.48
391.363	333.82
391.743	355.29
392.122	363.2
392.501	350.99
392.881	354.61
393.26	351.22
393.639	374.27
394.018	348.06
394.397	356.42
394.776	345.8
395.155	362.07
395.534	377.21
395.913	369.75
396.292	352.12
396.671	350.32
397.05	382.41
397.429	350.09
397.808	357.77
398.186	358.23
398.565	375.4
398.944	381.73
399.323	373.59
399.701	378.79
400.08	407.94
400.458	377.43
400.837	378.11
401.215	381.5
401.594	384.21
401.972	372.01
402.351	395.06
402.729	384.21
403.107	377.21
403.486	401.16
403.864	386.25
404.242	413.82
404.62	408.85
404.999	405
405.377	425.12
405.755	403.2
406.133	422.63
406.511	423.99
406.889	421.05
407.267	427.38
407.645	431.9
408.023	422.18
408.401	423.76
408.779	437.09
409.156	444.32
409.534	436.64
409.912	447.26
410.29	464.66
410.667	463.53
411.045	444.1
411.422	470.99
411.8	473.7
412.178	464.21
412.555	484.78
412.933	487.49
413.31	489.97
413.687	494.27
414.065	498.56
414.442	493.81
414.819	527.94
415.197	525.68
415.574	529.29
415.951	532.91
416.328	522.06
416.705	527.26
417.082	541.5
417.46	537.2
417.837	558.22
418.214	554.6
418.591	562.51
418.967	572.68
419.344	575.17
419.721	579.69
420.098	588.5
420.475	588.05
420.852	582.17
421.228	618.33
421.605	605
421.982	618.11
422.358	626.47
422.735	635.05
423.111	634.6
423.488	649.74
423.864	647.71
424.241	652.91
424.617	651.55
424.994	665.34
425.37	685
425.746	661.27
426.123	679.8
426.499	695.39
426.875	701.72
427.251	721.61
427.627	715.96
428.003	726.12
428.379	736.97
428.756	720.93
429.132	748.05
429.507	736.97
429.883	773.81
430.259	774.71
430.635	757.31
431.011	779.23
431.387	786.01
431.763	820.36
432.138	815.16
432.514	817.65
432.89	825.11
433.265	839.12
433.641	850.42
434.016	830.75
434.392	867.14
434.767	903.75
435.143	865.1
435.518	881.83
435.894	886.35
436.269	916.85
436.644	899.23
437.02	905.56
437.395	933.8
437.77	913.69
438.145	917.31
438.52	983.75
438.895	972.45
439.271	949.85
439.646	966.57
440.021	976.29
440.395	987.59
440.77	955.27
441.145	995.72
441.52	986.01
441.895	999.79
442.27	994.37
442.645	1009.51
443.019	1022.16
443.394	1012.22
443.769	1023.74
444.143	1034.59
444.518	1054.03
444.892	1033.69
445.267	1067.58
445.641	1073.01
446.016	1042.95
446.39	1064.65
446.764	1046.79
447.139	1068.71
447.513	1047.02
447.887	1031.2
448.262	1068.04
448.636	1058.55
449.01	1097.64
449.384	1083.18
449.758	1071.65
450.132	1084.31
450.506	1091.77
450.88	1120.69
451.254	1130.41
451.628	1120.01
452.002	1120.46
452.376	1139.45
452.75	1134.48
453.123	1157.75
453.497	1141.48
453.871	1124.76
454.244	1180.12
454.618	1175.15
454.992	1199.33
455.365	1173.12
455.739	1241.82
456.112	1211.31
456.486	1198.2
456.859	1229.84
457.232	1211.99
457.606	1228.48
457.979	1248.15
458.352	1255.15
458.725	1269.39
459.099	1294.92
459.472	1291.53
459.845	1310.29
460.218	1284.08
460.591	1327.24
460.964	1313.68
461.337	1325.66
461.71	1362.27
462.083	1366.33
462.456	1350.52
462.829	1365.43
463.201	1393.68
463.574	1363.62
463.947	1385.32
464.32	1412.89
464.692	1393.45
465.065	1412.89
465.438	1439.55
465.81	1449.27
466.183	1448.14
466.555	1497.4
466.928	1485.65
467.3	1506.44
467.672	1515.48
468.045	1502.38
468.417	1532.88
468.789	1555.93
469.161	1545.76
469.534	1550.06
469.906	1579.21
470.278	1604.07
470.65	1605.65
471.022	1645.42
471.394	1667.34
471.766	1656.72
472.138	1673.44
472.51	1704.86
472.882	1707.34
473.253	1727.68
473.625	1725.87
473.997	1757.74
474.369	1748.92
474.74	1773.78
475.112	1821.01
475.484	1825.76
475.855	1860.11
476.227	1852.88
476.598	1922.25
476.97	1913.66
477.341	1959.54
477.713	1976.26
478.084	1986.88
478.455	2046.32
478.827	2027.79
479.198	2029.82
479.569	2081.12
479.94	2099.65
480.311	2110.04
480.682	2153.88
481.053	2195.46
481.424	2180.55
481.795	2218.29
482.166	2229.59
482.537	2251.51
482.908	2284.95
483.279	2342.35
483.65	2366.76
484.021	2357.27
484.391	2394.56
484.762	2408.57
485.133	2423.03
485.503	2464.84
485.874	2508.9
486.244	2488.79
486.615	2533.54
486.985	2537.15
487.356	2598.62
487.726	2625.74
488.097	2632.06
488.467	2649.46
488.837	2689.46
489.207	2733.76
489.578	2755.9
489.948	2765.17
490.318	2784.6
490.688	2815.56
491.058	2867.31
491.428	2866.86
491.798	2892.85
492.168	2934.88
492.538	2938.27
492.908	2965.39
493.278	3006.97
493.648	2979.4
494.017	3049.23
494.387	3058.94
494.757	3044.71
495.126	3095.55
495.496	3082.67
495.866	3150.92
496.235	3135.1
496.605	3180.98
496.974	3213.29
497.344	3236.79
497.713	3204.93
498.082	3204.48
498.452	3220.3
498.821	3272.05
499.19	3281.99
499.559	3309.11
499.928	3267.53
500.298	3354.08
500.667	3336.68
501.036	3329.67
501.405	3346.85
501.774	3335.32
502.143	3383.91
502.512	3429.78
502.88	3433.62
503.249	3423.23
503.618	3408.77
503.987	3456
504.356	3496.9
504.724	3480.63
505.093	3483.57
505.462	3514.75
505.83	3516.11
506.199	3492.38
506.567	3575.09
506.936	3520.85
507.304	3566.5
507.672	3580.97
508.041	3610.57
508.409	3618.03
508.777	3636.33
509.145	3651.47
509.514	3629.55
509.882	3647.63
510.25	3625.03
510.618	3673.17
510.986	3698.48
511.354	3706.39
511.722	3695.76
512.09	3760.85
512.458	3712.71
512.826	3788.64
513.193	3740.73
513.561	3749.55
513.929	3776.21
514.297	3825.03
514.664	3823.67
515.032	3816.89
515.4	3892.6
515.767	3872.26
516.135	3850.34
516.502	3793.61
516.869	3880.17
517.237	3878.36
517.604	3849.88
517.972	3931.01
518.339	3896.44
518.706	3869.77
519.073	3922.65
519.44	3935.53
519.808	3916.55
520.175	3950
520.542	3990.67
520.909	3995.87
521.276	3972.82
521.643	4002.2
522.009	4050.56
522.376	4035.19
522.743	4025.02
523.11	4086.94
523.477	4093.95
523.843	4086.26
524.21	4090.56
524.577	4140.27
524.943	4160.38
525.31	4183.21
525.676	4213.72
526.043	4214.17
526.409	4195.86
526.776	4236.54
527.142	4253.49
527.508	4305.92
527.874	4297.78
528.241	4328.06
528.607	4334.17
528.973	4380.49
529.339	4347.05
529.705	4367.84
530.071	4462.98
530.437	4440.83
530.803	4444.22
531.169	4489.42
531.535	4495.97
531.901	4463.65
532.267	4482.86
532.632	4562.63
532.998	4574.61
533.364	4553.37
533.73	4591.56
534.095	4619.36
534.461	4625.68
534.826	4637.21
535.192	4682.63
535.557	4648.51
535.923	4690.09
536.288	4710.2
536.653	4783.65
537.019	4745.91
537.384	4769.41
537.749	4787.71
538.114	4799.46
538.479	4818.9
538.845	4849.86
539.21	4814.83
539.575	4897.77
539.94	4868.39
540.305	4909.29
540.67	4915.62
541.034	4935.05
541.399	4951.1
541.764	4929.4
542.129	5052.79
542.494	4998.1
542.858	5028.38
543.223	5050.53
543.587	5110.87
543.952	5117.42
544.316	5126.46
544.681	5103.86
545.045	5161.04
545.41	5200.58
545.774	5182.96
546.138	5258.66
546.503	5199.45
546.867	5246.01
547.231	5307.25
547.595	5273.12
547.959	5351.09
548.324	5303.18
548.688	5315.61
549.052	5374.36
549.416	5405.55
549.779	5400.13
550.143	5386.57
550.507	5436.51
550.871	5483.06
551.235	5455.49
551.599	5482.38
551.962	5480.35
552.326	5540.46
552.689	5549.73
553.053	5495.49
553.417	5593.34
553.78	5582.49
554.143	5600.57
554.507	5589.5
554.87	5631.53
555.234	5665.88
555.597	5630.85
555.96	5648.26
556.323	5670.63
556.686	5719.89
557.05	5754.92
557.413	5765.77
557.776	5760.12
558.139	5808.48
558.502	5776.16
558.865	5806.9
559.228	5838.08
559.59	5873.79
559.953	5813.9
560.316	5885.76
560.679	5907.01
561.041	5942.03
561.404	5958.53
561.767	6042.37
562.129	5958.76
562.492	6017.51
562.854	5992.2
563.217	5987.23
563.579	6052.76
563.941	6062.48
564.304	6059.54
564.666	6107.23
565.028	6145.64
565.39	6095.25
565.753	6191.74
566.115	6179.31
566.477	6235.13
566.839	6205.53
567.201	6250.73
567.563	6237.39
567.925	6289.59
568.287	6321.23
568.648	6359.2
569.01	6316.26
569.372	6401.91
569.734	6404.85
570.095	6410.5
570.457	6451.4
570.819	6471.06
571.18	6503.15
571.542	6579.98
571.903	6512.87
572.265	6601.68
572.626	6646.65
572.987	6639.19
573.349	6739.07
573.71	6795.12
574.071	6763.71
574.432	6780.88
574.794	6943.14
575.155	6963.7
575.516	6947.43
575.877	7045.96
576.238	7037.82
576.599	7126.18
576.96	7156.24
577.32	7247.31
577.681	7342.45
578.042	7414.99
578.403	7513.52
578.763	7579.96
579.124	7616.79
579.485	7756.22
579.845	7891.81
580.206	7927.74
580.566	8012.94
580.927	8084.8
581.287	8273.05
581.648	8360.05
582.008	8501.06
582.368	8692.24
582.728	8803.43
583.089	8937.21
583.449	9052.91
583.809	9265.34
584.169	9363.64
584.529	9546.91
584.889	9749.62
585.249	9894.02
585.609	10010.63
585.969	10294.01
586.329	10481.35
586.688	10628.92
587.048	10836.37
587.408	11099.19
587.768	11274.55
588.127	11571.49
588.487	11635.67
588.846	12043.34
589.206	12131.47
589.565	12365.14
589.925	12796.32
590.284	12920.83
590.643	13210.77
591.003	13418.22
591.362	13722.85
591.721	13961.03
592.08	14248.26
592.44	14466.33
592.799	14771.18
593.158	15053.66
593.517	15306.98
593.876	15553.98
594.235	15864.94
594.593	16108.77
594.952	16392.15
595.311	16630.34
595.67	16988.07
596.029	17302.19
596.387	17582.63
596.746	17974.49
597.104	18133.12
597.463	18421.48
597.822	18762.26
598.18	18929.26
598.538	19342.58
598.897	19703.25
599.255	19749.13
599.613	20334.65
599.972	20455.1
600.33	20802.89
600.688	20937.34
601.046	21416.65
601.404	21686.03
601.762	21936.41
602.12	22205.33
602.478	22452.56
602.836	22715.83
603.194	22954.92
603.552	23222.03
603.91	23280.33
604.268	23733.88
604.625	23832.18
604.983	24285.05
605.341	24271.27
605.698	24725.04
606.056	24980.63
606.413	25139.49
606.771	25424.23
607.128	25620.39
607.485	25776.31
607.843	26048.62
608.2	26393.02
608.557	26821.94
608.914	26689.06
609.272	27147.58
609.629	27388.25
609.986	27682.7
610.343	27665.98
610.7	28085.18
611.057	28139.87
611.414	28386.64
611.771	28439.75
612.127	28764.94
612.484	28981.65
612.841	29279.95
613.198	29249.67
613.554	29395.43
613.911	29708.87
614.267	29820.5
614.624	29881.97
614.98	30193.6
615.337	30434.72
615.693	30519.47
616.05	30594.04
616.406	30806.92
616.762	30926.46
617.118	31073.58
617.475	31275.38
617.831	31489.38
618.187	31605.31
618.543	31808.25
618.899	32108.12
619.255	32182.25
619.611	32188.57
619.967	32445.06
620.323	32404.61
620.678	32556.7
621.034	32550.15
621.39	32683.93
621.746	32808.45
622.101	33229.68
622.457	33214.08
622.812	33191.94
623.168	33314.19
623.523	33560.74
623.879	33516.68
624.234	33538.14
624.589	33654.75
624.945	33725.03
625.3	33804.8
625.655	33995.53
626.01	34076.89
626.365	34140.39
626.72	34153.95
627.075	34233.27
627.43	34206.6
627.785	34147.85
628.14	34346.48
628.495	34467.38
628.85	34600.71
629.205	34416.54
629.559	34727.49
629.914	34527.95
630.269	34703.99
630.623	34521.62
630.978	34585.57
631.332	34781.73
631.687	34953.7
632.041	34797.77
632.396	34960.71
632.75	34758.22
633.104	34950.76
633.459	34748.73
633.813	34909.41
634.167	34783.31
634.521	34824.89
634.875	34980.14
635.229	34917.54
635.583	34787.83
635.937	34769.75
636.291	34872.12
636.645	34887.49
636.999	34880.71
637.352	35026.01
637.706	34814.72
638.06	34832.8
638.413	34920.71
638.767	34868.28
639.121	34924.55
639.474	34836.41
639.828	34800.94
640.181	34747.83
640.534	34812.69
640.888	34922.51
641.241	34678.68
641.594	34835.28
641.947	34983.53
642.301	34800.48
642.654	34906.7
643.007	34989.18
643.36	34905.11
643.713	34770.65
644.066	34867.37
644.419	34703.76
644.771	34405.01
645.124	34255.41
645.477	34152.14
645.83	34032.82
646.182	33940.62
646.535	33928.19
646.888	33918.02
647.24	33705.37
647.593	33928.87
647.945	33911.24
648.298	33641.19
648.65	33597.13
649.002	33612.94
649.355	33607.07
649.707	33695.2
650.059	33859.49
650.411	34176.09
650.763	34378.8
651.115	34591.68
651.467	34504.22
651.819	34507.16
652.171	34447.5
652.523	34510.55
652.875	34379.93
653.227	34283.89
653.578	34588.06
653.93	34400.04
654.282	34402.75
654.633	34185.58
654.985	34312.81
655.337	34422.64
655.688	34445.46
656.039	34560.72
656.391	34189.65
656.742	34191.91
657.094	34292.93
657.445	34420.61
657.796	34321.85
658.147	34245.7
658.498	34194.4
658.849	34339.7
659.2	34227.17
659.551	34173.38
659.902	34213.15
660.253	34224.91
660.604	34206.15
660.955	34017.9
661.306	34107.62
661.656	34132.03
662.007	34135.87
662.358	34188.97
662.708	34132.7
663.059	34034.63
663.409	33907.63
663.76	34218.8
664.11	34160.95
664.461	34157.56
664.811	34087.28
665.161	34047.73
665.511	34044.8
665.862	34092.71
666.212	34177.67
666.562	34173.16
666.912	34035.08
667.262	34020.39
667.612	34116.89
667.962	34167.05
668.312	34021.75
668.662	34219.48
669.011	34094.06
669.361	33966.83
669.711	33919.83
670.06	33935.2
670.41	33857.23
670.76	33928.87
671.109	33915.99
671.459	34016.32
671.808	34021.29
672.157	33965.03
672.507	33739.04
672.856	33773.17
673.205	33744.69
673.554	33986.72
673.904	33795.76
674.253	33907.17
674.602	33839.6
674.951	33370.24
675.3	33230.36
675.649	33852.49
675.998	33659.95
676.346	33779.27
676.695	33883.9
677.044	33573.4
677.393	33586.28
677.741	33640.29
678.09	33600.06
678.438	33536.11
678.787	33677.8
679.135	33639.61
679.484	33402.1
679.832	33471.7
680.181	33242.11
680.529	33434.87
680.877	33307.64
681.225	33250.02
681.573	33432.16
681.922	33231.26
682.27	33139.96
682.618	33160.75
682.966	32983.58
683.314	33116.46
683.661	33039.85
684.009	32968.67
684.357	32915.79
684.705	32826.75
685.053	32810.71
685.4	32914.66
685.748	32638.51
686.095	32588.34
686.443	32439.19
686.79	32458.85
687.138	32586.3
687.485	32518.74
687.832	32386.08
688.18	32397.38
688.527	32295.46
688.874	32197.16
689.221	32262.92
689.568	32132.3
689.915	31949.94
690.262	31982.03
690.609	31857.06
690.956	31701.58
691.303	31754.69
691.65	31623.84
691.997	31726.89
692.344	31463.62
692.69	31370.06
693.037	31437.41
693.383	31304.98
693.73	31446.67
694.077	31001.94
694.423	31127.81
694.769	31071.32
695.116	30875.39
695.462	30912
695.808	30784.54
696.155	30860.93
696.501	30571.67
696.847	30730.08
697.193	30441.5
697.539	30595.62
697.885	30294.84
698.231	30329.87
698.577	30284.9
698.923	30135.97
699.269	30073.6
699.614	29867.05
699.96	29841.74
700.306	29937.79
700.651	29842.87
700.997	29705.25
701.342	29597.91
701.688	29569.43
702.033	29614.86
702.379	29524.24
702.724	29347.75
703.069	29414.41
703.415	29203.34
703.76	29140.29
704.105	29079.28
704.45	29098.03
704.795	29008.32
705.14	28844.26
705.485	28761.09
705.83	28758.38
706.175	28660.98
706.52	28612.17
706.865	28487.2
707.209	28566.07
707.554	28450.59
707.899	28537.6
708.243	28186.87
708.588	28259.41
708.932	28068.68
709.277	27985.07
709.621	28005.41
709.966	27963.37
710.31	27937.84
710.654	27848.8
710.998	27870.27
711.342	27868.46
711.687	27640.45
712.031	27628.47
712.375	27599.99
712.719	27584.63
713.063	27502.6
713.407	27599.09
713.75	27422.15
714.094	27378.76
714.438	27341.47
714.782	27394.8
715.125	27203.39
715.469	27304.64
715.812	26970.86
716.156	27002.95
716.499	26957.07
716.843	26982.38
717.186	26781.94
717.53	26888.15
717.873	26825.55
718.216	26851.31
718.559	26650.42
718.902	26560.25
719.246	26536.07
719.589	26478.22
719.932	26455.62
720.275	26371.78
720.617	26374.94
720.96	26400.93
721.303	26435.51
721.646	26402.29
721.989	26186.25
722.331	26274.61
722.674	26108.51
723.016	26112.35
723.359	26033.03
723.701	26147.15
724.044	26015.4
724.386	25875.97
724.729	25883.43
725.071	25872.81
725.413	25780.38
725.755	25753.49
726.097	25671.91
726.439	25560.73
726.782	25627.84
727.124	25648.41
727.465	25448.86
727.807	25555.98
728.149	25468.3
728.491	25384.91
728.833	25541.74
729.175	25242.32
729.516	25263.78
729.858	25334.74
730.199	25312.6
730.541	25196.22
730.882	25216.1
731.224	25266.72
731.565	25050.68
731.906	24979.72
732.248	24991.02
732.589	24889.78
732.93	24811.59
733.271	24829.67
733.612	24799.84
733.953	24864.25
734.294	24797.81
734.635	24752.61
734.976	24751.48
735.317	24647.3
735.658	24742.89
735.999	24581.99
736.339	24522.34
736.68	24576.8
737.021	24512.17
737.361	24400.98
737.702	24524.6
738.042	24445.95
738.383	24412.51
738.723	24477.59
739.063	24379.29
739.404	24386.52
739.744	24320.53
740.084	24175.45
740.424	24183.59
740.764	24284.83
741.104	24246.86
741.444	24103.82
741.784	24013.87
742.124	24062.23
742.464	24070.82
742.804	24065.17
743.143	23931.62
743.483	23831.51
743.823	23740.89
744.162	23712.41
744.502	23770.26
744.841	23712.87
745.181	23788.34
745.52	23686.2
745.86	23694.33
746.199	23586.99
746.538	23648.69
746.877	23644.62
747.216	23614.34
747.556	23505.64
747.895	23465.87
748.234	23417.05
748.573	23373.67
748.911	23411.4
749.25	23274.46
749.589	23234.69
749.928	23205.08
750.267	23264.97
750.605	23172.99
750.944	23073.33
751.283	23111.3
751.621	23106.55
751.96	22944.52
752.298	22890.97
752.636	22941.13
752.975	22796.96
753.313	22682.16
753.651	22836.5
753.989	22691.2
754.327	22697.98
754.666	22517.87
755.004	22508.83
755.342	22515.16
755.679	22588.37
756.017	22390.64
756.355	22473.12
756.693	22336.18
757.031	22280.59
757.368	22224.09
757.706	22201.72
758.044	22116.52
758.381	21985.45
758.719	22018.22
759.056	21960.82
759.394	21855.96
759.731	21876.53
760.068	21854.61
760.405	21790.2
760.743	21646.25
761.08	21688.51
761.417	21554.05
761.754	21583.43
762.091	21405.36
762.428	21415.98
762.765	21306.15
763.102	21338.92
763.438	21245.13
763.775	21126.49
764.112	21074.97
764.449	21068.87
764.785	20921.3
765.122	20868.19
765.458	20784.81
765.795	20787.97
766.131	20758.14
766.467	20643.12
766.804	20598.82
767.14	20441.54
767.476	20436.79
767.812	20379.17
768.148	20383.24
768.485	20233.63
768.821	20169.46
769.157	20099.63
769.492	20060.08
769.828	20042.45
770.164	19830.03
770.5	19819.86
770.836	19811.27
771.171	19641.56
771.507	19726.76
771.842	19510.26
772.178	19494.45
772.513	19482.47
772.849	19373.09
773.184	19293.32
773.519	19279.54
773.855	19143.04
774.19	19143.49
774.525	19015.59
774.86	19075.25
775.195	18982.82
775.53	18883.39
775.865	18779.21
776.2	18655.6
776.535	18573.11
776.87	18515.94
777.205	18435.94
777.539	18414.47
777.874	18553.68
778.209	18281.6
778.543	18242.5
778.878	18151.66
779.212	18076.63
779.547	17990.08
779.881	18087.25
780.215	18009.51
780.55	17976.74
780.884	17755.73
781.218	17720.48
781.552	17812
781.886	17682.97
782.22	17504.44
782.554	17558.9
782.888	17362.3
783.222	17262.64
783.556	17233.71
783.889	17068.07
784.223	17044.57
784.557	16967.96
784.89	17041.63
785.224	16866.04
785.557	16840.73
785.891	16836.21
786.224	16855.19
786.558	16704.69
786.891	16601.19
787.224	16583.56
787.557	16546.5
787.891	16461.08
788.224	16430.8
788.557	16412.72
788.89	16351.25
789.223	16237.13
789.556	16176.57
789.888	16146.74
790.221	16109.9
790.554	15905.39
790.887	16019.96
791.219	15928.44
791.552	15854.09
791.884	15810.93
792.217	15740.65
792.549	15705.62
792.882	15701.32
793.214	15497.49
793.546	15545.17
793.879	15546.07
794.211	15411.39
794.543	15463.36
794.875	15323.26
795.207	15357.15
795.539	15404.16
795.871	15220.66
796.203	15121.68
796.535	15049.59
796.867	14919.88
797.198	15020.66
797.53	15045.97
797.862	14896.6
798.193	14925.3
798.525	14817.73
798.856	14856.6
799.188	14697.06
799.519	14708.81
799.85	14612.54
800.182	14612.99
800.513	14495.71
800.844	14450.96
801.175	14464.75
801.506	14474.69
801.837	14375.48
802.168	14310.4
802.499	14245.77
802.83	14262.49
803.161	14225.88
803.491	14129.61
803.822	14096.39
804.153	14051.2
804.483	13990.18
804.814	13866.57
805.145	13883.07
805.475	13864.31
805.805	13827.25
806.136	13792.22
806.466	13788.83
806.796	13787.48
807.126	13647.37
807.457	13575.05
807.787	13662.06
808.117	13567.6
808.447	13568.73
808.777	13569.86
809.107	13440.37
809.436	13415.28
809.766	13403.98
810.096	13354.04
810.426	13263.2
810.755	13337.32
811.085	13249.86
811.414	13269.75
811.744	13066.37
812.073	13077.66
812.403	13124.44
812.732	13000.38
813.061	12973.03
813.39	12925.58
813.719	12871.79
814.049	12978.01
814.378	12861.17
814.707	12881.74
815.036	12845.81
815.365	12707.5
815.693	12677.9
816.022	12688.75
816.351	12664.57
816.68	12595.42
817.008	12713.15
817.337	12519.26
817.665	12560.16
817.994	12472.93
818.322	12545.7
818.651	12420.05
818.979	12360.85
819.307	12380.96
819.636	12426.38
819.964	12243.56
820.292	12376.21
820.62	12317.68
820.948	12228.42
821.276	12349.32
821.604	12251.92
821.932	12264.8
822.259	12272.26
822.587	12279.27
822.915	12211.02
823.243	12317.46
823.57	12140.51
823.898	12207.63
824.225	12190.68
824.553	12215.31
824.88	12231.81
825.207	12199.5
825.535	12169.67
825.862	12201.53
826.189	12167.63
826.516	12263.67
826.843	12206.5
827.17	12217.57
827.497	12246.5
827.824	12248.76
828.151	12203.11
828.478	12195.88
828.805	12274.97
829.131	12174.64
829.458	12161.08
829.785	12160.63
830.111	12088.09
830.438	12214.18
830.764	12145.49
831.09	12130.34
831.417	12055.77
831.743	12236.1
832.069	12190
832.395	12099.61
832.722	12136.45
833.048	12000.4
833.374	12117.24
833.7	12021.2
834.026	11999.05
834.351	12050.35
834.677	12041.99
835.003	12047.18
835.329	12096.22
835.654	12004.92
835.98	11924.02
836.306	11911.82
836.631	11936.68
836.956	11886.06
837.282	11959.95
837.607	11859.62
837.932	11867.75
838.258	11843.35
838.583	11860.07
838.908	11789.56
839.233	11853.97
839.558	11773.07
839.883	11689.68
840.208	11741.2
840.533	11672.28
840.858	11719.73
841.182	11687.19
841.507	11660.53
841.832	11613.97
842.156	11521.55
842.481	11628.21
842.805	11556.12
843.13	11446.52
843.454	11519.06
843.778	11451.72
844.103	11420.99
844.427	11326.3
844.751	11361.1
845.075	11390.93
845.399	11319.29
845.723	11284.49
846.047	11223.93
846.371	11084.04
846.695	11193.87
847.019	11067.55
847.343	11126.08
847.666	10988.45
847.99	10933.54
848.313	10939.42
848.637	10850.15
848.96	10796.82
849.284	10832.3
849.607	10821.45
849.931	10726.31
850.254	10659.88
850.577	10559.76
850.9	10504.4
851.223	10538.52
851.546	10508.69
851.869	10424.18
852.192	10391.63
852.515	10370.84
852.838	10275.03
853.161	10370.39
853.483	10216.27
853.806	10182.37
854.129	10225.08
854.451	10131.98
854.774	10052.66
855.096	10006.56
855.419	10053.34
855.741	10052.89
856.063	9967.24
856.385	9880.69
856.708	9888.6
857.03	9879.33
857.352	9851.08
857.674	9804.76
857.996	9833.68
858.318	9757.53
858.64	9746.45
858.961	9779.22
859.283	9708.04
859.605	9660.13
859.926	9717.53
860.248	9678.21
860.57	9625.78
860.891	9582.39
861.212	9516.63
861.534	9553.24
861.855	9466.69
862.176	9466.46
862.498	9510.98
862.819	9450.64
863.14	9436.86
863.461	9361.83
863.782	9306.46
864.103	9391.89
864.424	9350.3
864.745	9416.74
865.065	9350.98
865.386	9269.18
865.707	9319.8
866.027	9297.43
866.348	9263.53
866.668	9252.91
866.989	9197.09
867.309	9114.15
867.63	9234.38
867.95	9176.07
868.27	9092.68
868.59	9174.49
868.91	9107.83
869.23	9083.87
869.55	9040.71
869.87	9134.27
870.19	9063.76
870.51	9045.91
870.83	9061.73
871.15	8980.6
871.469	8960.26
871.789	8974.5
872.109	9014.95
872.428	8910.09
872.748	8979.24
873.067	8988.73
873.386	8926.81
873.706	8969.52
874.025	8912.58
874.344	8791.68
874.663	8896.76
874.982	8787.61
875.301	8788.96
875.62	8744.67
875.939	8791.45
876.258	8841.39
876.577	8758
876.896	8713.94
877.214	8714.84
877.533	8765.01
877.852	8663.77
878.17	8708.74
878.489	8678.23
878.807	8694.73
879.125	8670.77
879.444	8678.46
879.762	8642.53
880.08	8624.22
880.398	8555.07
880.716	8586.94
881.034	8529.08
881.352	8552.81
881.67	8540.61
881.988	8552.59
882.306	8541.96
882.624	8479.82
882.941	8479.82
883.259	8423.1
883.577	8423.32
883.894	8386.26
884.212	8381.97
884.529	8369.99
884.846	8356.66
885.164	8351.46
885.481	8300.62
885.798	8382.65
886.115	8286.15
886.432	8274.18
886.75	8240.28
887.067	8203.89
887.383	8158.25
887.7	8236.44
888.017	8118.25
888.334	8116.21
888.651	8137.23
888.967	8092.71
889.284	8014.07
889.6	7966.39
889.917	8034.86
890.233	8001.87
890.55	7938.59
890.866	7957.57
891.182	7901.53
891.498	7871.25
891.815	7878.25
892.131	7866.5
892.447	7828.99
892.763	7847.97
893.079	7759.84
893.395	7755.77
893.71	7758.26
894.026	7708.09
894.342	7714.19
894.657	7666.28
894.973	7615.66
895.289	7631.25
895.604	7607.53
895.92	7526.17
896.235	7529.56
896.55	7571.14
896.865	7485.27
897.181	7468.09
897.496	7520.75
897.811	7425.61
898.126	7304.48
898.441	7336.12
898.756	7336.8
899.071	7288.44
899.386	7300.64
899.7	7224.49
900.015	7264.26
900.33	7158.5
900.644	7171.83
900.959	7154.2
901.273	7176.58
901.588	7077.37
901.902	7091.38
902.216	7035.34
902.531	7043.7
902.845	6965.96
903.159	6942.01
903.473	6962.57
903.787	6921.89
904.101	6888.22
904.415	6876.7
904.729	6883.25
905.042	6831.28
905.356	6819.3
905.67	6760.99
905.984	6776.81
906.297	6749.24
906.611	6709.47
906.924	6720.77
907.237	6655.69
907.551	6678.28
907.864	6636.25
908.177	6603.94
908.491	6594.45
908.804	6539.31
909.117	6519.64
909.43	6458.63
909.743	6457.73
910.056	6450.95
910.368	6353.77
910.681	6370.5
910.994	6340.44
911.307	6373.89
911.619	6261.12
911.932	6278.97
912.244	6262.7
912.557	6310.38
912.869	6207.79
913.181	6145.64
913.494	6166.89
913.806	6130.73
914.118	6085.08
914.43	6094.57
914.742	6029.04
915.054	6007.57
915.366	6058.19
915.678	5989.49
915.99	5957.85
916.302	5907.68
916.613	5926.21
916.925	5873.11
917.236	5853.67
917.548	5814.35
917.859	5874.69
918.171	5740.46
918.482	5775.03
918.794	5692.77
919.105	5753.34
919.416	5649.39
919.727	5679.89
920.038	5649.39
920.349	5617.07
920.66	5622.04
920.971	5568.48
921.282	5555.38
921.593	5542.27
921.903	5515.83
922.214	5431.76
922.525	5423.18
922.835	5416.17
923.146	5394.02
923.456	5412.56
923.767	5382.95
924.077	5320.58
924.387	5313.8
924.697	5318.32
925.008	5260.92
925.318	5271.09
925.628	5247.81
925.938	5256.85
926.248	5130.53
926.558	5125.78
926.867	5178.89
927.177	5117.2
927.487	5115.61
927.796	5074.03
928.106	5054.37
928.416	5062.51
928.725	5043.07
929.034	5004.66
929.344	5076.52
929.653	4995.17
929.962	4943.19
930.271	4886.69
930.581	4896.18
930.89	4917.88
931.199	4869.07
931.508	4853.02
931.817	4818.22
932.125	4795.4
932.434	4790.2
932.743	4717.43
933.051	4710.2
933.36	4735.96
933.669	4701.84
933.977	4680.6
934.286	4661.61
934.594	4635.63
934.902	4613.48
935.21	4598.79
935.519	4588.4
935.827	4577.78
936.135	4575.06
936.443	4505.46
936.751	4458.91
937.059	4500.04
937.367	4479.7
937.674	4448.96
937.982	4451.68
938.29	4430.66
938.597	4437.89
938.905	4373.94
939.213	4335.97
939.52	4299.82
939.827	4326.71
940.135	4309.76
940.442	4281.96
940.749	4272.02
941.056	4258.46
941.363	4182.98
941.67	4187.05
941.977	4147.96
942.284	4180.72
942.591	4161.97
942.898	4118.8
943.205	4169.42
943.511	4120.84
943.818	4088.75
944.125	4097.34
944.431	4015.53
944.738	4024.57
945.044	4005.81
945.35	3997.23
945.657	3984.8
945.963	3993.16
946.269	3971.46
946.575	3942.09
946.881	3916.55
947.187	3877.91
947.493	3868.19
947.799	3858.02
948.105	3811.24
948.41	3845.14
948.716	3841.75
949.022	3799.94
949.327	3786.16
949.633	3792.49
949.938	3760.17
950.244	3736.22
950.549	3715.65
950.854	3712.49
951.16	3690.57
951.465	3657.12
951.77	3673.17
952.075	3670.45
952.38	3644.01
952.685	3607.86
952.99	3645.37
953.294	3573.73
953.599	3574.19
953.904	3561.76
954.209	3528.09
954.513	3524.02
954.818	3469.78
955.122	3493.06
955.426	3467.3
955.731	3441.99
956.035	3443.57
956.339	3449.22
956.643	3441.08
956.948	3362.67
957.252	3408.54
957.556	3397.02
957.86	3331.71
958.163	3348.2
958.467	3375.09
958.771	3326.51
959.075	3289.67
959.378	3280.86
959.682	3269.11
959.985	3269.56
960.289	3265.49
960.592	3214.65
960.896	3234.08
961.199	3217.36
961.502	3197.7
961.805	3186.85
962.108	3179.17
962.411	3169.22
962.714	3119.06
963.017	3132.39
963.32	3079.06
963.623	3103.92
963.926	3051.94
964.228	3076.12
964.531	3035.44
964.833	3043.13
965.136	3019.17
965.438	3009.68
965.741	3003.35
966.043	2982.11
966.345	2973.3
966.648	2953.64
966.95	2933.98
967.252	2920.64
967.554	2920.64
967.856	2936.01
968.158	2866.86
968.46	2891.72
968.761	2887.65
969.063	2872.51
969.365	2843.58
969.666	2844.26
969.968	2827.54
970.269	2797.26
970.571	2817.82
970.872	2817.6
971.174	2765.62
971.475	2801.32
971.776	2744.6
972.077	2720.65
972.378	2742.34
972.679	2703.93
972.98	2709.12
973.281	2734.21
973.582	2667.54
973.883	2668.9
974.183	2665.06
974.484	2686.53
974.785	2653.31
975.085	2638.39
975.386	2657.37
975.686	2616.02
975.986	2599.3
976.287	2578.28
976.587	2548.68
976.887	2546.87
977.187	2562.23
977.487	2566.53
977.787	2553.87
978.087	2540.54
978.387	2500.32
978.687	2479.07
978.987	2448.34
979.286	2488.34
979.586	2504.38
979.885	2440.88
980.185	2446.53
980.484	2429.58
980.784	2441.79
981.083	2420.54
981.382	2381
981.682	2415.57
981.981	2390.49
982.28	2363.82
982.579	2321.79
982.878	2366.31
983.177	2380.77
983.475	2320.66
983.774	2291.96
984.073	2293.32
984.372	2281.11
984.67	2246.54
984.969	2291.96
985.267	2268.01
985.566	2258.29
985.864	2215.58
986.162	2214
986.461	2206.54
986.759	2209.25
987.057	2242.24
987.355	2216.26
987.653	2204.28
987.951	2176.26
988.249	2189.59
988.547	2137.84
988.844	2172.87
989.142	2152.3
989.44	2147.33
989.737	2118.4
990.035	2122.92
990.332	2115.24
990.63	2116.6
990.927	2069.14
991.224	2074.11
991.521	2038.63
991.819	2046.77
992.116	2083.83
992.413	2055.36
992.71	2040.21
993.006	2031.18
993.303	1999.31
993.6	2013.1
993.897	2006.77
994.193	1995.24
994.49	1959.99
994.787	1974.45
995.083	1980.33
995.379	1971.52
995.676	1919.09
995.972	1938.3
996.268	1944.4
996.565	1908.92
996.861	1916.6
997.157	1905.3
997.453	1901.24
997.749	1869.6
998.044	1885.19
998.34	1865.76
998.636	1854
998.932	1863.27
999.227	1847.23
999.523	1852.65
999.818	1793.67
1000.114	1755.7
1000.409	1794.12
1000.704	1786.89
1001	1780.79
1001.295	1754.57
1001.59	1755.7
1001.885	1737.4
1002.18	1757.74
1002.475	1730.39
1002.77	1709.6
1003.065	1718.87
1003.359	1713.67
1003.654	1683.16
1003.949	1708.7
1004.243	1705.53
1004.538	1671.86
1004.832	1664.18
1005.127	1663.28
1005.421	1662.82
1005.715	1646.78
1006.009	1600.23
1006.304	1609.27
1006.598	1594.58
1006.892	1572.43
1007.186	1593.9
1007.48	1601.81
1007.773	1576.95
1008.067	1579.44
1008.361	1543.28
1008.655	1544.18
1008.948	1567.23
1009.242	1541.7
1009.535	1545.54
1009.829	1510.29
1010.122	1519.55
1010.415	1505.54
1010.708	1514.35
1011.001	1473.22
1011.295	1492.88
1011.588	1483.39
1011.881	1456.95
1012.173	1466.67
1012.466	1440.46
1012.759	1444.07
1013.052	1411.53
1013.344	1412.89
1013.637	1424.41
1013.93	1406.33
1014.222	1430.74
1014.514	1398.2
1014.807	1398.42
1015.099	1370.4
1015.391	1363.85
1015.683	1349.16
1015.976	1376.5
1016.268	1356.16
1016.56	1306
1016.851	1316.62
1017.143	1324.08
1017.435	1330.18
1017.727	1302.38
1018.018	1297.64
1018.31	1301.03
1018.602	1316.39
1018.893	1263.96
1019.185	1251.08
1019.476	1253.12
1019.767	1255.83
1020.058	1225.77
1020.35	1233
1020.641	1230.74
1020.932	1221.48
1021.223	1209.95
1021.514	1214.02
1021.804	1197.07
1022.095	1189.39
1022.386	1194.59
1022.677	1177.64
1022.967	1148.49
1023.258	1138.54
1023.548	1157.75
1023.839	1162.95
1024.129	1167.92
1024.419	1175.6
1024.709	1133.57
1025	1109.84
1025.29	1119.11
1025.58	1093.35
1025.87	1103.06
1026.16	1078.66
1026.449	1095.83
1026.739	1097.41
1027.029	1099.67
1027.319	1075.27
1027.608	1059.22
1027.898	1032.11
1028.187	1047.02
1028.477	1028.26
1028.766	1051.54
1029.055	1041.6
1029.344	1023.29
1029.634	1000.92
1029.923	1015.83
1030.212	995.04
1030.501	995.5
1030.79	979.45
1031.078	995.95
1031.367	972.67
1031.656	984.65
1031.945	971.99
1032.233	997.76
1032.522	961.82
1032.81	971.32
1033.099	959.11
1033.387	951.43
1033.675	934.26
1033.963	932
1034.251	932
1034.54	931.54
1034.828	939.23
1035.116	896.97
1035.403	914.59
1035.691	886.57
1035.979	881.15
1036.267	881.6
1036.554	892.22
1036.842	867.14
1037.129	870.53
1037.417	854.48
1037.704	837.53
1037.992	842.05
1038.279	857.65
1038.566	843.41
1038.853	843.41
1039.14	843.41
