Data from hue_330_FLMS001491_19.txt Node
Date: Mon Feb 06 15:45:00 GMT 2017
User: dcchb
Spectrometer: FLMS00149
Trigger mode: 0
Integration Time (sec): 2.000000E-2
Scans to average: 10
Electric dark correction enabled: true
Nonlinearity correction enabled: false
Boxcar width: 0
XAxis mode: Wavelengths
Number of Pixels in Spectrum: 2048
>>>>>Begin Spectral Data<<<<<
341.393	-19.65
341.776	-19.65
342.16	-19.65
342.543	-57.84
342.927	-62.36
343.31	-58.52
343.693	-74.33
344.077	-53.09
344.46	-67.1
344.843	-59.87
345.226	-33.88
345.61	-28.23
345.993	-18.97
346.376	-2.25
346.759	9.51
347.142	23.97
347.525	68.94
347.908	50.41
348.291	63.52
348.674	74.81
349.057	105.1
349.44	127.02
349.823	157.75
350.206	162.04
350.588	188.48
350.971	192.78
351.354	230.06
351.737	215.83
352.119	262.83
352.502	270.97
352.884	273.45
353.267	268.03
353.65	282.72
354.032	297.86
354.414	309.84
354.797	307.8
355.179	316.16
355.562	311.42
355.944	323.4
356.326	313.9
356.709	334.69
357.091	330.85
357.473	348.48
357.855	338.76
358.238	335.6
358.62	328.59
359.002	325.88
359.384	310.74
359.766	343.73
360.148	331.08
360.53	306.45
360.912	335.6
361.294	338.76
361.676	316.16
362.057	329.95
362.439	329.05
362.821	329.72
363.203	349.16
363.584	327.92
363.966	329.27
364.348	306.67
364.729	324.98
365.111	303.96
365.493	322.49
365.874	327.92
366.256	319.1
366.637	303.06
367.019	308.71
367.4	322.49
367.781	329.05
368.163	313.9
368.544	302.61
368.925	306.22
369.306	331.3
369.688	303.28
370.069	307.12
370.45	285.43
370.831	313
371.212	338.99
371.593	308.03
371.974	294.02
372.355	326.33
372.736	315.94
373.117	324.3
373.498	306.9
373.879	339.44
374.26	322.49
374.641	315.26
375.021	322.27
375.402	314.36
375.783	325.2
376.163	320.23
376.544	313.9
376.925	303.73
377.305	326.11
377.686	330.63
378.066	324.3
378.447	305.99
378.827	330.17
379.208	314.36
379.588	311.64
379.968	345.32
380.349	322.72
380.729	312.32
381.109	325.66
381.489	321.81
381.87	311.42
382.25	345.77
382.63	318.65
383.01	345.54
383.39	324.07
383.77	315.03
384.15	335.37
384.53	320.68
384.91	354.81
385.29	328.37
385.67	354.81
386.049	337.18
386.429	343.73
386.809	341.93
387.189	356.16
387.568	374.24
387.948	331.53
388.328	368.14
388.707	335.15
389.087	372.66
389.466	354.58
389.846	356.61
390.225	368.37
390.605	355.03
390.984	348.48
391.363	367.24
391.743	354.36
392.122	386.44
392.501	356.39
392.881	374.92
393.26	371.98
393.639	377.63
394.018	343.73
394.397	356.61
394.776	360.68
395.155	384.41
395.534	364.75
395.913	365.43
396.292	394.13
396.671	381.7
397.05	376.73
397.429	375.6
397.808	377.86
398.186	389.38
398.565	374.02
398.944	394.13
399.323	393.22
399.701	398.87
400.08	396.16
400.458	401.36
400.837	394.13
401.215	409.27
401.594	373.79
401.972	387.8
402.351	388.25
402.729	402.26
403.107	421.47
403.486	399.55
403.864	411.3
404.242	415.14
404.62	402.94
404.999	399.33
405.377	423.51
405.755	408.59
406.133	424.18
406.511	406.33
406.889	443.62
407.267	436.16
407.645	424.64
408.023	432.55
408.401	447.69
408.779	444.3
409.156	462.6
409.534	445.65
409.912	451.53
410.29	443.84
410.667	460.79
411.045	471.87
411.422	480.23
411.8	492.2
412.178	495.37
412.555	491.3
412.933	513.67
413.31	488.36
413.687	510.06
414.065	538.98
414.442	521.58
414.819	531.53
415.197	529.94
415.574	567.91
415.951	550.73
416.328	536.27
416.705	548.47
417.082	550.28
417.46	566.55
417.837	581.47
418.214	580.34
418.591	560.23
418.967	586.44
419.344	608.81
419.721	587.34
420.098	596.83
420.475	622.82
420.852	614.91
421.228	624.4
421.605	614.91
421.982	647.45
422.358	633.22
422.735	652.43
423.111	647.91
423.488	644.97
423.864	653.33
424.241	680
424.617	686.55
424.994	649.04
425.37	676.15
425.746	693.78
426.123	669.38
426.499	678.19
426.875	710.05
427.251	718.64
427.627	726.77
428.003	743.05
428.379	731.75
428.756	743.05
429.132	742.59
429.507	771.52
429.883	755.93
430.259	756.6
430.635	797.51
431.011	781.91
431.387	807.68
431.763	807.22
432.138	826.66
432.514	825.3
432.89	830.27
433.265	855.81
433.641	865.3
434.016	857.84
434.392	856.49
434.767	873.89
435.143	914.34
435.518	888.13
435.894	915.02
436.269	910.72
436.644	912.08
437.02	915.24
437.395	911.18
437.77	927.9
438.145	961.57
438.52	952.31
438.895	950.27
439.271	974.68
439.646	987.11
440.021	972.42
440.395	972.19
440.77	982.59
441.145	987.56
441.52	997.28
441.895	999.54
442.27	1008.35
442.645	1007.67
443.019	1009.25
443.394	1021.46
443.769	1062.59
444.143	1034.56
444.518	1064.39
444.892	1052.19
445.267	1047.44
445.641	1048.12
446.016	1088.8
446.39	1071.85
446.764	1072.08
447.139	1084.51
447.513	1070.72
447.887	1090.15
448.262	1087.9
448.636	1098.97
449.01	1108.23
449.384	1104.39
449.758	1117.5
450.132	1113.43
450.506	1121.34
450.88	1121.34
451.254	1117.95
451.628	1127.22
452.002	1144.16
452.376	1136.26
452.75	1158.4
453.123	1143.94
453.497	1150.04
453.871	1177.84
454.244	1195.46
454.618	1189.14
454.992	1204.95
455.365	1203.37
455.739	1220.55
456.112	1244.28
456.486	1234.56
456.859	1223.71
457.232	1253.77
457.606	1241.34
457.979	1296.25
458.352	1297.38
458.725	1292.41
459.099	1281.56
459.472	1334.67
459.845	1326.08
460.218	1324.05
460.591	1312.75
460.964	1361.79
461.337	1354.33
461.71	1352.52
462.083	1382.58
462.456	1389.36
462.829	1383.71
463.201	1409.24
463.574	1428.9
463.947	1402.24
464.32	1443.14
464.692	1450.82
465.065	1492.4
465.438	1477.04
465.81	1502.8
466.183	1502.12
466.555	1527.43
466.928	1552.06
467.3	1524.72
467.672	1544.61
468.045	1613.31
468.417	1588.67
468.789	1578.96
469.161	1612.18
469.534	1636.13
469.906	1638.39
470.278	1664.15
470.65	1679.29
471.022	1713.42
471.394	1694.88
471.766	1749.8
472.138	1733.3
472.51	1755.45
472.882	1792.74
473.253	1822.57
473.625	1815.11
473.997	1842.23
474.369	1850.59
474.74	1870.47
475.112	1907.31
475.484	1908.66
475.855	1910.02
476.227	1972.17
476.598	2002.9
476.97	2003.58
477.341	2059.85
477.713	2096.68
478.084	2102.78
478.455	2162.67
478.827	2123.57
479.198	2185.72
479.569	2223.23
479.94	2230.01
480.311	2247.64
480.682	2279.28
481.053	2317.24
481.424	2353.62
481.795	2364.7
482.166	2392.49
482.537	2434.75
482.908	2449.44
483.279	2486.73
483.65	2516.78
484.021	2565.6
484.391	2579.61
484.762	2588.19
485.133	2627.29
485.503	2651.24
485.874	2713.39
486.244	2716.55
486.615	2737.8
486.985	2770.34
487.356	2833.16
487.726	2823.44
488.097	2891.46
488.467	2902.08
488.837	2934.63
489.207	2937.79
489.578	2982.31
489.948	3030.44
490.318	3061.4
490.688	3054.62
491.058	3130.55
491.428	3140.95
491.798	3201.51
492.168	3205.35
492.538	3230.89
492.908	3248.29
493.278	3286.93
493.648	3330.32
494.017	3351.79
494.387	3335.29
494.757	3363.32
495.126	3431.79
495.496	3385.69
495.866	3408.51
496.235	3441.28
496.605	3520.15
496.974	3477.89
497.344	3582.97
497.713	3535.97
498.082	3531.22
498.452	3606.02
498.821	3596.76
499.19	3556.3
499.559	3666.81
499.928	3665
500.298	3680.14
500.667	3659.58
501.036	3702.29
501.405	3719.46
501.774	3742.29
502.143	3720.59
502.512	3754.04
502.88	3790.2
503.249	3783.87
503.618	3803.53
503.987	3815.96
504.356	3825.9
504.724	3833.36
505.093	3892.57
505.462	3869.06
505.83	3914.04
506.199	3937.54
506.567	3968.27
506.936	3968.05
507.304	3994.26
507.672	3998.78
508.041	3975.5
508.409	4026.57
508.777	4028.38
509.145	4072.9
509.514	4092.56
509.882	4074.48
510.25	4061.15
510.618	4105.89
510.986	4119.68
511.354	4158.55
511.722	4165.1
512.09	4171.2
512.458	4160.81
512.826	4202.39
513.193	4252.33
513.561	4240.58
513.929	4250.52
514.297	4231.09
514.664	4304.76
515.032	4287.13
515.4	4303.86
515.767	4311.09
516.135	4305.21
516.502	4291.2
516.869	4364.87
517.237	4384.31
517.604	4345.21
517.972	4327.13
518.339	4404.87
518.706	4370.29
519.073	4400.35
519.44	4403.29
519.808	4468.6
520.175	4373.23
520.542	4439.67
520.909	4525.77
521.276	4478.77
521.643	4531.19
522.009	4538.88
522.376	4579.78
522.743	4555.37
523.11	4625.88
523.477	4617.29
523.843	4643.51
524.21	4661.13
524.577	4693.68
524.943	4699.55
525.31	4687.35
525.676	4758.99
526.043	4796.05
526.409	4768.02
526.776	4808.25
527.142	4808.48
527.508	4843.5
527.874	4847.57
528.241	4904.29
528.607	4889.15
528.973	4965.99
529.339	4931.18
529.705	4999.88
530.071	5049.82
530.437	4994.46
530.803	5078.52
531.169	5034.23
531.535	5091.86
531.901	5100.9
532.267	5154.23
532.632	5178.18
532.998	5131.63
533.364	5199.88
533.73	5188.8
534.095	5207.33
534.461	5256.15
534.826	5281.68
535.192	5349.7
535.557	5324.62
535.923	5341.79
536.288	5320.1
536.653	5339.99
537.019	5348.12
537.384	5386.77
537.749	5462.02
538.114	5445.52
538.479	5435.35
538.845	5497.27
539.21	5439.19
539.575	5492.98
539.94	5556.7
540.305	5583.82
540.67	5603.48
541.034	5612.07
541.399	5636.93
541.764	5712.63
542.129	5676.93
542.494	5710.82
542.858	5721.22
543.223	5749.47
543.587	5809.35
543.952	5815.91
544.316	5806.64
544.681	5841.22
545.045	5850.71
545.41	5880.31
545.774	5923.02
546.138	5918.28
546.503	5950.82
546.867	5959.63
547.231	6036.47
547.595	5994.21
547.959	6033.53
548.324	6061.32
548.688	6092.28
549.052	6153.3
549.416	6103.58
549.779	6132.96
550.143	6132.96
550.507	6186.29
550.871	6167.08
551.235	6268.1
551.599	6238.95
551.962	6275.33
552.326	6235.56
552.689	6288.44
553.053	6276.91
553.417	6323.46
553.78	6418.38
554.143	6402.33
554.507	6378.15
554.87	6430.58
555.234	6456.57
555.597	6425.16
555.96	6469.22
556.323	6532.72
556.686	6533.63
557.05	6525.49
557.413	6579.05
557.776	6521.42
558.139	6615.89
558.502	6591.48
558.865	6640.52
559.228	6659.27
559.59	6681.19
559.953	6716.9
560.316	6755.99
560.679	6758.03
561.041	6799.16
561.404	6833.51
561.767	6818.14
562.129	6786.95
562.492	6925.93
562.854	6854.52
563.217	6905.14
563.579	6847.29
563.941	6903.56
564.304	6959.61
564.666	6969.77
565.028	6970.9
565.39	7017
565.753	7069.66
566.115	7109.43
566.477	7107.85
566.839	7077.57
567.201	7165.02
567.563	7179.71
567.925	7254.51
568.287	7216.55
568.648	7254.96
569.01	7312.36
569.372	7398.46
569.734	7345.36
570.095	7392.36
570.457	7447.28
570.819	7441.85
571.18	7485.69
571.542	7486.37
571.903	7589.19
572.265	7562.08
572.626	7622.41
572.987	7726.82
573.349	7695.63
573.71	7751.22
574.071	7836.42
574.432	7838.45
574.794	7993.25
575.155	7888.17
575.516	7942.4
575.877	8009.52
576.238	8082.97
576.599	8204.32
576.96	8278.21
577.32	8306.01
577.681	8396.18
578.042	8487.47
578.403	8489.73
578.763	8612.9
579.124	8742.61
579.485	8804.53
579.845	8965.2
580.206	8962.94
580.566	9124.29
580.927	9243.84
581.287	9305.31
581.648	9465.53
582.008	9687.22
582.368	9669.82
582.728	9890.15
583.089	10032.07
583.449	10179.18
583.809	10416.92
584.169	10486.52
584.529	10708.21
584.889	10940.07
585.249	11060.74
585.609	11213.05
585.969	11432.93
586.329	11665.02
586.688	11788.4
587.048	12042.86
587.408	12248.05
587.768	12493.02
588.127	12662.51
588.487	12952.22
588.846	13241.02
589.206	13343.17
589.565	13629.03
589.925	13973.43
590.284	14128.68
590.643	14533.19
591.003	14684.83
591.362	15031.48
591.721	15340.4
592.08	15514.41
592.44	15850.22
592.799	16153.94
593.158	16397.55
593.517	16696.07
593.876	17057.42
594.235	17358.2
594.593	17585.09
594.952	17882.26
595.311	18230.04
595.67	18470.94
596.029	18891.27
596.387	19133.07
596.746	19504.59
597.104	19721.08
597.463	19986.61
597.822	20379.82
598.18	20643.54
598.538	20893.7
598.897	21396.97
599.255	21383.18
599.613	21969.15
599.972	22151.97
600.33	22415.47
600.688	22629.48
601.046	23088.67
601.404	23388.55
601.762	23611.14
602.12	24064.24
602.478	24360.5
602.836	24501.06
603.194	24618.58
603.552	25062.41
603.91	25140.37
604.268	25584.88
604.625	25721.37
604.983	26031.42
605.341	26221.47
605.698	26625.08
606.056	26754.11
606.413	26988.68
606.771	27318.39
607.128	27668.67
607.485	27758.15
607.843	27903.69
608.2	28316.11
608.557	28627.51
608.914	28706.38
609.272	29103.43
609.629	29168.06
609.986	29700.7
610.343	29655.05
610.7	30053.46
611.057	30315.38
611.414	30284.42
611.771	30563.96
612.127	30852.08
612.484	30951.52
612.841	31330.94
613.198	31390.15
613.554	31576.81
613.911	31825.62
614.267	31924.82
614.624	32087.31
614.98	32233.97
615.337	32587.86
615.693	32732.71
616.05	32723
616.406	33132.48
616.762	33125.92
617.118	33237.11
617.475	33466.25
617.831	33707.15
618.187	33842.06
618.543	34017.2
618.899	34254.03
619.255	34253.8
619.611	34332.9
619.967	34607.69
620.323	34823.05
620.678	34744.86
621.034	34786.67
621.39	34835.93
621.746	34935.37
622.101	35412.42
622.457	35258.52
622.812	35522.47
623.168	35542.58
623.523	35565.18
623.879	35919.07
624.234	35728.79
624.589	35947.09
624.945	35965.85
625.3	36138.5
625.655	36079.07
626.01	36235.67
626.365	36286.07
626.72	36370.13
627.075	36495.78
627.43	36549.34
627.785	36523.12
628.14	36670.46
628.495	36662.78
628.85	36753.85
629.205	36681.31
629.559	36999.95
629.914	36775.77
630.269	36879.04
630.623	36937.35
630.978	36907.07
631.332	37154.52
631.687	37169.88
632.041	37025.03
632.396	37190.45
632.75	37132.82
633.104	37169.88
633.459	37056.67
633.813	37118.59
634.167	37118.36
634.521	37113.61
634.875	37376.43
635.229	37127.4
635.583	37160.84
635.937	37172.14
636.291	37175.99
636.645	37182.54
636.999	37276.77
637.352	37340.5
637.706	37049.66
638.06	37252.14
638.413	37262.54
638.767	37155.87
639.121	37212.37
639.474	37130.56
639.828	37128.08
640.181	37287.4
640.534	37177.34
640.888	37086.72
641.241	37125.82
641.594	37070.45
641.947	37354.06
642.301	37233.39
642.654	37159.94
643.007	37098.7
643.36	37136.89
643.713	37188.64
644.066	37363.78
644.419	36997.46
644.771	36820.06
645.124	36455.1
645.477	36446.97
645.83	36324.71
646.182	36183.24
646.535	36030.71
646.888	36117.93
647.24	35994.55
647.593	36152.06
647.945	36084.49
648.298	35977.15
648.65	35876.36
649.002	35789.13
649.355	36032.74
649.707	35825.74
650.059	36201.55
650.411	36558.6
650.763	36543.23
651.115	36940.29
651.467	36798.37
651.819	36870.68
652.171	36678.15
652.523	36704.81
652.875	36766.73
653.227	36665.26
653.578	36927.86
653.93	36770.35
654.282	36558.6
654.633	36491.48
654.985	36486.51
655.337	36606.74
655.688	36657.58
656.039	36677.24
656.391	36473.18
656.742	36472.05
657.094	36498.04
657.445	36658.03
657.796	36554.76
658.147	36490.13
658.498	36400.19
658.849	36623.46
659.2	36554.76
659.551	36383.01
659.902	36510.24
660.253	36518.83
660.604	36570.35
660.955	36477.02
661.306	36410.58
661.656	36404.03
662.007	36579.39
662.358	36404.25
662.708	36428.89
663.059	36415.1
663.409	36185.5
663.76	36429.34
664.11	36432.28
664.461	36419.17
664.811	36482.44
665.161	36419.85
665.511	36179.85
665.862	36274.09
666.212	36410.13
666.562	36526.06
666.912	36358.83
667.262	36329.91
667.612	36345.05
667.962	36363.58
668.312	36333.75
668.662	36432.28
669.011	36423.69
669.361	36425.27
669.711	36275.9
670.06	36347.08
670.41	36177.14
670.76	36284.94
671.109	36386.4
671.459	36281.55
671.808	36083.59
672.157	36418.49
672.507	36035.45
672.856	36086.52
673.205	36170.59
673.554	36240.87
673.904	36168.78
674.253	36393.18
674.602	36204.03
674.951	35498.06
675.3	35463.71
675.649	36023.7
675.998	35975.34
676.346	36035.22
676.695	36151.83
677.044	35737.61
677.393	35888.34
677.741	35971.27
678.09	35805.63
678.438	35773.08
678.787	35919.52
679.135	35885.17
679.484	35639.08
679.832	35824.16
680.181	35555.92
680.529	35720.43
680.877	35694.67
681.225	35512.53
681.573	35782.58
681.922	35512.53
682.27	35457.84
682.618	35541.68
682.966	35401.34
683.314	35413.77
683.661	35279.99
684.009	35151.86
684.357	35203.83
684.705	35108.24
685.053	35083.39
685.4	35079.09
685.748	34931.3
686.095	34865.09
686.443	34748.7
686.79	34828.93
687.138	34720.23
687.485	34769.72
687.832	34502.84
688.18	34701.02
688.527	34473.01
688.874	34456.06
689.221	34438.2
689.568	34261.71
689.915	34312.33
690.262	34287.02
690.609	34092.68
690.956	34032.34
691.303	33903.76
691.65	33847.71
691.997	33846.58
692.344	33584.67
692.69	33692.01
693.037	33724.33
693.383	33433.49
693.73	33535.86
694.077	33395.75
694.423	33323.66
694.769	33283.43
695.116	33173.15
695.462	33096.77
695.808	33036.21
696.155	32994.17
696.501	32793.5
696.847	32794.41
697.193	32520.51
697.539	32751.24
697.885	32456.79
698.231	32528.42
698.577	32317.58
698.923	32450.23
699.269	32129.34
699.614	32157.36
699.96	32093.63
700.306	32078.49
700.651	31908.55
700.997	31875.11
701.342	31782.46
701.688	31656.58
702.033	31644.83
702.379	31594.44
702.724	31456.14
703.069	31492.07
703.415	31176.6
703.76	31248.91
704.105	31204.17
704.45	31124.17
704.795	30896.38
705.14	30871.74
705.485	30815.93
705.83	30756.04
706.175	30812.99
706.52	30795.81
706.865	30567.35
707.209	30588.81
707.554	30476.05
707.899	30442.83
708.243	30266.11
708.588	30320.8
708.932	30086.91
709.277	30128.71
709.621	30104.76
709.966	29933.24
710.31	29956.97
710.654	29758.33
710.998	29723.75
711.342	29862.05
711.687	29659.8
712.031	29611.89
712.375	29490.76
712.719	29547.49
713.063	29485.79
713.407	29473.36
713.75	29265.69
714.094	29387.49
714.438	29211.22
714.782	29395.85
715.125	29062.53
715.469	29167.38
715.812	29008.06
716.156	28810.33
716.499	28813.49
716.843	28920.38
717.186	28673.16
717.53	28917.22
717.873	28776.66
718.216	28791.35
718.559	28617.34
718.902	28466.61
719.246	28536.66
719.589	28435.2
719.932	28343.45
720.275	28258.03
720.617	28296.22
720.96	28184.81
721.303	28127.86
721.646	28218.26
721.989	27959.96
722.331	28086.96
722.674	28016.45
723.016	27974.87
723.359	27991.59
723.701	28047.64
724.044	27790.47
724.386	27626.86
724.729	27795.22
725.071	27735.1
725.413	27788.21
725.755	27651.04
726.097	27466.64
726.439	27425.73
726.782	27436.35
727.124	27565.39
727.465	27227.09
727.807	27335.57
728.149	27293.08
728.491	27150.49
728.833	27272.07
729.175	27101
729.516	27064.84
729.858	27097.38
730.199	27103.71
730.541	26945.29
730.882	26987.33
731.224	27040.66
731.565	26865.3
731.906	26834.56
732.248	26899.42
732.589	26713.66
732.93	26677.73
733.271	26606.32
733.612	26701.68
733.953	26690.84
734.294	26515.48
734.635	26610.16
734.976	26583.95
735.317	26244.3
735.658	26333.56
735.999	26298.76
736.339	26336.72
736.68	26377.17
737.021	26371.98
737.361	26049.27
737.702	26358.64
738.042	26196.16
738.383	26098.54
738.723	26131.08
739.063	26030.06
739.404	26157.07
739.744	26127.91
740.084	25865.32
740.424	25912.55
740.764	25836.4
741.104	25902.38
741.444	25781.03
741.784	25756.17
742.124	25789.39
742.464	25680.02
742.804	25747.59
743.143	25607.02
743.483	25573.58
743.823	25467.59
744.162	25630.75
744.502	25592.11
744.841	25445.67
745.181	25458.78
745.52	25339.91
745.86	25396.86
746.199	25270.54
746.538	25253.81
746.877	25334.26
747.216	25362.51
747.556	25073.93
747.895	25116.19
748.234	24975.18
748.573	24990.54
748.911	25022.63
749.25	24987.15
749.589	24823.77
749.928	24799.14
750.267	24939.92
750.605	24797.78
750.944	24800.04
751.283	24709.65
751.621	24681.17
751.96	24561.18
752.298	24523.89
752.636	24579.03
752.975	24512.36
753.313	24321.63
753.651	24505.81
753.989	24279.83
754.327	24216.1
754.666	24188.53
755.004	24280.96
755.342	24208.42
755.679	24204.12
756.017	23982.89
756.355	24010.68
756.693	23887.07
757.031	23932.04
757.368	23761.88
757.706	23838.26
758.044	23685.49
758.381	23738.6
758.719	23639.84
759.056	23538.38
759.394	23521.88
759.731	23324.6
760.068	23319.63
760.405	23259.52
760.743	23061.33
761.08	23259.97
761.417	23035.57
761.754	23125.96
762.091	23052.52
762.428	23017.04
762.765	22828.79
763.102	22934.33
763.438	22677.61
763.775	22597.16
764.112	22672.64
764.449	22571.4
764.785	22433.1
765.122	22373.66
765.458	22257.28
765.795	22166.89
766.131	22213.22
766.467	22123.95
766.804	22113.56
767.14	21924.18
767.476	21951.08
767.812	21813.45
768.148	21855.94
768.485	21667.24
768.821	21606
769.157	21609.84
769.492	21435.38
769.828	21365.78
770.164	21330.75
770.5	21255.73
770.836	21195.39
771.171	21112.45
771.507	21015.51
771.842	20950.42
772.178	20946.36
772.513	20806.02
772.849	20685.12
773.184	20686.48
773.519	20689.19
773.855	20603.31
774.19	20519.7
774.525	20445.8
774.86	20466.59
775.195	20384.56
775.53	20252.59
775.865	20186.15
776.2	19975.99
776.535	19913.39
776.87	19986.38
777.205	19882.2
777.539	19705.03
777.874	19814.41
778.209	19564.7
778.543	19545.71
778.878	19552.72
779.212	19494.19
779.547	19361.54
779.881	19369.67
780.215	19223.01
780.55	19331.03
780.884	19103.47
781.218	19105.95
781.552	19035.45
781.886	18898.73
782.22	18876.13
782.554	18795.9
782.888	18676.36
783.222	18543.93
783.556	18434.33
783.889	18431.39
784.223	18272.53
784.557	18281.34
784.89	18307.33
785.224	18254.68
785.557	18204.51
785.891	18108.24
786.224	18052.87
786.558	17952.54
786.891	17815.82
787.224	17750.96
787.557	17675.48
787.891	17625.99
788.224	17706.67
788.557	17656.95
788.89	17503.28
789.223	17535.37
789.556	17387.81
789.888	17391.65
790.221	17267.36
790.554	17121.37
790.887	17154.37
791.219	17041.37
791.552	17023.07
791.884	16928.16
792.217	16874.82
792.549	16888.84
792.882	16728.61
793.214	16674.6
793.546	16650.65
793.879	16578.79
794.211	16448.4
794.543	16513.03
794.875	16490.43
795.207	16511.67
795.539	16378.79
795.871	16443.42
796.203	16282.3
796.535	16221.51
796.867	16164.79
797.198	16058.35
797.53	16036.2
797.862	16002.08
798.193	15920.95
798.525	15841.86
798.856	15875.98
799.188	15677.57
799.519	15610.23
799.85	15574.29
800.182	15523
800.513	15588.3
800.844	15460.4
801.175	15580.4
801.506	15470.12
801.837	15432.15
802.168	15362.1
802.499	15358.71
802.83	15244.36
803.161	15179.73
803.491	15187.64
803.822	15126.85
804.153	15128.43
804.483	14952.16
804.814	14877.36
805.145	14954.65
805.475	14807.31
805.805	14854.76
806.136	14819.96
806.466	14798.95
806.796	14758.72
807.126	14607.77
807.457	14601.66
807.787	14680.98
808.117	14489.58
808.447	14505.4
808.777	14559.41
809.107	14454.55
809.436	14440.76
809.766	14398.05
810.096	14371.39
810.426	14246.65
810.755	14235.8
811.085	14203.03
811.414	14204.61
811.744	14124.39
812.073	14019.53
812.403	14056.37
812.732	14073.54
813.061	13958.07
813.39	13827
813.719	13848.92
814.049	13970.49
814.378	13824.06
814.707	13834.45
815.036	13718.07
815.365	13689.37
815.693	13572.99
816.022	13606.89
816.351	13622.93
816.68	13483.05
817.008	13583.39
817.337	13471.75
817.665	13414.12
817.994	13516.04
818.322	13448.47
818.651	13357.4
818.979	13305.2
819.307	13337.06
819.636	13293.22
819.964	13206.22
820.292	13296.84
820.62	13187.69
820.948	13159.44
821.276	13147.92
821.604	13204.41
821.932	13210.97
822.259	13216.62
822.587	13177.52
822.915	13146.11
823.243	13169.39
823.57	13091.2
823.898	13133.68
824.225	13154.47
824.553	13090.07
824.88	13158.31
825.207	13193.34
825.535	13062.04
825.862	13069.73
826.189	13052.1
826.516	13147.47
826.843	13205.99
827.17	13150.4
827.497	13141.82
827.824	13053
828.151	13183.62
828.478	13144.3
828.805	13150.85
829.131	13119.67
829.458	13097.07
829.785	13018.65
830.111	12977.98
830.438	13093.68
830.764	13122.38
831.09	13073.34
831.417	13064.08
831.743	12986.11
832.069	13040.8
832.395	13027.92
832.722	13073.12
833.048	12961.48
833.374	13029.05
833.7	12942.05
834.026	12963.06
834.351	12913.8
834.677	12995.6
835.003	13004.64
835.329	12940.01
835.654	12940.46
835.98	12815.72
836.306	12840.58
836.631	12777.76
836.956	12848.72
837.282	12780.92
837.607	12732.11
837.932	12717.19
838.258	12704.31
838.583	12733.46
838.908	12669.29
839.233	12738.66
839.558	12649.17
839.883	12569.85
840.208	12538.67
840.533	12577.54
840.858	12542.96
841.182	12526.92
841.507	12523.53
841.832	12432
842.156	12492.34
842.481	12445.79
842.805	12411.89
843.13	12409.18
843.454	12376.19
843.778	12201.28
844.103	12216.19
844.427	12162.41
844.751	12185.91
845.075	12173.71
845.399	12169.41
845.723	12043.54
846.047	12076.98
846.371	12025.46
846.695	12007.61
847.019	11855.97
847.343	11862.98
847.666	11794.28
847.99	11725.13
848.313	11716.32
848.637	11659.14
848.96	11636.09
849.284	11568.75
849.607	11561.74
849.931	11524
850.254	11462.31
850.577	11322.2
850.9	11260.73
851.223	11245.37
851.546	11197.01
851.869	11170.34
852.192	11239.49
852.515	11080.63
852.838	11068.2
853.161	11089.44
853.483	11008.31
853.806	10949.1
854.129	11004.92
854.451	10938.26
854.774	10816.9
855.096	10783.69
855.419	10837.92
855.741	10779.39
856.063	10713.4
856.385	10639.51
856.708	10697.81
857.03	10510.02
857.352	10650.36
857.674	10543.47
857.996	10548.21
858.318	10475.67
858.64	10555.67
858.961	10477.93
859.283	10363.13
859.605	10357.93
859.926	10295.79
860.248	10361.78
860.57	10247.88
860.891	10336.24
861.212	10250.59
861.534	10214.89
861.855	10195.68
862.176	10223.7
862.498	10172.85
862.819	10163.81
863.14	10094.89
863.461	10133.53
863.782	10054.67
864.103	10060.77
864.424	10019.64
864.745	10058.28
865.065	9999.07
865.386	9981.9
865.707	9991.62
866.027	9962.01
866.348	9901.67
866.668	9997.27
866.989	9931.05
867.309	9834.78
867.63	9826.42
867.95	9844.95
868.27	9782.36
868.59	9772.86
868.91	9803.15
869.23	9768.12
869.55	9757.05
869.87	9774.45
870.19	9776.03
870.51	9743.94
870.83	9783.03
871.15	9679.53
871.469	9693.77
871.789	9665.3
872.109	9630.72
872.428	9595.02
872.748	9641.12
873.067	9614.22
873.386	9610.38
873.706	9586.88
874.025	9455.36
874.344	9496.71
874.663	9564.51
874.982	9476.6
875.301	9475.47
875.62	9452.19
875.939	9482.48
876.258	9445.87
876.577	9447
876.896	9427.34
877.214	9410.61
877.533	9375.59
877.852	9355.25
878.17	9262.37
878.489	9376.04
878.807	9334.68
879.125	9338.53
879.444	9327.45
879.762	9286.78
880.08	9218.08
880.398	9206.1
880.716	9227.79
881.034	9201.35
881.352	9228.92
881.67	9178.76
881.988	9147.34
882.306	9113.9
882.624	9109.15
882.941	9093.56
883.259	9054.01
883.577	8984.86
883.894	8989.16
884.212	9029.38
884.529	8992.32
884.846	8904.41
885.164	8886.11
885.481	8911.42
885.798	8856.96
886.115	8770.18
886.432	8856.96
886.75	8774.47
887.067	8828.03
887.383	8709.16
887.7	8818.54
888.017	8790.74
888.334	8758.88
888.651	8688.37
888.967	8681.14
889.284	8654.48
889.6	8588.71
889.917	8513.69
890.233	8508.94
890.55	8490.64
890.866	8543.97
891.182	8488.6
891.498	8467.36
891.815	8510.75
892.131	8400.7
892.447	8398.89
892.763	8386.69
893.079	8376.52
893.395	8279.34
893.71	8297.42
894.026	8342.39
894.342	8235.28
894.657	8243.19
894.973	8238.67
895.289	8156.18
895.604	8117.77
895.92	8106.69
896.235	8113.7
896.55	8069.18
896.865	8119.35
897.181	8062.18
897.496	8064.89
897.811	8013.36
898.126	7953.7
898.441	7945.79
898.756	7952.12
899.071	7841.39
899.386	7875.29
899.7	7824.67
900.015	7758.23
900.33	7708.96
900.644	7704.9
900.959	7737.44
901.273	7658.8
901.588	7686.14
901.902	7626.71
902.216	7533.38
902.531	7511.91
902.845	7559.59
903.159	7538.8
903.473	7411.12
903.787	7430.33
904.101	7433.49
904.415	7383.55
904.729	7438.69
905.042	7266.26
905.356	7329.76
905.67	7244.8
905.984	7251.57
906.297	7246.83
906.611	7177.68
906.924	7172.71
907.237	7132.03
907.551	7149.2
907.864	7104.46
908.177	7037.57
908.491	7028.76
908.804	7052.48
909.117	7027.4
909.43	6900.85
909.743	6911.24
910.056	6886.16
910.368	6876.67
910.681	6833.73
910.994	6801.64
911.307	6778.14
911.619	6702.89
911.932	6759.16
912.244	6702.21
912.557	6725.71
912.869	6617.47
913.181	6634.19
913.494	6605.72
913.806	6550.12
914.118	6525.04
914.43	6496.57
914.742	6484.36
915.054	6465.38
915.366	6424.93
915.678	6469.45
915.99	6409.56
916.302	6367.3
916.613	6324.14
916.925	6267.65
917.236	6314.2
917.548	6208.89
917.859	6263.35
918.171	6216.8
918.482	6205.27
918.794	6117.37
919.105	6129.12
919.416	6090.93
919.727	6141.55
920.038	6087.76
920.349	6027.65
920.66	6018.39
920.971	5958.5
921.282	5963.93
921.593	5934.55
921.903	5862.91
922.214	5857.26
922.525	5831.27
922.835	5847.77
923.146	5756.92
923.456	5742.46
923.767	5716.93
924.077	5742.01
924.387	5707.43
924.697	5657.04
925.008	5644.39
925.318	5654.55
925.628	5636.48
925.938	5635.12
926.248	5607.1
926.558	5612.3
926.867	5532.75
927.177	5496.37
927.487	5444.62
927.796	5471.96
928.106	5442.13
928.416	5412.53
928.725	5394
929.034	5388.35
929.344	5392.19
929.653	5347.44
929.962	5302.02
930.271	5313.55
930.581	5252.98
930.89	5212.98
931.199	5223.61
931.508	5179.31
931.817	5187.67
932.125	5141.12
932.434	5138.18
932.743	5042.82
933.051	5064.74
933.36	5024.29
933.669	5013.44
933.977	4995.59
934.286	4985.19
934.594	4958.3
934.902	4907.91
935.21	4952.65
935.519	4930.28
935.827	4851.86
936.135	4855.93
936.443	4786.78
936.751	4809.83
937.059	4784.97
937.367	4733.9
937.674	4790.85
937.982	4722.6
938.29	4718.99
938.597	4774.13
938.905	4663.62
939.213	4638.08
939.52	4652.32
939.827	4686.44
940.135	4592.89
940.442	4604.64
940.749	4561.25
941.056	4537.97
941.363	4517.86
941.67	4508.82
941.977	4441.93
942.284	4426.11
942.591	4441.93
942.898	4430.63
943.205	4424.98
943.511	4361.03
943.818	4380.46
944.125	4338.88
944.431	4319.9
944.738	4340.69
945.044	4312.22
945.35	4228.15
945.657	4274.48
945.963	4266.57
946.269	4223.86
946.575	4209.85
946.881	4196.97
947.187	4171.43
947.493	4113.35
947.799	4119
948.105	4078.1
948.41	4095.73
948.716	4066.12
949.022	4089.85
949.327	4057.76
949.633	4013.02
949.938	4029.51
950.244	3983.64
950.549	3992.23
950.854	3956.75
951.16	4008.95
951.465	3956.07
951.77	3892.34
952.075	3908.16
952.38	3908.39
952.685	3891.44
952.99	3803.08
953.294	3821.38
953.599	3839.01
953.904	3786.13
954.209	3764.21
954.513	3774.15
954.818	3758.79
955.122	3726.02
955.426	3699.8
955.731	3699.8
956.035	3657.32
956.339	3659.35
956.643	3690.09
956.948	3659.58
957.252	3610.77
957.556	3586.36
957.86	3559.24
958.163	3575.51
958.467	3581.16
958.771	3576.42
959.075	3520.6
959.378	3524.89
959.682	3536.87
959.985	3462.75
960.289	3497.32
960.592	3444.67
960.896	3476.31
961.199	3385.46
961.502	3439.7
961.805	3388.17
962.108	3363.77
962.411	3395.41
962.714	3317.44
963.017	3365.58
963.32	3326.25
963.623	3314.73
963.926	3302.3
964.228	3255.3
964.531	3295.75
964.833	3265.92
965.136	3251.23
965.438	3244.67
965.741	3210.1
966.043	3179.82
966.345	3173.94
966.648	3172.81
966.95	3166.94
967.252	3125.81
967.554	3136.2
967.856	3112.02
968.158	3117.67
968.46	3081.06
968.761	3093.72
969.063	3015.53
969.365	3018.01
969.666	3055.3
969.968	2985.25
970.269	3029.99
970.571	3027.28
970.872	3011.01
971.174	2973.5
971.475	2928.07
971.776	2939.6
972.077	2943.21
972.378	2906.38
972.679	2939.15
972.98	2898.24
973.281	2850.79
973.582	2886.94
973.883	2866.61
974.183	2866.83
974.484	2827.74
974.785	2792.26
975.085	2808.53
975.386	2810.56
975.686	2782.77
975.986	2781.64
976.287	2766.5
976.587	2741.64
976.887	2767.62
977.187	2741.64
977.487	2709.55
977.787	2688.76
978.087	2675.42
978.387	2691.02
978.687	2702.77
978.987	2653.96
979.286	2653.05
979.586	2645.59
979.885	2597.91
980.185	2570.12
980.484	2582.55
980.784	2574.64
981.083	2571.7
981.382	2552.49
981.682	2551.36
981.981	2545.03
982.28	2552.26
982.579	2520.85
982.878	2505.48
983.177	2489.89
983.475	2486.28
983.774	2471.81
984.073	2464.13
984.372	2426.84
984.67	2412.83
984.969	2447.86
985.267	2433.4
985.566	2424.13
985.864	2393.17
986.162	2415.54
986.461	2402.21
986.759	2413.74
987.057	2339.61
987.355	2326.96
987.653	2330.12
987.951	2330.57
988.249	2318.37
988.547	2316.79
988.844	2326.96
989.142	2341.42
989.44	2281.76
989.737	2269.33
990.035	2291.25
990.332	2233.85
990.63	2218.71
990.927	2251.93
991.224	2221.65
991.521	2203.8
991.819	2193.18
992.116	2188.88
992.413	2174.87
992.71	2158.83
993.006	2180.07
993.303	2148.88
993.6	2124.7
993.897	2102.33
994.193	2106.17
994.49	2104.37
994.787	2104.82
995.083	2087.42
995.379	2104.82
995.676	2071.37
995.972	2096.46
996.268	2042.22
996.565	2039.73
996.861	2039.73
997.157	2044.71
997.453	1994.09
997.749	2012.62
998.044	1993.63
998.34	1959.28
998.636	1960.41
998.932	1954.31
999.227	1959.74
999.523	1932.84
999.818	1922
1000.114	1925.61
1000.409	1913.64
1000.704	1919.29
1001	1863.47
1001.295	1847.42
1001.59	1867.76
1001.885	1862.11
1002.18	1818.27
1002.475	1844.94
1002.77	1819.4
1003.065	1801.55
1003.359	1821.21
1003.654	1809.46
1003.949	1781.21
1004.243	1790.25
1004.538	1789.8
1004.832	1751.83
1005.127	1778.72
1005.421	1737.82
1005.715	1736.01
1006.009	1736.47
1006.304	1728.1
1006.598	1716.81
1006.892	1722.68
1007.186	1702.57
1007.48	1686.52
1007.773	1690.59
1008.067	1656.92
1008.361	1650.14
1008.655	1643.13
1008.948	1627.77
1009.242	1640.87
1009.535	1599.07
1009.829	1605.62
1010.122	1602.23
1010.415	1566.98
1010.708	1573.08
1011.001	1564.49
1011.295	1562.46
1011.588	1555
1011.881	1540.76
1012.173	1533.08
1012.466	1535.57
1012.759	1506.19
1013.052	1510.71
1013.344	1522.46
1013.637	1500.31
1013.93	1475.68
1014.222	1462.57
1014.514	1503.7
1014.807	1444.27
1015.099	1447.66
1015.391	1426.19
1015.683	1451.05
1015.976	1451.5
1016.268	1433.65
1016.56	1411.73
1016.851	1434.1
1017.143	1426.42
1017.435	1386.42
1017.727	1384.84
1018.018	1401.11
1018.31	1371.05
1018.602	1328.34
1018.893	1346.42
1019.185	1323.6
1019.476	1333.09
1019.767	1327.89
1020.058	1285.4
1020.35	1299.64
1020.641	1264.84
1020.932	1310.04
1021.223	1298.29
1021.514	1263.71
1021.804	1242.69
1022.095	1287.66
1022.386	1242.24
1022.677	1272.52
1022.967	1230.26
1023.258	1236.37
1023.548	1240.66
1023.839	1194.56
1024.129	1196.37
1024.419	1205.86
1024.709	1181.45
1025	1178.74
1025.29	1167.89
1025.58	1161.57
1025.87	1156.82
1026.16	1156.59
1026.449	1143.71
1026.739	1148.01
1027.029	1135.58
1027.319	1150.94
1027.608	1118.63
1027.898	1114.79
1028.187	1098.29
1028.477	1086.77
1028.766	1070.95
1029.055	1094.22
1029.344	1082.02
1029.634	1075.24
1029.923	1076.82
1030.212	1069.36
1030.501	1058.29
1030.79	1051.29
1031.078	1022.81
1031.367	1023.72
1031.656	1011.96
1031.945	1011.96
1032.233	1013.09
1032.522	1017.84
1032.81	1000.44
1033.099	977.84
1033.387	991.85
1033.675	971.74
1033.963	975.36
1034.251	964.51
1034.54	951.63
1034.828	964.73
1035.116	959.99
1035.403	926.09
1035.691	952.08
1035.979	944.4
1036.267	948.01
1036.554	911.63
1036.842	942.59
1037.129	929.03
1037.417	895.81
1037.704	904.62
1037.992	878.18
1038.279	903.49
1038.566	873.44
1038.853	873.44
1039.14	873.44
