Data from hue_210_FLMS001491_00096.txt Node
Date: Tue Feb 07 16:42:01 GMT 2017
User: dcchb
Spectrometer: FLMS00149
Trigger mode: 0
Integration Time (sec): 2.000000E-2
Scans to average: 10
Electric dark correction enabled: true
Nonlinearity correction enabled: false
Boxcar width: 0
XAxis mode: Wavelengths
Number of Pixels in Spectrum: 2048
>>>>>Begin Spectral Data<<<<<
341.393	3.74
341.776	3.74
342.16	3.74
342.543	-50.49
342.927	-65.86
343.31	-59.53
343.693	-72.19
344.077	-55.01
344.46	-61.11
344.843	-30.15
345.226	-54.79
345.61	-36.93
345.993	-22.7
346.376	-1.45
346.759	13.01
347.142	22.5
347.525	39.45
347.908	65.66
348.291	72.22
348.674	92.55
349.057	88.49
349.44	109.95
349.823	139.78
350.206	163.74
350.588	197.86
350.971	204.64
351.354	222.27
351.737	238.54
352.119	229.05
352.502	222.27
352.884	264.07
353.267	278.31
353.65	284.87
354.032	303.4
354.414	294.36
354.797	298.2
355.179	302.94
355.562	311.76
355.944	332.32
356.326	341.36
356.709	333
357.091	338.2
357.473	337.75
357.855	344.98
358.238	340.01
358.62	328.71
359.002	302.94
359.384	337.29
359.766	328.25
360.148	319.44
360.53	339.33
360.912	338.42
361.294	333.68
361.676	325.77
362.057	338.2
362.439	324.41
362.821	325.99
363.203	302.49
363.584	335.71
363.966	324.19
364.348	329.61
364.729	318.08
365.111	300.91
365.493	317.63
365.874	298.2
366.256	301.59
366.637	321.25
367.019	320.34
367.4	295.94
367.781	307.69
368.163	311.31
368.544	304.75
368.925	317.86
369.306	325.99
369.688	283.06
370.069	314.92
370.45	290.29
370.831	285.77
371.212	298.88
371.593	293.23
371.974	309.05
372.355	309.5
372.736	286.9
373.117	316.28
373.498	306.11
373.879	304.75
374.26	303.62
374.641	295.71
375.021	321.7
375.402	304.53
375.783	303.85
376.163	316.73
376.544	315.37
376.925	316.95
377.305	313.79
377.686	310.63
378.066	345.65
378.447	342.72
378.827	307.69
379.208	326.22
379.588	318.31
379.968	314.24
380.349	312.44
380.729	330.51
381.109	332.1
381.489	331.64
381.87	326.45
382.25	321.93
382.63	345.2
383.01	337.52
383.39	337.75
383.77	329.38
384.15	341.59
384.53	345.2
384.91	353.34
385.29	335.26
385.67	338.2
386.049	346.78
386.429	354.92
386.809	337.07
387.189	349.04
387.568	347.01
387.948	350.17
388.328	329.61
388.707	359.44
389.087	368.7
389.466	348.59
389.846	345.88
390.225	349.27
390.605	356.73
390.984	371.87
391.363	376.61
391.743	344.3
392.122	354.69
392.501	373.22
392.881	370.29
393.26	376.84
393.639	356.05
394.018	381.13
394.397	370.74
394.776	360.34
395.155	401.92
395.534	380.91
395.913	377.52
396.292	390.4
396.671	389.04
397.05	391.98
397.429	412.55
397.808	401.7
398.186	395.37
398.565	400.79
398.944	394.92
399.323	399.21
399.701	408.7
400.08	405.99
400.458	428.36
400.837	428.59
401.215	426.33
401.594	431.53
401.972	428.36
402.351	442.83
402.729	434.92
403.107	430.85
403.486	405.31
403.864	419.55
404.242	427.91
404.62	425.43
404.999	449.15
405.377	445.09
405.755	469.95
406.133	469.04
406.511	473.79
406.889	454.13
407.267	478.08
407.645	495.93
408.023	473.79
408.401	483.73
408.779	514.46
409.156	488.93
409.534	514.69
409.912	497.97
410.29	525.31
410.667	524.86
411.045	521.7
411.422	531.64
411.8	543.16
412.178	558.53
412.555	571.41
412.933	591.75
413.31	589.49
413.687	591.98
414.065	600.79
414.442	602.37
414.819	613.44
415.197	630.39
415.574	638.98
415.951	641.24
416.328	660
416.705	655.48
417.082	654.8
417.46	683.05
417.837	666.78
418.214	691.63
418.591	687.11
418.967	710.62
419.344	712.88
419.721	732.09
420.098	759.43
420.475	749.94
420.852	743.38
421.228	762.14
421.605	792.87
421.982	768.92
422.358	783.16
422.735	834.46
423.111	820.44
423.488	840.78
423.864	843.72
424.241	857.96
424.617	902.7
424.994	877.84
425.37	906.54
425.746	929.14
426.123	956.26
426.499	959.2
426.875	958.07
427.251	993.77
427.627	994.23
428.003	1019.31
428.379	1025.86
428.756	1029.48
429.132	1038.07
429.507	1058.4
429.883	1052.98
430.259	1074
430.635	1093.43
431.011	1113.54
431.387	1113.09
431.763	1132.3
432.138	1175.69
432.514	1172.3
432.89	1198.97
433.265	1197.84
433.641	1229.93
434.016	1270.6
434.392	1300.88
434.767	1315.35
435.143	1312.41
435.518	1368.45
435.894	1357.83
436.269	1373.65
436.644	1403.71
437.02	1435.34
437.395	1456.81
437.77	1464.72
438.145	1512.18
438.52	1518.73
438.895	1535
439.271	1565.06
439.646	1596.02
440.021	1629.69
440.395	1633.08
440.77	1628.78
441.145	1633.08
441.52	1707.43
441.895	1695.45
442.27	1742
442.645	1720.08
443.019	1802.79
443.394	1783.58
443.769	1777.71
444.143	1787.88
444.518	1841.43
444.892	1847.99
445.267	1870.81
445.641	1871.49
446.016	1893.18
446.39	1892.28
446.764	1901.32
447.139	1923.69
447.513	1949.68
447.887	1957.36
448.262	1966.63
448.636	1963.92
449.01	2005.05
449.384	2039.4
449.758	2037.14
450.132	2102.67
450.506	2065.84
450.88	2073.52
451.254	2068.77
451.628	2098.83
452.002	2118.94
452.376	2164.82
452.75	2199.17
453.123	2225.15
453.497	2215.21
453.871	2246.85
454.244	2279.16
454.618	2325.94
454.992	2296.34
455.365	2340.86
455.739	2366.39
456.112	2417.01
456.486	2438.26
456.859	2445.71
457.232	2533.85
457.606	2493.39
457.979	2526.39
458.352	2580.62
458.725	2584.92
459.099	2607.06
459.472	2655.2
459.845	2694.52
460.218	2740.39
460.591	2739.94
460.964	2768.19
461.337	2787.17
461.71	2872.37
462.083	2867.4
462.456	2880.5
462.829	2913.27
463.201	2937.9
463.574	2974.06
463.947	3037.34
464.32	3072.81
464.692	3101.06
465.065	3105.13
465.438	3131.8
465.81	3184.9
466.183	3258.8
466.555	3269.19
466.928	3325.69
467.3	3307.61
467.672	3394.61
468.045	3396.2
468.417	3416.76
468.789	3472.13
469.161	3499.02
469.534	3608.62
469.906	3625.12
470.278	3679.58
470.65	3675.06
471.022	3745.11
471.394	3787.82
471.766	3872.34
472.138	3879.35
472.51	3967.48
472.882	4026.01
473.253	4032.34
473.625	4080.02
473.997	4124.76
474.369	4212.67
474.74	4219
475.112	4273.01
475.484	4408.37
475.855	4438.88
476.227	4453.12
476.598	4574.02
476.97	4625.09
477.341	4740.79
477.713	4737.63
478.084	4839.32
478.455	4887.68
478.827	4958.41
479.198	5061.69
479.569	5080.22
479.94	5212.19
480.311	5223.27
480.682	5352.75
481.053	5442.92
481.424	5515.91
481.795	5531.51
482.166	5625.74
482.537	5686.08
482.908	5800.2
483.279	5843.36
483.65	5939.18
484.021	6067.76
484.391	6104.83
484.762	6159.97
485.133	6174.2
485.503	6240.42
485.874	6426.85
486.244	6425.95
486.615	6511.82
486.985	6642.66
487.356	6697.58
487.726	6723.79
488.097	6851.47
488.467	6859.61
488.837	7036.55
489.207	7135.76
489.578	7183.22
489.948	7234.74
490.318	7275.87
490.688	7315.64
491.058	7450.33
491.428	7531.68
491.798	7629.98
492.168	7687.83
492.538	7784.33
492.908	7761.73
493.278	7862.97
493.648	7840.15
494.017	7949.3
494.387	8021.39
494.757	8103.42
495.126	8199.23
495.496	8222.06
495.866	8250.98
496.235	8264.54
496.605	8360.59
496.974	8383.86
497.344	8443.97
497.713	8454.82
498.082	8502.5
498.452	8648.26
498.821	8580.92
499.19	8591.77
499.559	8732.33
499.928	8692.33
500.298	8773.68
500.667	8823.62
501.036	8797.18
501.405	8874.02
501.774	8858.2
502.143	8903.17
502.512	8940.01
502.88	9003.73
503.249	9021.58
503.618	9005.77
503.987	9111.3
504.356	9161.47
504.724	9159.66
505.093	9169.83
505.462	9135.48
505.83	9214.8
506.199	9301.13
506.567	9368.69
506.936	9288.7
507.304	9397.39
507.672	9452.76
508.041	9447.56
508.409	9462.93
508.777	9501.12
509.145	9535.92
509.514	9507
509.882	9480.56
510.25	9550.16
510.618	9562.59
510.986	9579.31
511.354	9684.17
511.722	9689.36
512.09	9721.68
512.458	9699.76
512.826	9786.54
513.193	9769.36
513.561	9729.59
513.929	9805.29
514.297	9840.32
514.664	9854.11
515.032	9856.59
515.4	9885.29
515.767	9912.86
516.135	9934.33
516.502	9970.26
516.869	10078.73
517.237	10023.82
517.604	9916.25
517.972	9973.65
518.339	9981.33
518.706	9979.3
519.073	9965.06
519.44	9986.76
519.808	10072.18
520.175	10048.45
520.542	10111.05
520.909	10135.23
521.276	10083.93
521.643	10112.63
522.009	10169.8
522.376	10171.84
522.743	10147.2
523.11	10312.17
523.477	10256.58
523.843	10203.02
524.21	10407.76
524.577	10358.5
524.943	10364.37
525.31	10356.24
525.676	10414.32
526.043	10451.83
526.409	10327.77
526.776	10414.32
527.142	10446.18
527.508	10381.55
527.874	10413.41
528.241	10395.79
528.607	10451.15
528.973	10475.33
529.339	10479.85
529.705	10454.99
530.071	10522.79
530.437	10466.29
530.803	10467.2
531.169	10495.44
531.535	10449.12
531.901	10402.57
532.267	10427.42
532.632	10507.87
532.998	10410.93
533.364	10419.97
533.73	10399.4
534.095	10420.64
534.461	10391.49
534.826	10419.06
535.192	10420.64
535.557	10378.39
535.923	10364.83
536.288	10329.8
536.653	10316.47
537.019	10259.52
537.384	10241.89
537.749	10258.84
538.114	10217.03
538.479	10238.28
538.845	10165.96
539.21	10102.01
539.575	10149.69
539.94	10074.21
540.305	10073.53
540.67	10059.3
541.034	10025.63
541.399	10069.92
541.764	9992.41
542.129	10030.15
542.494	9917.83
542.858	9886.42
543.223	9903.37
543.587	9837.38
543.952	9839.19
544.316	9830.6
544.681	9767.78
545.045	9770.49
545.41	9789.25
545.774	9718.74
546.138	9709.93
546.503	9636.26
546.867	9622.47
547.231	9651.85
547.595	9552.19
547.959	9578.86
548.324	9521.91
548.688	9508.8
549.052	9484.17
549.416	9491.18
549.779	9452.31
550.143	9462.7
550.507	9409.15
550.871	9442.14
551.235	9382.03
551.599	9370.95
551.962	9294.35
552.326	9239.88
552.689	9268.36
553.053	9224.07
553.417	9222.48
553.78	9272.65
554.143	9237.62
554.507	9212.54
554.87	9121.02
555.234	9198.08
555.597	9130.06
555.96	9165.08
556.323	9110.4
556.686	9113.79
557.05	9167.8
557.413	9088.02
557.776	9037.4
558.139	9057.97
558.502	9077.85
558.865	9017.74
559.228	9046.67
559.59	9048.48
559.953	9039.66
560.316	9043.05
560.679	9051.41
561.041	9027.69
561.404	9009.61
561.767	8994.24
562.129	9059.1
562.492	9022.49
562.854	9062.04
563.217	8994.69
563.579	9015.48
563.941	9026.78
564.304	9003.51
564.666	9077.63
565.028	9013.45
565.39	9046.67
565.753	9050.51
566.115	9050.06
566.477	9089.15
566.839	9081.02
567.201	9087.57
567.563	9045.09
567.925	9141.13
568.287	9112.88
568.648	9097.74
569.01	9154.24
569.372	9139.55
569.734	9073.79
570.095	9151.07
570.457	9150.62
570.819	9132.77
571.18	9080.11
571.542	9270.39
571.903	9251.64
572.265	9128.47
572.626	9212.54
572.987	9235.14
573.349	9145.65
573.71	9212.77
574.071	9236.27
574.432	9269.71
574.794	9356.27
575.155	9346.55
575.516	9236.04
575.877	9271.97
576.238	9253.44
576.599	9305.65
576.96	9315.36
577.32	9308.13
577.681	9370.05
578.042	9340.67
578.403	9300.67
578.763	9363.5
579.124	9386.77
579.485	9395.81
579.845	9470.84
580.206	9342.48
580.566	9379.99
580.927	9437.17
581.287	9457.28
581.648	9453.89
582.008	9480.1
582.368	9471.97
582.728	9434.91
583.089	9412.99
583.449	9470.16
583.809	9457.96
584.169	9503.38
584.529	9483.49
584.889	9592.42
585.249	9530.5
585.609	9425.87
585.969	9488.47
586.329	9493.66
586.688	9493.21
587.048	9501.12
587.408	9471.52
587.768	9497.73
588.127	9531.85
588.487	9537.73
588.846	9629.25
589.206	9547.22
589.565	9528.46
589.925	9612.3
590.284	9564.62
590.643	9596.03
591.003	9578.63
591.362	9564.85
591.721	9523.27
592.08	9541.35
592.44	9594
592.799	9627.9
593.158	9596.48
593.517	9589.03
593.876	9575.24
594.235	9561.01
594.593	9551.74
594.952	9646.65
595.311	9591.06
595.67	9619.99
596.029	9679.19
596.387	9644.17
596.746	9664.28
597.104	9603.26
597.463	9574.56
597.822	9676.26
598.18	9610.27
598.538	9575.02
598.897	9646.88
599.255	9493.21
599.613	9647.56
599.972	9628.8
600.33	9622.92
600.688	9567.79
601.046	9530.95
601.404	9685.97
601.762	9578.18
602.12	9694.79
602.478	9671.29
602.836	9730.72
603.194	9679.42
603.552	9724.84
603.91	9573.89
604.268	9705.18
604.625	9680.1
604.983	9652.08
605.341	9614.11
605.698	9643.72
606.056	9711.96
606.413	9657.05
606.771	9694.56
607.128	9674.67
607.485	9721.91
607.843	9690.49
608.2	9759.19
608.557	9770.27
608.914	9656.37
609.272	9760.77
609.629	9710.83
609.986	9772.07
610.343	9706.54
610.7	9718.74
611.057	9759.64
611.414	9724.62
611.771	9748.35
612.127	9779.53
612.484	9820.21
612.841	9770.04
613.198	9764.39
613.554	9714.67
613.911	9850.26
614.267	9847.78
614.624	9730.49
614.98	9778.4
615.337	9871.05
615.693	9818.85
616.05	9822.47
616.406	9880.77
616.762	9799.64
617.118	9869.25
617.475	9929.81
617.831	9885.74
618.187	9936.36
618.543	9942.01
618.899	9958.28
619.255	9953.54
619.611	9904.05
619.967	9931.84
620.323	9970.94
620.678	9989.69
621.034	9886.42
621.39	9920.32
621.746	9861.56
622.101	10069.01
622.457	9869.47
622.812	9914.22
623.168	10017.04
623.523	9880.09
623.879	9932.07
624.234	9845.29
624.589	9960.54
624.945	9946.53
625.3	9953.76
625.655	9920.77
626.01	9884.16
626.365	9874.44
626.72	9956.93
627.075	9931.39
627.43	9869.47
627.785	9863.37
628.14	9941.11
628.495	9896.82
628.85	9837.61
629.205	9856.82
629.559	9902.69
629.914	9887.55
630.269	9857.04
630.623	9882.35
630.978	9770.04
631.332	9918.51
631.687	9885.06
632.041	9758.29
632.396	9833.31
632.75	9798.06
633.104	9789.47
633.459	9782.24
633.813	9699.08
634.167	9711.51
634.521	9729.36
634.875	9791.51
635.229	9676.03
635.583	9651.62
635.937	9688.46
636.291	9615.24
636.645	9692.75
636.999	9640.55
637.352	9685.07
637.706	9588.12
638.06	9580.44
638.413	9628.57
638.767	9568.92
639.121	9554.45
639.474	9558.07
639.828	9556.26
640.181	9556.03
640.534	9493.66
640.888	9496.6
641.241	9518.75
641.594	9449.6
641.947	9502.7
642.301	9558.07
642.654	9522.14
643.007	9456.6
643.36	9464.96
643.713	9395.81
644.066	9518.52
644.419	9421.57
644.771	9351.97
645.124	9321.01
645.477	9263.61
645.83	9241.24
646.182	9184.74
646.535	9222.48
646.888	9221.13
647.24	9115.59
647.593	9168.02
647.945	9084.18
648.298	9124.86
648.65	9052.77
649.002	9073.79
649.355	9151.52
649.707	9149.72
650.059	9239.88
650.411	9299.77
650.763	9276.04
651.115	9388.13
651.467	9337.73
651.819	9304.97
652.171	9379.99
652.523	9310.84
652.875	9342.93
653.227	9294.35
653.578	9436.49
653.93	9337.73
654.282	9363.72
654.633	9273.1
654.985	9317.62
655.337	9281.69
655.688	9362.82
656.039	9290.28
656.391	9285.98
656.742	9347.45
657.094	9329.83
657.445	9345.42
657.796	9298.87
658.147	9321.69
658.498	9314.68
658.849	9353.78
659.2	9348.36
659.551	9313.55
659.902	9397.62
660.253	9404.17
660.604	9418.41
660.955	9371.63
661.306	9323.05
661.656	9382.03
662.007	9388.35
662.358	9385.19
662.708	9387
663.059	9400.56
663.409	9364.4
663.76	9432.2
664.11	9439.88
664.461	9436.94
664.811	9527.56
665.161	9389.71
665.511	9479.2
665.862	9431.07
666.212	9436.49
666.562	9409.15
666.912	9447.79
667.262	9406.43
667.612	9398.52
667.962	9459.77
668.312	9398.52
668.662	9554.23
669.011	9405.53
669.361	9365.76
669.711	9394.46
670.06	9420.9
670.41	9365.53
670.76	9353.78
671.109	9421.57
671.459	9363.27
671.808	9352.88
672.157	9405.98
672.507	9318.98
672.856	9253.9
673.205	9364.85
673.554	9316.49
673.904	9341.8
674.253	9358.3
674.602	9333.89
674.951	9221.58
675.3	9130.28
675.649	9316.49
675.998	9263.16
676.346	9205.76
676.695	9267.45
677.044	9222.48
677.393	9184.07
677.741	9212.31
678.09	9185.42
678.438	9142.26
678.787	9160.56
679.135	9204.18
679.484	9093
679.832	9154.69
680.181	9115.14
680.529	9171.64
680.877	9031.53
681.225	9116.72
681.573	9110.4
681.922	9058.42
682.27	9065.2
682.618	9030.17
682.966	9038.99
683.314	8994.69
683.661	9014.35
684.009	8971.42
684.357	8902.49
684.705	8900.01
685.053	8895.03
685.4	8806
685.748	8816.84
686.095	8817.52
686.443	8820.23
686.79	8826.11
687.138	8811.87
687.485	8784.3
687.832	8715.15
688.18	8689.84
688.527	8634.93
688.874	8651.2
689.221	8695.94
689.568	8644.87
689.915	8519
690.262	8580.69
690.609	8570.52
690.956	8562.84
691.303	8480.13
691.65	8468.61
691.997	8409.17
692.344	8401.94
692.69	8461.6
693.037	8387.25
693.383	8287.59
693.73	8315.39
694.077	8343.41
694.423	8320.81
694.769	8211.44
695.116	8207.82
695.462	8196.07
695.808	8196.3
696.155	8175.73
696.501	8138.67
696.847	8055.96
697.193	8016.41
697.539	8063.64
697.885	7989.3
698.231	7927.6
698.577	7983.42
698.923	7961.5
699.269	7845.34
699.614	7857.77
699.96	7791.33
700.306	7783.88
700.651	7726.03
700.997	7723.54
701.342	7638.34
701.688	7652.58
702.033	7580.94
702.379	7621.4
702.724	7577.55
703.069	7594.28
703.415	7515.41
703.76	7465.92
704.105	7501.17
704.45	7492.81
704.795	7368.07
705.14	7400.38
705.485	7337.79
705.83	7357.67
706.175	7358.58
706.52	7322.42
706.865	7272.48
707.209	7252.14
707.554	7261.41
707.899	7241.29
708.243	7214.4
708.588	7182.09
708.932	7158.13
709.277	7135.76
709.621	7076.55
709.966	7091.01
710.31	7061.41
710.654	7001.07
710.998	7091.01
711.342	7046.95
711.687	7027.51
712.031	7004.01
712.375	6981.64
712.719	6999.04
713.063	6934.41
713.407	6937.57
713.75	6926.95
714.094	6966.05
714.438	6884.92
714.782	6907.52
715.125	6838.14
715.469	6789.33
715.812	6796.33
716.156	6798.59
716.499	6834.07
716.843	6824.13
717.186	6733.51
717.53	6803.11
717.873	6814.41
718.216	6762.21
718.559	6713.85
718.902	6769.44
719.246	6723.57
719.589	6693.74
719.932	6730.8
720.275	6676.34
720.617	6683.12
720.96	6652.16
721.303	6687.41
721.646	6621.65
721.989	6611.03
722.331	6638.37
722.674	6600.86
723.016	6613.29
723.359	6627.52
723.701	6649.44
724.044	6585.04
724.386	6558.6
724.729	6552.05
725.071	6573.06
725.413	6535.55
725.755	6572.16
726.097	6540.52
726.439	6528.32
726.782	6535.55
727.124	6510.69
727.465	6503.01
727.807	6538.71
728.149	6490.8
728.491	6460.75
728.833	6557.69
729.175	6474.76
729.516	6491.48
729.858	6485.83
730.199	6505.04
730.541	6498.71
730.882	6517.7
731.224	6497.13
731.565	6400.86
731.906	6466.85
732.248	6500.3
732.589	6459.62
732.93	6473.86
733.271	6457.81
733.612	6510.92
733.953	6472.5
734.294	6501.43
734.635	6449.9
734.976	6501.88
735.317	6502.33
735.658	6450.8
735.999	6494.87
736.339	6544.36
736.68	6520.63
737.021	6492.39
737.361	6487.41
737.702	6527.19
738.042	6533.97
738.383	6528.77
738.723	6539.62
739.063	6550.92
739.404	6598.82
739.744	6611.25
740.084	6628.88
740.424	6559.95
740.764	6588.65
741.104	6574.42
741.444	6543.01
741.784	6603.8
742.124	6640.63
742.464	6653.74
742.804	6648.77
743.143	6712.49
743.483	6731.7
743.823	6758.59
744.162	6762.44
744.502	6736.22
744.841	6756.79
745.181	6820.74
745.52	6807.41
745.86	6920.62
746.199	6926.05
746.538	6991.13
746.877	7016.21
747.216	7063.9
747.556	7061.64
747.895	7154.06
748.234	7143.22
748.573	7169.2
748.911	7266.83
749.25	7243.78
749.589	7330.1
749.928	7401.74
750.267	7437.67
750.605	7541.85
750.944	7599.93
751.283	7719.02
751.621	7806.02
751.96	7813.93
752.298	7882.18
752.636	8052.57
752.975	8062.29
753.313	8167.6
753.651	8357.65
753.989	8432.45
754.327	8412.56
754.666	8566
755.004	8723.29
755.342	8924.41
755.679	8978.87
756.017	9119.21
756.355	9233.78
756.693	9332.76
757.031	9450.05
757.368	9626.99
757.706	9700.89
758.044	9812.3
758.381	10055.91
758.719	10165.28
759.056	10355.11
759.394	10512.39
759.731	10595.78
760.068	10798.49
760.405	10884.81
760.743	11064.24
761.08	11186.05
761.417	11407.51
761.754	11577.45
762.091	11703.1
762.428	11852.47
762.765	11981.73
763.102	12271.89
763.438	12415.39
763.775	12539.46
764.112	12711.43
764.449	12942.84
764.785	13019.22
765.122	13100.8
765.458	13304.18
765.795	13362.26
766.131	13602.48
766.467	13652.88
766.804	13837.28
767.14	14038.63
767.476	14184.39
767.812	14251.73
768.148	14467.09
768.485	14527.2
768.821	14714.32
769.157	14812.39
769.492	15007.42
769.828	15065.95
770.164	15193.85
770.5	15184.81
770.836	15383.23
771.171	15466.61
771.507	15560.4
771.842	15581.41
772.178	15855.98
772.513	15847.85
772.849	15905.25
773.184	15969.2
773.519	16092.13
773.855	16139.36
774.19	16203.32
774.525	16289.19
774.86	16435.63
775.195	16426.59
775.53	16499.35
775.865	16517.66
776.2	16486.93
776.535	16515.17
776.87	16673.59
777.205	16734.83
777.539	16825.22
777.874	16849.85
778.209	16749.74
778.543	16906.8
778.878	16813.92
779.212	16886.91
779.547	16904.99
779.881	17024.09
780.215	17002.62
780.55	17108.38
780.884	17043.29
781.218	16985.67
781.552	17202.61
781.886	17136.63
782.22	17107.93
782.554	17058.89
782.888	17042.62
783.222	17030.19
783.556	17112.45
783.889	17045.33
784.223	17067.02
784.557	17004.43
784.89	17006.46
785.224	16988.83
785.557	17034.48
785.891	16989.96
786.224	17031.09
786.558	17032.45
786.891	16954.94
787.224	16965.33
787.557	16965.33
787.891	16922.85
788.224	16961.94
788.557	17014.37
788.89	16975.95
789.223	17036.06
789.556	16855.73
789.888	16892.11
790.221	16878.55
790.554	16849.63
790.887	16720.14
791.219	16719.91
791.552	16736.41
791.884	16649.86
792.217	16653.02
792.549	16601.5
792.882	16471.56
793.214	16505
793.546	16585.91
793.879	16430.43
794.211	16419.58
794.543	16453.93
794.875	16385.23
795.207	16493.48
795.539	16422.29
795.871	16365.35
796.203	16340.49
796.535	16174.84
796.867	16254.39
797.198	16190.44
797.53	16191.79
797.862	16108.63
798.193	16214.39
798.525	16136.43
798.856	16075.18
799.188	15909.77
799.519	15826.83
799.85	15831.58
800.182	15987.96
800.513	15854.63
800.844	15799.94
801.175	15862.08
801.506	15788.41
801.837	15616.21
802.168	15666.38
802.499	15675.65
802.83	15608.08
803.161	15535.76
803.491	15516.1
803.822	15531.47
804.153	15415.32
804.483	15294.87
804.814	15339.84
805.145	15343.9
805.475	15303
805.805	15244.92
806.136	15278.6
806.466	15224.81
806.796	15284.47
807.126	15105.94
807.457	15124.48
807.787	15108.88
808.117	15105.49
808.447	15059.17
808.777	15012.61
809.107	14978.26
809.436	14924.25
809.766	14884.71
810.096	14885.39
810.426	14851.94
810.755	14841.09
811.085	14814.2
811.414	14811.04
811.744	14666.41
812.073	14616.01
812.403	14718.61
812.732	14653.08
813.061	14543.25
813.39	14478.84
813.719	14522.01
814.049	14607.2
814.378	14529.69
814.707	14396.36
815.036	14475.23
815.365	14432.52
815.693	14225.74
816.022	14219.64
816.351	14177.38
816.68	14184.61
817.008	14291.5
817.337	14161.56
817.665	14196.59
817.994	14192.75
818.322	14114.56
818.651	14046.31
818.979	13996.14
819.307	14096.48
819.636	14051.74
819.964	14026.88
820.292	13994.11
820.62	14073.88
820.948	13940.33
821.276	14044.5
821.604	14053.54
821.932	14008.12
822.259	14008.57
822.587	13893.32
822.915	13948.23
823.243	13954.56
823.57	13974.45
823.898	13948.01
824.225	13986.88
824.553	14001.79
824.88	13950.95
825.207	14011.06
825.535	13953.88
825.862	14099.19
826.189	14007.67
826.516	13955.69
826.843	14083.6
827.17	14091.28
827.497	13992.98
827.824	14086.31
828.151	14102.81
828.478	14057.61
828.805	14129.7
829.131	13986.43
829.458	13969.48
829.785	13917.5
830.111	14001.11
830.438	13985.3
830.764	13996.6
831.09	14086.54
831.417	14006.99
831.743	13977.61
832.069	13903.94
832.395	13978.97
832.722	13896.03
833.048	13926.77
833.374	14017.39
833.7	13901.91
834.026	13925.64
834.351	13914.56
834.677	13933.77
835.003	13909.59
835.329	13803.15
835.654	13911.4
835.98	13818.75
836.306	13875.92
836.631	13747.79
836.956	13796.37
837.282	13818.07
837.607	13741.01
837.932	13633.89
838.258	13653.33
838.583	13663.72
838.908	13599.09
839.233	13691.29
839.558	13533.56
839.883	13557.74
840.208	13584.4
840.533	13558.41
840.858	13569.26
841.182	13526.55
841.507	13587.11
841.832	13426.67
842.156	13456.04
842.481	13422.6
842.805	13429.83
843.13	13413.33
843.454	13345.09
843.778	13306.22
844.103	13213.34
844.427	13215.37
844.751	13229.38
845.075	13287.01
845.399	13156.39
845.723	13027.36
846.047	13030.07
846.371	12983.51
846.695	12980.35
847.019	12895.16
847.343	12829.17
847.666	12776.51
847.99	12740.13
848.313	12755.27
848.637	12586.46
848.96	12637.53
849.284	12620.13
849.607	12426.24
849.931	12525.22
850.254	12307.6
850.577	12272.8
850.9	12222.63
851.223	12317.09
851.546	12205.68
851.869	12177.66
852.192	12131.56
852.515	12021.51
852.838	12024.9
853.161	11976.76
853.483	11951.45
853.806	11898.8
854.129	11863.32
854.451	11828.52
854.774	11754.62
855.096	11700.84
855.419	11645.02
855.741	11670.78
856.063	11617.67
856.385	11580.16
856.708	11580.84
857.03	11534.29
857.352	11526.15
857.674	11471.01
857.996	11475.98
858.318	11355.53
858.64	11335.87
858.961	11328.19
859.283	11268.53
859.605	11253.16
859.926	11228.98
860.248	11170.91
860.57	11172.94
860.891	11225.82
861.212	11073.96
861.534	11078.93
861.855	11075.77
862.176	11033.51
862.498	11045.49
862.819	11058.37
863.14	11001.65
863.461	11033.96
863.782	10942.44
864.103	10851.37
864.424	10924.13
864.745	10826.28
865.065	10887.3
865.386	10831.03
865.707	10789.67
866.027	10810.46
866.348	10733.86
866.668	10730.92
866.989	10718.04
867.309	10669.9
867.63	10606.4
867.95	10623.35
868.27	10629
868.59	10635.55
868.91	10597.14
869.23	10553.97
869.55	10527.53
869.87	10622.67
870.19	10523.24
870.51	10557.59
870.83	10536.35
871.15	10532.73
871.469	10508.1
871.789	10602.11
872.109	10483.47
872.428	10435.78
872.748	10383.36
873.067	10467.42
873.386	10457.48
873.706	10447.99
874.025	10327.54
874.344	10319.86
874.663	10375.45
874.982	10327.99
875.301	10324.38
875.62	10329.35
875.939	10206.64
876.258	10248.67
876.577	10259.97
876.896	10281.89
877.214	10137.94
877.533	10211.84
877.852	10198.05
878.17	10146.53
878.489	10191.05
878.807	10135
879.125	10117.6
879.444	10071.5
879.762	10106.3
880.08	10126.41
880.398	10070.6
880.716	10057.04
881.034	10003.93
881.352	10016.13
881.67	9970.94
881.988	9931.84
882.306	9925.52
882.624	9912.86
882.941	9827.67
883.259	9790.15
883.577	9856.14
883.894	9763.03
884.212	9783.6
884.529	9738.63
884.846	9765.75
885.164	9662.92
885.481	9737.5
885.798	9596.26
886.115	9638.97
886.432	9609.82
886.75	9630.16
887.067	9588.58
887.383	9582.47
887.7	9500.22
888.017	9474.91
888.334	9457.05
888.651	9483.72
888.967	9415.92
889.284	9422.25
889.6	9428.13
889.917	9385.64
890.233	9349.03
890.55	9271.3
890.866	9282.82
891.182	9210.73
891.498	9185.2
891.815	9171.64
892.131	9129.15
892.447	9141.58
892.763	9118.76
893.079	9070.85
893.395	9035.37
893.71	9018.87
894.026	9014.13
894.342	8965.77
894.657	8863.17
894.973	8908.82
895.289	8897.07
895.604	8862.27
895.92	8780.01
896.235	8825.88
896.55	8832.21
896.865	8800.57
897.181	8679.45
897.496	8722.38
897.811	8654.36
898.126	8623.4
898.441	8584.76
898.756	8629.73
899.071	8489.4
899.386	8514.25
899.7	8393.8
900.015	8325.11
900.33	8327.82
900.644	8299.34
900.959	8290.08
901.273	8290.3
901.588	8257.99
901.902	8234.26
902.216	8272.68
902.531	8152.91
902.845	8074.72
903.159	8093.47
903.473	8119.24
903.787	8076.75
904.101	8060.71
904.415	8039.46
904.729	8020.26
905.042	7873.59
905.356	7831.79
905.67	7899.13
905.984	7885.12
906.297	7810.77
906.611	7762.86
906.924	7787.94
907.237	7749.98
907.551	7700.49
907.864	7663.2
908.177	7617.33
908.491	7661.39
908.804	7583.2
909.117	7527.39
909.43	7485.58
909.743	7501.17
910.056	7406.03
910.368	7396.99
910.681	7366.26
910.994	7386.15
911.307	7335.53
911.619	7313.16
911.932	7288.3
912.244	7154.74
912.557	7216.43
912.869	7156.55
913.181	7103.67
913.494	7119.49
913.806	7076.78
914.118	7044.46
914.43	7013.5
914.742	7048.76
915.054	6954.97
915.366	6940.96
915.678	6921.3
915.99	6855.77
916.302	6848.99
916.613	6779.16
916.925	6809.44
917.236	6739.16
917.548	6759.27
917.859	6707.07
918.171	6694.41
918.482	6623.68
918.794	6652.16
919.105	6634.75
919.416	6618.03
919.727	6632.27
920.038	6589.11
920.349	6506.17
920.66	6485.38
920.971	6454.87
921.282	6439.73
921.593	6431.37
921.903	6384.82
922.214	6345.72
922.525	6327.42
922.835	6275.22
923.146	6253.07
923.456	6264.82
923.767	6210.59
924.077	6187.31
924.387	6173.75
924.697	6136.01
925.008	6114.54
925.318	6035.45
925.628	6142.34
925.938	6049.01
926.248	6044.71
926.558	5978.95
926.867	5983.02
927.177	5985.51
927.487	5884.94
927.796	5817.6
928.106	5881.33
928.416	5840.43
928.725	5877.71
929.034	5833.42
929.344	5772.4
929.653	5755
929.962	5672.07
930.271	5740.09
930.581	5661.22
930.89	5665.06
931.199	5622.58
931.508	5630.04
931.817	5598.85
932.125	5572.64
932.434	5605.63
932.743	5544.61
933.051	5480.66
933.36	5442.7
933.669	5434.79
933.977	5479.53
934.286	5431.17
934.594	5428.91
934.902	5341.91
935.21	5383.04
935.519	5325.86
935.827	5324.96
936.135	5294.45
936.443	5259.2
936.751	5260.78
937.059	5167.45
937.367	5195.47
937.674	5198.18
937.982	5140.1
938.29	5110.73
938.597	5120.44
938.905	5101.01
939.213	5035.25
939.52	4995.48
939.827	5082.93
940.135	4978.98
940.442	4975.14
940.749	4958.19
941.056	4997.96
941.363	4924.07
941.67	4908.92
941.977	4897.17
942.284	4830.06
942.591	4807.68
942.898	4793
943.205	4824.41
943.511	4800.68
943.818	4786.22
944.125	4703.96
944.431	4732.66
944.738	4709.16
945.044	4677.07
945.35	4642.49
945.657	4630.97
945.963	4586.9
946.269	4581.25
946.575	4526.79
946.881	4559.56
947.187	4549.84
947.493	4523.17
947.799	4502.38
948.105	4467.13
948.41	4423.29
948.716	4447.69
949.022	4406.56
949.327	4399.79
949.633	4382.38
949.938	4362.95
950.244	4320.92
950.549	4359.56
950.854	4280.24
951.16	4316.4
951.465	4280.24
951.77	4283.4
952.075	4260.35
952.38	4225.33
952.685	4220.13
952.99	4197.53
953.294	4176.29
953.599	4132.9
953.904	4111.66
954.209	4090.64
954.513	4111.21
954.818	4077.99
955.122	4063.98
955.426	4025.56
955.731	4052.22
956.035	3981.27
956.339	4006.8
956.643	3957.99
956.948	3951.66
957.252	3898.78
957.556	3938.78
957.86	3927.03
958.163	3877.09
958.467	3888.61
958.771	3826.69
959.075	3845
959.378	3825.79
959.682	3843.87
959.985	3765.45
960.289	3762.51
960.592	3720.03
960.896	3742.4
961.199	3750.76
961.502	3733.81
961.805	3696.53
962.108	3662.4
962.411	3634.61
962.714	3640.48
963.017	3629.86
963.32	3668.73
963.623	3619.92
963.926	3626.02
964.228	3614.04
964.531	3547.6
964.833	3534.27
965.136	3532.01
965.438	3532.46
965.741	3479.13
966.043	3522.52
966.345	3451.11
966.648	3462.41
966.95	3435.29
967.252	3386.48
967.554	3414.5
967.856	3416.76
968.158	3362.3
968.46	3366.82
968.761	3320.72
969.063	3338.34
969.365	3335.41
969.666	3303.77
969.968	3298.12
970.269	3254.28
970.571	3230.78
970.872	3238.23
971.174	3216.54
971.475	3242.3
971.776	3209.08
972.077	3215.86
972.378	3223.77
972.679	3154.17
972.98	3212.47
973.281	3153.26
973.582	3126.15
973.883	3133.83
974.183	3120.72
974.484	3050.22
974.785	3072.14
975.085	3091.12
975.386	3065.81
975.686	3005.02
975.986	3004.79
976.287	2996.21
976.587	2962.08
976.887	2968.18
977.187	2970.9
977.487	2946.49
977.787	2967.73
978.087	2909.88
978.387	2925.25
978.687	2911.69
978.987	2868.53
979.286	2880.05
979.586	2853.84
979.885	2825.14
980.185	2856.78
980.484	2813.39
980.784	2829.21
981.083	2780.84
981.382	2778.81
981.682	2766.16
981.981	2773.84
982.28	2773.39
982.579	2724.8
982.878	2717.12
983.177	2740.62
983.475	2707.17
983.774	2651.13
984.073	2651.81
984.372	2673.73
984.67	2643.9
984.969	2641.19
985.267	2653.84
985.566	2621.08
985.864	2619.95
986.162	2591.92
986.461	2567.97
986.759	2564.13
987.057	2560.51
987.355	2528.2
987.653	2508.76
987.951	2533.39
988.249	2490.46
988.547	2509.89
988.844	2473.96
989.142	2500.85
989.44	2494.07
989.737	2450.68
990.035	2440.51
990.332	2465.37
990.63	2422.21
990.927	2413.4
991.224	2368.2
991.521	2399.16
991.819	2382.66
992.116	2385.6
992.413	2342.89
992.71	2327.98
993.006	2307.86
993.303	2320.52
993.6	2297.92
993.897	2319.84
994.193	2288.88
994.49	2239.84
994.787	2270.35
995.083	2259.05
995.379	2240.07
995.676	2249.33
995.972	2219.96
996.268	2231.03
996.565	2188.09
996.861	2191.71
997.157	2204.59
997.453	2192.39
997.749	2134.53
998.044	2144.93
998.34	2148.55
998.636	2116.68
998.932	2085.95
999.227	2078.94
999.523	2081.2
999.818	2074.65
1000.114	2101.77
1000.409	2054.31
1000.704	2045.5
1001	2039.4
1001.295	2053.86
1001.59	2017.02
1001.885	1995.1
1002.18	1977.48
1002.475	1987.42
1002.77	1985.84
1003.065	1958.95
1003.359	1959.85
1003.654	1936.8
1003.949	1949.45
1004.243	1906.52
1004.538	1906.29
1004.832	1903.13
1005.127	1892.51
1005.421	1879.4
1005.715	1871.94
1006.009	1877.59
1006.304	1824.03
1006.598	1825.16
1006.892	1818.84
1007.186	1828.33
1007.48	1788.78
1007.773	1782
1008.067	1768.44
1008.361	1766.63
1008.655	1766.18
1008.948	1750.14
1009.242	1740.65
1009.535	1739.52
1009.829	1726.86
1010.122	1690.03
1010.415	1707.43
1010.708	1683.92
1011.001	1699.07
1011.295	1657.48
1011.588	1669.01
1011.881	1662
1012.173	1649.12
1012.466	1635.56
1012.759	1628.11
1013.052	1664.26
1013.344	1603.02
1013.637	1605.06
1013.93	1586.53
1014.222	1599.63
1014.514	1580.2
1014.807	1556.47
1015.099	1542.91
1015.391	1563.02
1015.683	1526.87
1015.976	1535.23
1016.268	1507.88
1016.56	1513.53
1016.851	1490.48
1017.143	1502.23
1017.435	1471.05
1017.727	1487.55
1018.018	1482.35
1018.31	1429.02
1018.602	1454.55
1018.893	1435.34
1019.185	1435.8
1019.476	1417.94
1019.767	1387.44
1020.058	1388.34
1020.35	1394.21
1020.641	1374.55
1020.932	1386.08
1021.223	1354.22
1021.514	1376.36
1021.804	1325.97
1022.095	1365.51
1022.386	1329.13
1022.677	1328.23
1022.967	1319.41
1023.258	1297.49
1023.548	1288.68
1023.839	1273.54
1024.129	1264.73
1024.419	1248.68
1024.709	1263.14
1025	1239.19
1025.29	1241
1025.58	1249.59
1025.87	1253.65
1026.16	1223.82
1026.449	1214.78
1026.739	1219.98
1027.029	1201
1027.319	1192.64
1027.608	1197.84
1027.898	1205.29
1028.187	1163.71
1028.477	1165.52
1028.766	1192.41
1029.055	1146.09
1029.344	1142.02
1029.634	1139.31
1029.923	1127.33
1030.212	1111.51
1030.501	1088.91
1030.79	1092.08
1031.078	1083.26
1031.367	1097.95
1031.656	1105.41
1031.945	1091.85
1032.233	1094.56
1032.522	1079.65
1032.81	1045.75
1033.099	1015.24
1033.387	1020.21
1033.675	1026.31
1033.963	1040.33
1034.251	1012.98
1034.54	1055.24
1034.828	1026.09
1035.116	1009.37
1035.403	982.93
1035.691	974.79
1035.979	993.1
1036.267	988.58
1036.554	984.96
1036.842	956.03
1037.129	972.08
1037.417	973.66
1037.704	956.26
1037.992	957.39
1038.279	924.62
1038.566	952.42
1038.853	952.42
1039.14	952.42
