Data from hue_240_FLMS001491_00072.txt Node
Date: Tue Feb 07 16:35:55 GMT 2017
User: dcchb
Spectrometer: FLMS00149
Trigger mode: 0
Integration Time (sec): 2.000000E-2
Scans to average: 10
Electric dark correction enabled: true
Nonlinearity correction enabled: false
Boxcar width: 0
XAxis mode: Wavelengths
Number of Pixels in Spectrum: 2048
>>>>>Begin Spectral Data<<<<<
341.393	-21.75
341.776	-21.75
342.16	-21.75
342.543	-52.26
342.927	-68.53
343.31	-76.66
343.693	-74.18
344.077	-51.81
344.46	-75.53
344.843	-50.45
345.226	-42.77
345.61	-28.53
345.993	-13.84
346.376	-14.29
346.759	11.02
347.142	18.7
347.525	46.95
347.908	71.58
348.291	61.18
348.674	97.34
349.057	121.3
349.44	124.46
349.823	131.01
350.206	131.24
350.588	168.75
350.971	200.84
351.354	220.05
351.737	222.31
352.119	248.3
352.502	256.66
352.884	271.8
353.267	262.31
353.65	279.26
354.032	272.03
354.414	293.27
354.797	305.02
355.179	330.1
355.562	325.36
355.944	320.16
356.326	318.13
356.709	306.38
357.091	331.01
357.473	322.19
357.855	348.86
358.238	331.91
358.62	333.49
359.002	345.7
359.384	326.94
359.766	335.53
360.148	332.36
360.53	345.7
360.912	351.12
361.294	312.48
361.676	338.92
362.057	344.34
362.439	321.07
362.821	320.16
363.203	320.39
363.584	324.23
363.966	313.61
364.348	318.35
364.729	328.75
365.111	321.29
365.493	314.51
365.874	313.61
366.256	302.31
366.637	295.98
367.019	319.48
367.4	299.6
367.781	306.83
368.163	288.52
368.544	299.82
368.925	295.3
369.306	300.73
369.688	297.34
370.069	318.13
370.45	295.53
370.831	313.61
371.212	309.77
371.593	299.14
371.974	297.79
372.355	309.77
372.736	322.87
373.117	319.94
373.498	285.13
373.879	298.47
374.26	294.85
374.641	305.47
375.021	317.68
375.402	293.72
375.783	311.35
376.163	300.05
376.544	323.78
376.925	328.3
377.305	311.57
377.686	324.45
378.066	312.93
378.447	312.93
378.827	336.43
379.208	328.97
379.588	311.12
379.968	332.14
380.349	341.63
380.729	336.66
381.109	336.88
381.489	339.37
381.87	323.78
382.25	340.73
382.63	354.96
383.01	318.58
383.39	325.58
383.77	345.92
384.15	322.65
384.53	339.82
384.91	342.76
385.29	315.64
385.67	323.78
386.049	337.34
386.429	342.53
386.809	337.11
387.189	355.41
387.568	362.65
387.948	367.39
388.328	375.75
388.707	354.74
389.087	347.28
389.466	350.44
389.846	356.54
390.225	364.91
390.605	359.03
390.984	368.07
391.363	357.67
391.743	389.76
392.122	353.38
392.501	380.95
392.881	380.27
393.26	373.27
393.639	361.74
394.018	353.61
394.397	379.14
394.776	385.24
395.155	384.34
395.534	385.47
395.913	373.04
396.292	395.41
396.671	372.36
397.05	387.96
397.429	373.04
397.808	398.13
398.186	382.31
398.565	407.16
398.944	401.74
399.323	390.67
399.701	387.73
400.08	401.74
400.458	406.49
400.837	402.42
401.215	389.09
401.594	404.9
401.972	425.47
402.351	415.75
402.729	412.59
403.107	424.79
403.486	431.12
403.864	417.56
404.242	425.7
404.62	435.41
404.999	446.03
405.377	445.58
405.755	451.23
406.133	439.71
406.511	428.63
406.889	448.52
407.267	446.94
407.645	455.75
408.023	467.73
408.401	465.02
408.779	483.09
409.156	506.37
409.534	481.29
409.912	483.32
410.29	498.46
410.667	512.47
411.045	499.37
411.422	504.11
411.8	525.13
412.178	512.92
412.555	525.58
412.933	547.05
413.31	527.84
413.687	554.51
414.065	552.25
414.442	580.72
414.819	561.96
415.197	560.83
415.574	565.35
415.951	581.62
416.328	598.57
416.705	602.41
417.082	608.52
417.46	604.9
417.837	643.09
418.214	604.9
418.591	622.07
418.967	654.84
419.344	655.97
419.721	631.11
420.098	654.39
420.475	650.77
420.852	672.24
421.228	674.5
421.605	676.99
421.982	712.69
422.358	706.59
422.735	711.79
423.111	714.73
423.488	703.65
423.864	733.48
424.241	748.62
424.617	717.89
424.994	759.25
425.37	754.05
425.746	767.83
426.123	788.62
426.499	815.29
426.875	814.39
427.251	809.41
427.627	813.48
428.003	819.81
428.379	848.28
428.756	831.33
429.132	840.15
429.507	877.89
429.883	851.9
430.259	911.33
430.635	891.67
431.011	890.32
431.387	931.22
431.763	934.83
432.138	939.58
432.514	921.05
432.89	966.92
433.265	984.78
433.641	1000.14
434.016	1013.48
434.392	1035.85
434.767	1034.72
435.143	1046.24
435.518	1068.39
435.894	1087.82
436.269	1087.82
436.644	1100.48
437.02	1114.26
437.395	1123.53
437.77	1157.65
438.145	1166.24
438.52	1158.11
438.895	1200.14
439.271	1189.52
439.646	1213.02
440.021	1270.64
440.395	1241.94
440.77	1231.32
441.145	1233.81
441.52	1271.32
441.895	1280.36
442.27	1281.27
442.645	1317.87
443.019	1317.2
443.394	1343.86
443.769	1326.46
444.143	1364.65
444.518	1388.83
444.892	1382.51
445.267	1379.12
445.641	1408.72
446.016	1417.53
446.39	1426.35
446.764	1442.84
447.139	1435.39
447.513	1437.87
447.887	1459.57
448.262	1477.87
448.636	1466.12
449.01	1482.16
449.384	1491.66
449.758	1516.74
450.132	1486.23
450.506	1529.85
450.88	1500.02
451.254	1537.76
451.628	1556.29
452.002	1577.76
452.376	1586.34
452.75	1637.19
453.123	1622.5
453.497	1647.36
453.871	1632.44
454.244	1681.93
454.618	1675.61
454.992	1708.15
455.365	1695.94
455.739	1755.15
456.112	1755.83
456.486	1754.93
456.859	1794.47
457.232	1822.27
457.606	1814.36
457.979	1838.54
458.352	1865.66
458.725	1904.75
459.099	1895.49
459.472	1934.36
459.845	1952.66
460.218	1971.87
460.591	1999.21
460.964	1988.59
461.337	2045.99
461.71	2051.87
462.083	2098.65
462.456	2078.31
462.829	2093.67
463.201	2125.76
463.574	2183.39
463.947	2152.66
464.32	2199.89
464.692	2231.52
465.065	2225.42
465.438	2262.48
465.81	2331.41
466.183	2348.58
466.555	2361.01
466.928	2376.83
467.3	2344.29
467.672	2414.34
468.045	2427.9
468.417	2450.05
468.789	2512.19
469.161	2510.39
469.534	2549.93
469.906	2614.79
470.278	2584.06
470.65	2632.42
471.022	2654.11
471.394	2699.53
471.766	2777.05
472.138	2760.77
472.51	2817.04
472.882	2867.89
473.253	2916.48
473.625	2925.29
473.997	2961.67
474.369	3004.84
474.74	3007.32
475.112	3051.84
475.484	3103.82
475.855	3184.94
476.227	3158.73
476.598	3243.7
476.97	3256.13
477.341	3345.62
477.713	3368.44
478.084	3367.54
478.455	3502.22
478.827	3499.74
479.198	3571.83
479.569	3606.85
479.94	3683.46
480.311	3711.94
480.682	3780.64
481.053	3880.52
481.424	3921.42
481.795	3948.09
482.166	3971.59
482.537	4011.36
482.908	4081.87
483.279	4123
483.65	4174.3
484.021	4261.98
484.391	4315.99
484.762	4334.07
485.133	4384.24
485.503	4404.57
485.874	4512.82
486.244	4572.25
486.615	4589.43
486.985	4670.78
487.356	4718.46
487.726	4797.33
488.097	4840.72
488.467	4807.5
488.837	4971.34
489.207	5015.86
489.578	5050.88
489.948	5092.92
490.318	5130.88
490.688	5151.9
491.058	5236.42
491.428	5233.25
491.798	5304.44
492.168	5440.93
492.538	5476.41
492.908	5486.58
493.278	5573.81
493.648	5568.16
494.017	5581.04
494.387	5677.99
494.757	5709.17
495.126	5729.28
495.496	5786.23
495.866	5856.51
496.235	5908.49
496.605	5879.56
496.974	5900.81
497.344	5960.69
497.713	6003.18
498.082	6004.76
498.452	6049.73
498.821	6086.34
499.19	6126.56
499.559	6166.79
499.928	6196.16
500.298	6211.98
500.667	6247.46
501.036	6277.74
501.405	6278.2
501.774	6275.03
502.143	6325.65
502.512	6350.29
502.88	6345.54
503.249	6400.68
503.618	6440.23
503.987	6444.97
504.356	6455.14
504.724	6512.54
505.093	6515.03
505.462	6544.63
505.83	6605.19
506.199	6600.9
506.567	6631.63
506.936	6708.92
507.304	6769.71
507.672	6807.9
508.041	6755.02
508.409	6876.15
508.777	6839.31
509.145	6908.46
509.514	6836.15
509.882	6937.16
510.25	6864.85
510.618	6925.19
510.986	6950.72
511.354	7025.3
511.722	7009.48
512.09	7065.97
512.458	7034.11
512.826	7112.52
513.193	7095.8
513.561	7090.38
513.929	7181.22
514.297	7150.04
514.664	7156.59
515.032	7270.49
515.4	7219.87
515.767	7269.36
516.135	7220.09
516.502	7206.31
516.869	7289.92
517.237	7268.68
517.604	7326.53
517.972	7382.57
518.339	7399.75
518.706	7368.34
519.073	7379.64
519.44	7389.13
519.808	7475.68
520.175	7470.93
520.542	7519.52
520.909	7545.06
521.276	7551.38
521.643	7559.74
522.009	7573.53
522.376	7589.8
522.743	7595
523.11	7648.33
523.477	7735.56
523.843	7716.58
524.21	7780.76
524.577	7738.5
524.943	7819.17
525.31	7859.4
525.676	7801.77
526.043	7870.92
526.409	7895.78
526.776	7877.48
527.142	7942.11
527.508	7953.41
527.874	8023.91
528.241	7983.01
528.607	7973.29
528.973	8060.07
529.339	8073.86
529.705	8045.83
530.071	8121.31
530.437	8082.44
530.803	8139.84
531.169	8112.95
531.535	8093.52
531.901	8114.08
532.267	8087.41
532.632	8173.97
532.998	8164.7
533.364	8169.67
533.73	8150.24
534.095	8199.73
534.461	8112.05
534.826	8236.79
535.192	8221.87
535.557	8232.72
535.923	8234.3
536.288	8198.82
536.653	8203.57
537.019	8213.51
537.384	8211.25
537.749	8206.51
538.114	8239.95
538.479	8206.28
538.845	8224.36
539.21	8172.16
539.575	8178.94
539.94	8216.22
540.305	8209.67
540.67	8194.08
541.034	8209.9
541.399	8222.1
541.764	8162.67
542.129	8189.78
542.494	8173.06
542.858	8253.96
543.223	8128.09
543.587	8186.39
543.952	8206.96
544.316	8245.6
544.681	8121.99
545.045	8168.32
545.41	8223.23
545.774	8183.46
546.138	8180.29
546.503	8149.33
546.867	8127.87
547.231	8243.34
547.595	8175.77
547.959	8135.32
548.324	8204.93
548.688	8166.73
549.052	8155.66
549.416	8186.62
549.779	8156.34
550.143	8106.17
550.507	8135.1
550.871	8170.12
551.235	8126.51
551.599	8119.28
551.962	8185.04
552.326	8145.27
552.689	8189.78
553.053	8069.56
553.417	8161.76
553.78	8140.75
554.143	8125.15
554.507	8189.78
554.87	8150.69
555.234	8233.17
555.597	8132.84
555.96	8188.43
556.323	8177.36
556.686	8194.08
557.05	8197.69
557.413	8217.81
557.776	8215.32
558.139	8250.35
558.502	8246.96
558.865	8231.37
559.228	8298.48
559.59	8277.69
559.953	8307.07
560.316	8343
560.679	8344.58
561.041	8366.05
561.404	8438.37
561.767	8413.51
562.129	8304.36
562.492	8409.21
562.854	8374.86
563.217	8402.89
563.579	8440.85
563.941	8444.69
564.304	8477.23
564.666	8514.3
565.028	8453.28
565.39	8546.39
565.753	8568.76
566.115	8570.34
566.477	8567.63
566.839	8595.2
567.201	8665.25
567.563	8674.97
567.925	8698.7
568.287	8675.2
568.648	8735.98
569.01	8711.8
569.372	8754.97
569.734	8715.87
570.095	8816.21
570.457	8817.56
570.819	8796.77
571.18	8855.3
571.542	8916.32
571.903	8864.12
572.265	8854.63
572.626	8960.84
572.987	8977.79
573.349	8987.28
573.71	8930.56
574.071	9018.46
574.432	8997.22
574.794	8995.19
575.155	9040.61
575.516	9044.9
575.877	9085.35
576.238	9088.07
576.599	9151.79
576.96	9171.68
577.32	9183.2
577.681	9198.57
578.042	9213.71
578.403	9245.58
578.763	9203.32
579.124	9295.74
579.485	9254.16
579.845	9313.14
580.206	9355.86
580.566	9354.95
580.927	9312.92
581.287	9372.13
581.648	9337.55
582.008	9460.94
582.368	9427.04
582.728	9406.25
583.089	9416.19
583.449	9446.7
583.809	9467.94
584.169	9507.04
584.529	9458.45
584.889	9578.9
585.249	9566.47
585.609	9472.91
585.969	9543.2
586.329	9488.51
586.688	9540.71
587.048	9520.37
587.408	9502.97
587.768	9483.54
588.127	9591.1
588.487	9516.53
588.846	9679.01
589.206	9549.07
589.565	9537.09
589.925	9616.64
590.284	9602.18
590.643	9644.44
591.003	9673.81
591.362	9723.3
591.721	9620.26
592.08	9681.95
592.44	9626.81
592.799	9698.9
593.158	9618.9
593.517	9664.32
593.876	9686.02
594.235	9672.23
594.593	9704.55
594.952	9720.14
595.311	9695.96
595.67	9723.3
596.029	9771.21
596.387	9712.68
596.746	9779.8
597.104	9761.95
597.463	9689.86
597.822	9768.73
598.18	9777.99
598.538	9792.45
598.897	9793.81
599.255	9732.57
599.613	9856.63
599.972	9806.24
600.33	9833.13
600.688	9793.58
601.046	9807.82
601.404	9869.97
601.762	9853.02
602.12	9899.34
602.478	9930.08
602.836	9857.99
603.194	9855.28
603.552	9910.42
603.91	9812.57
604.268	9881.72
604.625	9847.82
604.983	9946.57
605.341	9898.21
605.698	9897.31
606.056	9964.2
606.413	9941.83
606.771	10000.81
607.128	9962.85
607.485	9968.49
607.843	9909.06
608.2	9972.34
608.557	9997.65
608.914	9996.74
609.272	9987.7
609.629	10019.79
609.986	10053.24
610.343	10020.47
610.7	10095.5
611.057	9982.28
611.414	10033.8
611.771	10057.31
612.127	10121.94
612.484	10003.97
612.841	10086.23
613.198	10055.95
613.554	10038.32
613.911	10195.83
614.267	10099.79
614.624	10115.38
614.98	10112.67
615.337	10107.25
615.693	10146.57
616.05	10170.98
616.406	10224.53
616.762	10101.82
617.118	10170.07
617.475	10132.11
617.831	10197.19
618.187	10201.03
618.543	10236.74
618.899	10337.3
619.255	10164.42
619.611	10243.97
619.967	10273.12
620.323	10255.95
620.678	10270.41
621.034	10198.09
621.39	10216.62
621.746	10224.08
622.101	10341.37
622.457	10233.12
622.812	10188.15
623.168	10203.29
623.523	10244.19
623.879	10310.18
624.234	10329.84
624.589	10289.39
624.945	10272.67
625.3	10245.32
625.655	10285.32
626.01	10267.02
626.365	10278.77
626.72	10262.72
627.075	10222.95
627.43	10255.04
627.785	10203.97
628.14	10214.59
628.495	10233.57
628.85	10274.02
629.205	10218.43
629.559	10286.45
629.914	10246
630.269	10208.26
630.623	10208.71
630.978	10159.9
631.332	10176.17
631.687	10203.97
632.041	10150.64
632.396	10154.25
632.75	10090.53
633.104	10167.81
633.459	10069.28
633.813	10098.44
634.167	10090.98
634.521	10156.06
634.875	10140.02
635.229	10042.84
635.583	10058.44
635.937	9998.1
636.291	9983.18
636.645	9962.17
636.999	10004.43
637.352	10023.18
637.706	9907.03
638.06	9985.9
638.413	9977.99
638.767	9929.85
639.121	9963.98
639.474	9869.74
639.828	9871.55
640.181	9895.05
640.534	9907.03
640.888	9810.76
641.241	9785.9
641.594	9874.26
641.947	9841.94
642.301	9889.4
642.654	9827.48
643.007	9829.06
643.36	9840.59
643.713	9781.83
644.066	9785.9
644.419	9731.67
644.771	9772.79
645.124	9646.92
645.477	9609.18
645.83	9605.11
646.182	9474.95
646.535	9453.03
646.888	9491.45
647.24	9422.29
647.593	9472.24
647.945	9383.43
648.298	9401.05
648.65	9382.07
649.002	9345.91
649.355	9448.06
649.707	9468.17
650.059	9506.13
650.411	9617.09
650.763	9633.81
651.115	9625.45
651.467	9671.55
651.819	9683.08
652.171	9612.8
652.523	9642.63
652.875	9631.1
653.227	9601.95
653.578	9591.1
653.93	9577.77
654.282	9566.47
654.633	9613.48
654.985	9527.6
655.337	9549.75
655.688	9589.3
656.039	9634.94
656.391	9547.04
656.742	9574.38
657.094	9559.92
657.445	9601.27
657.796	9617.54
658.147	9514.27
658.498	9544.78
658.849	9598.34
659.2	9583.19
659.551	9539.58
659.902	9570.77
660.253	9560.37
660.604	9587.94
660.955	9593.36
661.306	9564.89
661.656	9588.39
662.007	9612.12
662.358	9571.9
662.708	9550.88
663.059	9577.54
663.409	9476.98
663.76	9582.29
664.11	9606.47
664.461	9540.94
664.811	9581.61
665.161	9585.23
665.511	9570.09
665.862	9557.21
666.212	9640.82
666.562	9609.86
666.912	9603.98
667.262	9573.25
667.612	9525.12
667.962	9537.55
668.312	9560.82
668.662	9599.69
669.011	9564.44
669.361	9584.32
669.711	9581.84
670.06	9549.3
670.41	9497.55
670.76	9445.34
671.109	9533.7
671.459	9474.27
671.808	9451.9
672.157	9550.2
672.507	9405.12
672.856	9409.41
673.205	9436.76
673.554	9466.81
673.904	9466.36
674.253	9484.89
674.602	9471.11
674.951	9303.43
675.3	9248.29
675.649	9448.28
675.998	9368.96
676.346	9359.7
676.695	9422.29
677.044	9361.51
677.393	9430.88
677.741	9403.31
678.09	9351.56
678.438	9347.49
678.787	9330.55
679.135	9333.26
679.484	9242.86
679.832	9306.14
680.181	9268.4
680.529	9350.66
680.877	9216.42
681.225	9260.04
681.573	9275.63
681.922	9151.57
682.27	9189.98
682.618	9179.59
682.966	9098.69
683.314	9170.55
683.661	9185.69
684.009	9061.63
684.357	9093.26
684.705	9020.95
685.053	9066.15
685.4	9039.71
685.748	9023.89
686.095	9025.02
686.443	8976.88
686.79	8931.01
687.138	8994.28
687.485	9024.34
687.832	8845.13
688.18	8925.13
688.527	8868.64
688.874	8851.46
689.221	8838.58
689.568	8777.34
689.915	8809.2
690.262	8817.11
690.609	8769.88
690.956	8679.94
691.303	8707.74
691.65	8627.51
691.997	8666.38
692.344	8659.83
692.69	8543.9
693.037	8578.48
693.383	8464.13
693.73	8565.14
694.077	8435.88
694.423	8454.64
694.769	8467.07
695.116	8399.72
695.462	8419.16
695.808	8307.52
696.155	8281.99
696.501	8264.13
696.847	8304.13
697.193	8157.02
697.539	8268.43
697.885	8233.17
698.231	8181.65
698.577	8184.14
698.923	8177.81
699.269	8104.59
699.614	8047.64
699.96	7987.98
700.306	8019.62
700.651	8010.81
700.997	7877.7
701.342	7960.86
701.688	7899.62
702.033	7880.87
702.379	7889.45
702.724	7910.24
703.069	7829.57
703.415	7763.36
703.76	7773.07
704.105	7685.62
704.45	7753.64
704.795	7670.93
705.14	7691.27
705.485	7639.52
705.83	7624.38
706.175	7573.3
706.52	7506.41
706.865	7557.94
707.209	7619.18
707.554	7565.85
707.899	7551.84
708.243	7472.97
708.588	7471.84
708.932	7471.39
709.277	7409.01
709.621	7442.01
709.966	7376.47
710.31	7352.29
710.654	7336.47
710.998	7311.84
711.342	7321.56
711.687	7286.31
712.031	7257.38
712.375	7261.22
712.719	7259.19
713.063	7341.45
713.407	7287.44
713.75	7188.91
714.094	7227.55
714.438	7160.89
714.782	7199.53
715.125	7172.86
715.469	7197.72
715.812	7059.42
716.156	7138.74
716.499	7039.76
716.843	7102.81
717.186	6980.1
717.53	7081.79
717.873	7074.33
718.216	7067.55
718.559	7021.68
718.902	6993.66
719.246	6966.99
719.589	6963.15
719.932	6924.73
720.275	6951.17
720.617	6943.94
720.96	6957.5
721.303	6936.48
721.646	6969.25
721.989	6913.21
722.331	6970.83
722.674	6918.18
723.016	6875.47
723.359	6861.23
723.701	6897.16
724.044	6860.55
724.386	6842.25
724.729	6912.76
725.071	6851.29
725.413	6808.8
725.755	6839.76
726.097	6789.37
726.439	6796.83
726.782	6833.44
727.124	6798.63
727.465	6804.51
727.807	6797.05
728.149	6790.05
728.491	6758.41
728.833	6816.71
729.175	6769.03
729.516	6761.8
729.858	6752.31
730.199	6774.45
730.541	6725.42
730.882	6739.88
731.224	6777.39
731.565	6703.5
731.906	6678.19
732.248	6726.32
732.589	6650.39
732.93	6714.8
733.271	6668.02
733.612	6698.52
733.953	6726.77
734.294	6692.65
734.635	6705.53
734.976	6722.48
735.317	6661.24
735.658	6688.58
735.999	6707.56
736.339	6723.16
736.68	6709.15
737.021	6665.3
737.361	6639.54
737.702	6685.42
738.042	6671.63
738.383	6695.59
738.723	6755.25
739.063	6749.82
739.404	6733.55
739.744	6711.63
740.084	6674.34
740.424	6682.25
740.764	6763.61
741.104	6785.98
741.444	6735.81
741.784	6724.96
742.124	6730.84
742.464	6732.2
742.804	6778.75
743.143	6795.47
743.483	6780.78
743.823	6740.11
744.162	6796.37
744.502	6860.55
744.841	6842.7
745.181	6834.34
745.52	6835.47
745.86	6863.94
746.199	6907.56
746.538	6913.21
746.877	6947.11
747.216	6999.76
747.556	6951.63
747.895	7041.79
748.234	7011.28
748.573	7061.45
748.911	7042.24
749.25	7104.62
749.589	7173.54
749.928	7143.26
750.267	7209.7
750.605	7255.35
750.944	7276.81
751.283	7306.64
751.621	7374.21
751.96	7388.9
752.298	7484.94
752.636	7542.34
752.975	7510.48
753.313	7634.09
753.651	7731.72
753.989	7788.67
754.327	7820.75
754.666	7871.83
755.004	7967.64
755.342	8001.32
755.679	8096.23
756.017	8137.13
756.355	8211.7
756.693	8322.66
757.031	8381.19
757.368	8491.25
757.706	8543.22
758.044	8661.86
758.381	8729.43
758.719	8830.22
759.056	8927.17
759.394	8977.79
759.731	8981.18
760.068	9208.74
760.405	9225.92
760.743	9405.35
761.08	9432.46
761.417	9564.66
761.754	9664.77
762.091	9690.99
762.428	9785.45
762.765	9860.7
763.102	9998.1
763.438	10038.55
763.775	10173.46
764.112	10251.43
764.449	10341.37
764.785	10403.96
765.122	10480.12
765.458	10527.12
765.795	10581.36
766.131	10678.98
766.467	10736.38
766.804	10863.61
767.14	10861.13
767.476	10959.2
767.812	11057.28
768.148	11127.56
768.485	11201
768.821	11241
769.157	11300.44
769.492	11358.29
769.828	11480.55
770.164	11425.41
770.5	11490.49
770.836	11538.17
771.171	11615.91
771.507	11654.55
771.842	11628.11
772.178	11741.1
772.513	11741.1
772.849	11772.74
773.184	11848.45
773.519	11896.58
773.855	11857.71
774.19	11925.73
774.525	11977.03
774.86	12001.89
775.195	12061.77
775.53	12070.36
775.865	12039.85
776.2	12074.43
776.535	11920.76
776.87	12039.85
777.205	11975.22
777.539	11984.04
777.874	12102.9
778.209	12006.18
778.543	12080.3
778.878	12089.12
779.212	12087.76
779.547	12088.67
779.881	12106.52
780.215	12018.61
780.55	12127.31
780.884	12108.55
781.218	12127.08
781.552	12108.55
781.886	12011.38
782.22	12024.49
782.554	12100.87
782.888	11951.95
783.222	11944.49
783.556	11937.71
783.889	11926.41
784.223	11805.28
784.557	11913.53
784.89	11977.93
785.224	11852.51
785.557	11869.24
785.891	11800.76
786.224	11879.63
786.558	11833.98
786.891	11702.01
787.224	11734.55
787.557	11699.07
787.891	11721.9
788.224	11757.15
788.557	11766.41
788.89	11696.13
789.223	11797.15
789.556	11655.68
789.888	11600.54
790.221	11636.02
790.554	11524.61
790.887	11577.04
791.219	11468.34
791.552	11597.83
791.884	11474.67
792.217	11451.85
792.549	11388.34
792.882	11384.05
793.214	11335.24
793.546	11301.34
793.879	11204.17
794.211	11232.42
794.543	11297.27
794.875	11206.65
795.207	11312.64
795.539	11227.22
795.871	11175.24
796.203	11207.33
796.535	11134.79
796.867	11033.78
797.198	11040.33
797.53	11040.78
797.862	10975.93
798.193	11022.48
798.525	10886.89
798.856	10982.71
799.188	10905.19
799.519	10796.72
799.85	10723.5
800.182	10741.58
800.513	10836.27
800.844	10769.6
801.175	10807.79
801.506	10760.11
801.837	10671.75
802.168	10679.21
802.499	10669.72
802.83	10682.15
803.161	10573.45
803.491	10619.33
803.822	10513.79
804.153	10543.85
804.483	10412.1
804.814	10422.27
805.145	10400.57
805.475	10397.64
805.805	10367.81
806.136	10345.89
806.466	10364.64
806.796	10315.83
807.126	10281.93
807.457	10248.26
807.787	10312.67
808.117	10202.16
808.447	10158.55
808.777	10225.44
809.107	10111.54
809.436	10171.65
809.766	10104.08
810.096	10161.94
810.426	10056.63
810.755	10068.61
811.085	10050.98
811.414	10059.57
811.744	9967.37
812.073	9924.43
812.403	9968.04
812.732	9905.22
813.061	9872.9
813.39	9916.97
813.719	9869.51
814.049	9889.85
814.378	9851.66
814.707	9779.35
815.036	9778.67
815.365	9700.71
815.693	9679.01
816.022	9708.16
816.351	9721.04
816.68	9699.58
817.008	9635.62
817.337	9602.63
817.665	9568.28
817.994	9542.07
818.322	9575.51
818.651	9529.86
818.979	9506.13
819.307	9575.74
819.636	9514.95
819.964	9448.06
820.292	9535.06
820.62	9477.21
820.948	9443.31
821.276	9436.76
821.604	9456.64
821.932	9457.1
822.259	9498
822.587	9467.72
822.915	9456.87
823.243	9471.33
823.57	9442.41
823.898	9390.66
824.225	9364.44
824.553	9434.72
824.88	9419.58
825.207	9419.81
825.535	9405.8
825.862	9410.32
826.189	9379.36
826.516	9495.97
826.843	9480.82
827.17	9408.28
827.497	9455.06
827.824	9396.08
828.151	9501.39
828.478	9449.86
828.805	9443.54
829.131	9440.83
829.458	9443.54
829.785	9366.7
830.111	9417.77
830.438	9478.56
830.764	9441.05
831.09	9411
831.417	9392.92
831.743	9390.88
832.069	9406.25
832.395	9338.68
832.722	9447.38
833.048	9421.39
833.374	9395.63
833.7	9314.73
834.026	9332.58
834.351	9383.65
834.677	9367.61
835.003	9491.9
835.329	9403.09
835.654	9322.86
835.98	9339.36
836.306	9343.88
836.631	9307.27
836.956	9328.06
837.282	9333.94
837.607	9353.14
837.932	9262.75
838.258	9278.8
838.583	9296.65
838.908	9131
839.233	9213.94
839.558	9187.95
839.883	9139.14
840.208	9197.67
840.533	9104.34
840.858	9109.99
841.182	9204.9
841.507	9123.55
841.832	9098.46
842.156	9120.83
842.481	9065.92
842.805	9124.68
843.13	9016.88
843.454	9063.66
843.778	8988.41
844.103	8964.68
844.427	8912.25
844.751	8937.34
845.075	8842.87
845.399	8879.71
845.723	8789.32
846.047	8878.58
846.371	8774.18
846.695	8786.38
847.019	8693.05
847.343	8716.55
847.666	8589.55
847.99	8570.34
848.313	8589.1
848.637	8565.37
848.96	8460.96
849.284	8604.01
849.607	8458.25
849.931	8466.16
850.254	8326.96
850.577	8330.12
850.9	8275.66
851.223	8325.83
851.546	8204.47
851.869	8193.63
852.192	8225.49
852.515	8106.4
852.838	8127.41
853.161	8129.9
853.483	8065.04
853.806	8093.97
854.129	8071.37
854.451	7995.44
854.774	7962.9
855.096	7906.4
855.419	7933.75
855.741	7898.27
856.063	7901.66
856.385	7867.76
856.708	7881.77
857.03	7802.45
857.352	7775.56
857.674	7729.68
857.996	7732.4
858.318	7698.5
858.64	7642.68
858.961	7693.53
859.283	7598.39
859.605	7584.38
859.926	7623.02
860.248	7560.2
860.57	7570.59
860.891	7556.81
861.212	7503.25
861.534	7511.61
861.855	7519.75
862.176	7482.23
862.498	7494.66
862.819	7507.99
863.14	7504.6
863.461	7450.6
863.782	7378.96
864.103	7438.62
864.424	7423.03
864.745	7432.74
865.065	7315.01
865.386	7335.57
865.707	7335.12
866.027	7338.06
866.348	7302.58
866.668	7274.33
866.989	7322.24
867.309	7260.54
867.63	7261.9
867.95	7284.5
868.27	7206.53
868.59	7260.54
868.91	7209.7
869.23	7208.12
869.55	7166.08
869.87	7265.29
870.19	7135.35
870.51	7169.25
870.83	7174.22
871.15	7161.79
871.469	7093.54
871.789	7169.47
872.109	7155.24
872.428	7075.24
872.748	7128.34
873.067	7106.65
873.386	7122.92
873.706	7039.98
874.025	7081.79
874.344	7051.06
874.663	7016.93
874.982	7013.32
875.301	7025.97
875.62	7041.11
875.939	6998.86
876.258	7030.49
876.577	6999.99
876.896	6909.14
877.214	6926.77
877.533	6962.47
877.852	6888.12
878.17	6988.46
878.489	6898.97
878.807	6886.32
879.125	6909.37
879.444	6892.19
879.762	6864.4
880.08	6837.05
880.398	6782.36
880.716	6810.39
881.034	6778.07
881.352	6854
881.67	6762.25
881.988	6751.63
882.306	6726.77
882.624	6744.85
882.941	6698.98
883.259	6716.6
883.577	6648.36
883.894	6641.35
884.212	6665.3
884.529	6652.42
884.846	6631.41
885.164	6630.05
885.481	6606.55
885.798	6593.22
886.115	6537.62
886.432	6489.26
886.75	6501.24
887.067	6515.93
887.383	6520.45
887.7	6496.27
888.017	6459.21
888.334	6454.69
888.651	6469.6
888.967	6411.3
889.284	6394.58
889.6	6410.4
889.917	6348.48
890.233	6372.43
890.55	6297.86
890.866	6295.15
891.182	6303.28
891.498	6279.55
891.815	6262.38
892.131	6239.78
892.447	6227.8
892.763	6203.85
893.079	6224.19
893.395	6197.07
893.71	6164.98
894.026	6187.35
894.342	6177.41
894.657	6194.58
894.973	6062.83
895.289	6047.47
895.604	6048.6
895.92	6057.64
896.235	5973.57
896.55	6012.89
896.865	6025.55
897.181	5986.68
897.496	5981.71
897.811	5904.42
898.126	5946.91
898.441	5912.33
898.756	5855.83
899.071	5783.52
899.386	5831.43
899.7	5736.06
900.015	5726.57
900.33	5731.77
900.644	5682.51
900.959	5741.49
901.273	5698.1
901.588	5671.88
901.902	5653.81
902.216	5622.62
902.531	5652.68
902.845	5638.89
903.159	5610.87
903.473	5570.87
903.787	5549.18
904.101	5505.34
904.415	5497.65
904.729	5468.73
905.042	5472.79
905.356	5422.4
905.67	5430.99
905.984	5424.21
906.297	5433.02
906.611	5317.32
906.924	5375.62
907.237	5322.06
907.551	5295.85
907.864	5302.85
908.177	5270.09
908.491	5275.96
908.804	5254.95
909.117	5226.02
909.43	5189.19
909.743	5155.97
910.056	5185.8
910.368	5112.13
910.681	5072.58
910.994	5120.94
911.307	5066.02
911.619	5077.32
911.932	5087.27
912.244	4984.9
912.557	4986.25
912.869	4979.93
913.181	4895.86
913.494	4963.2
913.806	4899.93
914.118	4879.59
914.43	4865.13
914.742	4891.11
915.054	4795.3
915.366	4813.83
915.678	4778.57
915.99	4795.52
916.302	4722.53
916.613	4719.37
916.925	4718.46
917.236	4682.98
917.548	4647.73
917.859	4724.57
918.171	4666.49
918.482	4633.27
918.794	4643.21
919.105	4621.97
919.416	4555.98
919.727	4579.03
920.038	4542.2
920.349	4513.72
920.66	4569.77
920.971	4490.67
921.282	4548.52
921.593	4466.94
921.903	4425.82
922.214	4405.48
922.525	4384.91
922.835	4397.79
923.146	4363.67
923.456	4366.38
923.767	4339.04
924.077	4341.75
924.387	4332.26
924.697	4249.55
925.008	4237.8
925.318	4259.72
925.628	4261.53
925.938	4184.01
926.248	4209.55
926.558	4172.49
926.867	4209.78
927.177	4159.16
927.487	4129.78
927.796	4106.95
928.106	4086.16
928.416	4083.23
928.725	4090.01
929.034	4107.63
929.344	4036.22
929.653	4036
929.962	4005.04
930.271	4002.55
930.581	3985.38
930.89	3953.96
931.199	3958.94
931.508	3901.76
931.817	3933.4
932.125	3940.4
932.434	3919.61
932.743	3838.94
933.051	3845.72
933.36	3820.41
933.669	3825.83
933.977	3816.11
934.286	3863.12
934.594	3806.17
934.902	3773.18
935.21	3735.89
935.519	3776.34
935.827	3727.53
936.135	3725.5
936.443	3671.49
936.751	3650.47
937.059	3651.15
937.367	3609.79
937.674	3651.37
937.982	3610.47
938.29	3584.03
938.597	3542.22
938.905	3556.01
939.213	3524.6
939.52	3522.56
939.827	3518.27
940.135	3493.41
940.442	3456.58
940.749	3480.3
941.056	3458.61
941.363	3435.56
941.67	3432.17
941.977	3414.77
942.284	3406.41
942.591	3353.08
942.898	3386.97
943.205	3402.79
943.511	3353.3
943.818	3292.29
944.125	3332.51
944.431	3296.58
944.738	3287.54
945.044	3264.04
945.35	3275.11
945.657	3271.04
945.963	3233.53
946.269	3231.27
946.575	3226.3
946.881	3232.85
947.187	3193.08
947.493	3152.85
947.799	3152.85
948.105	3144.95
948.41	3157.6
948.716	3132.52
949.022	3115.12
949.327	3144.27
949.633	3079.86
949.938	3079.18
950.244	3068.11
950.549	3059.52
950.854	3014.33
951.16	3049.13
951.465	3041.45
951.77	3016.59
952.075	2993.99
952.38	3001.67
952.685	2979.07
952.99	2978.85
953.294	2952.18
953.599	2920.77
953.904	2943.82
954.209	2920.32
954.513	2914.22
954.818	2869.25
955.122	2883.71
955.426	2850.49
955.731	2850.94
956.035	2819.53
956.339	2801
956.643	2821.79
956.948	2806.88
957.252	2804.84
957.556	2796.03
957.86	2745.18
958.163	2762.81
958.467	2754.67
958.771	2771.4
959.075	2694.11
959.378	2732.98
959.682	2745.86
959.985	2688.91
960.289	2662.02
960.592	2641.91
960.896	2694.34
961.199	2661.79
961.502	2589.71
961.805	2634.9
962.108	2613.66
962.411	2612.53
962.714	2594.68
963.017	2565.07
963.32	2561.01
963.623	2542.25
963.926	2548.35
964.228	2568.92
964.531	2555.13
964.833	2552.19
965.136	2526.66
965.438	2530.05
965.741	2473.55
966.043	2472.19
966.345	2463.38
966.648	2459.77
966.95	2420.22
967.252	2456.83
967.554	2452.76
967.856	2423.61
968.158	2396.49
968.46	2396.04
968.761	2434
969.063	2364.85
969.365	2337.06
969.666	2377.06
969.968	2320.33
970.269	2374.12
970.571	2320.33
970.872	2332.31
971.174	2325.98
971.475	2310.17
971.776	2303.39
972.077	2287.57
972.378	2288.24
972.679	2266.32
972.98	2289.37
973.281	2252.77
973.582	2238.98
973.883	2245.99
974.183	2224.74
974.484	2203.5
974.785	2185.87
975.085	2245.53
975.386	2208.7
975.686	2183.84
975.986	2179.1
976.287	2172.54
976.587	2151.98
976.887	2113.33
977.187	2120.34
977.487	2117.18
977.787	2109.49
978.087	2113.11
978.387	2126.89
978.687	2102.04
978.987	2094.58
979.286	2071.75
979.586	2076.27
979.885	2057.06
980.185	2051.19
980.484	2019.33
980.784	2036.05
981.083	2028.14
981.382	1983.62
981.682	2022.49
981.981	2005.09
982.28	1996.95
982.579	1975.03
982.878	1975.94
983.177	1982.04
983.475	1965.32
983.774	1963.51
984.073	1955.15
984.372	1925.09
984.67	1924.41
984.969	1944.53
985.267	1878.54
985.566	1891.42
985.864	1898.65
986.162	1908.59
986.461	1857.97
986.759	1853.23
987.057	1862.95
987.355	1830.18
987.653	1845.32
987.951	1801.03
988.249	1794.7
988.547	1801.03
988.844	1813
989.142	1801.03
989.44	1797.64
989.737	1797.41
990.035	1807.58
990.332	1813
990.63	1765.09
990.927	1771.2
991.224	1742.95
991.521	1770.97
991.819	1730.97
992.116	1732.33
992.413	1718.99
992.71	1690.97
993.006	1696.17
993.303	1684.19
993.6	1712.89
993.897	1679.67
994.193	1658.43
994.49	1677.19
994.787	1655.27
995.083	1679.9
995.379	1650.75
995.676	1641.93
995.972	1639.45
996.268	1601.94
996.565	1603.29
996.861	1600.81
997.157	1619.11
997.453	1591.54
997.749	1587.25
998.044	1592.22
998.34	1557.87
998.636	1550.86
998.932	1559.68
999.227	1542.73
999.523	1550.64
999.818	1530.3
1000.114	1530.07
1000.409	1528.72
1000.704	1522.62
1001	1512.67
1001.295	1489.62
1001.59	1477.19
1001.885	1498.89
1002.18	1509.28
1002.475	1468.61
1002.77	1450.75
1003.065	1456.85
1003.359	1440.58
1003.654	1430.87
1003.949	1410.53
1004.243	1410.98
1004.538	1416.18
1004.832	1394.48
1005.127	1388.16
1005.421	1381.6
1005.715	1349.74
1006.009	1385.9
1006.304	1378.89
1006.598	1363.52
1006.892	1371.88
1007.186	1349.06
1007.48	1328.5
1007.773	1315.39
1008.067	1316.75
1008.361	1301.83
1008.655	1309.51
1008.948	1331.43
1009.242	1321.26
1009.535	1304.32
1009.829	1289.4
1010.122	1289.85
1010.415	1261.61
1010.708	1265.67
1011.001	1233.58
1011.295	1239.91
1011.588	1251.21
1011.881	1264.32
1012.173	1257.31
1012.466	1236.07
1012.759	1226.58
1013.052	1215.05
1013.344	1209.4
1013.637	1211.21
1013.93	1210.99
1014.222	1194.04
1014.514	1180.25
1014.807	1192.68
1015.099	1197.2
1015.391	1152.23
1015.683	1174.15
1015.976	1145
1016.268	1150.65
1016.56	1123.3
1016.851	1129.18
1017.143	1149.07
1017.435	1142.29
1017.727	1124.89
1018.018	1110.87
1018.31	1123.98
1018.602	1107.03
1018.893	1069.97
1019.185	1101.61
1019.476	1051.89
1019.767	1076.98
1020.058	1053.93
1020.35	1070.2
1020.641	1049.41
1020.932	1056.41
1021.223	1041.05
1021.514	1039.01
1021.804	1025.91
1022.095	1055.28
1022.386	1034.72
1022.677	1023.42
1022.967	1004.44
1023.258	1007.37
1023.548	990.43
1023.839	984.32
1024.129	994.95
1024.419	1007.6
1024.709	970.54
1025	991.78
1025.29	958.79
1025.58	941.16
1025.87	945.91
1026.16	933.93
1026.449	937.09
1026.739	900.48
1027.029	935.06
1027.319	940.71
1027.608	919.02
1027.898	916.98
1028.187	916.76
1028.477	903.2
1028.766	905.46
1029.055	879.24
1029.344	933.48
1029.634	876.08
1029.923	886.7
1030.212	869.3
1030.501	878.34
1030.79	851.9
1031.078	874.27
1031.367	866.81
1031.656	855.06
1031.945	847.38
1032.233	839.02
1032.522	842.86
1032.81	837.44
1033.099	827.27
1033.387	789.75
1033.675	806.7
1033.963	799.47
1034.251	817.1
1034.54	803.09
1034.828	789.08
1035.116	787.49
1035.403	769.19
1035.691	785.46
1035.979	783.65
1036.267	779.36
1036.554	764.22
1036.842	801.73
1037.129	766.03
1037.417	772.8
1037.704	752.24
1037.992	747.95
1038.279	754.05
1038.566	756.31
1038.853	756.31
1039.14	756.31
