Data from hue_28_FLMS001491_00007.txt Node
Date: Tue Feb 07 17:16:47 GMT 2017
User: dcchb
Spectrometer: FLMS00149
Trigger mode: 0
Integration Time (sec): 2.000000E-2
Scans to average: 10
Electric dark correction enabled: true
Nonlinearity correction enabled: false
Boxcar width: 0
XAxis mode: Wavelengths
Number of Pixels in Spectrum: 2048
>>>>>Begin Spectral Data<<<<<
341.393	-4.45
341.776	-4.45
342.16	-4.45
342.543	-50.1
342.927	-59.36
343.31	-55.97
343.693	-54.62
344.077	-52.36
344.46	-63.43
344.843	-73.6
345.226	-40.83
345.61	-25.69
345.993	-14.84
346.376	-0.61
346.759	-3.55
347.142	14.99
347.525	36.68
347.908	65.61
348.291	70.58
348.674	97.92
349.057	99.73
349.44	110.35
349.823	131.82
350.206	158.26
350.588	179.73
350.971	204.59
351.354	214.3
351.737	236.9
352.119	254.3
352.502	259.05
352.884	292.94
353.267	294.98
353.65	290.23
354.032	315.09
354.414	308.54
354.797	315.77
355.179	305.83
355.562	308.09
355.944	301.53
356.326	338.37
356.709	346.5
357.091	334.53
357.473	338.14
357.855	360.51
358.238	318.48
358.62	344.47
359.002	349.89
359.384	341.08
359.766	355.99
360.148	341.76
360.53	365.48
360.912	338.82
361.294	330.68
361.676	343.79
362.057	332.04
362.439	336.11
362.821	322.1
363.203	348.08
363.584	336.78
363.966	318.93
364.348	320.97
364.729	331.14
365.111	315.77
365.493	336.11
365.874	315.09
366.256	321.64
366.637	323.68
367.019	323
367.4	316.9
367.781	321.19
368.163	295.66
368.544	305.83
368.925	320.29
369.306	318.03
369.688	316.45
370.069	314.86
370.45	329.33
370.831	334.75
371.212	312.6
371.593	330.91
371.974	312.83
372.355	311.25
372.736	335.2
373.117	318.25
373.498	309.89
373.879	301.08
374.26	323.23
374.641	299.95
375.021	315.99
375.402	312.38
375.783	333.17
376.163	334.07
376.544	328.65
376.925	309.22
377.305	331.59
377.686	313.28
378.066	328.65
378.447	326.62
378.827	339.27
379.208	303.79
379.588	335.66
379.968	341.3
380.349	330.46
380.729	342.43
381.109	340.85
381.489	355.09
381.87	344.69
382.25	345.82
382.63	330.68
383.01	348.76
383.39	341.08
383.77	342.89
384.15	347.18
384.53	357.8
384.91	351.93
385.29	365.94
385.67	370.23
386.049	373.62
386.429	344.24
386.809	351.02
387.189	357.12
387.568	370
387.948	360.97
388.328	367.97
388.707	378.59
389.087	365.03
389.466	353.73
389.846	388.76
390.225	366.84
390.605	359.16
390.984	388.08
391.363	367.74
391.743	373.39
392.122	344.69
392.501	367.97
392.881	373.17
393.26	403.45
393.639	400.96
394.018	369.78
394.397	378.59
394.776	386.28
395.155	394.18
395.534	395.99
395.913	382.21
396.292	414.75
396.671	374.07
397.05	378.14
397.429	429.21
397.808	393.73
398.186	397.8
398.565	398.03
398.944	409.78
399.323	415.88
399.701	403
400.08	397.35
400.458	390.34
400.837	429.89
401.215	431.7
401.594	419.27
401.972	412.94
402.351	419.04
402.729	408.87
403.107	424.92
403.486	410.68
403.864	420.85
404.242	425.6
404.62	436.22
404.999	434.41
405.377	445.48
405.755	454.97
406.133	440.74
406.511	456.56
406.889	453.17
407.267	449.78
407.645	445.48
408.023	438.25
408.401	463.79
408.779	471.02
409.156	456.56
409.534	471.24
409.912	498.81
410.29	465.6
410.667	468.98
411.045	473.5
411.422	472.37
411.8	505.82
412.178	480.51
412.555	494.07
412.933	478.25
413.31	509.21
413.687	506.05
414.065	504.46
414.442	499.27
414.819	496.78
415.197	517.35
415.574	517.8
415.951	490.91
416.328	531.81
416.705	508.76
417.082	522.99
417.46	524.8
417.837	524.35
418.214	560.06
418.591	543.56
418.967	555.31
419.344	548.98
419.721	551.24
420.098	557.34
420.475	563.67
420.852	586.95
421.228	561.64
421.605	548.76
421.982	548.3
422.358	570.23
422.735	587.85
423.111	598.02
423.488	595.31
423.864	579.26
424.241	602.31
424.617	609.09
424.994	598.25
425.37	598.7
425.746	593.95
426.123	619.72
426.499	647.51
426.875	620.17
427.251	624.23
427.627	624.23
428.003	632.6
428.379	645.48
428.756	638.7
429.132	646.61
429.507	651.35
429.883	656.1
430.259	673.05
430.635	688.64
431.011	679.37
431.387	668.3
431.763	675.31
432.138	696.32
432.514	720.05
432.89	696.55
433.265	722.99
433.641	746.49
434.016	723.22
434.392	762.99
434.767	745.14
435.143	762.76
435.518	744.68
435.894	763.44
436.269	771.12
436.644	778.58
437.02	765.02
437.395	784.91
437.77	799.37
438.145	809.09
438.52	805.02
438.895	799.15
439.271	821.74
439.646	827.17
440.021	836.21
440.395	832.14
440.77	817.68
441.145	852.7
441.52	838.24
441.895	845.25
442.27	837.34
442.645	871.91
443.019	826.94
443.394	870.56
443.769	880.95
444.143	871.91
444.518	897.22
444.892	856.77
445.267	900.84
445.641	877.34
446.016	902.42
446.39	922.98
446.764	927.96
447.139	927.5
447.513	928.18
447.887	909.65
448.262	945.81
448.636	934.51
449.01	945.81
449.384	939.25
449.758	981.29
450.132	956.2
450.506	944.45
450.88	969.99
451.254	998.01
451.628	1005.24
452.002	1000.5
452.376	990.78
452.75	1037.11
453.123	1031.91
453.497	1012.7
453.871	1026.26
454.244	1070.55
454.618	1084.56
454.992	1082.3
455.365	1060.83
455.739	1076.2
456.112	1112.81
456.486	1127.72
456.859	1118.01
457.232	1128.4
457.606	1142.19
457.979	1152.58
458.352	1167.27
458.725	1157.1
459.099	1195.75
459.472	1220.38
459.845	1223.54
460.218	1249.76
460.591	1220.6
460.964	1258.79
461.337	1290.43
461.71	1288.17
462.083	1294.73
462.456	1301.73
462.829	1326.36
463.201	1346.25
463.574	1340.6
463.947	1409.75
464.32	1412.46
464.692	1412.24
465.065	1414.72
465.438	1445
465.81	1452.91
466.183	1484.78
466.555	1488.62
466.928	1526.58
467.3	1513.25
467.672	1516.87
468.045	1536.08
468.417	1569.29
468.789	1557.09
469.161	1592.57
469.534	1635.06
469.906	1620.82
470.278	1680.93
470.65	1717.77
471.022	1732.45
471.394	1759.8
471.766	1793.24
472.138	1815.16
472.51	1821.49
472.882	1876.63
473.253	1897.2
473.625	1882.73
473.997	1951.88
474.369	1992.11
474.74	2000.02
475.112	2018.77
475.484	2059
475.855	2100.81
476.227	2135.83
476.598	2181.93
476.97	2194.14
477.341	2265.1
477.713	2293.34
478.084	2321.59
478.455	2379.22
478.827	2407.01
479.198	2501.93
479.569	2524.75
479.94	2591.41
480.311	2577.4
480.682	2696.95
481.053	2726.78
481.424	2735.37
481.795	2797.29
482.166	2879.99
482.537	2879.32
482.908	2954.57
483.279	3020.78
483.65	3073.21
484.021	3142.81
484.391	3222.36
484.762	3218.74
485.133	3277.72
485.503	3329.93
485.874	3419.19
486.244	3461.9
486.615	3528.57
486.985	3611.28
487.356	3643.14
487.726	3658.05
488.097	3759.75
488.467	3796.81
488.837	3851.04
489.207	3946.18
489.578	3970.14
489.948	4060.75
490.318	4133.07
490.688	4131.94
491.058	4227.98
491.428	4250.81
491.798	4371.71
492.168	4439.73
492.538	4491.93
492.908	4488.77
493.278	4567.63
493.648	4583.68
494.017	4643.11
494.387	4723.11
494.757	4788.19
495.126	4830.45
495.496	4849.89
495.866	4903.44
496.235	4987.51
496.605	5035.64
496.974	5048.3
497.344	5103.21
497.713	5161.52
498.082	5252.59
498.452	5274.51
498.821	5283.32
499.19	5333.94
499.559	5429.08
499.928	5423.2
500.298	5443.54
500.667	5536.2
501.036	5524.67
501.405	5598.79
501.774	5587.04
502.143	5687.6
502.512	5675.63
502.88	5744.1
503.249	5744.55
503.618	5793.82
503.987	5819.8
504.356	5848.5
504.724	5882.63
505.093	5956.98
505.462	5975.73
505.83	6008.05
506.199	6083.3
506.567	6127.14
506.936	6130.53
507.304	6171.43
507.672	6201.26
508.041	6249.4
508.409	6276.97
508.777	6365.33
509.145	6365.1
509.514	6349.28
509.882	6405.33
510.25	6450.97
510.618	6494.59
510.986	6488.04
511.354	6610.29
511.722	6625.89
512.09	6637.18
512.458	6664.08
512.826	6718.99
513.193	6718.99
513.561	6770.51
513.929	6841.92
514.297	6850.96
514.664	6946.1
515.032	6886.9
515.4	6951.53
515.767	6970.51
516.135	7039.66
516.502	6961.7
516.869	7137.74
517.237	7099.77
517.604	7068.13
517.972	7178.64
518.339	7182.93
518.706	7227.9
519.073	7272.87
519.44	7280.78
519.808	7396.03
520.175	7346.09
520.542	7409.82
520.909	7440.55
521.276	7458.63
521.643	7541.12
522.009	7535.47
522.376	7577.05
522.743	7637.38
523.11	7693.43
523.477	7755.35
523.843	7835.12
524.21	7848.23
524.577	7919.86
524.943	8028.11
525.31	7939.97
525.676	8080.76
526.043	8080.31
526.409	8137.48
526.776	8211.38
527.142	8180.65
527.508	8201.44
527.874	8305.61
528.241	8397.36
528.607	8398.49
528.973	8462.22
529.339	8413.63
529.705	8538.6
530.071	8589.9
530.437	8658.6
530.803	8665.38
531.169	8693.63
531.535	8734.76
531.901	8747.86
532.267	8854.08
532.632	8784.7
532.998	8888.65
533.364	8946.05
533.73	8951.47
534.095	8974.75
534.461	9076.22
534.826	9128.64
535.192	9181.07
535.557	9216.1
535.923	9211.58
536.288	9216.1
536.653	9338.81
537.019	9310.56
537.384	9326.61
537.749	9435.53
538.114	9425.36
538.479	9446.38
538.845	9503.1
539.21	9516.2
539.575	9560.5
539.94	9571.8
540.305	9674.62
540.67	9708.74
541.034	9644.11
541.399	9750.77
541.764	9795.75
542.129	9758.01
542.494	9816.08
542.858	9920.04
543.223	9850.21
543.587	10015.63
543.952	9933.82
544.316	10004.78
544.681	10030.99
545.045	10114.83
545.41	10190.54
545.774	10218.33
546.138	10186.24
546.503	10249.52
546.867	10258.78
547.231	10377.42
547.595	10361.83
547.959	10395.5
548.324	10447.25
548.688	10447.93
549.052	10498.1
549.416	10621.26
549.779	10563.86
550.143	10607.02
550.507	10651.54
550.871	10628.72
551.235	10670.75
551.599	10825.55
551.962	10869.39
552.326	10872.33
552.689	10905.32
553.053	10862.16
553.417	10920.24
553.78	10994.13
554.143	10985.32
554.507	11048.37
554.87	11046.11
555.234	11131.76
555.597	11058.76
555.96	11220.57
556.323	11209.72
556.686	11231.87
557.05	11285.88
557.413	11303.5
557.776	11272.99
558.139	11426.89
558.502	11529.94
558.865	11440.22
559.228	11512.31
559.59	11575.59
559.953	11565.42
560.316	11672.31
560.679	11676.6
561.041	11708.01
561.404	11724.73
561.767	11866.88
562.129	11846.54
562.492	11927.44
562.854	11955.69
563.217	11980.55
563.579	11970.6
563.941	12027.55
564.304	12163.37
564.666	12250.37
565.028	12307.09
565.39	12281.33
565.753	12273.87
566.115	12343.47
566.477	12363.36
566.839	12393.19
567.201	12551.38
567.563	12551.83
567.925	12678.38
568.287	12670.7
568.648	12715.67
569.01	12841.31
569.372	12822.56
569.734	12749.79
570.095	12837.25
570.457	12881.09
570.819	12985.04
571.18	13021.65
571.542	13127.86
571.903	13013.29
572.265	13115.66
572.626	13207.18
572.987	13329.89
573.349	13387.52
573.71	13378.02
574.071	13479.94
574.432	13578.92
574.794	13728.3
575.155	13663.67
575.516	13739.6
575.877	13842.19
576.238	13942.53
576.599	13940.5
576.96	14136.2
577.32	14078.57
577.681	14263.2
578.042	14325.34
578.403	14439.01
578.763	14564.66
579.124	14657.09
579.485	14763.3
579.845	14966.91
580.206	15038.55
580.566	15112.89
580.927	15268.82
581.287	15422.49
581.648	15573.67
582.008	15749.04
582.368	15852.31
582.728	16055.47
583.089	16202.58
583.449	16404.61
583.809	16574.32
584.169	16813.87
584.529	16869.23
584.889	17245.72
585.249	17253.63
585.609	17444.36
585.969	17807.96
586.329	17938.58
586.688	18129.99
587.048	18426.48
587.408	18583.08
587.768	18867.15
588.127	19079.57
588.487	19349.17
588.846	19677.97
589.206	19736.5
589.565	20060.11
589.925	20414.9
590.284	20645.18
590.643	20920.88
591.003	21187.31
591.362	21489
591.721	21795.43
592.08	22074.07
592.44	22428.63
592.799	22646.25
593.158	22970.54
593.517	23216.64
593.876	23510.64
594.235	23822.72
594.593	24057.52
594.952	24447.79
595.311	24586.77
595.67	24956.48
596.029	25323.92
596.387	25687.76
596.746	25948.54
597.104	26218.59
597.463	26453.84
597.822	26929.08
598.18	26935.41
598.538	27376.98
598.897	27700.36
599.255	27780.81
599.613	28544.63
599.972	28572.65
600.33	28904.85
600.688	29114.79
601.046	29522.91
601.404	29810.36
601.762	30036.34
602.12	30501.87
602.478	30726.95
602.836	31021.63
603.194	31115.64
603.552	31440.83
603.91	31645.34
604.268	32051.43
604.625	32140.02
604.983	32647.35
605.341	32610.96
605.698	32914.91
606.056	33330.49
606.413	33549.92
606.771	33793.98
607.128	34132.51
607.485	34169.57
607.843	34426.06
608.2	34827.4
608.557	35061.75
608.914	35278.69
609.272	35508.29
609.629	35831.67
609.986	36183.3
610.343	36058.56
610.7	36586
611.057	36486.57
611.414	36828.48
611.771	37046.55
612.127	37468.92
612.484	37448.35
612.841	37799.08
613.198	37836.59
613.554	38036.13
613.911	38543.69
614.267	38534.2
614.624	38679.05
614.98	39002.43
615.337	39263.9
615.693	39355.87
616.05	39376.21
616.406	39622.76
616.762	39711.57
617.118	39707.95
617.475	40036.98
617.831	40172.12
618.187	40322.17
618.543	40493.7
618.899	40844.87
619.255	40735.72
619.611	40820.47
619.967	41028.14
620.323	41279.44
620.678	41191.98
621.034	41174.58
621.39	41337.29
621.746	41254.58
622.101	41998.06
622.457	41752.19
622.812	41891.17
623.168	42079.87
623.523	42150.37
623.879	42279.41
624.234	42114.9
624.589	42364.83
624.945	42400.99
625.3	42682.79
625.655	42571.38
626.01	42757.59
626.365	42932.28
626.72	42852.28
627.075	42968.21
627.43	42962.33
627.785	42891.6
628.14	42921.2
628.495	43094.76
628.85	43083.46
629.205	43005.27
629.559	43389.66
629.914	43064.48
630.269	43244.36
630.623	43246.84
630.978	43141.76
631.332	43464.46
631.687	43631.24
632.041	43463.33
632.396	43654.06
632.75	43440.96
633.104	43520.73
633.459	43274.64
633.813	43422.88
634.167	43380.85
634.521	43442.54
634.875	43554.41
635.229	43502.2
635.583	43365.94
635.937	43398.48
636.291	43490.23
636.645	43570.45
636.999	43416.56
637.352	43537.91
637.706	43453.17
638.06	43611.81
638.413	43487.97
638.767	43432.83
639.121	43512.37
639.474	43245.49
639.828	43452.04
640.181	43486.38
640.534	43423.34
640.888	43351.47
641.241	43204.36
641.594	43203.68
641.947	43313.28
642.301	43206.17
642.654	43228.09
643.007	43327.74
643.36	43311.47
643.713	43167.07
644.066	43262.66
644.419	43182.66
644.771	42950.58
645.124	42596.92
645.477	42548.1
645.83	42495
646.182	42310.82
646.535	42118.96
646.888	42091.85
647.24	41966.88
647.593	42274.21
647.945	42111.96
648.298	41897.73
648.65	41895.01
649.002	41839.65
649.355	42028.57
649.707	41943.37
650.059	42131.17
650.411	42768.89
650.763	42496.35
651.115	43095.21
651.467	42881.43
651.819	42868.77
652.171	42808.21
652.523	42687.54
652.875	42899.51
653.227	42591.72
653.578	42879.17
653.93	42795.56
654.282	42725.27
654.633	42693.86
654.985	42596.24
655.337	42681.43
655.688	42503.36
656.039	42894.54
656.391	42518.95
656.742	42518.73
657.094	42564.83
657.445	42791.49
657.796	42645.95
658.147	42536.13
658.498	42592.4
658.849	42724.6
659.2	42592.17
659.551	42485.51
659.902	42549.23
660.253	42539.29
660.604	42663.13
660.955	42455.23
661.306	42494.55
661.656	42602.11
662.007	42456.36
662.358	42532.96
662.708	42570.48
663.059	42568.67
663.409	42254.33
663.76	42517.6
664.11	42445.06
664.461	42597.59
664.811	42509.69
665.161	42455.23
665.511	42397.6
665.862	42410.71
666.212	42610.48
666.562	42556.47
666.912	42427.2
667.262	42388.56
667.612	42445.28
667.962	42507.65
668.312	42340.88
668.662	42456.58
669.011	42477.82
669.361	42362.57
669.711	42362.8
670.06	42301.11
670.41	42109.92
670.76	42179.75
671.109	42339.3
671.459	42294.33
671.808	42089.36
672.157	42392.63
672.507	41975.92
672.856	42078.96
673.205	42036.93
673.554	42217.49
673.904	42190.15
674.253	42252.97
674.602	42208.68
674.951	41491.64
675.3	41450.51
675.649	41990.6
675.998	42063.15
676.346	42058.85
676.695	42060.21
677.044	41881.23
677.393	42111.05
677.741	42003.26
678.09	41874.9
678.438	41860.89
678.787	42009.81
679.135	41904.73
679.484	41652.99
679.832	41785.86
680.181	41513.1
680.529	41625.42
680.877	41651.18
681.225	41651.4
681.573	41823.83
681.922	41526.44
682.27	41392.43
682.618	41302.94
682.966	41271.3
683.314	41459.32
683.661	41329.15
684.009	41035.15
684.357	40940.69
684.705	40941.82
685.053	41001.03
685.4	40872.44
685.748	40749.51
686.095	40789.96
686.443	40725.78
686.79	40724.65
687.138	40663.18
687.485	40579.34
687.832	40385.9
688.18	40470.19
688.527	40219.35
688.874	40208.05
689.221	40303.42
689.568	40086.47
689.915	40019.13
690.262	40027.49
690.609	39966.93
690.956	39810.32
691.303	39760.61
691.65	39396.55
691.997	39549.77
692.344	39371.01
692.69	39306.16
693.037	39377.79
693.383	39060.74
693.73	39144.58
694.077	38979.38
694.423	38891.48
694.769	38815.77
695.116	38772.61
695.462	38680.64
695.808	38509.57
696.155	38700.52
696.501	38514.76
696.847	38474.31
697.193	38055.34
697.539	38295.79
697.885	37858.96
698.231	37883.37
698.577	37781.9
698.923	37934.89
699.269	37752.98
699.614	37444.06
699.96	37473.66
700.306	37440.67
700.651	37136.27
700.997	37228.47
701.342	37108.7
701.688	37125.42
702.033	37041.36
702.379	36855.15
702.724	36701.48
703.069	36930.62
703.415	36495.38
703.76	36446.57
704.105	36612.67
704.45	36530.41
704.795	36168.61
705.14	36210.19
705.485	36175.39
705.83	36139.23
706.175	36030.54
706.52	35939.24
706.865	35738.34
707.209	35814.72
707.554	35653.37
707.899	35744.89
708.243	35642.75
708.588	35428.29
708.932	35306.26
709.277	35254.51
709.621	35290.22
709.966	35031.69
710.31	35104.91
710.654	34722.55
710.998	34901.98
711.342	34962.09
711.687	34804.13
712.031	34494.53
712.375	34448.66
712.719	34536.56
713.063	34543.34
713.407	34520.52
713.75	34207.08
714.094	34359.39
714.438	34248.89
714.782	34195.78
715.125	34050.7
715.469	34127.99
715.812	33907.88
716.156	33845.28
716.499	33725.29
716.843	33826.75
717.186	33694.55
717.53	33787.66
717.873	33785.17
718.216	33644.61
718.559	33490.04
718.902	33365.3
719.246	33411.62
719.589	33147.22
719.932	33053.44
720.275	33337.73
720.617	33078.3
720.96	33010.5
721.303	33052.53
721.646	32968.92
721.989	32700.45
722.331	32911.07
722.674	32801.69
723.016	32772.99
723.359	32716.72
723.701	32730.51
724.044	32582.94
724.386	32438.54
724.729	32750.4
725.071	32430.63
725.413	32431.99
725.755	32433.12
726.097	32295.27
726.439	32119.23
726.782	32159.68
727.124	32383.85
727.465	32121.49
727.807	32039.45
728.149	31975.28
728.491	31997.65
728.833	32079
729.175	31867.48
729.516	31885.56
729.858	31737.77
730.199	31862.96
730.541	31776.86
730.882	31693.47
731.224	31775.96
731.565	31559.92
731.906	31573.03
732.248	31583.19
732.589	31346.82
732.93	31188.86
733.271	31358.57
733.612	31435.18
733.953	31281.28
734.294	31281.28
734.635	31164.22
734.976	31279.93
735.317	31050.33
735.658	31021.85
735.999	31070.21
736.339	30899.6
736.68	31061.85
737.021	30912.93
737.361	30755.19
737.702	30903.89
738.042	30773.05
738.383	30795.42
738.723	30875.64
739.063	30697.34
739.404	30732.37
739.744	30471.59
740.084	30529.44
740.424	30535.54
740.764	30429.78
741.104	30590
741.444	30380.29
741.784	30339.39
742.124	30406.95
742.464	30334.41
742.804	30312.27
743.143	30156.79
743.483	30226.85
743.823	29906.18
744.162	29975.33
744.502	30088.09
744.841	29865.95
745.181	29997.02
745.52	29820.3
745.86	29903.69
746.199	29875.9
746.538	29658.5
746.877	29782.79
747.216	29842.22
747.556	29752.51
747.895	29712.28
748.234	29600.2
748.573	29601.78
748.911	29529.69
749.25	29531.72
749.589	29331.95
749.928	29399.07
750.267	29529.01
750.605	29243.14
750.944	29264.61
751.283	29120.66
751.621	29127.89
751.96	29099.19
752.298	29005.18
752.636	29101
752.975	28875.24
753.313	28813.78
753.651	29121.79
753.989	28844.74
754.327	28830.05
754.666	28675.47
755.004	28605.65
755.342	28748.92
755.679	28589.15
756.017	28473.9
756.355	28487.68
756.693	28375.37
757.031	28418.98
757.368	28202.49
757.706	28235.03
758.044	28090.18
758.381	28323.85
758.719	28127.24
759.056	27999.56
759.394	28029.84
759.731	27852.9
760.068	27777.42
760.405	27624.65
760.743	27631.89
761.08	27657.87
761.417	27424.89
761.754	27460.82
762.091	27287.94
762.428	27247.04
762.765	27086.36
763.102	27214.5
763.438	27063.31
763.775	26878.69
764.112	26968.18
764.449	26826.03
764.785	26896.31
765.122	26615.87
765.458	26661.97
765.795	26508.75
766.131	26466.27
766.467	26417
766.804	26300.4
767.14	26144.24
767.476	26165.71
767.812	25975.88
768.148	26071.48
768.485	25905.83
768.821	25743.8
769.157	25775.21
769.492	25758.94
769.828	25683.01
770.164	25481.89
770.5	25422.23
770.836	25363.47
771.171	25179.07
771.507	25205.06
771.842	25056.36
772.178	24906.31
772.513	24987.89
772.849	24843.03
773.184	24595.58
773.519	24680.78
773.855	24540.22
774.19	24427.68
774.525	24351.07
774.86	24409.6
775.195	24343.61
775.53	24198.08
775.865	24152.43
776.2	23905.88
776.535	23830.86
776.87	23699.56
777.205	23675.83
777.539	23586.12
777.874	23702.72
778.209	23374.15
778.543	23345.22
778.878	23263.19
779.212	23249.63
779.547	23090.08
779.881	23121.27
780.215	23021.61
780.55	23083.76
780.884	22825.69
781.218	22770.77
781.552	22750.66
781.886	22662.53
782.22	22425.02
782.554	22421.4
782.888	22328.98
783.222	22161.07
783.556	22114.29
783.889	22099.83
784.223	21800.4
784.557	21962.21
784.89	21915.88
785.224	21744.36
785.557	21601.31
785.891	21495.78
786.224	21522.67
786.558	21465.72
786.891	21384.37
787.224	21247.65
787.557	21217.59
787.891	21174.88
788.224	21089.91
788.557	21075.9
788.89	21062.79
789.223	20953.87
789.556	20782.58
789.888	20787.77
790.221	20603.6
790.554	20491.51
790.887	20541.9
791.219	20421
791.552	20357.73
791.884	20328.58
792.217	20332.87
792.549	20104.17
792.882	19978.3
793.214	19978.3
793.546	19979.66
793.879	19777.4
794.211	19728.82
794.543	19844.52
794.875	19707.8
795.207	19728.37
795.539	19644.53
795.871	19597.75
796.203	19302.84
796.535	19366.12
796.867	19337.19
797.198	19294.48
797.53	19239.56
797.862	19080.47
798.193	19192.11
798.525	19091.32
798.856	18995.96
799.188	18852.23
799.519	18799.35
799.85	18689.07
800.182	18683.65
800.513	18638.68
800.844	18499.47
801.175	18589.41
801.506	18526.82
801.837	18440.94
802.168	18491.56
802.499	18382.19
802.83	18246.37
803.161	18224.22
803.491	18222.42
803.822	18161.63
804.153	18109.42
804.483	17928.64
804.814	17869.66
805.145	17862.88
805.475	17900.62
805.805	17737.23
806.136	17715.99
806.466	17729.55
806.796	17659.95
807.126	17584.92
807.457	17474.64
807.787	17456.33
808.117	17393.96
808.447	17365.94
808.777	17343.34
809.107	17344.7
809.436	17300.41
809.766	17227.87
810.096	17052.73
810.426	17069.45
810.755	17134.08
811.085	16972.73
811.414	16951.26
811.744	16777.71
812.073	16818.39
812.403	16751.27
812.732	16713.08
813.061	16770.03
813.39	16620.42
813.719	16622.46
814.049	16739.74
814.378	16547.21
814.707	16463.14
815.036	16424.5
815.365	16474.21
815.693	16309.7
816.022	16316.25
816.351	16145.86
816.68	16155.8
817.008	16189.93
817.337	16087.11
817.665	15937.05
817.994	16081.91
818.322	16043.26
818.651	15983.83
818.979	15892.53
819.307	15995.58
819.636	15897.05
819.964	15819.54
820.292	15877.39
820.62	15846.89
820.948	15763.72
821.276	15836.72
821.604	15782.03
821.932	15779.09
822.259	15682.82
822.587	15754.68
822.915	15749.71
823.243	15807.56
823.57	15653.9
823.898	15660.22
824.225	15665.2
824.553	15660.45
824.88	15654.57
825.207	15802.82
825.535	15704.74
825.862	15779.09
826.189	15576.38
826.516	15719.43
826.843	15672.2
827.17	15667.46
827.497	15702.26
827.824	15638.3
828.151	15687.34
828.478	15607.12
828.805	15737.06
829.131	15592.2
829.458	15690.05
829.785	15622.71
830.111	15619.32
830.438	15690.28
830.764	15690.28
831.09	15650.05
831.417	15620.22
831.743	15593.33
832.069	15670.17
832.395	15500.23
832.722	15643.73
833.048	15541.81
833.374	15570.06
833.7	15449.61
834.026	15385.88
834.351	15486.22
834.677	15482.83
835.003	15499.1
835.329	15456.16
835.654	15411.19
835.98	15373.23
836.306	15442.83
836.631	15431.08
836.956	15384.75
837.282	15391.08
837.607	15199.22
837.932	15172.55
838.258	15297.97
838.583	15231.53
838.908	15074.93
839.233	15206
839.558	15081.71
839.883	15010.75
840.208	15001.03
840.533	15061.82
840.858	15050.52
841.182	15031.77
841.507	14983.18
841.832	14946.57
842.156	14980.92
842.481	14869.74
842.805	14912.22
843.13	14824.54
843.454	14841.26
843.778	14820.7
844.103	14698.89
844.427	14621.16
844.751	14647.14
845.075	14579.12
845.399	14589.29
845.723	14425.91
846.047	14460.93
846.371	14334.61
846.695	14332.35
847.019	14213.26
847.343	14124.9
847.666	14178
847.99	13994.96
848.313	13989.53
848.637	13999.93
848.96	13887.84
849.284	13891.23
849.607	13780.27
849.931	13724.23
850.254	13689.43
850.577	13622.09
850.9	13564.91
851.223	13487.4
851.546	13417.34
851.869	13389.78
852.192	13427.29
852.515	13198.82
852.838	13225.94
853.161	13231.36
853.483	13114.3
853.806	13110.01
854.129	13091.48
854.451	13074.76
854.774	12971.48
855.096	12859.17
855.419	12906.85
855.741	12789.11
856.063	12813.97
856.385	12740.07
856.708	12717.25
857.03	12690.13
857.352	12702.56
857.674	12656.69
857.996	12620.3
858.318	12452.85
858.64	12562.23
858.961	12505.5
859.283	12505.73
859.605	12397.48
859.926	12401.1
860.248	12430.48
860.57	12287.43
860.891	12351.84
861.212	12211.27
861.534	12256.47
861.855	12174.67
862.176	12220.99
862.498	12147.1
862.819	12167.89
863.14	12152.29
863.461	12165.85
863.782	12065.06
864.103	12115.23
864.424	11948.46
864.745	11946.65
865.065	11956.82
865.386	11965.86
865.707	11863.94
866.027	11825.07
866.348	11803.83
866.668	11912.98
866.989	11783.94
867.309	11793.21
867.63	11873.66
867.95	11768.57
868.27	11775.35
868.59	11704.17
868.91	11707.11
869.23	11619.2
869.55	11569.71
869.87	11633.44
870.19	11596.38
870.51	11543.27
870.83	11649.03
871.15	11590.5
871.469	11529.94
871.789	11627.56
872.109	11503.5
872.428	11454.68
872.748	11464.85
873.067	11479.54
873.386	11449.26
873.706	11465.53
874.025	11371.3
874.344	11347.57
874.663	11345.08
874.982	11254.24
875.301	11274.8
875.62	11213.56
875.939	11294.46
876.258	11251.3
876.577	11170.85
876.896	11239.78
877.214	11125.2
877.533	11182.6
877.852	11157.29
878.17	11169.27
878.489	11153.68
878.807	11120.68
879.125	11103.06
879.444	11095.82
879.762	11055.37
880.08	11029.16
880.398	10935.15
880.716	11012.21
881.034	10978.76
881.352	11010.18
881.67	10852.21
881.988	10962.72
882.306	10876.39
882.624	10869.16
882.941	10800.46
883.259	10786.45
883.577	10757.3
883.894	10673.01
884.212	10695.16
884.529	10684.31
884.846	10691.31
885.164	10603.63
885.481	10635.5
885.798	10645.44
886.115	10533.58
886.432	10603.41
886.75	10535.39
887.067	10484.31
887.383	10475.28
887.7	10449.97
888.017	10420.59
888.334	10456.52
888.651	10316.86
888.967	10324.77
889.284	10305.56
889.6	10292.23
889.917	10191.22
890.233	10326.35
890.55	10119.58
890.866	10181.72
891.182	10188.05
891.498	10120.03
891.815	10078.45
892.131	10068.96
892.447	10032.58
892.763	9950.54
893.079	10029.41
893.395	9952.58
893.71	9892.24
894.026	9916.87
894.342	9899.47
894.657	9745.13
894.973	9782.19
895.289	9751.68
895.604	9825.8
895.92	9733.37
896.235	9645.24
896.55	9639.14
896.865	9623.32
897.181	9516.43
897.496	9613.15
897.811	9493.83
898.126	9437.79
898.441	9425.59
898.756	9401.86
899.071	9348.53
899.386	9409.09
899.7	9292.71
900.015	9287.06
900.33	9236.21
900.644	9148.53
900.959	9216.33
901.273	9148.76
901.588	9203.44
901.902	9034.18
902.216	9039.61
902.531	9009.1
902.845	8961.87
903.159	8952.6
903.473	8872.83
903.787	8980.63
904.101	8795.09
904.415	8836.45
904.729	8793.96
905.042	8723.68
905.356	8734.08
905.67	8708.09
905.984	8684.59
906.297	8662.89
906.611	8580.18
906.924	8525.27
907.237	8567.98
907.551	8470.58
907.864	8523.24
908.177	8312.17
908.491	8480.3
908.804	8280.76
909.117	8325.73
909.43	8256.35
909.743	8222
910.056	8267.88
910.368	8254.32
910.681	8113.3
910.994	8125.51
911.307	8100.65
911.619	8019.52
911.932	8061.1
912.244	8014.32
912.557	7997.37
912.869	7890.03
913.181	7933.42
913.494	7878.06
913.806	7891.39
914.118	7842.35
914.43	7734.1
914.742	7733.65
915.054	7756.93
915.366	7721.45
915.678	7622.92
915.99	7667.89
916.302	7505.86
916.613	7510.61
916.925	7525.97
917.236	7467.44
917.548	7432.64
917.859	7415.24
918.171	7364.62
918.482	7344.51
918.794	7280.78
919.105	7351.06
919.416	7257.96
919.727	7246.43
920.038	7158.98
920.349	7199.66
920.66	7136.38
920.971	7128.47
921.282	7054.35
921.593	7024.29
921.903	7029.26
922.214	7002.15
922.525	6963.73
922.835	6888.25
923.146	6913.11
923.456	6867.23
923.767	6838.08
924.077	6851.19
924.387	6794.47
924.697	6728.26
925.008	6716.73
925.318	6697.52
925.628	6664.3
925.938	6663.17
926.248	6556.28
926.558	6500.92
926.867	6593.12
927.177	6498.2
927.487	6500.24
927.796	6405.33
928.106	6446.45
928.416	6357.19
928.725	6389.06
929.034	6315.84
929.344	6376.17
929.653	6371.65
929.962	6283.07
930.271	6226.35
930.581	6220.25
930.89	6217.53
931.199	6196.74
931.508	6136.18
931.817	6171.21
932.125	6115.16
932.434	6065
932.743	6029.74
933.051	5983.64
933.36	5971.89
933.669	5904.32
933.977	5878.33
934.286	5886.02
934.594	5888.28
934.902	5834.49
935.21	5814.16
935.519	5841.05
935.827	5772.8
936.135	5705.91
936.443	5727.38
936.751	5703.88
937.059	5693.48
937.367	5624.1
937.674	5669.3
937.982	5614.84
938.29	5638.11
938.597	5613.03
938.905	5512.69
939.213	5520.38
939.52	5477.21
939.827	5460.49
940.135	5493.03
940.442	5387.5
940.749	5356.54
941.056	5389.08
941.363	5298.46
941.67	5339.82
941.977	5257.56
942.284	5278.12
942.591	5321.06
942.898	5234.74
943.205	5243.77
943.511	5180.5
943.818	5180.95
944.125	5145.7
944.431	5101.41
944.738	5098.02
945.044	5097.56
945.35	5046.27
945.657	5069.99
945.963	4989.32
946.269	4961.75
946.575	4979.83
946.881	4978.92
947.187	4939.15
947.493	4903.22
947.799	4918.13
948.105	4883.78
948.41	4855.76
948.716	4875.2
949.022	4839.49
949.327	4814.41
949.633	4763.79
949.938	4763.56
950.244	4712.94
950.549	4697.12
950.854	4662.77
951.16	4627.52
951.465	4582.1
951.77	4599.72
952.075	4654.64
952.38	4579.16
952.685	4586.62
952.99	4527.64
953.294	4512.49
953.599	4449.9
953.904	4428.2
954.209	4445.15
954.513	4441.08
954.818	4429.33
955.122	4411.93
955.426	4358.6
955.731	4393.85
956.035	4344.36
956.339	4337.58
956.643	4335.55
956.948	4251.71
957.252	4220.07
957.556	4218.94
957.86	4227.53
958.163	4236.8
958.467	4220.07
958.771	4177.36
959.075	4166.29
959.378	4119.51
959.682	4162
959.985	4099.85
960.289	4057.82
960.592	4063.01
960.896	4031.83
961.199	4054.2
961.502	3985.5
961.805	3980.98
962.108	3991.83
962.411	3969.23
962.714	3962.45
963.017	3926.75
963.32	3910.7
963.623	3894.88
963.926	3880.87
964.228	3843.36
964.531	3817.82
964.833	3797.71
965.136	3763.59
965.438	3815.79
965.741	3801.33
966.043	3737.83
966.345	3736.24
966.648	3747.99
966.95	3692.18
967.252	3723.59
967.554	3715.68
967.856	3672.06
968.158	3632.07
968.46	3616.7
968.761	3620.09
969.063	3644.95
969.365	3581.67
969.666	3604.27
969.968	3557.49
970.269	3538.06
970.571	3494.22
970.872	3475.46
971.174	3492.41
971.475	3480.43
971.776	3485.18
972.077	3449.47
972.378	3400.89
972.679	3376.93
972.98	3399.98
973.281	3416.7
973.582	3352.07
973.883	3346.2
974.183	3377.16
974.484	3303.49
974.785	3287.22
975.085	3333.99
975.386	3358.4
975.686	3277.27
975.986	3285.41
976.287	3248.57
976.587	3230.72
976.887	3217.16
977.187	3224.84
977.487	3165.19
977.787	3191.63
978.087	3176.48
978.387	3157.05
978.687	3144.17
978.987	3115.69
979.286	3064.85
979.586	3079.31
979.885	3063.72
980.185	3033.44
980.484	3035.25
980.784	2984.4
981.083	3017.39
981.382	3010.16
981.682	2998.41
981.981	2961.8
982.28	2980.56
982.579	2969.48
982.878	2984.62
983.177	2907.79
983.475	2922.71
983.774	2882.25
984.073	2891.97
984.372	2861.92
984.67	2864.85
984.969	2851.75
985.267	2844.97
985.566	2843.39
985.864	2835.93
986.162	2803.61
986.461	2781.69
986.759	2784.63
987.057	2761.58
987.355	2756.61
987.653	2743.5
987.951	2708.25
988.249	2694.01
988.547	2704.86
988.844	2657.18
989.142	2670.96
989.44	2666.67
989.737	2626.67
990.035	2615.6
990.332	2606.56
990.63	2568.36
990.927	2615.6
991.224	2575.82
991.521	2558.87
991.819	2578.99
992.116	2540.12
992.413	2572.43
992.71	2537.86
993.006	2520.23
993.303	2509.38
993.6	2490.17
993.897	2492.21
994.193	2502.83
994.49	2468.48
994.787	2413.57
995.083	2414.92
995.379	2421.02
995.676	2416.96
995.972	2389.61
996.268	2387.35
996.565	2390.06
996.861	2380.35
997.157	2332.44
997.453	2336.51
997.749	2358.2
998.044	2331.99
998.34	2302.61
998.636	2321.59
998.932	2331.53
999.227	2274.59
999.523	2260.58
999.818	2256.73
1000.114	2245.44
1000.409	2212.22
1000.704	2241.82
1001	2191.88
1001.295	2189.62
1001.59	2196.62
1001.885	2179.67
1002.18	2142.39
1002.475	2119.56
1002.77	2138.32
1003.065	2100.81
1003.359	2114.37
1003.654	2102.16
1003.949	2082.28
1004.243	2077.98
1004.538	2048.6
1004.832	2065.78
1005.127	2012
1005.421	2045.44
1005.715	2023.29
1006.009	2040.47
1006.304	2015.38
1006.598	1994.14
1006.892	1980.36
1007.186	1965.44
1007.48	1976.06
1007.773	1946.91
1008.067	1940.13
1008.361	1908.04
1008.655	1916.86
1008.948	1863.98
1009.242	1904.2
1009.535	1855.16
1009.829	1817.88
1010.122	1852.9
1010.415	1838.44
1010.708	1813.36
1011.001	1820.14
1011.295	1778.55
1011.588	1793.7
1011.881	1794.6
1012.173	1780.59
1012.466	1784.66
1012.759	1794.37
1013.052	1744.21
1013.344	1762.96
1013.637	1755.05
1013.93	1724.09
1014.222	1717.31
1014.514	1707.82
1014.807	1664.66
1015.099	1680.93
1015.391	1656.07
1015.683	1656.07
1015.976	1654.26
1016.268	1645.9
1016.56	1606.81
1016.851	1612.46
1017.143	1607.94
1017.435	1619.01
1017.727	1590.99
1018.018	1557.09
1018.31	1584.21
1018.602	1553.48
1018.893	1552.8
1019.185	1538.56
1019.476	1524.55
1019.767	1514.38
1020.058	1548.73
1020.35	1484.33
1020.641	1483.2
1020.932	1459.92
1021.223	1485.23
1021.514	1459.47
1021.804	1445.91
1022.095	1419.02
1022.386	1383.76
1022.677	1430.09
1022.967	1409.07
1023.258	1394.38
1023.548	1388.73
1023.839	1386.02
1024.129	1384.89
1024.419	1375.4
1024.709	1350.32
1025	1345.35
1025.29	1339.24
1025.58	1339.92
1025.87	1340.83
1026.16	1300.6
1026.449	1321.62
1026.739	1307.38
1027.029	1301.51
1027.319	1259.7
1027.608	1272.58
1027.898	1268.74
1028.187	1266.25
1028.477	1268.29
1028.766	1260.6
1029.055	1234.16
1029.344	1244.56
1029.634	1226.71
1029.923	1196.88
1030.212	1203.88
1030.501	1185.8
1030.79	1191
1031.078	1190.77
1031.367	1166.59
1031.656	1155.97
1031.945	1126.59
1032.233	1152.36
1032.522	1152.58
1032.81	1140.83
1033.099	1137.44
1033.387	1128.4
1033.675	1087.27
1033.963	1116.65
1034.251	1112.81
1034.54	1071.23
1034.828	1089.76
1035.116	1092.25
1035.403	1063.77
1035.691	1055.86
1035.979	1056.54
1036.267	1037.33
1036.554	1025.81
1036.842	1040.95
1037.129	1028.52
1037.417	1011.8
1037.704	1029.2
1037.992	1011.57
1038.279	1005.02
1038.566	980.38
1038.853	980.38
1039.14	980.38
