Data from hue_36_FLMS001491_00028.txt Node
Date: Tue Feb 07 17:29:36 GMT 2017
User: dcchb
Spectrometer: FLMS00149
Trigger mode: 0
Integration Time (sec): 2.000000E-2
Scans to average: 10
Electric dark correction enabled: true
Nonlinearity correction enabled: false
Boxcar width: 0
XAxis mode: Wavelengths
Number of Pixels in Spectrum: 2048
>>>>>Begin Spectral Data<<<<<
341.393	-26.16
341.776	-26.16
342.16	-26.16
342.543	-77.23
342.927	-74.29
343.31	-61.18
343.693	-67.06
344.077	-71.13
344.46	-80.85
344.843	-52.15
345.226	-32.49
345.61	-27.06
345.993	-15.99
346.376	-3.11
346.759	6.16
347.142	25.37
347.525	55.87
347.908	31.24
348.291	96.55
348.674	100.17
349.057	95.65
349.44	138.81
349.823	129.32
350.206	166.38
350.588	184.23
350.971	224.23
351.354	229.65
351.737	254.51
352.119	257
352.502	252.25
352.884	255.64
353.267	264.46
353.65	285.92
354.032	312.82
354.414	319.14
354.797	334.96
355.179	313.49
355.562	313.04
355.944	314.85
356.326	340.61
356.709	341.52
357.091	333.61
357.473	339.71
357.855	313.04
358.238	328.41
358.62	334.74
359.002	340.16
359.384	350.78
359.766	325.92
360.148	326.6
360.53	325.25
360.912	334.06
361.294	346.49
361.676	323.44
362.057	333.38
362.439	337
362.821	309.2
363.203	326.15
363.584	326.6
363.966	317.11
364.348	318.92
364.729	303.78
365.111	320.95
365.493	332.48
365.874	315.08
366.256	332.25
366.637	313.04
367.019	304.23
367.4	316.88
367.781	300.84
368.163	298.58
368.544	317.34
368.925	321.18
369.306	324.12
369.688	311.46
370.069	300.61
370.45	308.52
370.831	300.61
371.212	313.04
371.593	315.98
371.974	326.83
372.355	308.97
372.736	316.88
373.117	297.22
373.498	306.26
373.879	311.46
374.26	318.69
374.641	315.53
375.021	315.08
375.402	313.27
375.783	324.12
376.163	313.72
376.544	326.6
376.925	341.29
377.305	288.41
377.686	327.51
378.066	294.74
378.447	318.01
378.827	328.86
379.208	307.39
379.588	322.08
379.968	318.01
380.349	324.12
380.729	320.5
381.109	325.02
381.489	332.03
381.87	331.8
382.25	324.57
382.63	343.78
383.01	338.35
383.39	339.48
383.77	331.35
384.15	328.18
384.53	318.69
384.91	347.84
385.29	343.55
385.67	352.59
386.049	356.66
386.429	343.1
386.809	340.16
387.189	333.61
387.568	356.21
387.948	372.02
388.328	344
388.707	334.06
389.087	336.09
389.466	354.62
389.846	356.43
390.225	329.54
390.605	358.47
390.984	372.48
391.363	368.18
391.743	360.72
392.122	364.11
392.501	358.24
392.881	347.62
393.26	373.61
393.639	357.11
394.018	344
394.397	358.24
394.776	384.68
395.155	368.18
395.534	385.13
395.913	370.22
396.292	382.19
396.671	372.02
397.05	383.78
397.429	364.57
397.808	371.8
398.186	350.56
398.565	385.81
398.944	389.42
399.323	390.33
399.701	374.96
400.08	363.44
400.458	404.79
400.837	388.75
401.215	377.45
401.594	412.25
401.972	373.61
402.351	359.37
402.729	392.36
403.107	392.81
403.486	427.84
403.864	413.83
404.242	409.54
404.62	385.58
404.999	416.32
405.377	396.43
405.755	404.11
406.133	407.5
406.511	412.48
406.889	416.77
407.267	409.54
407.645	400.95
408.023	426.26
408.401	378.13
408.779	420.38
409.156	417.9
409.534	433.94
409.912	444.11
410.29	444.56
410.667	444.79
411.045	428.52
411.422	449.54
411.8	449.08
412.178	435.07
412.555	441.63
412.933	452.7
413.31	435.98
413.687	434.85
414.065	440.72
414.442	469.42
414.819	460.84
415.197	450.67
415.574	495.64
415.951	491.12
416.328	474.17
416.705	486.15
417.082	442.08
417.46	510.1
417.837	481.17
418.214	492.92
418.591	492.25
418.967	500.83
419.344	501.06
419.721	489.08
420.098	504.68
420.475	522.3
420.852	515.98
421.228	530.66
421.605	515.75
421.982	511.23
422.358	517.33
422.735	549.65
423.111	516.43
423.488	519.82
423.864	523.43
424.241	545.13
424.617	537.9
424.994	531.12
425.37	552.58
425.746	560.72
426.123	557.33
426.499	544
426.875	549.87
427.251	553.49
427.627	583.54
428.003	574.96
428.379	559.36
428.756	549.65
429.132	574.73
429.507	591
429.883	600.94
430.259	609.53
430.635	595.07
431.011	611.11
431.387	603.66
431.763	602.75
432.138	610.21
432.514	599.14
432.89	619.25
433.265	631.9
433.641	642.98
434.016	628.97
434.392	631.45
434.767	640.49
435.143	657.67
435.518	644.79
435.894	640.72
436.269	678.23
436.644	677.1
437.02	687.04
437.395	692.69
437.77	678.46
438.145	695.41
438.52	672.58
438.895	707.83
439.271	699.47
439.646	720.94
440.021	696.08
440.395	729.98
440.77	719.13
441.145	719.36
441.52	734.5
441.895	719.13
442.27	751.9
442.645	750.32
443.019	736.53
443.394	751.9
443.769	756.87
444.143	746.93
444.518	742.86
444.892	738.79
445.267	751.9
445.641	762.52
446.016	806.81
446.39	786.7
446.764	791.67
447.139	762.07
447.513	783.31
447.887	802.75
448.262	780.6
448.636	809.3
449.01	785.12
449.384	829.19
449.758	796.42
450.132	794.61
450.506	810.88
450.88	838.45
451.254	823.76
451.628	847.04
452.002	850.43
452.376	873.25
452.75	855.63
453.123	864.21
453.497	872.8
453.871	879.81
454.244	898.34
454.618	886.36
454.992	920.03
455.365	896.3
455.739	932.24
456.112	917.77
456.486	946.47
456.859	936.76
457.232	962.29
457.606	959.35
457.979	972.46
458.352	995.74
458.725	999.13
459.099	1006.58
459.472	1018.11
459.845	1045
460.218	1041.61
460.591	1042.97
460.964	1043.19
461.337	1058.79
461.71	1087.49
462.083	1101.72
462.456	1075.96
462.829	1100.59
463.201	1127.71
463.574	1137.43
463.947	1125.22
464.32	1172
464.692	1180.59
465.065	1177.43
465.438	1206.58
465.81	1214.26
466.183	1248.39
466.555	1256.52
466.928	1242.96
467.3	1292
467.672	1304.2
468.045	1346.69
468.417	1340.81
468.789	1333.35
469.161	1359.12
469.534	1401.15
469.906	1415.39
470.278	1411.77
470.65	1449.96
471.022	1477.08
471.394	1531.09
471.766	1541.26
472.138	1537.87
472.51	1572.44
472.882	1622.84
473.253	1624.65
473.625	1673.01
473.997	1701.93
474.369	1719.33
474.74	1748.49
475.112	1757.52
475.484	1842.49
475.855	1892.66
476.227	1922.04
476.598	1989.16
476.97	1980.34
477.341	2044.07
477.713	2094.69
478.084	2123.16
478.455	2203.16
478.827	2239.09
479.198	2279.54
479.569	2361.12
479.94	2371.97
480.311	2485.64
480.682	2540.33
481.053	2559.31
481.424	2673.43
481.795	2699.42
482.166	2796.37
482.537	2843.15
482.908	2940.54
483.279	3018.28
483.65	3076.81
484.021	3148
484.391	3239.29
484.762	3289.24
485.133	3358.61
485.503	3412.85
485.874	3563.13
486.244	3606.74
486.615	3752.27
486.985	3796.34
487.356	3919.05
487.726	3972.16
488.097	4107.07
488.467	4154.98
488.837	4263.67
489.207	4348.19
489.578	4453.5
489.948	4535.08
490.318	4596.77
490.688	4659.14
491.058	4782.98
491.428	4946.82
491.798	4994.73
492.168	5133.93
492.538	5239.24
492.908	5289.41
493.278	5405.56
493.648	5495.05
494.017	5583.19
494.387	5666.35
494.757	5793.35
495.126	5848.49
495.496	5885.55
495.866	6004.19
496.235	6093.23
496.605	6228.14
496.974	6308.14
497.344	6434.01
497.713	6518.98
498.082	6497.74
498.452	6652.99
498.821	6699.54
499.19	6802.36
499.559	6871.97
499.928	6932.08
500.298	7037.39
500.667	7193.54
501.036	7165.07
501.405	7232.41
501.774	7341.78
502.143	7413.19
502.512	7487.77
502.88	7567.32
503.249	7619.29
503.618	7717.37
503.987	7796.24
504.356	7782.68
504.724	7932.96
505.093	7989.22
505.462	8080.3
505.83	8094.53
506.199	8227.41
506.567	8357.58
506.936	8366.62
507.304	8433.73
507.672	8522.09
508.041	8543.79
508.409	8606.38
508.777	8741.75
509.145	8791.46
509.514	8850.22
509.882	8922.76
510.25	8897.9
510.618	8982.42
510.986	9039.37
511.354	9135.64
511.722	9315.97
512.09	9330.21
512.458	9320.26
512.826	9459.24
513.193	9423.54
513.561	9511.9
513.929	9625.79
514.297	9672.57
514.664	9722.96
515.032	9831.66
515.4	9859.91
515.767	9959.57
516.135	9978.1
516.502	9933.81
516.869	10086.57
517.237	10193.23
517.604	10158.21
517.972	10211.09
518.339	10320.46
518.706	10338.09
519.073	10359.56
519.44	10516.84
519.808	10617.18
520.175	10588.93
520.542	10686.56
520.909	10724.29
521.276	10797.29
521.643	10956.15
522.009	10912.54
522.376	10996.38
522.743	11108.46
523.11	11161.12
523.477	11256.48
523.843	11328.35
524.21	11372.41
524.577	11471.17
524.943	11503.48
525.31	11633.65
525.676	11712.52
526.043	11750.93
526.409	11854.43
526.776	11944.15
527.142	11991.38
527.508	12024.83
527.874	12093.98
528.241	12181.66
528.607	12191.15
528.973	12335.1
529.339	12349.11
529.705	12490.35
530.071	12552.27
530.437	12618.71
530.803	12666.84
531.169	12708.87
531.535	12784.58
531.901	12833.84
532.267	12839.72
532.632	13054.18
532.998	12964.46
533.364	13112.03
533.73	13005.36
534.095	13263.21
534.461	13269.09
534.826	13349.08
535.192	13383.66
535.557	13516.99
535.923	13401.96
536.288	13606.93
536.653	13594.73
537.019	13607.16
537.384	13693.93
537.749	13676.99
538.114	13812.35
538.479	13850.31
538.845	13933.48
539.21	13881.05
539.575	13992.91
539.94	13989.52
540.305	14166.69
540.67	14104.32
541.034	14183.64
541.399	14230.87
541.764	14228.83
542.129	14338.66
542.494	14399.9
542.858	14415.72
543.223	14446
543.587	14488.49
543.952	14585.44
544.316	14625.21
544.681	14703.4
545.045	14712.44
545.41	14866.78
545.774	14841.25
546.138	14925.31
546.503	15022.03
546.867	14985.2
547.231	15182.93
547.595	15054.8
547.959	15284.17
548.324	15216.83
548.688	15370.73
549.052	15390.16
549.416	15395.81
549.779	15449.82
550.143	15473.1
550.507	15509.71
550.871	15597.16
551.235	15531.17
551.599	15762.81
551.962	15651.4
552.326	15772.98
552.689	15939.75
553.053	15807.1
553.417	15876.02
553.78	16043.02
554.143	15991.05
554.507	16121.44
554.87	16186.07
555.234	16299.74
555.597	16263.81
555.96	16351.04
556.323	16386.52
556.686	16471.04
557.05	16529.11
557.413	16558.72
557.776	16571.37
558.139	16774.98
558.502	16783.34
558.865	16762.1
559.228	16878.48
559.59	16923.45
559.953	17025.6
560.316	17200.51
560.679	17146.05
561.041	17293.84
561.404	17393.05
561.767	17373.84
562.129	17443.21
562.492	17568.86
562.854	17547.84
563.217	17504.68
563.579	17631.68
563.941	17648.41
564.304	17798.46
564.666	17856.08
565.028	17867.61
565.39	17903.31
565.753	17974.73
566.115	18029.86
566.477	18078.23
566.839	18202.52
567.201	18328.16
567.563	18333.59
567.925	18527.93
568.287	18515.5
568.648	18541.26
569.01	18595.05
569.372	18735.84
569.734	18796.85
570.095	18827.81
570.457	19049.5
570.819	19010.18
571.18	19144.41
571.542	19245.2
571.903	19218.76
572.265	19327.46
572.626	19424.4
572.987	19449.94
573.349	19505.53
573.71	19679.77
574.071	19687.22
574.432	19793.43
574.794	19954.33
575.155	20016.25
575.516	19994.11
575.877	20196.14
576.238	20352.29
576.599	20318.84
576.96	20479.29
577.32	20615.79
577.681	20740.53
578.042	20858.72
578.403	20999.73
578.763	21067.53
579.124	21170.8
579.485	21400.62
579.845	21597.45
580.206	21579.15
580.566	21652.14
580.927	21837.45
581.287	22096.65
581.648	22177.55
582.008	22356.53
582.368	22559.46
582.728	22691.21
583.089	22786.8
583.449	22968.94
583.809	23139.34
584.169	23402.15
584.529	23480.8
584.889	23769.15
585.249	23815.02
585.609	24003.49
585.969	24094.56
586.329	24325.97
586.688	24611.16
587.048	24845.73
587.408	24972.51
587.768	25245.27
588.127	25476.22
588.487	25619.04
588.846	25903.56
589.206	25954.63
589.565	26324.56
589.925	26593.93
590.284	26805.68
590.643	27018.78
591.003	27090.42
591.362	27367.92
591.721	27646.11
592.08	27896.5
592.44	28141.01
592.799	28362.02
593.158	28480.44
593.517	28775.12
593.876	28965.62
594.235	29120.87
594.593	29329.68
594.952	29636.79
595.311	29704.81
595.67	30050.79
596.029	30313.84
596.387	30544.56
596.746	30682.87
597.104	30884.89
597.463	31023.42
597.822	31332.79
598.18	31390.87
598.538	31550.41
598.897	32087.12
599.255	32004.64
599.613	32615.24
599.972	32417.96
600.33	32679.2
600.688	32771.17
601.046	33099.3
601.404	33384.94
601.762	33332.29
602.12	33721.66
602.478	33848.66
602.836	34130.23
603.194	34052.49
603.552	34362.32
603.91	34328.19
604.268	34702.87
604.625	34708.52
604.983	34825.13
605.341	35010.44
605.698	35267.83
606.056	35454.72
606.413	35620.81
606.771	35714.37
607.128	35967.02
607.485	35884.31
607.843	35980.13
608.2	36346.9
608.557	36627.34
608.914	36563.39
609.272	36745.98
609.629	36766.32
609.986	37103.71
610.343	37171.51
610.7	37329.02
611.057	37503.7
611.414	37510.26
611.771	37716.13
612.127	38037.47
612.484	38045.61
612.841	38223.91
613.198	38332.83
613.554	38237.92
613.911	38431.14
614.267	38635.2
614.624	38740.73
614.98	38897.34
615.337	38941.86
615.693	39057.56
616.05	39061.4
616.406	39318.8
616.762	39217.33
617.118	39247.39
617.475	39397.21
617.831	39502.07
618.187	39735.73
618.543	39707.04
618.899	40218.66
619.255	40004.65
619.611	40147.93
619.967	40304.99
620.323	40415.49
620.678	40308.38
621.034	40331.43
621.39	40349.96
621.746	40435.38
622.101	40776.39
622.457	40490.07
622.812	40724.64
623.168	40944.29
623.523	40993.33
623.879	41131.18
624.234	40726.22
624.589	41139.54
624.945	41163.95
625.3	41163.49
625.655	40988.81
626.01	41246.2
626.365	41277.39
626.72	41271.51
627.075	41297.95
627.43	41334.34
627.785	41380.66
628.14	41434.9
628.495	41476.93
628.85	41370.95
629.205	41266.32
629.559	41635.57
629.914	41397.16
630.269	41436.26
630.623	41480.1
630.978	41330.72
631.332	41575.69
631.687	41616.36
632.041	41596.02
632.396	41507.44
632.75	41400.32
633.104	41529.13
633.459	41383.15
633.813	41426.31
634.167	41500.89
634.521	41469.93
634.875	41571.17
635.229	41466.99
635.583	41472.64
635.937	41467.89
636.291	41409.36
636.645	41410.72
636.999	41476.03
637.352	41476.48
637.706	41271.29
638.06	41435.35
638.413	41300.21
638.767	41244.62
639.121	41297.73
639.474	41076.72
639.828	41095.93
640.181	41277.16
640.534	41280.78
640.888	41091.86
641.241	41004.63
641.594	41022.48
641.947	41219.09
642.301	41041.24
642.654	41149.93
643.007	41206.66
643.36	41192.19
643.713	40957.85
644.066	41085.3
644.419	40905.2
644.771	40626.78
645.124	40234.25
645.477	40286.23
645.83	40122.84
646.182	39977.31
646.535	39756.3
646.888	39870.42
647.24	39692.35
647.593	39841.72
647.945	39905.22
648.298	39690.54
648.65	39636.08
649.002	39685.34
649.355	39729.41
649.707	39574.38
650.059	39909.52
650.411	40248.04
650.763	40416.85
651.115	40603.28
651.467	40573
651.819	40562.83
652.171	40382.27
652.523	40529.84
652.875	40411.2
653.227	40238.77
653.578	40476.73
653.93	40476.05
654.282	40238.32
654.633	40193.58
654.985	40325.1
655.337	40335.72
655.688	40220.02
656.039	40487.58
656.391	39964.66
656.742	40135.72
657.094	40158.1
657.445	40374.81
657.796	40173.92
658.147	40190.86
658.498	40059.57
658.849	40256.63
659.2	40191.54
659.551	40072.22
659.902	40261.6
660.253	40180.47
660.604	40064.31
660.955	39884.88
661.306	40016.41
661.656	40023.64
662.007	40154.03
662.358	39972.56
662.708	40022.51
663.059	40081.94
663.409	39833.81
663.76	40065.22
664.11	40032.45
664.461	40085.56
664.811	40183.86
665.161	40029.06
665.511	39751.1
665.862	39947.71
666.212	40119.91
666.562	40007.14
666.912	40029.96
667.262	39948.84
667.612	39875.17
667.962	39869.06
668.312	39919.23
668.662	40042.62
669.011	39919.46
669.361	39946.58
669.711	39893.92
670.06	39760.37
670.41	39705.45
670.76	39719.92
671.109	39715.62
671.459	39850.99
671.808	39652.57
672.157	39690.76
672.507	39472.24
672.856	39424.78
673.205	39575.51
673.554	39565.8
673.904	39613.03
674.253	39743.87
674.602	39640.6
674.951	39171.23
675.3	38972.59
675.649	39493.26
675.998	39475.4
676.346	39540.49
676.695	39700.93
677.044	39211.45
677.393	39305.69
677.741	39510.43
678.09	39469.53
678.438	39444.44
678.787	39493.71
679.135	39459.81
679.484	39168.74
679.832	39382.98
680.181	39051.69
680.529	39158.35
680.877	39128.97
681.225	38887.17
681.573	39183.88
681.922	38946.6
682.27	38901.86
682.618	38959.71
682.966	38685.37
683.314	38855.53
683.661	38717.23
684.009	38542.55
684.357	38503.68
684.705	38529.66
685.053	38615.76
685.4	38459.38
685.748	38365.15
686.095	38271.59
686.443	38124.25
686.79	38037.7
687.138	38084.03
687.485	38188.43
687.832	37960.19
688.18	38053.29
688.527	37801.55
688.874	37752.74
689.221	37724.94
689.568	37654.89
689.915	37571.72
690.262	37597.71
690.609	37462.12
690.956	37396.36
691.303	37392.75
691.65	37212.19
691.997	37117.05
692.344	37004.73
692.69	37102.36
693.037	37093.77
693.383	36633.67
693.73	36843.61
694.077	36611.3
694.423	36661.01
694.769	36554.12
695.116	36385.54
695.462	36322.04
695.808	36251.76
696.155	36272.55
696.501	36045.66
696.847	36115.04
697.193	35852.9
697.539	35964.53
697.885	35669.4
698.231	35720.47
698.577	35476.64
698.923	35538.33
699.269	35387.6
699.614	35202.75
699.96	35286.59
700.306	35374.95
700.651	35066.48
700.997	34800.5
701.342	34933.15
701.688	34776.32
702.033	34658.35
702.379	34654.29
702.724	34621.75
703.069	34655.87
703.415	34199.84
703.76	34294.75
704.105	34181.53
704.45	34188.31
704.795	34068.99
705.14	33935.66
705.485	33799.39
705.83	33695.44
706.175	33789.22
706.52	33639.4
706.865	33562.79
707.209	33497.93
707.554	33610.02
707.899	33432.85
708.243	33236.92
708.588	33219.3
708.932	32994.67
709.277	33126.42
709.621	32923.26
709.966	32807.78
710.31	32868.8
710.654	32607.33
710.998	32761
711.342	32585.19
711.687	32549.48
712.031	32415.7
712.375	32398.98
712.719	32395.59
713.063	32187.01
713.407	32280.11
713.75	32252.77
714.094	32216.61
714.438	32024.3
714.782	31946.11
715.125	31978.42
715.469	31918.09
715.812	31838.54
716.156	31736.4
716.499	31622.95
716.843	31663.63
717.186	31464.99
717.53	31680.81
717.873	31572.56
718.216	31448.72
718.559	31415.05
718.902	31195.39
719.246	31257.54
719.589	31177.99
719.932	31097.09
720.275	31101.84
720.617	31079.47
720.96	30948.4
721.303	31004.89
721.646	30916.08
721.989	30867.04
722.331	30869.08
722.674	30821.84
723.016	30718.34
723.359	30737.78
723.701	30677.89
724.044	30546.15
724.386	30370.33
724.729	30599.7
725.071	30401.52
725.413	30404
725.755	30345.93
726.097	30270.9
726.439	30118.81
726.782	30161.98
727.124	30237.68
727.465	30021.19
727.807	30006.27
728.149	29868.65
728.491	29945.94
728.833	29820.06
729.175	29854.86
729.516	29724.92
729.858	29698.94
730.199	29790.23
730.541	29674.76
730.882	29637.92
731.224	29665.49
731.565	29372.84
731.906	29555.89
732.248	29476.34
732.589	29273.41
732.93	29266.86
733.271	29230.7
733.612	29256.24
733.953	29290.59
734.294	29165.39
734.635	29058.5
734.976	29165.84
735.317	29005.17
735.658	29002.91
735.999	29031.38
736.339	28963.81
736.68	28967.66
737.021	28808.79
737.361	28799.75
737.702	28911.84
738.042	28848.11
738.383	28718.4
738.723	28820.99
739.063	28603.6
739.404	28748.45
739.744	28479.08
740.084	28506.88
740.424	28531.96
740.764	28434.34
741.104	28419.65
741.444	28302.36
741.784	28310.95
742.124	28360.21
742.464	28191.86
742.804	28172.65
743.143	28153.44
743.483	28112.09
743.823	27889.72
744.162	27996.16
744.502	27990.05
744.841	27875.03
745.181	27986.89
745.52	27896.72
745.86	27877.74
746.199	27690.63
746.538	27772.43
746.877	27791.19
747.216	27739.67
747.556	27723.17
747.895	27776.5
748.234	27578.54
748.573	27461.03
748.911	27433.46
749.25	27489.5
749.589	27450.41
749.928	27422.84
750.267	27308.27
750.605	27236.63
750.944	27169.74
751.283	27199.79
751.621	27124.77
751.96	26927.26
752.298	27021.49
752.636	27073.92
752.975	26819.46
753.313	26810.65
753.651	27001.15
753.989	26625.35
754.327	26701.95
754.666	26655.85
755.004	26611.33
755.342	26623.31
755.679	26551.45
756.017	26446.82
756.355	26434.16
756.693	26340.61
757.031	26344
757.368	26053.83
757.706	26137.22
758.044	26126.38
758.381	26086.6
758.719	25988.98
759.056	26020.39
759.394	25884.35
759.731	25666.95
760.068	25690
760.405	25601.42
760.743	25506.5
761.08	25553.73
761.417	25449.1
761.754	25442.33
762.091	25322.33
762.428	25240.07
762.765	25071.04
763.102	25140.19
763.438	24897.03
763.775	24866.52
764.112	24864.71
764.449	24872.4
764.785	24833.53
765.122	24616.36
765.458	24545.17
765.795	24554.21
766.131	24497.04
766.467	24312.86
766.804	24279.87
767.14	24094.11
767.476	24234
767.812	24046.43
768.148	24104.28
768.485	23996.49
768.821	23697.06
769.157	23766.21
769.492	23808.7
769.828	23674.69
770.164	23454.58
770.5	23391.98
770.836	23473.34
771.171	23243.97
771.507	23277.41
771.842	23080.35
772.178	23091.43
772.513	22997.64
772.849	22917.42
773.184	22883.07
773.519	22869.51
773.855	22614.15
774.19	22619.57
774.525	22537.99
774.86	22542.51
775.195	22423.2
775.53	22369.86
775.865	22255.06
776.2	21987.73
776.535	21909.08
776.87	21871.8
777.205	21755.19
777.539	21710.9
777.874	21646.04
778.209	21487.63
778.543	21550.22
778.878	21429.78
779.212	21474.97
779.547	21327.63
779.881	21220.74
780.215	21128.31
780.55	21133.51
780.884	21039.73
781.218	21003.8
781.552	20976.23
781.886	20936.68
782.22	20781.2
782.554	20679.96
782.888	20507.99
783.222	20397.71
783.556	20363.14
783.889	20202.69
784.223	20168.11
784.557	20110.04
784.89	20171.96
785.224	20032.3
785.557	19908.23
785.891	19771.97
786.224	19893.09
786.558	19860.78
786.891	19650.39
787.224	19591.63
787.557	19523.61
787.891	19498.98
788.224	19419.43
788.557	19412.65
788.89	19303.05
789.223	19349.15
789.556	19187.57
789.888	19128.37
790.221	19042.49
790.554	18841.37
790.887	18956.39
791.219	18846.34
791.552	18733.58
791.884	18770.18
792.217	18699.68
792.549	18609.06
792.882	18494.71
793.214	18370.19
793.546	18372.45
793.879	18299.69
794.211	18206.13
794.543	18285.68
794.875	18097.66
795.207	18164.55
795.539	18093.59
795.871	18137.66
796.203	17872.81
796.535	17780.15
796.867	17800.72
797.198	17710.1
797.53	17675.3
797.862	17579.71
798.193	17654.96
798.525	17477.56
798.856	17464.68
799.188	17296.32
799.519	17237.34
799.85	17191.69
800.182	17227.4
800.513	17285.48
800.844	16980.63
801.175	17137.46
801.506	17045.03
801.837	16908.99
802.168	16972.27
802.499	16842.55
802.83	16799.16
803.161	16712.61
803.491	16704.48
803.822	16765.94
804.153	16701.31
804.483	16431.71
804.814	16415.44
805.145	16438.04
805.475	16532.5
805.805	16358.72
806.136	16332.06
806.466	16366.41
806.796	16277.37
807.126	16116.24
807.457	16105.17
807.787	16135.45
808.117	15943.59
808.447	15979.75
808.777	15931.39
809.107	15838.06
809.436	15959.18
809.766	15855.01
810.096	15860.88
810.426	15757.61
810.755	15737.27
811.085	15603.94
811.414	15546.77
811.744	15501.8
812.073	15512.19
812.403	15489.59
812.732	15424.74
813.061	15375.25
813.39	15236.04
813.719	15196.72
814.049	15293.21
814.378	15264.97
814.707	15218.19
815.036	15075.37
815.365	15067.68
815.693	14937.74
816.022	15026.78
816.351	14890.74
816.68	14866.33
817.008	14913.56
817.337	14780.46
817.665	14802.83
817.994	14870.4
818.322	14759.22
818.651	14670.18
818.979	14623.85
819.307	14725.09
819.636	14681.48
819.964	14563.06
820.292	14664.98
820.62	14593.12
820.948	14561.26
821.276	14660.24
821.604	14461.6
821.932	14552.22
822.259	14509.96
822.587	14533.69
822.915	14427.47
823.243	14504.76
823.57	14413.46
823.898	14478.77
824.225	14407.59
824.553	14383.41
824.88	14393.58
825.207	14427.47
825.535	14364.42
825.862	14498.43
826.189	14364.2
826.516	14423.41
826.843	14434.48
827.17	14457.3
827.497	14514.93
827.824	14447.36
828.151	14540.24
828.478	14408.49
828.805	14513.57
829.131	14321.94
829.458	14402.62
829.785	14284.2
830.111	14378.44
830.438	14419.79
830.764	14420.47
831.09	14410.3
831.417	14335.05
831.743	14427.93
832.069	14391.77
832.395	14329.17
832.722	14309.28
833.048	14283.52
833.374	14275.39
833.7	14193.81
834.026	14315.39
834.351	14295.27
834.677	14268.83
835.003	14275.61
835.329	14210.98
835.654	14228.61
835.98	14090.31
836.306	14226.12
836.631	14092.79
836.956	14188.84
837.282	14105.9
837.607	14009.63
837.932	13992.23
838.258	14043.76
838.583	14025.22
838.908	13963.76
839.233	13959.92
839.558	13914.27
839.883	13845.79
840.208	13789.75
840.533	13701.39
840.858	13859.35
841.182	13842.63
841.507	13777.32
841.832	13723.54
842.156	13655.29
842.481	13652.8
842.805	13617.78
843.13	13578.46
843.454	13575.97
843.778	13566.93
844.103	13594.28
844.427	13558.12
844.751	13553.6
845.075	13397.67
845.399	13381.17
845.723	13319.71
846.047	13383.66
846.371	13189.09
846.695	13218.01
847.019	13016.66
847.343	13047.17
847.666	12990.45
847.99	12978.7
848.313	12933.05
848.637	12860.74
848.96	12831.13
849.284	12750.23
849.607	12634.07
849.931	12715.2
850.254	12621.65
850.577	12504.13
850.9	12437.02
851.223	12425.04
851.546	12406.28
851.869	12281.99
852.192	12421.88
852.515	12280.64
852.838	12177.14
853.161	12152.51
853.483	12090.13
853.806	12081.09
854.129	12042.23
854.451	12011.04
854.774	11925.39
855.096	11866.41
855.419	11868.44
855.741	11852.4
856.063	11723.82
856.385	11760.88
856.708	11737.37
857.03	11628.45
857.352	11689.01
857.674	11682.24
857.996	11587.32
858.318	11552.75
858.64	11550.26
858.961	11484.05
859.283	11447.89
859.605	11291.96
859.926	11445.18
860.248	11422.58
860.57	11290.83
860.891	11399.76
861.212	11264.39
861.534	11268.91
861.855	11140.78
862.176	11189.82
862.498	11166.99
862.819	11174.68
863.14	11177.39
863.461	11091.74
863.782	11028.24
864.103	11126.09
864.424	11100.78
864.745	11078.18
865.065	10947.11
865.386	10971.75
865.707	10997.28
866.027	10960.9
866.348	10977.85
866.668	10953.67
866.989	10938.98
867.309	10784.86
867.63	10872.31
867.95	10812.65
868.27	10791.64
868.59	10828.92
868.91	10751.41
869.23	10817.4
869.55	10729.94
869.87	10751.41
870.19	10740.79
870.51	10708.7
870.83	10726.1
871.15	10638.65
871.469	10632.55
871.789	10629.16
872.109	10556.62
872.428	10511.64
872.748	10589.16
873.067	10606.11
873.386	10554.13
873.706	10471.42
874.025	10467.8
874.344	10441.82
874.663	10469.84
874.982	10471.42
875.301	10359.56
875.62	10418.77
875.939	10262.16
876.258	10402.49
876.577	10273.23
876.896	10312.1
877.214	10265.32
877.533	10258.32
877.852	10342.84
878.17	10295.38
878.489	10188.94
878.807	10236.4
879.125	10152.33
879.444	10126.57
879.762	10126.57
880.08	10185.33
880.398	10096.51
880.716	10123.86
881.034	10096.51
881.352	10045.67
881.67	10042.5
881.988	10105.1
882.306	10031.43
882.624	9964.54
882.941	9901.27
883.259	9884.54
883.577	9961.83
883.894	9886.58
884.212	9840.48
884.529	9803.19
884.846	9765.22
885.164	9814.71
885.481	9783.53
885.798	9774.04
886.115	9709.86
886.432	9724.09
886.75	9658.11
887.067	9738.11
887.383	9576.08
887.7	9715.96
888.017	9575.62
888.334	9575.17
888.651	9539.24
888.967	9567.26
889.284	9512.35
889.6	9503.31
889.917	9444.78
890.233	9456.53
890.55	9376.08
890.866	9414.27
891.182	9352.8
891.498	9296.54
891.815	9334.27
892.131	9310.09
892.447	9256.08
892.763	9243.43
893.079	9212.92
893.395	9174.28
893.71	9092.92
894.026	9031.01
894.342	9077.56
894.657	9018.58
894.973	9013.38
895.289	9093.6
895.604	8977.9
895.92	8895.42
896.235	8867.17
896.55	8918.01
896.865	8826.49
897.181	8848.86
897.496	8861.52
897.811	8728.64
898.126	8762.54
898.441	8689.09
898.756	8716.21
899.071	8590.79
899.386	8640.06
899.7	8549.44
900.015	8518.25
900.33	8483.9
900.644	8459.5
900.959	8447.97
901.273	8440.51
901.588	8367.52
901.902	8411.13
902.216	8348.99
902.531	8311.7
902.845	8264.25
903.159	8227.18
903.473	8202.55
903.787	8110.8
904.101	8133.4
904.415	8105.15
904.729	8087.75
905.042	8079.84
905.356	8051.14
905.67	8012.28
905.984	7999.39
906.297	7964.82
906.611	7964.59
906.924	7904.26
907.237	7859.06
907.551	7856.57
907.864	7823.35
908.177	7782
908.491	7760.98
908.804	7753.3
909.117	7633.98
909.43	7632.17
909.743	7607.09
910.056	7553.08
910.368	7557.15
910.681	7491.16
910.994	7408.45
911.307	7471.72
911.619	7388.79
911.932	7412.06
912.244	7342.46
912.557	7329.13
912.869	7275.35
913.181	7316.47
913.494	7265.18
913.806	7159.87
914.118	7212.07
914.43	7113.54
914.742	7118.06
915.054	7118.29
915.366	7062.7
915.678	7010.95
915.99	7012.98
916.302	6883.94
916.613	6903.6
916.925	6957.61
917.236	6953.09
917.548	6842.14
917.859	6853.21
918.171	6788.13
918.482	6763.49
918.794	6774.57
919.105	6776.83
919.416	6651.18
919.727	6689.37
920.038	6689.37
920.349	6626.55
920.66	6558.3
920.971	6538.19
921.282	6515.37
921.593	6467.01
921.903	6474.24
922.214	6435.82
922.525	6367.35
922.835	6365.54
923.146	6360.79
923.456	6315.6
923.767	6278.08
924.077	6255.26
924.387	6257.97
924.697	6235.82
925.008	6186.56
925.318	6206.9
925.628	6190.18
925.938	6134.58
926.248	6106.34
926.558	6052.55
926.867	6067.47
927.177	6024.53
927.487	6000.35
927.796	5964.42
928.106	5954.7
928.416	5915.83
928.725	5925.1
929.034	5846.68
929.344	5897.08
929.653	5803.97
929.962	5777.08
930.271	5773.69
930.581	5719.45
930.89	5707.25
931.199	5730.3
931.508	5646.69
931.817	5639.68
932.125	5648.27
932.434	5638.33
932.743	5562.4
933.051	5575.28
933.36	5528.27
933.669	5485.79
933.977	5472.45
934.286	5474.49
934.594	5436.3
934.902	5401.72
935.21	5364.44
935.519	5402.4
935.827	5334.15
936.135	5319.46
936.443	5303.87
936.751	5278.56
937.059	5296.19
937.367	5239.69
937.674	5170.77
937.982	5172.35
938.29	5177.32
938.597	5174.38
938.905	5086.7
939.213	5117.89
939.52	5098.23
939.827	5127.38
940.135	5082.18
940.442	5052.8
940.749	5039.7
941.056	4949.98
941.363	4968.29
941.67	4928.06
941.977	4937.1
942.284	4834.28
942.591	4886.93
942.898	4823.66
943.205	4841.51
943.511	4832.92
943.818	4784.79
944.125	4764.68
944.431	4757.67
944.738	4717.67
945.044	4691.01
945.35	4631.8
945.657	4606.26
945.963	4603.55
946.269	4590.9
946.575	4612.36
946.881	4584.79
947.187	4595.87
947.493	4529.65
947.799	4501.86
948.105	4456.44
948.41	4475.87
948.716	4478.81
949.022	4444.01
949.327	4411.24
949.633	4426.15
949.938	4414.4
950.244	4376.66
950.549	4313.62
950.854	4319.04
951.16	4312.03
951.465	4263.67
951.77	4227.74
952.075	4246.5
952.38	4194.52
952.685	4209.44
952.99	4188.19
953.294	4169.66
953.599	4158.82
953.904	4099.84
954.209	4051.02
954.513	4111.81
954.818	4086.05
955.122	4069.55
955.426	4035.2
955.731	4014.19
956.035	4035.2
956.339	4011.02
956.643	3992.95
956.948	3963.57
957.252	4000.86
957.556	3914.98
957.86	3933.96
958.163	3920.18
958.467	3843.12
958.771	3880.63
959.075	3853.97
959.378	3832.05
959.682	3839.05
959.985	3785.27
960.289	3748.66
960.592	3743.46
960.896	3753.4
961.199	3712.5
961.502	3692.39
961.805	3730.58
962.108	3679.73
962.411	3643.35
962.714	3665.5
963.017	3650.36
963.32	3620.3
963.623	3599.28
963.926	3612.39
964.228	3569
964.531	3565.39
964.833	3529.68
965.136	3529.46
965.438	3536.69
965.741	3504.82
966.043	3497.59
966.345	3490.13
966.648	3482.9
966.95	3439.74
967.252	3417.59
967.554	3420.76
967.856	3418.72
968.158	3395.22
968.46	3366.97
968.761	3335.79
969.063	3336.24
969.365	3354.09
969.666	3312.06
969.968	3285.85
970.269	3277.48
970.571	3261.89
970.872	3244.49
971.174	3243.36
971.475	3224.38
971.776	3217.82
972.077	3187.54
972.378	3186.87
972.679	3147.32
972.98	3176.92
973.281	3124.27
973.582	3129.01
973.883	3096.25
974.183	3079.52
974.484	3108.45
974.785	3076.36
975.085	3073.87
975.386	3054.67
975.686	3021.67
975.986	3007.66
976.287	3006.76
976.587	2983.71
976.887	2974.67
977.187	2985.29
977.487	2957.04
977.787	2960.66
978.087	2942.8
978.387	2911.17
978.687	2910.04
978.987	2885.4
979.286	2843.37
979.586	2843.15
979.885	2850.83
980.185	2837.27
980.484	2805.18
980.784	2773.77
981.083	2814.67
981.382	2776.48
981.682	2821.9
981.981	2721.34
982.28	2723.6
982.579	2722.02
982.878	2715.47
983.177	2756.14
983.475	2713.66
983.774	2667.33
984.073	2664.85
984.372	2639.08
984.67	2639.99
984.969	2647.44
985.267	2613.77
985.566	2599.31
985.864	2595.24
986.162	2604.28
986.461	2590.04
986.759	2535.81
987.057	2530.61
987.355	2530.84
987.653	2511.18
987.951	2502.36
988.249	2528.58
988.547	2525.41
988.844	2459.65
989.142	2510.72
989.44	2432.99
989.737	2453.33
990.035	2439.54
990.332	2444.06
990.63	2409.94
990.927	2405.87
991.224	2370.84
991.521	2411.52
991.819	2392.31
992.116	2373.33
992.413	2364.51
992.71	2333.55
993.006	2371.29
993.303	2340.56
993.6	2338.07
993.897	2279.77
994.193	2284.52
994.49	2272.31
994.787	2270.28
995.083	2280
995.379	2239.77
995.676	2269.15
995.972	2222.14
996.268	2212.43
996.565	2217.17
996.861	2202.71
997.157	2191.64
997.453	2168.81
997.749	2177.63
998.044	2172.88
998.34	2103.5
998.636	2169.72
998.932	2131.53
999.227	2116.16
999.523	2112.77
999.818	2095.82
1000.114	2095.82
1000.409	2047.23
1000.704	2070.06
1001	2021.92
1001.295	2033.45
1001.59	2047.46
1001.885	2053.34
1002.18	2005.2
1002.475	1983.28
1002.77	2002.49
1003.065	1960.68
1003.359	1928.59
1003.654	1928.14
1003.949	1949.38
1004.243	1932.44
1004.538	1931.53
1004.832	1916.62
1005.127	1928.82
1005.421	1881.81
1005.715	1869.84
1006.009	1861.7
1006.304	1882.04
1006.598	1832.78
1006.892	1878.88
1007.186	1836.39
1007.48	1829.39
1007.773	1803.17
1008.067	1787.58
1008.361	1786.9
1008.655	1792.78
1008.948	1751.42
1009.242	1717.75
1009.535	1730.86
1009.829	1749.62
1010.122	1735.83
1010.415	1717.98
1010.708	1708.26
1011.001	1716.4
1011.295	1691.54
1011.588	1688.15
1011.881	1653.8
1012.173	1645.89
1012.466	1653.57
1012.759	1640.01
1013.052	1630.3
1013.344	1643.86
1013.637	1615.83
1013.93	1601.6
1014.222	1584.42
1014.514	1589.62
1014.807	1589.17
1015.099	1567.47
1015.391	1559.34
1015.683	1539
1015.976	1531.77
1016.268	1497.42
1016.56	1519.11
1016.851	1503.52
1017.143	1483.18
1017.435	1500.13
1017.727	1480.47
1018.018	1499.9
1018.31	1491.32
1018.602	1465.33
1018.893	1450.19
1019.185	1441.15
1019.476	1453.35
1019.767	1441.15
1020.058	1403.18
1020.35	1402.73
1020.641	1416.29
1020.932	1379.46
1021.223	1377.87
1021.514	1356.18
1021.804	1369.96
1022.095	1322.51
1022.386	1322.96
1022.677	1344.2
1022.967	1343.75
1023.258	1282.51
1023.548	1318.21
1023.839	1294.49
1024.129	1303.53
1024.419	1272.34
1024.709	1279.8
1025	1274.37
1025.29	1263.75
1025.58	1228.5
1025.87	1242.74
1026.16	1236.18
1026.449	1229.4
1026.739	1200.93
1027.029	1214.49
1027.319	1192.57
1027.608	1185.11
1027.898	1184.66
1028.187	1217.65
1028.477	1175.84
1028.766	1179.01
1029.055	1138.11
1029.344	1150.76
1029.634	1135.62
1029.923	1145.11
1030.212	1136.3
1030.501	1127.94
1030.79	1127.94
1031.078	1113.02
1031.367	1102.63
1031.656	1081.16
1031.945	1075.96
1032.233	1071.21
1032.522	1064.89
1032.81	1073.02
1033.099	1077.32
1033.387	1066.7
1033.675	1070.54
1033.963	1039.58
1034.251	1036.41
1034.54	998.67
1034.828	1020.82
1035.116	1010.43
1035.403	988.96
1035.691	979.69
1035.979	1002.52
1036.267	1005
1036.554	993.02
1036.842	978.56
1037.129	979.92
1037.417	944.89
1037.704	969.52
1037.992	958.9
1038.279	917.55
1038.566	925
1038.853	925
1039.14	925
