Data from hue_270_FLMS001491_00096.txt Node
Date: Tue Feb 07 15:57:57 GMT 2017
User: dcchb
Spectrometer: FLMS00149
Trigger mode: 0
Integration Time (sec): 2.000000E-2
Scans to average: 10
Electric dark correction enabled: true
Nonlinearity correction enabled: false
Boxcar width: 0
XAxis mode: Wavelengths
Number of Pixels in Spectrum: 2048
>>>>>Begin Spectral Data<<<<<
341.393	-14.6
341.776	-14.6
342.16	-14.6
342.543	-64.09
342.927	-64.32
343.31	-62.29
343.693	-73.36
344.077	-65
344.46	-70.2
344.843	-60.93
345.226	-39.91
345.61	-23.42
345.993	-27.49
346.376	4.15
346.759	3.7
347.142	31.04
347.525	42.8
347.908	59.74
348.291	85.51
348.674	92.96
349.057	102.68
349.44	127.77
349.823	143.36
350.206	157.59
350.588	174.09
350.971	219.29
351.354	219.51
351.737	211.38
352.119	239.63
352.502	264.94
352.884	274.43
353.267	276.24
353.65	280.3
354.032	296.12
354.414	296.8
354.797	295.67
355.179	318.04
355.562	314.2
355.944	292.51
356.326	326.18
356.709	324.14
357.091	307.65
357.473	337.48
357.855	325.95
358.238	319.62
358.62	330.92
359.002	328.21
359.384	326.63
359.766	333.86
360.148	323.69
360.53	342
360.912	324.6
361.294	328.21
361.676	327.08
362.057	330.25
362.439	318.95
362.821	329.57
363.203	313.07
363.584	340.41
363.966	335.9
364.348	336.57
364.729	319.4
365.111	290.92
365.493	327.31
365.874	323.47
366.256	304.03
366.637	304.71
367.019	304.26
367.4	323.47
367.781	322.34
368.163	321.43
368.544	309.46
368.925	310.81
369.306	301.55
369.688	309.91
370.069	285.5
370.45	291.6
370.831	302.9
371.212	307.87
371.593	306.74
371.974	306.07
372.355	295.9
372.736	303.13
373.117	309.68
373.498	323.24
373.879	300.19
374.26	299.96
374.641	319.85
375.021	307.65
375.402	292.96
375.783	312.17
376.163	323.47
376.544	325.73
376.925	314.88
377.305	297.03
377.686	339.74
378.066	325.27
378.447	337.03
378.827	326.63
379.208	339.06
379.588	341.77
379.968	313.3
380.349	334.77
380.729	327.31
381.109	322.56
381.489	326.18
381.87	353.97
382.25	314.65
382.63	350.81
383.01	343.13
383.39	349
383.77	332.28
384.15	322.56
384.53	359.62
384.91	320.08
385.29	347.87
385.67	335.44
386.049	330.25
386.429	344.71
386.809	353.52
387.189	357.82
387.568	367.98
387.948	356.69
388.328	362.56
388.707	361.21
389.087	370.92
389.466	358.04
389.846	356.46
390.225	336.57
390.605	359.4
390.984	354.43
391.363	386.29
391.743	374.09
392.122	364.14
392.501	366.63
392.881	363.01
393.26	384.03
393.639	391.26
394.018	381.54
394.397	369.79
394.776	385.39
395.155	398.49
395.534	393.07
395.913	399.17
396.292	387.65
396.671	405.5
397.05	405.72
397.429	401.43
397.808	395.33
398.186	396.46
398.565	424.25
398.944	407.53
399.323	401.88
399.701	411.6
400.08	418.6
400.458	446.17
400.837	424.48
401.215	392.84
401.594	417.47
401.972	419.96
402.351	427.42
402.729	432.16
403.107	429.68
403.486	427.64
403.864	442.11
404.242	452.05
404.62	431.49
404.999	443.46
405.377	466.51
405.755	451.15
406.133	449.34
406.511	438.49
406.889	476.46
407.267	470.35
407.645	473.97
408.023	457.25
408.401	464.25
408.779	494.76
409.156	497.7
409.534	494.76
409.912	496.34
410.29	533.18
410.667	513.97
411.045	511.26
411.422	537.02
411.8	545.61
412.178	539.96
412.555	550.13
412.933	552.39
413.31	560.3
413.687	564.82
414.065	592.61
414.442	588.77
414.819	579.28
415.197	573.4
415.574	621.99
415.951	612.95
416.328	603.01
416.705	607.98
417.082	610.46
417.46	646.85
417.837	617.92
418.214	635.55
418.591	641.88
418.967	664.02
419.344	668.77
419.721	654.08
420.098	667.41
420.475	691.59
420.852	683.68
421.228	697.69
421.605	706.28
421.982	749.44
422.358	729.33
422.735	751.03
423.111	751.93
423.488	752.61
423.864	774.3
424.241	790.12
424.617	786.5
424.994	800.29
425.37	795.09
425.746	815.66
426.123	826.05
426.499	848.88
426.875	846.84
427.251	873.51
427.627	890.46
428.003	872.6
428.379	883.23
428.756	912.6
429.132	908.54
429.507	920.06
429.883	937.91
430.259	919.38
430.635	933.62
431.011	964.81
431.387	967.29
431.763	985.37
432.138	998.02
432.514	997.57
432.89	1006.39
433.265	1055.88
433.641	1087.29
434.016	1071.24
434.392	1086.84
434.767	1107.63
435.143	1122.09
435.518	1146.95
435.894	1135.2
436.269	1154.18
436.644	1194.63
437.02	1213.39
437.395	1231.69
437.77	1257.9
438.145	1250.45
438.52	1271.24
438.895	1280.73
439.271	1284.57
439.646	1324.12
440.021	1339.71
440.395	1344.68
440.77	1348.07
441.145	1335.64
441.52	1389.65
441.895	1388.52
442.27	1413.38
442.645	1395.3
443.019	1392.36
443.394	1440.95
443.769	1467.84
444.143	1455.64
444.518	1487.28
444.892	1452.25
445.267	1508.97
445.641	1508.29
446.016	1505.36
446.39	1512.14
446.764	1524.56
447.139	1535.86
447.513	1547.16
447.887	1565.47
448.262	1584.68
448.636	1564.56
449.01	1586.26
449.384	1634.62
449.758	1613.15
450.132	1628.97
450.506	1638.23
450.88	1636.65
451.254	1651.57
451.628	1655.41
452.002	1691.79
452.376	1690.21
452.75	1725.69
453.123	1744.67
453.497	1725.01
453.871	1733.37
454.244	1778.12
454.618	1785.12
454.992	1800.04
455.365	1833.71
455.739	1838.68
456.112	1870.32
456.486	1863.76
456.859	1863.09
457.232	1896.76
457.606	1897.44
457.979	1935.4
458.352	1954.38
458.725	1988.51
459.099	1981.73
459.472	2012.91
459.845	2036.42
460.218	2058.11
460.591	2090.88
460.964	2068.28
461.337	2120.48
461.71	2151.67
462.083	2170.2
462.456	2157.54
462.829	2186.02
463.201	2177.65
463.574	2233.92
463.947	2247.26
464.32	2298.78
464.692	2292
465.065	2301.27
465.438	2323.64
465.81	2400.93
466.183	2383.98
466.555	2444.77
466.928	2456.52
467.3	2429.85
467.672	2448.83
468.045	2552.11
468.417	2532.22
468.789	2558.21
469.161	2569.96
469.534	2600.02
469.906	2631.88
470.278	2648.15
470.65	2698.54
471.022	2729.28
471.394	2781.48
471.766	2774.93
472.138	2777.86
472.51	2855.83
472.882	2902.16
473.253	2927.92
473.625	2922.27
473.997	3023.06
474.369	3035.71
474.74	3023.96
475.112	3100.34
475.484	3121.81
475.855	3202.49
476.227	3199.1
476.598	3264.18
476.97	3298.76
477.341	3350.51
477.713	3368.81
478.084	3361.58
478.455	3489.94
478.827	3481.8
479.198	3591.4
479.569	3576.26
479.94	3662.59
480.311	3682.25
480.682	3731.06
481.053	3811.06
481.424	3837.05
481.795	3866.88
482.166	3925.41
482.537	3959.75
482.908	4039.07
483.279	4026.87
483.65	4079.98
484.021	4179.64
484.391	4204.72
484.762	4261.89
485.133	4276.81
485.503	4275
485.874	4385.05
486.244	4440.87
486.615	4475
486.985	4508.21
487.356	4604.71
487.726	4636.57
488.097	4722.45
488.467	4712.96
488.837	4790.92
489.207	4802.22
489.578	4871.37
489.948	4890.35
490.318	4992.27
490.688	5011.48
491.058	5058.26
491.428	5086.5
491.798	5168.54
492.168	5199.27
492.538	5195.43
492.908	5266.84
493.278	5352.03
493.648	5293.05
494.017	5400.17
494.387	5415.76
494.757	5453.5
495.126	5485.59
495.496	5507.28
495.866	5527.17
496.235	5546.83
496.605	5644.23
496.974	5673.16
497.344	5702.08
497.713	5684
498.082	5755.64
498.452	5801.06
498.821	5803.1
499.19	5812.36
499.559	5831.34
499.928	5888.29
500.298	5853.26
500.667	5923.77
501.036	5945.69
501.405	5992.02
501.774	6016.42
502.143	5989.76
502.512	6033.6
502.88	6048.06
503.249	6060.72
503.618	6151.79
503.987	6216.64
504.356	6099.36
504.724	6172.8
505.093	6199.02
505.462	6231.79
505.83	6232.46
506.199	6212.8
506.567	6324.21
506.936	6274.27
507.304	6332.12
507.672	6381.61
508.041	6399.01
508.409	6405.34
508.777	6449.63
509.145	6439.92
509.514	6446.69
509.882	6484.66
510.25	6489.86
510.618	6509.97
510.986	6529.4
511.354	6556.52
511.722	6590.19
512.09	6650.53
512.458	6657.08
512.826	6676.07
513.193	6688.95
513.561	6673.58
513.929	6707.93
514.297	6711.32
514.664	6773.24
515.032	6779.12
515.4	6802.84
515.767	6786.12
516.135	6777.99
516.502	6714.71
516.869	6848.72
517.237	6825.22
517.604	6783.64
517.972	6881.26
518.339	6915.61
518.706	6867.02
519.073	6895.5
519.44	6922.39
519.808	7048.94
520.175	6934.82
520.542	6960.35
520.909	7000.35
521.276	6986.79
521.643	7077.41
522.009	7038.54
522.376	7138.88
522.743	7105.43
523.11	7141.14
523.477	7190.4
523.843	7223.85
524.21	7242.38
524.577	7243.96
524.943	7257.75
525.31	7287.12
525.676	7353.11
526.043	7307.69
526.409	7408.93
526.776	7374.35
527.142	7384.3
527.508	7363.28
527.874	7480.57
528.241	7520.56
528.607	7518.31
528.973	7516.27
529.339	7513.79
529.705	7584.74
530.071	7558.3
530.437	7640.56
530.803	7650.28
531.169	7677.4
531.535	7563.05
531.901	7679.2
532.267	7623.61
532.632	7714.68
532.998	7701.8
533.364	7732.54
533.73	7763.04
534.095	7787
534.461	7783.83
534.826	7777.28
535.192	7744.06
535.557	7811.18
535.923	7816.6
536.288	7769.37
536.653	7846.88
537.019	7831.52
537.384	7866.77
537.749	7850.5
538.114	7935.02
538.479	7867.9
538.845	7891.18
539.21	7927.56
539.575	7886.43
539.94	7899.31
540.305	7866.77
540.67	7929.37
541.034	7903.38
541.399	7934.57
541.764	7881.23
542.129	7960.1
542.494	7902.25
542.858	7986.32
543.223	8055.69
543.587	8005.3
543.952	7979.31
544.316	8040.33
544.681	7989.25
545.045	7989.25
545.41	8027.9
545.774	8018.63
546.138	8028.57
546.503	8037.84
546.867	7998.74
547.231	8070.83
547.595	8064.28
547.959	8097.27
548.324	8078.97
548.688	8071.51
549.052	8118.52
549.416	8100.44
549.779	8099.31
550.143	8119.19
550.507	8089.36
550.871	8170.27
551.235	8137.72
551.599	8188.57
551.962	8174.33
552.326	8170.94
552.689	8203.26
553.053	8120.78
553.417	8168.01
553.78	8280.32
554.143	8204.39
554.507	8233.77
554.87	8239.19
555.234	8266.53
555.597	8251.17
555.96	8201.68
556.323	8322.35
556.686	8303.37
557.05	8301.56
557.413	8352.86
557.776	8392.18
558.139	8441.9
558.502	8365.06
558.865	8382.01
559.228	8514.89
559.59	8483.93
559.953	8483.25
560.316	8549.01
560.679	8556.7
561.041	8603.25
561.404	8619.52
561.767	8638.95
562.129	8572.29
562.492	8690.93
562.854	8682.12
563.217	8663.36
563.579	8744.71
563.941	8697.94
564.304	8791.27
564.666	8826.07
565.028	8854.32
565.39	8886.18
565.753	8932.73
566.115	8879.85
566.477	8939.28
566.839	8979.74
567.201	9010.92
567.563	8956.91
567.925	9102.9
568.287	9080.98
568.648	9101.09
569.01	9148.77
569.372	9224.02
569.734	9216.34
570.095	9227.41
570.457	9223.12
570.819	9250.46
571.18	9298.82
571.542	9344.7
571.903	9392.61
572.265	9388.09
572.626	9325.26
572.987	9405.26
573.349	9507.86
573.71	9539.49
574.071	9545.14
574.432	9509.89
574.794	9616.33
575.155	9633.05
575.516	9591.47
575.877	9654.07
576.238	9659.27
576.599	9742.43
576.96	9699.72
577.32	9739.94
577.681	9788.53
578.042	9847.74
578.403	9886.6
578.763	9847.51
579.124	9865.36
579.485	9941.29
579.845	9986.26
580.206	10003.44
580.566	10025.36
580.927	10030.33
581.287	10042.08
581.648	10048.86
582.008	10165.24
582.368	10168.86
582.728	10186.71
583.089	10182.87
583.449	10208.63
583.809	10304.9
584.169	10285.69
584.529	10304.22
584.889	10378.34
585.249	10339.25
585.609	10264.9
585.969	10452.69
586.329	10351
586.688	10416.08
587.048	10435.74
587.408	10494.5
587.768	10467.83
588.127	10566.59
588.487	10501.28
588.846	10641.61
589.206	10604.1
589.565	10586.25
589.925	10666.92
590.284	10700.82
590.643	10725.45
591.003	10727.26
591.362	10792.34
591.721	10807.03
592.08	10807.03
592.44	10886.58
592.799	10881.15
593.158	10949.4
593.517	10866.01
593.876	10977.88
594.235	10886.8
594.593	10876.18
594.952	11043.86
595.311	10983.3
595.67	11039.34
596.029	11123.41
596.387	11066.23
596.746	11076.4
597.104	11106.01
597.463	11095.61
597.822	11130.87
598.18	11108.27
598.538	11094.71
598.897	11135.61
599.255	11113.46
599.613	11262.61
599.972	11186.68
600.33	11212.45
600.688	11174.71
601.046	11253.35
601.404	11316.85
601.762	11213.12
602.12	11335.38
602.478	11328.15
602.836	11357.3
603.194	11337.64
603.552	11331.99
603.91	11317.08
604.268	11376.96
604.625	11273.69
604.983	11375.15
605.341	11309.39
605.698	11457.41
606.056	11478.43
606.413	11314.82
606.771	11424.42
607.128	11431.2
607.485	11391.42
607.843	11465.32
608.2	11505.54
608.557	11488.14
608.914	11540.12
609.272	11520.46
609.629	11538.09
609.986	11598.88
610.343	11576.05
610.7	11582.83
611.057	11597.75
611.414	11603.85
611.771	11581.02
612.127	11700.34
612.484	11570.63
612.841	11675.26
613.198	11650.4
613.554	11696.5
613.911	11809.94
614.267	11726.1
614.624	11613.56
614.98	11704.64
615.337	11826.21
615.693	11771.07
616.05	11745.76
616.406	11815.59
616.762	11702.83
617.118	11810.17
617.475	11787.35
617.831	11828.7
618.187	11851.3
618.543	11880.22
618.899	11964.97
619.255	11967.23
619.611	11863.5
619.967	11883.84
620.323	11877.29
620.678	11833.9
621.034	11848.81
621.39	11850.17
621.746	11885.2
622.101	12024.18
622.457	11890.85
622.812	11927.68
623.168	11894.46
623.523	11950.05
623.879	11942.6
624.234	11875.48
624.589	11921.35
624.945	11887.68
625.3	11947.79
625.655	11867.8
626.01	11965.19
626.365	11952.76
626.72	11958.19
627.075	11916.16
627.43	11918.64
627.785	11770.62
628.14	11826.44
628.495	11921.58
628.85	11937.4
629.205	11826.89
629.559	11936.49
629.914	11888.81
630.269	11909.6
630.623	11823.28
630.978	11847.68
631.332	11791.64
631.687	11933.56
632.041	11771.75
632.396	11793.67
632.75	11825.31
633.104	11825.54
633.459	11721.81
633.813	11736.73
634.167	11751.41
634.521	11667.35
634.875	11746.22
635.229	11677.97
635.583	11622.15
635.937	11647.24
636.291	11605.2
636.645	11653.34
636.999	11603.17
637.352	11619.89
637.706	11581.7
638.06	11621.7
638.413	11494.47
638.767	11523.17
639.121	11555.26
639.474	11516.39
639.828	11516.39
640.181	11580.8
640.534	11517.07
640.888	11487.92
641.241	11460.35
641.594	11510.52
641.947	11487.47
642.301	11479.56
642.654	11516.84
643.007	11418.09
643.36	11435.94
643.713	11397.07
644.066	11500.57
644.419	11428.26
644.771	11323.18
645.124	11273.46
645.477	11285.21
645.83	11147.59
646.182	11096.29
646.535	11056.07
646.888	11068.95
647.24	11025.78
647.593	11062.62
647.945	10986.01
648.298	11010.87
648.65	10945.11
649.002	10967.93
649.355	11061.94
649.707	10935.62
650.059	11068.72
650.411	11190.98
650.763	11235.5
651.115	11380.58
651.467	11308.04
651.819	11286.12
652.171	11276.4
652.523	11186.23
652.875	11226.46
653.227	11242.28
653.578	11288.83
653.93	11165.67
654.282	11244.31
654.633	11143.07
654.985	11205.44
655.337	11224.65
655.688	11184.88
656.039	11288.6
656.391	11149.85
656.742	11232.56
657.094	11171.54
657.445	11251.54
657.796	11167.02
658.147	11144.65
658.498	11168.6
658.849	11248.83
659.2	11231.2
659.551	11232.11
659.902	11253.12
660.253	11182.62
660.604	11269.62
660.955	11199.79
661.306	11228.49
661.656	11199.79
662.007	11173.58
662.358	11250.41
662.708	11222.16
663.059	11230.52
663.409	11211.99
663.76	11237.08
664.11	11268.94
664.461	11264.42
664.811	11289.05
665.161	11204.54
665.511	11210.86
665.862	11260.35
666.212	11321.37
666.562	11242.05
666.912	11183.97
667.262	11231.43
667.612	11251.77
667.962	11202.5
668.312	11224.87
668.662	11134.48
669.011	11218.77
669.361	11187.14
669.711	11155.27
670.06	11184.88
670.41	11173.12
670.76	11125.44
671.109	11214.03
671.459	11167.47
671.808	11172.45
672.157	11125.89
672.507	11065.78
672.856	11171.77
673.205	11086.35
673.554	11164.08
673.904	11097.19
674.253	11129.06
674.602	11104.2
674.951	10967.71
675.3	10910.98
675.649	11056.29
675.998	11052.45
676.346	11052.9
676.695	11095.16
677.044	10978.33
677.393	11049.96
677.741	10970.42
678.09	11014.26
678.438	10956.86
678.787	10995.05
679.135	10932.23
679.484	10910.76
679.832	10996.63
680.181	10895.39
680.529	10941.72
680.877	10812.91
681.225	10837.77
681.573	10907.14
681.922	10810.65
682.27	10863.53
682.618	10774.04
682.966	10772.23
683.314	10779.24
683.661	10727.94
684.009	10754.83
684.357	10672.57
684.705	10646.81
685.053	10656.98
685.4	10683.42
685.748	10536.76
686.095	10610.65
686.443	10537.21
686.79	10573.82
687.138	10489.53
687.485	10469.41
687.832	10434.16
688.18	10460.37
688.527	10402.07
688.874	10422.86
689.221	10306.25
689.568	10342.64
689.915	10339.47
690.262	10341.96
690.609	10240.95
690.956	10148.97
691.303	10264
691.65	10136.77
691.997	10175.86
692.344	10126.37
692.69	10040.95
693.037	10126.15
693.383	9979.03
693.73	10015.64
694.077	9995.3
694.423	9927.73
694.769	9942.65
695.116	9843.67
695.462	9911.91
695.808	9837.11
696.155	9789.88
696.501	9770.45
696.847	9713.5
697.193	9683.9
697.539	9706.95
697.885	9652.94
698.231	9595.54
698.577	9576.78
698.923	9603.45
699.269	9448.42
699.614	9442.1
699.96	9410.01
700.306	9473.06
700.651	9408.88
700.997	9361.87
701.342	9318.48
701.688	9328.65
702.033	9252.72
702.379	9273.51
702.724	9180.86
703.069	9290.91
703.415	9101.31
703.76	9084.37
704.105	9101.99
704.45	9097.7
704.795	9001.88
705.14	9027.19
705.485	8960.53
705.83	8942.67
706.175	8956.46
706.52	8917.82
706.865	8929.12
707.209	8826.29
707.554	8796.92
707.899	8832.85
708.243	8850.93
708.588	8784.94
708.932	8720.99
709.277	8728.44
709.621	8679.63
709.966	8672.4
710.31	8646.86
710.654	8598.28
710.998	8589.46
711.342	8568.45
711.687	8619.75
712.031	8552.85
712.375	8500.2
712.719	8539.97
713.063	8500.65
713.407	8504.04
713.75	8476.25
714.094	8416.13
714.438	8403.25
714.782	8397.83
715.125	8391.73
715.469	8448.9
715.812	8392.63
716.156	8388.56
716.499	8346.53
716.843	8317.38
717.186	8356.25
717.53	8306.76
717.873	8346.98
718.216	8323.71
718.559	8244.39
718.902	8222.69
719.246	8245.29
719.589	8243.71
719.932	8144.73
720.275	8241.22
720.617	8179.3
720.96	8123.26
721.303	8146.54
721.646	8120.32
721.989	8127.55
722.331	8171.17
722.674	8092.3
723.016	8153.77
723.359	8105.18
723.701	8113.54
724.044	8014.79
724.386	8023.38
724.729	8057.27
725.071	8073.77
725.413	8052.3
725.755	7993.77
726.097	7961.23
726.439	7972.08
726.782	7954.23
727.124	8026.54
727.465	7944.73
727.807	7968.01
728.149	7975.02
728.491	7953.32
728.833	8041
729.175	7941.57
729.516	7923.94
729.858	7955.58
730.199	7958.52
730.541	7953.1
730.882	7900.67
731.224	7963.49
731.565	7804.17
731.906	7902.48
732.248	7918.07
732.589	7892.76
732.93	7874.91
733.271	7848.92
733.612	7857.28
733.953	7885.08
734.294	7845.75
734.635	7835.36
734.976	7898.18
735.317	7841.23
735.658	7847.34
735.999	7889.37
736.339	7835.36
736.68	7859.09
737.021	7761.91
737.361	7878.52
737.702	7879.2
738.042	7824.06
738.383	7858.86
738.723	7904.28
739.063	7860.22
739.404	7939.09
739.744	7880.1
740.084	7882.14
740.424	7996.94
740.764	7940.44
741.104	7928.46
741.444	7887.33
741.784	7951.74
742.124	7946.54
742.464	7963.49
742.804	7994.68
743.143	7988.58
743.483	8021.57
743.823	8011.85
744.162	8051.17
744.502	8018.63
744.841	8039.2
745.181	8165.75
745.52	8091.62
745.86	8205.97
746.199	8210.49
746.538	8201.68
746.877	8295.46
747.216	8299.98
747.556	8310.37
747.895	8473.76
748.234	8414.33
748.573	8426.08
748.911	8459.52
749.25	8582.23
749.589	8539.75
749.928	8586.98
750.267	8707.43
750.605	8745.39
750.944	8755.11
751.283	8862
751.621	8947.65
751.96	8948.55
752.298	9090.47
752.636	9162.78
752.975	9170.92
753.313	9191.93
753.651	9340.18
753.989	9357.58
754.327	9559.38
754.666	9617.68
755.004	9784.23
755.342	9807.28
755.679	9915.53
756.017	10048.41
756.355	10138.58
756.693	10241.17
757.031	10442.75
757.368	10568.17
757.706	10609.3
758.044	10740.82
758.381	10945.11
758.719	11038.66
759.056	11210.64
759.394	11284.53
759.731	11485.43
760.068	11592.32
760.405	11671.87
760.743	11794.58
761.08	12072.08
761.417	12210.61
761.754	12351.62
762.091	12470.04
762.428	12613.31
762.765	12762.24
763.102	12948.22
763.438	12985.51
763.775	13244.71
764.112	13372.84
764.449	13523.34
764.785	13632.27
765.122	13801.76
765.458	13893.5
765.795	14110.22
766.131	14222.76
766.467	14206.26
766.804	14492.13
767.14	14544.34
767.476	14772.13
767.812	14756.98
768.148	14926.02
768.485	15102.06
768.821	15154.71
769.157	15366.01
769.492	15421.6
769.828	15599
770.164	15676.96
770.5	15737.3
770.836	15867.24
771.171	15886.22
771.507	15999.21
771.842	16040.57
772.178	16227
772.513	16252.54
772.849	16328.02
773.184	16375.7
773.519	16530.27
773.855	16535.02
774.19	16658.86
774.525	16706.54
774.86	16797.16
775.195	16838.29
775.53	16947.44
775.865	16908.79
776.2	16836.03
776.535	16901.34
776.87	16987.89
777.205	17008.68
777.539	17024.5
777.874	17150.82
778.209	17072.63
778.543	17158.28
778.878	17120.54
779.212	17191.5
779.547	17197.15
779.881	17343.81
780.215	17198.05
780.55	17286.64
780.884	17262
781.218	17366.18
781.552	17334.32
781.886	17291.16
782.22	17378.38
782.554	17295.68
782.888	17245.96
783.222	17193.98
783.556	17207.99
783.889	17375.67
784.223	17175.45
784.557	17224.26
784.89	17322.12
785.224	17156.24
785.557	17109.24
785.891	17107.66
786.224	17179.07
786.558	17355.79
786.891	17100.88
787.224	17091.84
787.557	17031.95
787.891	17014.1
788.224	17082.8
788.557	17091.84
788.89	17089.35
789.223	17059.98
789.556	16908.34
789.888	16975.01
790.221	16946.76
790.554	16852.3
790.887	16901.56
791.219	16803.03
791.552	16826.53
791.884	16763.26
792.217	16793.77
792.549	16777.04
792.882	16717.39
793.214	16575.92
793.546	16741.34
793.879	16542.93
794.211	16474.91
794.543	16587.45
794.875	16631.96
795.207	16538.18
795.539	16500.67
795.871	16550.61
796.203	16354.01
796.535	16279.88
796.867	16333.89
797.198	16305.42
797.53	16228.36
797.862	16222.26
798.193	16128.02
798.525	16076.27
798.856	16104.29
799.188	16014.35
799.519	16017.74
799.85	15883.06
800.182	15957.18
800.513	16003.96
800.844	15854.36
801.175	15881.02
801.506	15934.58
801.837	15854.58
802.168	15796.05
802.499	15790.18
802.83	15633.35
803.161	15591.77
803.491	15667.47
803.822	15609.17
804.153	15596.96
804.483	15460.47
804.814	15375.27
805.145	15411.43
805.475	15435.16
805.805	15370.98
806.136	15395.61
806.466	15364.65
806.796	15309.51
807.126	15242.17
807.457	15250.76
807.787	15176.18
808.117	15154.49
808.447	15155.84
808.777	15215.96
809.107	15089.86
809.436	15069.75
809.766	15061.84
810.096	14966.92
810.426	14944.55
810.755	14953.36
811.085	14961.05
811.414	14930.31
811.744	14804.89
812.073	14780.71
812.403	14823.2
812.732	14649.87
813.061	14739.13
813.39	14531.91
813.719	14615.97
814.049	14691.9
814.378	14681.73
814.707	14606.93
815.036	14588.4
815.365	14499.36
815.693	14395.86
816.022	14512.47
816.351	14404.9
816.68	14298.47
817.008	14394.96
817.337	14213.27
817.665	14199.26
817.994	14230.45
818.322	14279.71
818.651	14159.26
818.979	14108.19
819.307	14232.7
819.636	14123.78
819.964	14016.21
820.292	14120.17
820.62	14099.6
820.948	14066.38
821.276	14122.2
821.604	13984.8
821.932	14032.03
822.259	14084.46
822.587	13984.35
822.915	14050.56
823.243	14068.19
823.57	14053.73
823.898	14079.26
824.225	14037
824.553	14020.73
824.88	14014.63
825.207	14119.71
825.535	14065.48
825.862	14067.96
826.189	14028.19
826.516	14070.9
826.843	14047.17
827.17	14115.87
827.497	14058.7
827.824	14054.86
828.151	14063.22
828.478	14027.29
828.805	14102.09
829.131	14074.52
829.458	14034.07
829.785	13980.06
830.111	14045.14
830.438	14156.32
830.764	14072.03
831.09	14087.85
831.417	13916.78
831.743	14123.78
832.069	14095.76
832.395	14038.81
832.722	13994.07
833.048	14010.34
833.374	14016.44
833.7	13952.49
834.026	13943.45
834.351	14038.81
834.677	13965.14
835.003	14015.31
835.329	13927.4
835.654	13917.91
835.98	13897.57
836.306	13954.75
836.631	13858.03
836.956	13916.33
837.282	13831.81
837.607	13799.04
837.932	13796.33
838.258	13854.64
838.583	13766.73
838.908	13673.4
839.233	13706.39
839.558	13700.74
839.883	13651.48
840.208	13648.31
840.533	13621.42
840.858	13544.36
841.182	13623.91
841.507	13561.31
841.832	13509.11
842.156	13465.72
842.481	13469.56
842.805	13458.26
843.13	13446.96
843.454	13363.8
843.778	13388.21
844.103	13341.65
844.427	13304.82
844.751	13216.01
845.075	13253.97
845.399	13225.95
845.723	13148.67
846.047	13145.73
846.371	13047.2
846.695	13030.02
847.019	12947.09
847.343	12886.53
847.666	12780.77
847.99	12781.44
848.313	12767.43
848.637	12691.95
848.96	12666.19
849.284	12602.47
849.607	12479.98
849.931	12523.6
850.254	12447.22
850.577	12408.12
850.9	12268.46
851.223	12239.99
851.546	12267.33
851.869	12161.35
852.192	12200.67
852.515	12041.8
852.838	12083.61
853.161	12034.12
853.483	12026.89
853.806	11989.83
854.129	11991.18
854.451	11921.13
854.774	11860.56
855.096	11826.21
855.419	11700.57
855.741	11699.21
856.063	11668.7
856.385	11643.39
856.708	11723.39
857.03	11626.9
857.352	11629.61
857.674	11546.22
857.996	11506.67
858.318	11409.05
858.64	11404.08
858.961	11332.89
859.283	11272.78
859.605	11346
859.926	11353.68
860.248	11284.76
860.57	11246.57
860.891	11258.55
861.212	11227.13
861.534	11147.59
861.855	11083.86
862.176	11078.44
862.498	11107.82
862.819	11126.35
863.14	11051.55
863.461	11071.88
863.782	10927.71
864.103	11011.32
864.424	10950.31
864.745	10955.95
865.065	10932.9
865.386	10937.88
865.707	10868.95
866.027	10924.54
866.348	10883.41
866.668	10866.24
866.989	10883.64
867.309	10685.45
867.63	10794.15
867.95	10751.44
868.27	10683.19
868.59	10687.49
868.91	10683.65
869.23	10714.61
869.55	10606.13
869.87	10651.33
870.19	10704.89
870.51	10626.25
870.83	10585.12
871.15	10513.03
871.469	10614.72
871.789	10581.05
872.109	10548.51
872.428	10486.14
872.748	10501.05
873.067	10495.18
873.386	10508.73
873.706	10467.83
874.025	10441.39
874.344	10345.8
874.663	10407.49
874.982	10335.63
875.301	10300.15
875.62	10301.51
875.939	10288.4
876.258	10279.14
876.577	10278.91
876.896	10322.07
877.214	10260.61
877.533	10285.01
877.852	10208.18
878.17	10236.2
878.489	10164.79
878.807	10237.78
879.125	10156.65
879.444	10168.86
879.762	10038.01
880.08	10063.77
880.398	10029.43
880.716	10054.96
881.034	9987.39
881.352	10044.11
881.67	10034.17
881.988	9934.51
882.306	10006.83
882.624	9922.08
882.941	9882.76
883.259	9761.64
883.577	9845.48
883.894	9806.83
884.212	9793.05
884.529	9808.64
884.846	9833.72
885.164	9782.65
885.481	9659.72
885.798	9754.86
886.115	9693.62
886.432	9623.56
886.75	9605.93
887.067	9667.63
887.383	9618.36
887.7	9601.19
888.017	9528.2
888.334	9544.24
888.651	9455.88
888.967	9497.46
889.284	9449.78
889.6	9432.38
889.917	9332.72
890.233	9391.02
890.55	9363
890.866	9389.89
891.182	9256.79
891.498	9209.79
891.815	9233.29
892.131	9204.59
892.447	9150.13
892.763	9122.56
893.079	9120.97
893.395	9037.81
893.71	9123.91
894.026	9005.5
894.342	8992.39
894.657	8949
894.973	8881.21
895.289	8910.81
895.604	8844.15
895.92	8831.26
896.235	8780.19
896.55	8818.16
896.865	8744.71
897.181	8723.7
897.496	8755.11
897.811	8685.05
898.126	8626.07
898.441	8516.7
898.756	8615.45
899.071	8541.78
899.386	8563.7
899.7	8483.25
900.015	8454.33
900.33	8372.29
900.644	8402.8
900.959	8445.96
901.273	8357.38
901.588	8360.32
901.902	8233.31
902.216	8248
902.531	8193.09
902.845	8209.13
903.159	8121.68
903.473	8072.19
903.787	8049.59
904.101	7984.73
904.415	8032.42
904.729	8009.59
905.042	7948.12
905.356	7968.24
905.67	7939.54
905.984	7925.3
906.297	7845.08
906.611	7841.23
906.924	7767.56
907.237	7804.63
907.551	7772.76
907.864	7721.92
908.177	7689.6
908.491	7657.96
908.804	7547
909.117	7532.32
909.43	7502.49
909.743	7561.92
910.056	7481.47
910.368	7410.06
910.681	7379.55
910.994	7400.79
911.307	7365.99
911.619	7285.77
911.932	7327.12
912.244	7271.08
912.557	7308.59
912.869	7184.98
913.181	7160.57
913.494	7198.09
913.806	7092.55
914.118	7122.16
914.43	7084.64
914.742	7069.96
915.054	6985.66
915.366	6970.52
915.678	6901.82
915.99	6928.49
916.302	6841.71
916.613	6886.46
916.925	6817.98
917.236	6822.96
917.548	6800.36
917.859	6811.21
918.171	6679.68
918.482	6652.57
918.794	6663.64
919.105	6650.53
919.416	6588.84
919.727	6546.81
920.038	6582.96
920.349	6529.63
920.66	6519.69
920.971	6481.95
921.282	6466.13
921.593	6412.35
921.903	6356.75
922.214	6391.78
922.525	6349.52
922.835	6348.84
923.146	6217.1
923.456	6236.53
923.767	6267.49
924.077	6250.32
924.387	6176.19
924.697	6153.82
925.008	6143.88
925.318	6143.88
925.628	6135.97
925.938	6085.35
926.248	6028.63
926.558	5995.41
926.867	6019.36
927.177	5995.18
927.487	5900.27
927.796	5928.06
928.106	5903.21
928.416	5872.92
928.725	5860.5
929.034	5802.87
929.344	5835.64
929.653	5786.6
929.962	5765.81
930.271	5698.69
930.581	5642.2
930.89	5657.79
931.199	5678.13
931.508	5639.71
931.817	5599.49
932.125	5599.94
932.434	5608.52
932.743	5518.58
933.051	5543.67
933.36	5508.41
933.669	5474.97
933.977	5486.27
934.286	5412.82
934.594	5443.33
934.902	5383.45
935.21	5333.28
935.519	5329.66
935.827	5342.09
936.135	5267.29
936.443	5252.83
936.751	5267.52
937.059	5258.48
937.367	5238.37
937.674	5151.36
937.982	5178.25
938.29	5175.99
938.597	5142.32
938.905	5100.29
939.213	5060.06
939.52	5088.09
939.827	5102.32
940.135	5002.44
940.442	5030.01
940.749	5001.76
941.056	5004.7
941.363	4918.15
941.67	4912.95
941.977	4895.55
942.284	4822.1
942.591	4864.14
942.898	4816.46
943.205	4831.82
943.511	4756.34
943.818	4766.06
944.125	4758.6
944.431	4684.48
944.738	4687.87
945.044	4701.2
945.35	4674.54
945.657	4660.3
945.963	4571.26
946.269	4618.49
946.575	4598.83
946.881	4537.82
947.187	4559.06
947.493	4548.67
947.799	4542.11
948.105	4497.14
948.41	4479.97
948.716	4470.93
949.022	4433.41
949.327	4382.57
949.633	4383.47
949.938	4408.1
950.244	4402.23
950.549	4285.62
950.854	4307.09
951.16	4307.99
951.465	4289.46
951.77	4274.1
952.075	4265.96
952.38	4224.38
952.685	4213.31
952.99	4181.44
953.294	4110.49
953.599	4131.28
953.904	4117.94
954.209	4106.42
954.513	4100.77
954.818	4079.3
955.122	4088.34
955.426	4037.04
955.731	4043.59
956.035	3945.29
956.339	3978.74
956.643	3997.04
956.948	3993.65
957.252	3909.59
957.556	3934.9
957.86	3911.39
958.163	3915.91
958.467	3885.41
958.771	3883.6
959.075	3855.58
959.378	3820.55
959.682	3829.36
959.985	3769.7
960.289	3816.48
960.592	3806.99
960.896	3763.38
961.199	3718.41
961.502	3752.75
961.805	3698.29
962.108	3711.4
962.411	3725.41
962.714	3619.88
963.017	3593.44
963.32	3694.68
963.623	3589.82
963.926	3603.83
964.228	3577.39
964.531	3563.15
964.833	3552.76
965.136	3538.07
965.438	3524.96
965.741	3563.83
966.043	3504.63
966.345	3483.16
966.648	3505.3
966.95	3447.9
967.252	3421.01
967.554	3362.03
967.856	3401.35
968.158	3378.75
968.46	3370.62
968.761	3318.42
969.063	3387.57
969.365	3308.02
969.666	3312.77
969.968	3263.5
970.269	3253.33
970.571	3285.2
970.872	3269.6
971.174	3221.02
971.475	3222.37
971.776	3202.49
972.077	3166.1
972.378	3195.03
972.679	3161.81
972.98	3174.24
973.281	3138.99
973.582	3086.56
973.883	3106.9
974.183	3098.08
974.484	3076.84
974.785	3074.81
975.085	3056.5
975.386	3066.67
975.686	3063.51
975.986	3033.23
976.287	3022.83
976.587	2995.26
976.887	2980.12
977.187	2974.24
977.487	2959.55
977.787	2935.15
978.087	2914.13
978.387	2902.16
978.687	2893.57
978.987	2867.81
979.286	2903.74
979.586	2892.89
979.885	2879.78
980.185	2847.02
980.484	2840.46
980.784	2794.14
981.083	2777.41
981.382	2771.31
981.682	2802.95
981.981	2763.85
982.28	2763.63
982.579	2730.41
982.878	2729.73
983.177	2712.1
983.475	2725.44
983.774	2699.22
984.073	2671.43
984.372	2680.24
984.67	2665.1
984.969	2637.08
985.267	2614.48
985.566	2602.5
985.864	2596.17
986.162	2593.01
986.461	2595.27
986.759	2588.49
987.057	2564.76
987.355	2554.14
987.653	2535.39
987.951	2529.51
988.249	2506.69
988.547	2534.48
988.844	2482.05
989.142	2458.78
989.44	2466.01
989.737	2464.43
990.035	2424.2
990.332	2426.69
990.63	2390.76
990.927	2418.33
991.224	2367.48
991.521	2374.94
991.819	2373.36
992.116	2374.26
992.413	2310.53
992.71	2380.59
993.006	2331.55
993.303	2308.05
993.6	2341.72
993.897	2313.02
994.193	2321.38
994.49	2297.2
994.787	2273.25
995.083	2256.07
995.379	2255.62
995.676	2249.29
995.972	2248.61
996.268	2207.26
996.565	2180.37
996.861	2188.73
997.157	2180.59
997.453	2179.24
997.749	2125.9
998.044	2148.05
998.34	2146.47
998.636	2125.9
998.932	2124.32
999.227	2096.07
999.523	2070.99
999.818	2078.22
1000.114	2075.28
1000.409	2073.93
1000.704	2061.5
1001	2039.81
1001.295	2045.45
1001.59	1992.35
1001.885	2000.71
1002.18	1977.21
1002.475	1993.7
1002.77	2010.65
1003.065	1948.96
1003.359	1984.67
1003.654	1943.76
1003.949	1908.74
1004.243	1915.29
1004.538	1899.02
1004.832	1904.67
1005.127	1908.96
1005.421	1867.61
1005.715	1823.77
1006.009	1864.44
1006.304	1818.57
1006.598	1813.14
1006.892	1798.91
1007.186	1810.43
1007.48	1818.79
1007.773	1777.44
1008.067	1816.31
1008.361	1737.44
1008.655	1782.41
1008.948	1761.62
1009.242	1751.68
1009.535	1714.39
1009.829	1770.66
1010.122	1723.2
1010.415	1693.83
1010.708	1690.44
1011.001	1704.67
1011.295	1711
1011.588	1656.76
1011.881	1660.15
1012.173	1638.69
1012.466	1642.98
1012.759	1656.54
1013.052	1626.26
1013.344	1607.95
1013.637	1578.12
1013.93	1585.58
1014.222	1536.77
1014.514	1578.12
1014.807	1545.13
1015.099	1518.46
1015.391	1569.08
1015.683	1519.14
1015.976	1542.64
1016.268	1521.63
1016.56	1506.26
1016.851	1487.05
1017.143	1474.4
1017.435	1473.72
1017.727	1460.61
1018.018	1466.26
1018.31	1454.51
1018.602	1454.28
1018.893	1419.26
1019.185	1407.28
1019.476	1407.51
1019.767	1378.58
1020.058	1404.34
1020.35	1389.2
1020.641	1349.2
1020.932	1348.98
1021.223	1358.24
1021.514	1334.29
1021.804	1324.12
1022.095	1325.7
1022.386	1324.34
1022.677	1320.95
1022.967	1315.3
1023.258	1301.52
1023.548	1306.27
1023.839	1288.41
1024.129	1282.31
1024.419	1254.52
1024.709	1259.71
1025	1248.64
1025.29	1232.82
1025.58	1205.48
1025.87	1210.9
1026.16	1204.8
1026.449	1238.02
1026.739	1213.61
1027.029	1205.7
1027.319	1183.33
1027.608	1174.74
1027.898	1184.91
1028.187	1151.47
1028.477	1162.31
1028.766	1152.82
1029.055	1144.24
1029.344	1142.43
1029.634	1133.16
1029.923	1121.86
1030.212	1112.37
1030.501	1082.09
1030.79	1109.21
1031.078	1087.06
1031.367	1091.13
1031.656	1057.46
1031.945	1074.18
1032.233	1071.69
1032.522	1066.05
1032.81	1033.5
1033.099	1059.27
1033.387	1050.23
1033.675	1033.5
1033.963	1041.19
1034.251	1035.76
1034.54	1006.61
1034.828	990.79
1035.116	984.24
1035.403	1000.51
1035.691	989.21
1035.979	954.18
1036.267	973.17
1036.554	951.47
1036.842	971.13
1037.129	970.68
1037.417	917.35
1037.704	940.85
1037.992	924.35
1038.279	937.01
1038.566	935.43
1038.853	935.43
1039.14	935.43
