Data from hue_34_FLMS001491_00054.txt Node
Date: Tue Feb 07 17:25:49 GMT 2017
User: dcchb
Spectrometer: FLMS00149
Trigger mode: 0
Integration Time (sec): 2.000000E-2
Scans to average: 10
Electric dark correction enabled: true
Nonlinearity correction enabled: false
Boxcar width: 0
XAxis mode: Wavelengths
Number of Pixels in Spectrum: 2048
>>>>>Begin Spectral Data<<<<<
341.393	2.05
341.776	2.05
342.16	2.05
342.543	-54.22
342.927	-71.85
343.31	-62.81
343.693	-69.36
344.077	-71.85
344.46	-70.04
344.843	-55.35
345.226	-35.24
345.61	-33.43
345.993	-23.94
346.376	10.18
346.759	13.12
347.142	43.18
347.525	42.05
347.908	64.19
348.291	61.93
348.674	94.93
349.057	92.44
349.44	141.03
349.823	142.38
350.206	171.99
350.588	199.78
350.971	212.89
351.354	232.78
351.737	242.95
352.119	255.37
352.502	264.64
352.884	281.36
353.267	286.79
353.65	305.32
354.032	295.37
354.414	313.68
354.797	342.15
355.179	327.46
355.562	335.37
355.944	334.92
356.326	325.66
356.709	348.03
357.091	320.68
357.473	335.82
357.855	334.69
358.238	336.95
358.62	350.97
359.002	334.24
359.384	346.9
359.766	334.02
360.148	374.24
360.53	361.81
360.912	346.67
361.294	355.03
361.676	328.14
362.057	349.61
362.439	357.29
362.821	340.8
363.203	327.69
363.584	317.97
363.966	341.47
364.348	339.21
364.729	314.36
365.111	308.03
365.493	350.29
365.874	322.27
366.256	330.85
366.637	306.22
367.019	315.94
367.4	340.57
367.781	329.27
368.163	321.36
368.544	305.54
368.925	301.7
369.306	313.45
369.688	320.46
370.069	308.71
370.45	304.64
370.831	325.2
371.212	318.88
371.593	314.13
371.974	332.89
372.355	321.81
372.736	317.29
373.117	333.79
373.498	336.05
373.879	319.1
374.26	317.75
374.641	315.94
375.021	311.87
375.402	332.43
375.783	316.39
376.163	325.2
376.544	323.4
376.925	348.03
377.305	334.24
377.686	334.92
378.066	336.95
378.447	317.29
378.827	327.69
379.208	339.44
379.588	334.92
379.968	322.94
380.349	332.43
380.729	324.53
381.109	364.07
381.489	330.63
381.87	328.59
382.25	319.78
382.63	351.19
383.01	336.73
383.39	341.93
383.77	335.82
384.15	308.93
384.53	330.4
384.91	335.15
385.29	360
385.67	338.31
386.049	362.94
386.429	324.53
386.809	353.9
387.189	338.76
387.568	348.03
387.948	337.41
388.328	358.42
388.707	375.15
389.087	365.88
389.466	370.4
389.846	375.82
390.225	347.8
390.605	365.43
390.984	369.27
391.363	363.62
391.743	370.4
392.122	352.32
392.501	364.75
392.881	368.82
393.26	376.05
393.639	375.82
394.018	370.63
394.397	390.06
394.776	371.08
395.155	373.34
395.534	384.18
395.913	379.89
396.292	394.13
396.671	377.86
397.05	407.46
397.429	382.15
397.808	370.63
398.186	386.44
398.565	414.24
398.944	393.45
399.323	396.84
399.701	402.04
400.08	385.31
400.458	395.48
400.837	392.77
401.215	420.79
401.594	402.72
401.972	410.85
402.351	394.81
402.729	415.6
403.107	374.24
403.486	405.65
403.864	408.36
404.242	415.37
404.62	431.87
404.999	439.55
405.377	415.14
405.755	413.11
406.133	437.29
406.511	413.56
406.889	437.29
407.267	438.42
407.645	435.48
408.023	440.45
408.401	452.21
408.779	434.13
409.156	445.2
409.534	447.01
409.912	428.7
410.29	464.86
410.667	448.82
411.045	440.23
411.422	461.24
411.8	459.89
412.178	462.15
412.555	463.5
412.933	469.83
413.31	480.23
413.687	457.4
414.065	473.67
414.442	473
414.819	485.43
415.197	487.68
415.574	488.14
415.951	505.31
416.328	484.3
416.705	486.33
417.082	506.44
417.46	501.24
417.837	508.02
418.214	522.26
418.591	517.51
418.967	492.88
419.344	513.9
419.721	515.03
420.098	508.02
420.475	534.69
420.852	534.46
421.228	523.62
421.605	515.48
421.982	524.75
422.358	529.27
422.735	545.76
423.111	557.97
423.488	562.49
423.864	547.34
424.241	571.52
424.617	570.39
424.994	562.49
425.37	549.6
425.746	561.81
426.123	587.8
426.499	581.02
426.875	554.8
427.251	576.72
427.627	596.61
428.003	592.99
428.379	588.47
428.756	605.42
429.132	598.64
429.507	609.26
429.883	617.85
430.259	638.19
430.635	611.52
431.011	637.96
431.387	632.77
431.763	636.38
432.138	637.29
432.514	650.62
432.89	621.92
433.265	655.36
433.641	664.4
434.016	657.4
434.392	677.74
434.767	689.71
435.143	689.71
435.518	691.52
435.894	692.88
436.269	688.36
436.644	712.99
437.02	714.57
437.395	680.67
437.77	714.8
438.145	724.51
438.52	738.98
438.895	743.72
439.271	734.01
439.646	750.95
440.021	765.87
440.395	734.46
440.77	752.08
441.145	732.88
441.52	773.1
441.895	768.81
442.27	780.11
442.645	795.47
443.019	791.63
443.394	779.65
443.769	768.36
444.143	800.22
444.518	821.91
444.892	797.28
445.267	790.73
445.641	807.9
446.016	796.6
446.39	785.76
446.764	805.64
447.139	807.9
447.513	811.52
447.887	830.27
448.262	805.19
448.636	841.8
449.01	841.57
449.384	841.35
449.758	848.81
450.132	880.67
450.506	855.13
450.88	877.28
451.254	875.47
451.628	861.23
452.002	874.79
452.376	885.64
452.75	905.3
453.123	901.91
453.497	916.37
453.871	935.36
454.244	932.87
454.618	923.61
454.992	961.12
455.365	943.04
455.739	986.88
456.112	972.19
456.486	978.75
456.859	992.3
457.232	1035.69
457.606	1027.56
457.979	1014.22
458.352	1051.29
458.725	1058.97
459.099	1066.43
459.472	1069.82
459.845	1081.12
460.218	1083.83
460.591	1101.91
460.964	1101.45
461.337	1129.25
461.71	1136.03
462.083	1163.37
462.456	1173.32
462.829	1168.12
463.201	1171.73
463.574	1180.1
463.947	1201.11
464.32	1217.61
464.692	1239.08
465.065	1264.39
465.438	1264.61
465.81	1285.18
466.183	1306.65
466.555	1326.08
466.928	1313.88
467.3	1329.24
467.672	1347.55
468.045	1377.38
468.417	1385.74
468.789	1438.39
469.161	1445.63
469.534	1482.91
469.906	1463.03
470.278	1512.52
470.65	1533.99
471.022	1564.49
471.394	1563.81
471.766	1601.1
472.138	1630.93
472.51	1654.21
472.882	1674.09
473.253	1711.38
473.625	1762.91
473.997	1798.61
474.369	1786.18
474.74	1844.71
475.112	1867.08
475.484	1878.61
475.855	1916.35
476.227	1966.97
476.598	2026.4
476.97	2041.77
477.341	2130.35
477.713	2131.71
478.084	2164.93
478.455	2236.11
478.827	2281.31
479.198	2383.23
479.569	2406.28
479.94	2475.43
480.311	2509.55
480.682	2604.92
481.053	2639.04
481.424	2736.44
481.795	2778.25
482.166	2837.91
482.537	2881.75
482.908	2963.33
483.279	3034.51
483.65	3072.02
484.021	3184.11
484.391	3257.56
484.762	3297.33
485.133	3346.82
485.503	3395.63
485.874	3510.66
486.244	3606.7
486.615	3705.91
486.985	3779.12
487.356	3876.3
487.726	3952.9
488.097	4085.33
488.467	4119.68
488.837	4168.94
489.207	4286.23
489.578	4412.78
489.948	4469.95
490.318	4576.84
490.688	4649.84
491.058	4732.55
491.428	4831.75
491.798	4925.31
492.168	5031.29
492.538	5128.47
492.908	5167.34
493.278	5284.17
493.648	5341.34
494.017	5426.54
494.387	5545.86
494.757	5622.47
495.126	5677.83
495.496	5733.65
495.866	5788.79
496.235	5913.53
496.605	6013.42
496.974	6065.17
497.344	6179.74
497.713	6216.35
498.082	6265.39
498.452	6386.06
498.821	6428.77
499.19	6516.23
499.559	6498.6
499.928	6649.33
500.298	6703.34
500.667	6802.55
501.036	6827.41
501.405	6948.08
501.774	6961.86
502.143	7118.47
502.512	7088.87
502.88	7162.99
503.249	7253.83
503.618	7241.41
503.987	7338.35
504.356	7429.42
504.724	7478.01
505.093	7544.22
505.462	7569.76
505.83	7659.7
506.199	7751.9
506.567	7878.23
506.936	7833.71
507.304	7931.78
507.672	8049.75
508.041	8061.5
508.409	8075.06
508.777	8143.98
509.145	8232.79
509.514	8242.96
509.882	8319.34
510.25	8336.74
510.618	8408.38
510.986	8445.22
511.354	8465.33
511.722	8644.76
512.09	8665.32
512.458	8634.36
512.826	8708.94
513.193	8811.08
513.561	8832.78
513.929	8906.67
514.297	9027.57
514.664	9019.89
515.032	9047.69
515.4	9112.77
515.767	9159.55
516.135	9261.01
516.502	9229.38
516.869	9306.89
517.237	9467.11
517.604	9342.59
517.972	9448.58
518.339	9512.31
518.706	9543.04
519.073	9564.06
519.44	9597.5
519.808	9731.96
520.175	9742.81
520.542	9835.91
520.909	9854.44
521.276	9917.95
521.643	10032.07
522.009	10074.33
522.376	10115.68
522.743	10159.97
523.11	10233.19
523.477	10326.97
523.843	10401.77
524.21	10498.04
524.577	10526.07
524.943	10535.56
525.31	10589.34
525.676	10617.14
526.043	10785.27
526.409	10744.82
526.776	10932.16
527.142	10905.04
527.508	10936.68
527.874	11033.17
528.241	11133.73
528.607	11132.38
528.973	11293.5
529.339	11222.32
529.705	11307.51
530.071	11473.61
530.437	11521.07
530.803	11519.49
531.169	11691.91
531.535	11640.39
531.901	11673.15
532.267	11777.11
532.632	11798.57
532.998	11780.72
533.364	11897.33
533.73	11933.71
534.095	12013.26
534.461	12051.45
534.826	12112.46
535.192	12208.28
535.557	12273.59
535.923	12225.68
536.288	12463.64
536.653	12396.75
537.019	12421.16
537.384	12485.79
537.749	12537.54
538.114	12519.91
538.479	12545
538.845	12615.95
539.21	12623.19
539.575	12683.3
539.94	12838.77
540.305	12850.75
540.67	12799.45
541.034	12966.68
541.399	12987.92
541.764	13019.56
542.129	13069.05
542.494	13114.02
542.858	13159.44
543.223	13176.62
543.587	13307.69
543.952	13348.82
544.316	13403.73
544.681	13383.62
545.045	13497.96
545.41	13483.28
545.774	13535.03
546.138	13595.59
546.503	13712.42
546.867	13718.98
547.231	13742.03
547.595	13821.8
547.959	13876.03
548.324	13930.95
548.688	13971.4
549.052	13980.89
549.416	14029.48
549.779	14055.92
550.143	14132.98
550.507	14260.66
550.871	14226.98
551.235	14252.07
551.599	14370.71
551.962	14450.03
552.326	14370.71
552.689	14514.21
553.053	14428.34
553.417	14455
553.78	14735.22
554.143	14744.71
554.507	14721.21
554.87	14827.87
555.234	14834.2
555.597	14766.41
555.96	14904.48
556.323	14996
556.686	14964.82
557.05	15119.84
557.413	15132.5
557.776	15151.48
558.139	15216.34
558.502	15170.69
558.865	15315.77
559.228	15388.08
559.59	15360.51
559.953	15434.64
560.316	15647.96
560.679	15523.67
561.041	15680.73
561.404	15756.44
561.767	15848.41
562.129	15809.99
562.492	15921.18
562.854	15998.92
563.217	16001.63
563.579	15950.1
563.941	16138.35
564.304	16121.4
564.666	16213.6
565.028	16339.92
565.39	16303.09
565.753	16388.96
566.115	16390.54
566.477	16580.82
566.839	16573.14
567.201	16640.25
567.563	16785.79
567.925	16801.15
568.287	16873.47
568.648	16844.09
569.01	17027.36
569.372	17027.14
569.734	17023.3
570.095	17167.25
570.457	17266
570.819	17289.73
571.18	17344.87
571.542	17480.01
571.903	17455.37
572.265	17539.21
572.626	17573.56
572.987	17711.41
573.349	17776.04
573.71	17876.83
574.071	17990.73
574.432	17994.12
574.794	18226.43
575.155	18160.89
575.516	18261.68
575.877	18423.94
576.238	18454.9
576.599	18620.32
576.96	18715
577.32	18791.61
577.681	19068.89
578.042	18953.64
578.403	19203.13
578.763	19229.79
579.124	19443.8
579.485	19642.44
579.845	19742.32
580.206	19804.01
580.566	20060.73
580.927	20128.75
581.287	20304.79
581.648	20435.86
582.008	20656.42
582.368	20830.65
582.728	20987.94
583.089	21034.04
583.449	21286.91
583.809	21475.83
584.169	21743.17
584.529	21865.2
584.889	22253.67
585.249	22311.97
585.609	22438.29
585.969	22746.31
586.329	22834.67
586.688	23178.39
587.048	23256.35
587.408	23520.07
587.768	23730.24
588.127	23978.82
588.487	24230.34
588.846	24562.31
589.206	24638.69
589.565	24874.61
589.925	25155.96
590.284	25349.4
590.643	25699.23
591.003	25979.9
591.362	26284.97
591.721	26408.81
592.08	26690.16
592.44	26906.43
592.799	27093.31
593.158	27340.31
593.517	27585.5
593.876	27868.89
594.235	28169.67
594.593	28323.79
594.952	28659.15
595.311	28752.25
595.67	28988.86
596.029	29538.67
596.387	29649.4
596.746	29777.54
597.104	30067.7
597.463	30201.71
597.822	30606.67
598.18	30813.67
598.538	30918.07
598.897	31360.77
599.255	31249.59
599.613	31932.06
599.972	31990.59
600.33	32222.22
600.688	32375.21
601.046	32645.48
601.404	32860.62
601.762	33040.28
602.12	33438.46
602.478	33461.28
602.836	33672.35
603.194	33617.89
603.552	34014.04
603.91	34023.75
604.268	34453.57
604.625	34331.54
604.983	34820.34
605.341	34820.57
605.698	35172.42
606.056	35402.93
606.413	35511.17
606.771	35872.52
607.128	36015.79
607.485	35892.4
607.843	36168.55
608.2	36559.73
608.557	36539.62
608.914	36650.58
609.272	36850.12
609.629	37123.56
609.986	37390.67
610.343	37395.87
610.7	37587.73
611.057	37799.02
611.414	37842.41
611.771	38022.07
612.127	38303.41
612.484	38274.26
612.841	38642.61
613.198	38444.43
613.554	38505.22
613.911	38970.51
614.267	39154.46
614.624	39108.82
614.98	39215.93
615.337	39511.74
615.693	39432.88
616.05	39532.99
616.406	39859.08
616.762	39613.44
617.118	39829.93
617.475	39965.74
617.831	40115.57
618.187	40356.92
618.543	40323.25
618.899	40590.13
619.255	40525.73
619.611	40534.32
619.967	40813.63
620.323	40897.92
620.678	40806.4
621.034	40847.08
621.39	40809.11
621.746	40993.74
622.101	41455.87
622.457	41192.15
622.812	41290.45
623.168	41459.71
623.523	41531.35
623.879	41686.6
624.234	41460.17
624.589	41726.83
624.945	41828.74
625.3	41842.76
625.655	41862.19
626.01	41870.33
626.365	41878.91
626.72	42004.11
627.075	41927.95
627.43	42078.23
627.785	41886.37
628.14	42188.28
628.495	42192.13
628.85	42160.94
629.205	42138.12
629.559	42433.7
629.914	42146.02
630.269	42176.08
630.623	42381.27
630.978	42064.44
631.332	42336.98
631.687	42478.45
632.041	42268.51
632.396	42267.38
632.75	42146.7
633.104	42296.3
633.459	42220.82
633.813	42188.96
634.167	42252.69
634.521	42175.85
634.875	42294.95
635.229	42349.41
635.583	42219.92
635.937	42182.18
636.291	42075.52
636.645	42201.39
636.999	42060.15
637.352	42019.7
637.706	41944.45
638.06	42299.24
638.413	42031.23
638.767	42029.64
639.121	42228.28
639.474	41949.42
639.828	42001.17
640.181	42044.33
640.534	42009.98
640.888	41952.36
641.241	41798.46
641.594	41875.07
641.947	41986.25
642.301	41878.69
642.654	41961.4
643.007	41872.59
643.36	41803.66
643.713	41806.82
644.066	41965.69
644.419	41633.04
644.771	41510.11
645.124	41221.98
645.477	40953.51
645.83	40766.63
646.182	40664.71
646.535	40598.27
646.888	40669
647.24	40430.36
647.593	40711.49
647.945	40617.48
648.298	40363.02
648.65	40369.8
649.002	40261.33
649.355	40567.54
649.707	40494.54
650.059	40702.22
650.411	41212.72
650.763	41143.34
651.115	41520.05
651.467	41380.4
651.819	41313.05
652.171	41306.5
652.523	41223.79
652.875	41332.26
653.227	40895.66
653.578	41353.73
653.93	41273.28
654.282	41198.7
654.633	40914.42
654.985	41045.71
655.337	41106.28
655.688	41101.53
656.039	41299.04
656.391	40970.46
656.742	40899.05
657.094	40996.9
657.445	41144.92
657.796	40944.02
658.147	40976.11
658.498	40994.64
658.849	40982.44
659.2	40888.66
659.551	40873.06
659.902	41022.66
660.253	40798.49
660.604	40940.86
660.955	40682.56
661.306	40947.64
661.656	40699.51
662.007	40878.04
662.358	40810.47
662.708	40704.03
663.059	40781.31
663.409	40623.35
663.76	40834.19
664.11	40795.33
664.461	40889.11
664.811	40746.06
665.161	40781.54
665.511	40741.99
665.862	40633.3
666.212	40621.32
666.562	40730.92
666.912	40727.98
667.262	40701.99
667.612	40688.44
667.962	40724.37
668.312	40552.39
668.662	40843.69
669.011	40745.38
669.361	40812.27
669.711	40677.36
670.06	40653.41
670.41	40646.4
670.76	40478.72
671.109	40737.25
671.459	40537.48
671.808	40509.01
672.157	40631.04
672.507	40381.1
672.856	40429.69
673.205	40554.88
673.554	40643.01
673.904	40501.1
674.253	40713.52
674.602	40516.91
674.951	39971.39
675.3	39654.34
675.649	40294.32
675.998	40340.87
676.346	40401.21
676.695	40517.37
677.044	40143.82
677.393	40144.72
677.741	40153.53
678.09	40240.99
678.438	40207.32
678.787	40143.59
679.135	40122.12
679.484	39768.69
679.832	40086.42
680.181	39851.4
680.529	40049.13
680.877	39780.21
681.225	39860.21
681.573	40046.64
681.922	39706.31
682.27	39652.53
682.618	39690.04
682.966	39505.42
683.314	39650.5
683.661	39521.69
684.009	39332.77
684.357	39363.05
684.705	39177.06
685.053	39374.8
685.4	39203.28
685.748	39036.05
686.095	39126.22
686.443	38886.9
686.79	38935.26
687.138	39065.2
687.485	38919.22
687.832	38837.64
688.18	38791.76
688.527	38625.89
688.874	38635.38
689.221	38466.8
689.568	38492.11
689.915	38318.55
690.262	38369.4
690.609	38185.68
690.956	38064.55
691.303	38172.57
691.65	37949.98
691.997	37904.78
692.344	37698.91
692.69	37646.71
693.037	37679.93
693.383	37465.02
693.73	37466.37
694.077	37223.67
694.423	37338.02
694.769	37164.01
695.116	37107.74
695.462	37049.66
695.808	37045.14
696.155	37144.57
696.501	36682.89
696.847	36716.11
697.193	36402.9
697.539	36703.46
697.885	36452.39
698.231	36444.03
698.577	36298.95
698.923	36277.03
699.269	36223.69
699.614	35886.98
699.96	35894.89
700.306	35960.88
700.651	35812.86
700.997	35715.69
701.342	35631.85
701.688	35488.8
702.033	35350.27
702.379	35332.19
702.724	35291.29
703.069	35343.04
703.415	34929.49
703.76	35101.46
704.105	34909.38
704.45	34932.65
704.795	34735.6
705.14	34622.83
705.485	34626
705.83	34297.64
706.175	34557.52
706.52	34351.88
706.865	34325.89
707.209	34132.9
707.554	34228.27
707.899	34154.14
708.243	33910.76
708.588	33933.13
708.932	33693.82
709.277	33731.78
709.621	33718.45
709.966	33546.93
710.31	33674.38
710.654	33255.41
710.998	33394.16
711.342	33255.86
711.687	33247.95
712.031	33071.91
712.375	33045.02
712.719	32968.41
713.063	33019.71
713.407	33040.28
713.75	32798.25
714.094	32833.05
714.438	32739.49
714.782	32806.38
715.125	32533.85
715.469	32635.77
715.812	32557.8
716.156	32373.63
716.499	32359.84
716.843	32335.66
717.186	32021.09
717.53	32309.9
717.873	32286.85
718.216	32243.23
718.559	32097.93
718.902	31809.57
719.246	31972.96
719.589	31782.91
719.932	31725.28
720.275	31697.26
720.617	31717.15
720.96	31617.26
721.303	31662.46
721.646	31537.49
721.989	31468.57
722.331	31561.44
722.674	31356.25
723.016	31328.46
723.359	31327.78
723.701	31331.62
724.044	31101.12
724.386	30953.32
724.729	31183.6
725.071	31032.87
725.413	30998.75
725.755	31008.92
726.097	30871.29
726.439	30677.4
726.782	30816.6
727.124	30828.36
727.465	30690.28
727.807	30739.32
728.149	30648.7
728.491	30457.74
728.833	30666.1
729.175	30508.59
729.516	30520.57
729.858	30368.93
730.199	30431.53
730.541	30279.67
730.882	30219.56
731.224	30383.4
731.565	30215.49
731.906	30192.67
732.248	30136.62
732.589	29993.12
732.93	29733.02
733.271	29935.95
733.612	29882.17
733.953	29805.56
734.294	29792.23
734.635	29740.93
734.976	29764.66
735.317	29563.76
735.658	29593.81
735.999	29596.07
736.339	29496.87
736.68	29623.87
737.021	29482.4
737.361	29434.27
737.702	29459.58
738.042	29420.48
738.383	29199.25
738.723	29246.7
739.063	29172.81
739.404	29273.37
739.744	29217.1
740.084	29072.02
740.424	29090.55
740.764	29105.92
741.104	29169.42
741.444	28943.89
741.784	28823.44
742.124	28915.86
742.464	28873.38
742.804	28875.19
743.143	28840.84
743.483	28775.53
743.823	28677.45
744.162	28616.66
744.502	28731.46
744.841	28560.17
745.181	28618.92
745.52	28611.01
745.86	28517.91
746.199	28524.69
746.538	28530.56
746.877	28389.1
747.216	28467.51
747.556	28332.15
747.895	28425.48
748.234	28178.93
748.573	28224.36
748.911	27971.26
749.25	27987.3
749.589	27866.17
749.928	28020.75
750.267	27903.46
750.605	27990.92
750.944	27873.63
751.283	27773.3
751.621	27712.51
751.96	27606.07
752.298	27635.9
752.636	27744.14
752.975	27451.04
753.313	27367.88
753.651	27528.33
753.989	27323.82
754.327	27326.98
754.666	27188.9
755.004	27312.97
755.342	27150.94
755.679	27048.34
756.017	27037.95
756.355	26997.5
756.693	26976.25
757.031	27029.81
757.368	26691.29
757.706	26827.78
758.044	26697.39
758.381	26753.21
758.719	26522.93
759.056	26617.39
759.394	26409.49
759.731	26375.59
760.068	26357.97
760.405	26323.16
760.743	26187.57
761.08	26156.16
761.417	25973.12
761.754	26078.88
762.091	25995.04
762.428	25799.34
762.765	25638.66
763.102	25734.7
763.438	25672.11
763.775	25535.61
764.112	25535.16
764.449	25531.77
764.785	25381.49
765.122	25229.63
765.458	25130.2
765.795	25068.96
766.131	25065.12
766.467	24964.56
766.804	24813.37
767.14	24739.48
767.476	24829.87
767.812	24624.23
768.148	24696.99
768.485	24559.82
768.821	24432.82
769.157	24324.8
769.492	24314.86
769.828	24218.13
770.164	24013.62
770.5	24023.56
770.836	24052.26
771.171	23859.05
771.507	23737.7
771.842	23651.82
772.178	23571.6
772.513	23561.65
772.849	23513.97
773.184	23319.63
773.519	23341.55
773.855	23160.99
774.19	23118.5
774.525	23112.63
774.86	23006.64
775.195	22928.68
775.53	22861.56
775.865	22779.98
776.2	22559.87
776.535	22479.42
776.87	22460.21
777.205	22296.15
777.539	22281.91
777.874	22398.52
778.209	22201.24
778.543	22071.98
778.878	21885.09
779.212	21963.96
779.547	21829.27
779.881	21833.11
780.215	21657.52
780.55	21700.23
780.884	21493.01
781.218	21415.27
781.552	21522.84
781.886	21242.85
782.22	21396.51
782.554	21258.89
782.888	20912.91
783.222	20968.05
783.556	20814.16
783.889	20774.61
784.223	20687.38
784.557	20655.74
784.89	20769.86
785.224	20595.63
785.557	20368.52
785.891	20349.31
786.224	20391.12
786.558	20318.35
786.891	20080.62
787.224	20096.89
787.557	19959.49
787.891	19942.54
788.224	19896.44
788.557	19907.06
788.89	19720.17
789.223	19730.12
789.556	19571.02
789.888	19662.1
790.221	19500.74
790.554	19373.29
790.887	19326.74
791.219	19283.35
791.552	19258.94
791.884	19202.67
792.217	19072.96
792.549	18964.71
792.882	18937.82
793.214	18772.85
793.546	18823.47
793.879	18728.34
794.211	18585.74
794.543	18626.19
794.875	18575.57
795.207	18623.71
795.539	18523.37
795.871	18486.99
796.203	18323.83
796.535	18181.91
796.867	18222.81
797.198	18116.15
797.53	18107.56
797.862	17973.33
798.193	18016.94
798.525	17951.41
798.856	17973.1
799.188	17776.72
799.519	17646.56
799.85	17588.03
800.182	17634.13
800.513	17640
800.844	17460.35
801.175	17562.94
801.506	17502.15
801.837	17349.61
802.168	17401.82
802.499	17369.27
802.83	17155.72
803.161	17199.79
803.491	17144.42
803.822	17119.56
804.153	16970.42
804.483	16913.92
804.814	16874.15
805.145	16813.36
805.475	16865.56
805.805	16767.48
806.136	16753.02
806.466	16677.54
806.796	16627.37
807.126	16517.32
807.457	16401.84
807.787	16549.18
808.117	16273.03
808.447	16313.71
808.777	16360.94
809.107	16258.8
809.436	16240.94
809.766	16222.19
810.096	16117.78
810.426	16064.9
810.755	16093.15
811.085	16044.56
811.414	16058.35
811.744	15903.1
812.073	15921.18
812.403	15825.59
812.732	15800.5
813.061	15882.76
813.39	15682.31
813.719	15720.96
814.049	15729.54
814.378	15669.21
814.707	15648.19
815.036	15560.51
815.365	15497.91
815.693	15340.4
816.022	15353.28
816.351	15367.75
816.68	15165.04
817.008	15269.44
817.337	15080.52
817.665	15139.5
817.994	15115.1
818.322	15104.02
818.651	15091.14
818.979	14965.5
819.307	15102.22
819.636	14924.59
819.964	14872.62
820.292	14877.14
820.62	14967.98
820.948	14816.57
821.276	14927.31
821.604	14890.7
821.932	14939.06
822.259	14991.48
822.587	14855.44
822.915	14915.1
823.243	14927.08
823.57	14869.45
823.898	14903.8
824.225	14829.91
824.553	14816.8
824.88	14767.08
825.207	14818.16
825.535	14730.25
825.862	14827.87
826.189	14711.72
826.516	14845.05
826.843	14755.78
827.17	14773.86
827.497	14866.29
827.824	14802.11
828.151	14782.22
828.478	14768.21
828.805	14758.72
829.131	14766.86
829.458	14747.87
829.785	14674.66
830.111	14614.09
830.438	14875.1
830.764	14681.44
831.09	14732.06
831.417	14648.44
831.743	14750.36
832.069	14753.98
832.395	14706.75
832.722	14700.64
833.048	14630.14
833.374	14686.18
833.7	14607.31
834.026	14576.35
834.351	14611.16
834.677	14514.21
835.003	14643.7
835.329	14577.26
835.654	14530.03
835.98	14463.14
836.306	14513.3
836.631	14431.5
836.956	14500.2
837.282	14474.89
837.607	14416.81
837.932	14348.79
838.258	14449.13
838.583	14365.74
838.908	14233.31
839.233	14255.91
839.558	14220.88
839.883	14236.25
840.208	14158.96
840.533	14128.91
840.858	14115.8
841.182	14168
841.507	14163.48
841.832	14060.44
842.156	14029.25
842.481	14045.52
842.805	14024.28
843.13	13973.88
843.454	13918.29
843.778	13861.57
844.103	13818.18
844.427	13776.6
844.751	13739.77
845.075	13764.4
845.399	13627
845.723	13659.54
846.047	13621.35
846.371	13540.45
846.695	13489.83
847.019	13354.69
847.343	13295.94
847.666	13351.98
847.99	13213.23
848.313	13170.06
848.637	13100.69
848.96	13109.73
849.284	13069.73
849.607	12958.09
849.931	12961.26
850.254	12861.14
850.577	12860.69
850.9	12697.76
851.223	12791.99
851.546	12646.01
851.869	12596.75
852.192	12658.89
852.515	12545
852.838	12472.91
853.161	12485.56
853.483	12414.15
853.806	12364.43
854.129	12405.34
854.451	12291.89
854.774	12256.64
855.096	12175.74
855.419	12243.76
855.741	12109.75
856.063	12059.58
856.385	12025.23
856.708	12008.74
857.03	11987.04
857.352	11953.6
857.674	11912.02
857.996	11851.68
858.318	11843.54
858.64	11785.69
858.961	11714.06
859.283	11687.84
859.605	11674.74
859.926	11751.8
860.248	11651.23
860.57	11545.02
860.891	11587.28
861.212	11531.46
861.534	11563.1
861.855	11496.21
862.176	11528.98
862.498	11468.19
862.819	11464.35
863.14	11343.22
863.461	11392.26
863.782	11372.37
864.103	11382.31
864.424	11417.57
864.745	11371.24
865.065	11281.53
865.386	11159.95
865.707	11271.13
866.027	11220.51
866.348	11248.53
866.668	11179.38
866.989	11158.59
867.309	11098.25
867.63	11044.92
867.95	11097.8
868.27	10975.32
868.59	11064.81
868.91	10978.71
869.23	10926.73
869.55	10897.58
869.87	10983.68
870.19	10948.2
870.51	10955.88
870.83	10956.56
871.15	10893.74
871.469	10870.46
871.789	10863.46
872.109	10910.69
872.428	10779.62
872.748	10803.35
873.067	10771.48
873.386	10815.32
873.706	10751.14
874.025	10803.57
874.344	10649.23
874.663	10791.59
874.982	10637.02
875.301	10687.87
875.62	10667.98
875.939	10654.65
876.258	10602.67
876.577	10622.79
876.896	10608.77
877.214	10597.25
877.533	10497.14
877.852	10515.67
878.17	10568.78
878.489	10482.22
878.807	10458.27
879.125	10481.55
879.444	10509.34
879.762	10448.33
880.08	10437.93
880.398	10387.31
880.716	10387.09
881.034	10323.13
881.352	10336.47
881.67	10260.08
881.988	10301.66
882.306	10323.81
882.624	10238.84
882.941	10160.88
883.259	10162.46
883.577	10145.06
883.894	10119.07
884.212	10088.56
884.529	10097.15
884.846	10058.28
885.164	10088.56
885.481	9989.13
885.798	10093.08
886.115	9991.39
886.432	9967.44
886.75	9928.11
887.067	9934.67
887.383	9828.23
887.7	9918.4
888.017	9830.04
888.334	9844.28
888.651	9824.61
888.967	9723.6
889.284	9740.55
889.6	9779.42
889.917	9685.64
890.233	9661
890.55	9588.01
890.866	9589.82
891.182	9566.77
891.498	9479.31
891.815	9540.55
892.131	9507.33
892.447	9479.31
892.763	9410.61
893.079	9346.89
893.395	9428.24
893.71	9364.06
894.026	9364.29
894.342	9286.78
894.657	9227.34
894.973	9133.79
895.289	9246.32
895.604	9107.12
895.92	9162.71
896.235	9073.22
896.55	9095.59
896.865	9077.06
897.181	8981.25
897.496	8991.42
897.811	8978.54
898.126	8922.72
898.441	8887.92
898.756	8841.14
899.071	8826.9
899.386	8821.25
899.7	8774.92
900.015	8743.97
900.33	8661.26
900.644	8682.05
900.959	8727.47
901.273	8578.09
901.588	8645.21
901.902	8561.82
902.216	8511.43
902.531	8510.3
902.845	8419.45
903.159	8412.67
903.473	8398.89
903.787	8379.45
904.101	8357.76
904.415	8352.34
904.729	8276.63
905.042	8223.07
905.356	8284.32
905.67	8165.45
905.984	8228.27
906.297	8176.52
906.611	8057.2
906.924	8071.67
907.237	8070.54
907.551	8024.21
907.864	7990.31
908.177	7996.87
908.491	7902.63
908.804	7935.62
909.117	7823.09
909.43	7824.44
909.743	7737.44
910.056	7729.08
910.368	7760.26
910.681	7724.1
910.994	7618.8
911.307	7666.93
911.619	7609.76
911.932	7562.98
912.244	7558.23
912.557	7511.46
912.869	7462.42
913.181	7438.01
913.494	7389.2
913.806	7387.84
914.118	7369.31
914.43	7273.72
914.742	7323.44
915.054	7288.64
915.366	7262.42
915.678	7214.51
915.99	7165.02
916.302	7061.3
916.613	7060.62
916.925	7106.49
917.236	7076.21
917.548	6986.5
917.859	6985.37
918.171	6950.79
918.482	6935.65
918.794	6920.51
919.105	6904.24
919.416	6824.24
919.727	6830.12
920.038	6858.82
920.349	6793.96
920.66	6729.55
920.971	6698.82
921.282	6751.93
921.593	6629.9
921.903	6641.65
922.214	6603
922.525	6553.74
922.835	6528.66
923.146	6526.62
923.456	6479.84
923.767	6410.24
924.077	6438.94
924.387	6395.55
924.697	6357.59
925.008	6338.83
925.318	6365.5
925.628	6273.75
925.938	6253.64
926.248	6208.21
926.558	6231.94
926.867	6158.95
927.177	6142.45
927.487	6069.01
927.796	6090.02
928.106	6053.87
928.416	6095.22
928.725	6086.18
929.034	6032.4
929.344	5971.38
929.653	5984.72
929.962	5949.91
930.271	5889.12
930.581	5782.23
930.89	5872.18
931.199	5852.06
931.508	5861.1
931.817	5823.14
932.125	5772.07
932.434	5744.04
932.743	5750.82
933.051	5686.87
933.36	5649.13
933.669	5581.34
933.977	5617.95
934.286	5574.1
934.594	5587.21
934.902	5491.17
935.21	5512.41
935.519	5470.15
935.827	5450.72
936.135	5453.66
936.443	5396.93
936.751	5386.99
937.059	5347.44
937.367	5336.15
937.674	5352.87
937.982	5312.19
938.29	5285.75
938.597	5311.96
938.905	5226.32
939.213	5226.32
939.52	5127.79
939.827	5167.79
940.135	5116.94
940.442	5106.55
940.749	5097.28
941.056	5091.63
941.363	5047.79
941.67	5067.9
941.977	4995.14
942.284	4969.15
942.591	4961.69
942.898	4894.57
943.205	4948.36
943.511	4937.51
943.818	4895.48
944.125	4834.69
944.431	4838.3
944.738	4855.71
945.044	4785.88
945.35	4760.57
945.657	4742.26
945.963	4749.72
946.269	4721.7
946.575	4712.21
946.881	4697.07
947.187	4661.81
947.493	4632.89
947.799	4668.59
948.105	4599.44
948.41	4606.67
948.716	4593.79
949.022	4583.17
949.327	4502.27
949.633	4475.83
949.938	4493.23
950.244	4462.72
950.549	4416.4
950.854	4402.16
951.16	4387.7
951.465	4395.15
951.77	4364.87
952.075	4354.02
952.38	4322.39
952.685	4310.18
952.99	4270.86
953.294	4292.33
953.599	4239
953.904	4239.9
954.209	4179.79
954.513	4195.38
954.818	4180.92
955.122	4161.49
955.426	4125.56
955.731	4104.54
956.035	4105.44
956.339	4104.99
956.643	4081.94
956.948	4055.05
957.252	4060.47
957.556	4032
957.86	3975.28
958.163	3967.14
958.467	3966.01
958.771	3968.27
959.075	3955.84
959.378	3893.02
959.682	3925.56
959.985	3924.88
960.289	3881.95
960.592	3826.81
960.896	3843.75
961.199	3806.47
961.502	3864.32
961.805	3789.74
962.108	3752.23
962.411	3741.61
962.714	3750.65
963.017	3707.04
963.32	3702.74
963.623	3717.88
963.926	3726.47
964.228	3656.42
964.531	3661.84
964.833	3618.45
965.136	3618.68
965.438	3619.81
965.741	3589.3
966.043	3506.36
966.345	3567.83
966.648	3528.51
966.95	3522.63
967.252	3512.24
967.554	3491.9
967.856	3450.09
968.158	3470.43
968.46	3460.71
968.761	3380.94
969.063	3391.56
969.365	3378
969.666	3406.25
969.968	3355.63
970.269	3329.19
970.571	3314.96
970.872	3313.37
971.174	3312.7
971.475	3251.68
971.776	3281.74
972.077	3285.13
972.378	3261.4
972.679	3227.05
972.98	3216.43
973.281	3227.05
973.582	3214.62
973.883	3185.24
974.183	3169.42
974.484	3109.08
974.785	3161.96
975.085	3140.95
975.386	3089.42
975.686	3100.5
975.986	3089.42
976.287	3104.79
976.587	3046.71
976.887	3074.51
977.187	3030.22
977.487	2996.09
977.787	3029.09
978.087	2996.32
978.387	2970.56
978.687	2984.12
978.987	2955.87
979.286	2935.76
979.586	2950.22
979.885	2909.54
980.185	2918.36
980.484	2876.55
980.784	2874.06
981.083	2853.72
981.382	2835.19
981.682	2823.67
981.981	2824.35
982.28	2814.18
982.579	2798.36
982.878	2818.7
983.177	2765.82
983.475	2790.68
983.774	2731.47
984.073	2771.24
984.372	2700.96
984.67	2731.47
984.969	2713.16
985.267	2715.87
985.566	2682.43
985.864	2665.48
986.162	2641.98
986.461	2639.49
986.759	2651.24
987.057	2611.7
987.355	2600.17
987.653	2600.4
987.951	2543.68
988.249	2601.53
988.547	2524.47
988.844	2557.24
989.142	2550.68
989.44	2507.97
989.737	2524.02
990.035	2528.54
990.332	2471.14
990.63	2504.13
990.927	2465.49
991.224	2452.15
991.521	2431.14
991.819	2408.31
992.116	2427.52
992.413	2423.45
992.71	2404.92
993.006	2383.91
993.303	2357.01
993.6	2390.23
993.897	2330.12
994.193	2338.94
994.49	2326.28
994.787	2326.51
995.083	2298.48
995.379	2260.97
995.676	2278.82
995.972	2265.72
996.268	2286.06
996.565	2237.47
996.861	2234.53
997.157	2260.07
997.453	2171.71
997.749	2223.91
998.044	2214.19
998.34	2183.01
998.636	2183.91
998.932	2174.65
999.227	2133.29
999.523	2148.21
999.818	2130.81
1000.114	2134.2
1000.409	2078.83
1000.704	2062.11
1001	2085.83
1001.295	2106.85
1001.59	2052.39
1001.885	2069.11
1002.18	2056.01
1002.475	2032.96
1002.77	2041.54
1003.065	1994.99
1003.359	2008.32
1003.654	2013.52
1003.949	1976.46
1004.243	1985.5
1004.538	1954.76
1004.832	1955.89
1005.127	1957.02
1005.421	1969.23
1005.715	1894.88
1006.009	1895.33
1006.304	1892.17
1006.598	1864.15
1006.892	1853.98
1007.186	1866.86
1007.48	1845.16
1007.773	1880.87
1008.067	1795.67
1008.361	1825.28
1008.655	1841.32
1008.948	1800.87
1009.242	1823.02
1009.535	1779.18
1009.829	1770.36
1010.122	1804.94
1010.415	1785.5
1010.708	1749.57
1011.001	1740.31
1011.295	1712.51
1011.588	1729.46
1011.881	1737.14
1012.173	1674.77
1012.466	1696.24
1012.759	1665.51
1013.052	1694.21
1013.344	1662.8
1013.637	1651.27
1013.93	1614.21
1014.222	1613.53
1014.514	1632.97
1014.807	1610.59
1015.099	1576.47
1015.391	1612.18
1015.683	1603.36
1015.976	1561.55
1016.268	1548.45
1016.56	1540.54
1016.851	1526.08
1017.143	1548.22
1017.435	1546.41
1017.727	1520.88
1018.018	1502.35
1018.31	1484.95
1018.602	1487.43
1018.893	1497.83
1019.185	1474.33
1019.476	1456.47
1019.767	1426.19
1020.058	1458.96
1020.35	1441.56
1020.641	1433.42
1020.932	1422.35
1021.223	1421.22
1021.514	1386.87
1021.804	1380.99
1022.095	1372.86
1022.386	1369.24
1022.677	1363.82
1022.967	1344.84
1023.258	1359.53
1023.548	1362.69
1023.839	1313.2
1024.129	1335.57
1024.419	1297.16
1024.709	1273.88
1025	1312.3
1025.29	1235.91
1025.58	1252.41
1025.87	1298.96
1026.16	1259.19
1026.449	1246.31
1026.739	1258.06
1027.029	1237.27
1027.319	1225.97
1027.608	1235.46
1027.898	1206.99
1028.187	1189.59
1028.477	1202.92
1028.766	1202.02
1029.055	1183.94
1029.344	1153.2
1029.634	1176.93
1029.923	1166.09
1030.212	1142.81
1030.501	1147.33
1030.79	1151.4
1031.078	1145.07
1031.367	1134.9
1031.656	1122.24
1031.945	1141.68
1032.233	1087.44
1032.522	1104.62
1032.81	1089.7
1033.099	1095.13
1033.387	1082.47
1033.675	1089.03
1033.963	1073.21
1034.251	1075.92
1034.54	1016.94
1034.828	1013.55
1035.116	1047.44
1035.403	1028.69
1035.691	998.63
1035.979	1022.81
1036.267	1010.61
1036.554	994.56
1036.842	994.34
1037.129	975.36
1037.417	962.02
1037.704	992.08
1037.992	955.92
1038.279	961.34
1038.566	953.89
1038.853	953.89
1039.14	953.89
