Data from hue_100_FLMS001491_00055.txt Node
Date: Tue Feb 07 17:03:22 GMT 2017
User: dcchb
Spectrometer: FLMS00149
Trigger mode: 0
Integration Time (sec): 2.000000E-2
Scans to average: 10
Electric dark correction enabled: true
Nonlinearity correction enabled: false
Boxcar width: 0
XAxis mode: Wavelengths
Number of Pixels in Spectrum: 2048
>>>>>Begin Spectral Data<<<<<
341.393	-10.88
341.776	-10.88
342.16	-10.88
342.543	-59.69
342.927	-58.78
343.31	-64.89
343.693	-82.74
344.077	-66.69
344.46	-63.3
344.843	-39.35
345.226	-35.06
345.61	-30.31
345.993	-32.12
346.376	-13.59
346.759	11.95
347.142	28.67
347.525	50.82
347.908	48.33
348.291	63.92
348.674	112.74
349.057	111.61
349.44	115.9
349.823	138.27
350.206	157.26
350.588	192.28
350.971	213.98
351.354	238.61
351.737	224.6
352.119	231.6
352.502	269.8
352.884	262.11
353.267	269.12
353.65	301.21
354.032	291.26
354.414	291.72
354.797	314.54
355.179	312.73
355.562	329.91
355.944	327.19
356.326	338.95
356.709	320.19
357.091	333.75
357.473	336.01
357.855	336.46
358.238	352.05
358.62	350.47
359.002	347.76
359.384	341.66
359.766	351.83
360.148	324.03
360.53	322
360.912	319.74
361.294	338.27
361.676	340.53
362.057	333.52
362.439	347.08
362.821	318.83
363.203	338.95
363.584	330.36
363.966	342.11
364.348	349.57
364.729	343.24
365.111	322.68
365.493	336.23
365.874	304.14
366.256	327.87
366.637	325.84
367.019	326.52
367.4	329.23
367.781	302.56
368.163	315.22
368.544	303.24
368.925	304.6
369.306	318.38
369.688	327.19
370.069	310.25
370.45	305.05
370.831	332.62
371.212	318.38
371.593	322
371.974	307.53
372.355	308.21
372.736	330.36
373.117	314.54
373.498	319.74
373.879	309.57
374.26	307.31
374.641	324.93
375.021	325.61
375.402	308.21
375.783	329.68
376.163	339.85
376.544	336.01
376.925	334.43
377.305	354.76
377.686	333.75
378.066	314.31
378.447	323.13
378.827	324.48
379.208	337.36
379.588	347.76
379.968	339.4
380.349	347.53
380.729	345.73
381.109	343.92
381.489	335.33
381.87	344.37
382.25	343.69
382.63	352.28
383.01	358.83
383.39	328.55
383.77	335.1
384.15	352.96
384.53	362.9
384.91	341.21
385.29	361.09
385.67	370.81
386.049	354.99
386.429	356.12
386.809	351.37
387.189	368.32
387.568	372.17
387.948	366.52
388.328	378.94
388.707	362.45
389.087	366.52
389.466	356.8
389.846	372.17
390.225	375.78
390.605	358.38
390.984	354.31
391.363	375.78
391.743	373.75
392.122	359.51
392.501	378.49
392.881	365.39
393.26	404.03
393.639	386.18
394.018	373.3
394.397	401.77
394.776	376.23
395.155	384.37
395.534	379.62
395.913	390.92
396.292	397.25
396.671	390.47
397.05	388.21
397.429	394.31
397.808	406.97
398.186	389.57
398.565	388.21
398.944	408.55
399.323	410.81
399.701	421.88
400.08	404.25
400.458	396.35
400.837	380.75
401.215	424.37
401.594	417.14
401.972	425.5
402.351	432.95
402.729	426.4
403.107	426.4
403.486	441.99
403.864	425.95
404.242	429.79
404.62	429.79
404.999	442.22
405.377	462.56
405.755	421.2
406.133	430.24
406.511	442.67
406.889	445.61
407.267	453.75
407.645	450.36
408.023	465.5
408.401	460.07
408.779	456.23
409.156	455.33
409.534	473.18
409.912	484.7
410.29	503.69
410.667	501.43
411.045	484.93
411.422	459.39
411.8	474.76
412.178	471.6
412.555	474.08
412.933	489.68
413.31	507.76
413.687	509.34
414.065	476.12
414.442	517.47
414.819	505.04
415.197	519.96
415.574	521.31
415.951	524.03
416.328	519.05
416.705	531.71
417.082	534.87
417.46	522.44
417.837	533.52
418.214	541.65
418.591	547.98
418.967	550.92
419.344	538.26
419.721	529
420.098	547.98
420.475	554.53
420.852	566.28
421.228	572.84
421.605	559.73
421.982	596.79
422.358	583.69
422.735	586.62
423.111	583.91
423.488	563.35
423.864	602.44
424.241	597.24
424.617	601.31
424.994	603.12
425.37	601.31
425.746	598.37
426.123	600.86
426.499	606.28
426.875	603.8
427.251	623.23
427.627	625.04
428.003	634.76
428.379	642.21
428.756	646.96
429.132	655.32
429.507	658.71
429.883	656.23
430.259	672.5
430.635	653.74
431.011	667.07
431.387	689.67
431.763	699.84
432.138	720.18
432.514	688.32
432.89	705.72
433.265	713.17
433.641	713.85
434.016	707.3
434.392	721.99
434.767	744.13
435.143	750.46
435.518	764.7
435.894	748.88
436.269	766.96
436.644	784.81
437.02	772.38
437.395	776.45
437.77	795.88
438.145	795.88
438.52	783.45
438.895	811.02
439.271	800.63
439.646	815.09
440.021	808.76
440.395	821.65
440.77	831.81
441.145	831.36
441.52	823.45
441.895	863.23
442.27	861.87
442.645	855.09
443.019	848.09
443.394	847.86
443.769	868.2
444.143	864.58
444.518	875.43
444.892	895.32
445.267	900.51
445.641	882.43
446.016	917.91
446.39	915.88
446.764	881.3
447.139	917.91
447.513	914.75
447.887	920.4
448.262	917.24
448.636	934.18
449.01	954.3
449.384	944.81
449.758	965.14
450.132	962.21
450.506	945.48
450.88	988.19
451.254	986.61
451.628	995.88
452.002	1019.38
452.376	1020.51
452.75	1008.53
453.123	1029.78
453.497	1055.31
453.871	1039.49
454.244	1055.09
454.618	1098.47
454.992	1095.54
455.365	1110.23
455.739	1114.97
456.112	1114.52
456.486	1123.56
456.859	1145.03
457.232	1150.9
457.606	1164.91
457.979	1161.52
458.352	1224.35
458.725	1222.54
459.099	1197
459.472	1211.92
459.845	1242.88
460.218	1254.4
460.591	1253.5
460.964	1294.18
461.337	1295.08
461.71	1308.64
462.083	1319.71
462.456	1340.28
462.829	1358.13
463.201	1348.41
463.574	1378.69
463.947	1368.07
464.32	1437.45
464.692	1451.68
465.065	1482.42
465.438	1474.28
465.81	1494.62
466.183	1522.19
466.555	1542.53
466.928	1575.98
467.3	1580.5
467.672	1622.98
468.045	1645.8
468.417	1630.89
468.789	1668.4
469.161	1709.31
469.534	1751.56
469.906	1768.74
470.278	1785.69
470.65	1836.99
471.022	1864.33
471.394	1890.54
471.766	1933.25
472.138	1954.5
472.51	2005.12
472.882	2043.31
473.253	2072.46
473.625	2108.39
473.997	2171.89
474.369	2223.87
474.74	2252.79
475.112	2298.89
475.484	2319.23
475.855	2366.69
476.227	2437.87
476.598	2544.09
476.97	2568.94
477.341	2652.11
477.713	2694.82
478.084	2752.22
478.455	2851.2
478.827	2876.51
479.198	2978.42
479.569	3017.07
479.94	3133.67
480.311	3200.34
480.682	3367.57
481.053	3409.6
481.424	3480.78
481.795	3546.55
482.166	3695.69
482.537	3731.63
482.908	3906.31
483.279	3972.52
483.65	4037.61
484.021	4189.47
484.391	4245.28
484.762	4392.62
485.133	4456.8
485.503	4607.08
485.874	4735.67
486.244	4838.26
486.615	4958.03
486.985	5068.09
487.356	5198.93
487.726	5344.24
488.097	5501.97
488.467	5554.85
488.837	5754.4
489.207	5851.57
489.578	6043.65
489.948	6175.85
490.318	6365.23
490.688	6409.07
491.058	6542.85
491.428	6708.95
491.798	6841.15
492.168	7036.62
492.538	7138.77
492.908	7248.14
493.278	7450.17
493.648	7493.56
494.017	7712.54
494.387	7833.21
494.757	7912.98
495.126	8152.53
495.496	8170.38
495.866	8259.64
496.235	8433.87
496.605	8615.34
496.974	8740.53
497.344	8828.67
497.713	8918.16
498.082	9060.07
498.452	9213.29
498.821	9315.43
499.19	9427.75
499.559	9581.19
499.928	9672.71
500.298	9769.66
500.667	9861.18
501.036	9912.03
501.405	10160.38
501.774	10159.48
502.143	10205.35
502.512	10364.44
502.88	10517.89
503.249	10478.79
503.618	10586.13
503.987	10667.04
504.356	10777.99
504.724	10858.44
505.093	10952.68
505.462	11072.22
505.83	11164.2
506.199	11232.44
506.567	11432.67
506.936	11283.97
507.304	11556.73
507.672	11617.52
508.041	11640.8
508.409	11842.37
508.777	11853.67
509.145	11921.01
509.514	11958.98
509.882	12053.67
510.25	12124.17
510.618	12138.86
510.986	12143.61
511.354	12295.92
511.722	12410.04
512.09	12469.47
512.458	12419.76
512.826	12537.04
513.193	12597.38
513.561	12617.72
513.929	12755.34
514.297	12809.35
514.664	12871.95
515.032	12876.24
515.4	13037.82
515.767	13038.05
516.135	13158.04
516.502	13034.88
516.869	13177.93
517.237	13230.58
517.604	13156.01
517.972	13243.92
518.339	13334.31
518.706	13323.24
519.073	13275.78
519.44	13393.29
519.808	13494.98
520.175	13417.25
520.542	13534.31
520.909	13631.48
521.276	13602.55
521.643	13669.89
522.009	13731.36
522.376	13882.32
522.743	13813.39
523.11	13882.54
523.477	13971.13
523.843	13986.04
524.21	14010.9
524.577	14058.36
524.943	14209.32
525.31	14219.26
525.676	14171.12
526.043	14211.8
526.409	14228.3
526.776	14396.2
527.142	14335.87
527.508	14370.22
527.874	14428.74
528.241	14459.03
528.607	14435.07
528.973	14509.65
529.339	14483.88
529.705	14544.9
530.071	14529.08
530.437	14591.45
530.803	14577.22
531.169	14638.23
531.535	14549.65
531.901	14533.15
532.267	14535.41
532.632	14547.16
532.998	14541.74
533.364	14613.15
533.73	14579.48
534.095	14610.66
534.461	14617.67
534.826	14673.71
535.192	14582.64
535.557	14691.34
535.923	14598.23
536.288	14568.63
536.653	14577.22
537.019	14498.35
537.384	14513.26
537.749	14507.84
538.114	14478.91
538.479	14386.26
538.845	14428.07
539.21	14403.66
539.575	14372.48
539.94	14348.97
540.305	14305.58
540.67	14252.25
541.034	14310.78
541.399	14229.43
541.764	14270.33
542.129	14238.24
542.494	14216.77
542.858	14252.25
543.223	14193.27
543.587	14242.54
543.952	14127.28
544.316	14041.86
544.681	14084.12
545.045	14094.74
545.41	14017.23
545.774	14012.26
546.138	13938.81
546.503	13950.11
546.867	13877.57
547.231	13894.75
547.595	13903.79
547.959	13892.26
548.324	13767.07
548.688	13752.6
549.052	13729.33
549.416	13816.56
549.779	13816.78
550.143	13714.41
550.507	13795.54
550.871	13738.14
551.235	13661.53
551.599	13670.35
551.962	13632.16
552.326	13668.99
552.689	13615.88
553.053	13556
553.417	13485.72
553.78	13603
554.143	13374.31
554.507	13518.26
554.87	13509
555.234	13571.14
555.597	13447.75
555.96	13438.26
556.323	13463.12
556.686	13431.93
557.05	13413.4
557.413	13472.16
557.776	13439.84
558.139	13468.77
558.502	13444.14
558.865	13539.73
559.228	13479.17
559.59	13451.6
559.953	13417.92
560.316	13506.96
560.679	13565.72
561.041	13568.88
561.404	13575.66
561.767	13621.31
562.129	13474.65
562.492	13514.87
562.854	13612.5
563.217	13538.15
563.579	13567.3
563.941	13483.91
564.304	13565.94
564.666	13658.6
565.028	13614.3
565.39	13617.47
565.753	13654.75
566.115	13624.47
566.477	13688.43
566.839	13679.84
567.201	13782.89
567.563	13758.25
567.925	13835.09
568.287	13783.56
568.648	13820.17
569.01	13778.37
569.372	13878.7
569.734	13720.51
570.095	13890.68
570.457	13948.08
570.819	13945.82
571.18	13914.18
571.542	13970.45
571.903	13970.68
572.265	13987.4
572.626	14021.98
572.987	13987.85
573.349	13948.76
573.71	14058.81
574.071	14100.84
574.432	13986.72
574.794	14132.93
575.155	14073.27
575.516	13930
575.877	14108.98
576.238	14093.61
576.599	14137.68
576.96	14057.91
577.32	14087.28
577.681	14149.66
578.042	14126.61
578.403	14159.15
578.763	14145.14
579.124	14092.48
579.485	14115.31
579.845	14223.1
580.206	14125.02
580.566	14174.29
580.927	14117.79
581.287	14168.64
581.648	14090
582.008	14157.11
582.368	14153.05
582.728	14132.26
583.089	14067.17
583.449	14081.86
583.809	14087.51
584.169	14130.9
584.529	14057
584.889	14181.52
585.249	14092.03
585.609	14023.11
585.969	14114.18
586.329	14048.19
586.688	14074.86
587.048	14045.7
587.408	13978.59
587.768	13955.31
588.127	13926.61
588.487	14002.32
588.846	14107.4
589.206	13935.88
589.565	14017.68
589.925	14037.79
590.284	13973.84
590.643	13921.41
591.003	13964.58
591.362	14024.46
591.721	13956.89
592.08	13923.9
592.44	13971.36
592.799	13977.23
593.158	14022.88
593.517	13904.46
593.876	13934.29
594.235	13947.85
594.593	13909.66
594.952	13878.93
595.311	13903.56
595.67	13920.96
596.029	13950.34
596.387	13908.31
596.746	13993.28
597.104	13916.44
597.463	13953.28
597.822	13912.6
598.18	13843.45
598.538	13854.75
598.897	13925.26
599.255	13856.1
599.613	14019.04
599.972	13937.46
600.33	13910.11
600.688	13878.25
601.046	13787.86
601.404	13950.57
601.762	13949.21
602.12	13958.25
602.478	13939.04
602.836	13924.13
603.194	13866.5
603.552	13922.54
603.91	13794.64
604.268	13861.3
604.625	13863.34
604.983	13887.29
605.341	13821.98
605.698	13888.87
606.056	13925.48
606.413	13937.46
606.771	13857.46
607.128	13974.07
607.485	13917.35
607.843	13772.94
608.2	14019.04
608.557	13996.44
608.914	13928.87
609.272	14021.3
609.629	13978.14
609.986	14036.44
610.343	13888.42
610.7	14152.37
611.057	13991.69
611.414	14013.61
611.771	14096.78
612.127	14107.62
612.484	14105.14
612.841	14182.42
613.198	14091.13
613.554	14146.94
613.911	14152.37
614.267	14142.42
614.624	14081.41
614.98	14094.06
615.337	14227.85
615.693	14185.59
616.05	14165.47
616.406	14186.04
616.762	14224
617.118	14197.34
617.475	14210.67
617.831	14285.02
618.187	14230.33
618.543	14226.49
618.899	14356.88
619.255	14243.89
619.611	14294.06
619.967	14350.33
620.323	14410.44
620.678	14294.29
621.034	14256.77
621.39	14250.44
621.746	14262.65
622.101	14411.34
622.457	14381.74
622.812	14267.39
623.168	14399.82
623.523	14338.58
623.879	14435.98
624.234	14295.19
624.589	14345.13
624.945	14323.21
625.3	14287.05
625.655	14245.25
626.01	14288.18
626.365	14291.35
626.72	14286.83
627.075	14328.41
627.43	14299.26
627.785	14289.77
628.14	14265.36
628.495	14323.21
628.85	14217.68
629.205	14216.77
629.559	14302.65
629.914	14301.74
630.269	14183.55
630.623	14212.03
630.978	14194.4
631.332	14316.43
631.687	14278.24
632.041	14259.94
632.396	14207.51
632.75	14162.76
633.104	14161.63
633.459	14074.4
633.813	14030.34
634.167	14072.82
634.521	14164.35
634.875	14025.59
635.229	14034.4
635.583	13921.87
635.937	14052.94
636.291	13835.31
636.645	14047.06
636.999	13924.13
637.352	13997.8
637.706	13857.91
638.06	13880.74
638.413	13948.08
638.767	13844.58
639.121	13775.2
639.474	13789.89
639.828	13857.91
640.181	13828.99
640.534	13836.44
640.888	13778.59
641.241	13752.38
641.594	13725.49
641.947	13869.89
642.301	13741.31
642.654	13750.57
643.007	13676.22
643.36	13803.9
643.713	13738.82
644.066	13791.25
644.419	13704.7
644.771	13571.82
645.124	13470.35
645.477	13411.6
645.83	13308.77
646.182	13347.19
646.535	13301.32
646.888	13348.77
647.24	13272.62
647.593	13334.31
647.945	13294.31
648.298	13174.09
648.65	13236.23
649.002	13143.58
649.355	13259.74
649.707	13197.59
650.059	13331.15
650.411	13445.49
650.763	13520.97
651.115	13547.19
651.467	13588.99
651.819	13539.5
652.171	13570.69
652.523	13519.62
652.875	13491.37
653.227	13475.32
653.578	13599.39
653.93	13540.86
654.282	13436.68
654.633	13509.22
654.985	13539.73
655.337	13617.92
655.688	13538.6
656.039	13618.37
656.391	13457.92
656.742	13500.63
657.094	13458.6
657.445	13600.97
657.796	13413.18
658.147	13481.43
658.498	13544.93
658.849	13478.71
659.2	13460.86
659.551	13417.25
659.902	13564.13
660.253	13433.74
660.604	13489.79
660.955	13404.14
661.306	13496.57
661.656	13544.47
662.007	13490.24
662.358	13511.03
662.708	13530.92
663.059	13534.31
663.409	13472.84
663.76	13557.36
664.11	13573.17
664.461	13599.39
664.811	13528.66
665.161	13518.71
665.511	13553.51
665.862	13501.54
666.212	13609.33
666.562	13620.63
666.912	13514.64
667.262	13503.35
667.612	13579.5
667.962	13533.4
668.312	13555.32
668.662	13651.36
669.011	13553.74
669.361	13565.94
669.711	13508.32
670.06	13538.37
670.41	13460.63
670.76	13441.43
671.109	13532.72
671.459	13509.22
671.808	13478.71
672.157	13437.58
672.507	13406.17
672.856	13290.02
673.205	13469.9
673.554	13429.45
673.904	13431.03
674.253	13457.25
674.602	13494.53
674.951	13293.63
675.3	13146.52
675.649	13367.3
675.998	13353.97
676.346	13436.23
676.695	13424.93
677.044	13257.48
677.393	13398.04
677.741	13341.77
678.09	13410.47
678.438	13277.59
678.787	13300.41
679.135	13365.5
679.484	13106.52
679.832	13269.23
680.181	13183.58
680.529	13171.6
680.877	13133.64
681.225	13135.9
681.573	13090.93
681.922	13073.75
682.27	13068.33
682.618	13034.88
682.966	13007.09
683.314	13026.97
683.661	12948.33
684.009	12886.19
684.357	12854.77
684.705	12818.62
685.053	12860.65
685.4	12761.44
685.748	12726.87
686.095	12736.36
686.443	12681.67
686.79	12680.77
687.138	12716.93
687.485	12645.74
687.832	12632.41
688.18	12620.43
688.527	12645.29
688.874	12608
689.221	12500.89
689.568	12493.2
689.915	12424.96
690.262	12462.69
690.609	12323.72
690.956	12283.94
691.303	12338.63
691.65	12323.72
691.997	12250.27
692.344	12185.64
692.69	12150.61
693.037	12173.66
693.383	12104.29
693.73	12057.28
694.077	12024.06
694.423	12003.05
694.769	11910.85
695.116	11908.36
695.462	11866.55
695.808	11768.7
696.155	11866.1
696.501	11707.91
696.847	11749.72
697.193	11638.99
697.539	11651.87
697.885	11590.18
698.231	11491.87
698.577	11564.19
698.923	11510.63
699.269	11406
699.614	11321.71
699.96	11354.25
700.306	11400.12
700.651	11198.77
700.997	11230.18
701.342	11143.18
701.688	11185.89
702.033	11106.8
702.379	11129.85
702.724	11052.11
703.069	11065.22
703.415	10899.57
703.76	10878.33
704.105	10950.87
704.45	10855.05
704.795	10834.04
705.14	10839.69
705.485	10730.31
705.83	10753.59
706.175	10690.09
706.52	10680.14
706.865	10644.89
707.209	10627.94
707.554	10540.94
707.899	10648.05
708.243	10488.51
708.588	10495.06
708.932	10436.31
709.277	10402.41
709.621	10488.51
709.966	10378.91
710.31	10354.28
710.654	10288.74
710.998	10252.36
711.342	10310.21
711.687	10291
712.031	10230.66
712.375	10123.32
712.719	10191.57
713.063	10129.65
713.407	10200.16
713.75	10154.51
714.094	10075.87
714.438	10048.97
714.782	10072.93
715.125	10065.02
715.469	9989.54
715.812	9993.83
716.156	9959.03
716.499	9993.38
716.843	9991.12
717.186	9960.39
717.53	9966.04
717.873	9938.24
718.216	9883.78
718.559	9897.34
718.902	9792.71
719.246	9822.31
719.589	9826.38
719.932	9733.5
720.275	9746.38
720.617	9763.33
720.96	9757.23
721.303	9721.98
721.646	9689.43
721.989	9698.7
722.331	9776.44
722.674	9768.08
723.016	9725.37
723.359	9685.37
723.701	9691.02
724.044	9636.78
724.386	9574.64
724.729	9581.87
725.071	9566.27
725.413	9643.33
725.755	9586.16
726.097	9505.48
726.439	9523.56
726.782	9537.57
727.124	9586.84
727.465	9526.73
727.807	9478.37
728.149	9483.56
728.491	9504.35
728.833	9510.46
729.175	9491.7
729.516	9464.58
729.858	9483.11
730.199	9419.16
730.541	9496.9
730.882	9443.34
731.224	9483.11
731.565	9416.9
731.906	9434.53
732.248	9420.74
732.589	9408.31
732.93	9353.62
733.271	9418.03
733.612	9423.9
733.953	9496.45
734.294	9401.31
734.635	9451.7
734.976	9484.24
735.317	9385.26
735.658	9361.08
735.999	9372.83
736.339	9458.93
736.68	9534.86
737.021	9395.66
737.361	9399.05
737.702	9490.8
738.042	9456.9
738.383	9444.92
738.723	9415.32
739.063	9494.64
739.404	9423.45
739.744	9449.89
740.084	9505.03
740.424	9543
740.764	9472.04
741.104	9518.82
741.444	9494.19
741.784	9549.78
742.124	9536.9
742.464	9485.15
742.804	9557.23
743.143	9589.78
743.483	9652.15
743.823	9586.39
744.162	9609.66
744.502	9667.51
744.841	9669.77
745.181	9749.77
745.52	9787.29
745.86	9810.34
746.199	9769.88
746.538	9903.44
746.877	9917.45
747.216	9979.82
747.556	10036.09
747.895	10062.53
748.234	10139.59
748.573	10147.95
748.911	10196.09
749.25	10285.13
749.589	10310.44
749.928	10399.02
750.267	10500.94
750.605	10554.04
750.944	10618.45
751.283	10637.43
751.621	10737.99
751.96	10811.66
752.298	10931.66
752.636	11031.77
752.975	11057.08
753.313	11212.11
753.651	11297.75
753.989	11360.8
754.327	11461.14
754.666	11503.4
755.004	11706.78
755.342	11832.65
755.679	11958.53
756.017	12066.55
756.355	12254.11
756.693	12314.9
757.031	12472.41
757.368	12516.03
757.706	12694.78
758.044	12847.77
758.381	12960.08
758.719	13127.08
759.056	13338.6
759.394	13448.66
759.731	13501.76
760.068	13771.14
760.405	13801.42
760.743	14028.53
761.08	14204.8
761.417	14236.21
761.754	14494.73
762.091	14583.77
762.428	14771.56
762.765	14871.67
763.102	15094.04
763.438	15179.46
763.775	15301.26
764.112	15538.55
764.449	15735.83
764.785	15777.18
765.122	15857.63
765.458	16078.19
765.795	16167.23
766.131	16305.08
766.467	16500.1
766.804	16676.37
767.14	16678.18
767.476	16976.47
767.812	16859.19
768.148	17175.57
768.485	17187.77
768.821	17251.27
769.157	17457.14
769.492	17591.83
769.828	17688.09
770.164	17655.78
770.5	17755.21
770.836	17806.96
771.171	17874.3
771.507	17966.96
771.842	18048.99
772.178	18240.17
772.513	18207.63
772.849	18298.7
773.184	18369.88
773.519	18483.78
773.855	18441.52
774.19	18547.73
774.525	18611.01
774.86	18753.6
775.195	18800.38
775.53	18829.76
775.865	18783.21
776.2	18632.25
776.535	18751.34
776.87	18748.18
777.205	18867.27
777.539	18863.66
777.874	18967.16
778.209	18875.18
778.543	18984.33
778.878	18878.57
779.212	18920.6
779.547	18986.59
779.881	18987.95
780.215	18939.13
780.55	19009.87
780.884	18951.56
781.218	18927.61
781.552	19002.86
781.886	18935.97
782.22	18965.8
782.554	18951.56
782.888	18839.93
783.222	18839.25
783.556	18763.09
783.889	18836.99
784.223	18831.12
784.557	18792.92
784.89	18822.53
785.224	18764.22
785.557	18641.29
785.891	18643.32
786.224	18587.28
786.558	18751.57
786.891	18625.7
787.224	18575.08
787.557	18611.23
787.891	18543.66
788.224	18531.46
788.557	18459.6
788.89	18536.43
789.223	18534.17
789.556	18400.84
789.888	18413.95
790.221	18310.45
790.554	18348.64
790.887	18321.07
791.219	18289.66
791.552	18171.92
791.884	18283.56
792.217	18116.78
792.549	18099.61
792.882	18021.19
793.214	18001.76
793.546	17952.04
793.879	17943.68
794.211	17793.63
794.543	17866.85
794.875	17746.85
795.207	17992.72
795.539	17727.42
795.871	17847.19
796.203	17711.82
796.535	17606.06
796.867	17540.08
797.198	17465.05
797.53	17529.68
797.862	17398.84
798.193	17499.17
798.525	17435.67
798.856	17446.52
799.188	17246.3
799.519	17225.73
799.85	17111.16
800.182	17257.82
800.513	17167.88
800.844	17115.91
801.175	17132.63
801.506	17006.98
801.837	16987.1
802.168	17006.08
802.499	16863.71
802.83	16904.39
803.161	16833.2
803.491	16758.4
803.822	16681.57
804.153	16729.02
804.483	16524.96
804.814	16609.48
805.145	16519.31
805.475	16561.8
805.805	16518.63
806.136	16538.29
806.466	16458.75
806.796	16303.27
807.126	16321.12
807.457	16347.11
807.787	16259.66
808.117	16217.85
808.447	16144.41
808.777	16248.81
809.107	16017.4
809.436	16077.52
809.766	16022.83
810.096	15979.89
810.426	15870.74
810.755	15969.04
811.085	16037.29
811.414	15876.16
811.744	15745.09
812.073	15849.05
812.403	15809.95
812.732	15576.51
813.061	15734.47
813.39	15639.11
813.719	15562.27
814.049	15712.55
814.378	15665.55
814.707	15526.12
815.036	15517.3
815.365	15433.24
815.693	15286.35
816.022	15364.31
816.351	15303.52
816.68	15208.84
817.008	15235.5
817.337	15170.87
817.665	15118.22
817.994	15202.51
818.322	15160.93
818.651	15121.16
818.979	14974.04
819.307	15050.42
819.636	15037.77
819.964	15102.17
820.292	15057.65
820.62	14994.61
820.948	14946.47
821.276	14988.05
821.604	14938.34
821.932	14976.08
822.259	14921.39
822.587	14980.14
822.915	14887.26
823.243	14920.26
823.57	14926.81
823.898	14903.99
824.225	14815.63
824.553	14880.03
824.88	14938.79
825.207	14938.56
825.535	14858.56
825.862	14862.86
826.189	14951.89
826.516	14947.38
826.843	15031.89
827.17	14984.89
827.497	14967.94
827.824	14969.07
828.151	14978.11
828.478	14986.02
828.805	15027.37
829.131	14926.13
829.458	14947.83
829.785	14870.99
830.111	14861.5
830.438	15022.85
830.764	14910.09
831.09	14866.7
831.417	14861.95
831.743	14894.95
832.069	14887.94
832.395	14822.41
832.722	14859.69
833.048	14861.28
833.374	14853.37
833.7	14809.07
834.026	14835.51
834.351	14777.21
834.677	14841.16
835.003	14853.14
835.329	14804.78
835.654	14702.18
835.98	14702.18
836.306	14747.83
836.631	14702.41
836.956	14706.25
837.282	14718
837.607	14653.82
837.932	14654.5
838.258	14631.45
838.583	14603.66
838.908	14450.21
839.233	14543.09
839.558	14551
839.883	14465.35
840.208	14326.6
840.533	14467.39
840.858	14385.81
841.182	14434.62
841.507	14388.29
841.832	14245.25
842.156	14289.54
842.481	14291.35
842.805	14322.31
843.13	14208.64
843.454	14171.12
843.778	14121.18
844.103	14132.71
844.427	14097.91
844.751	14143.78
845.075	13973.84
845.399	14073.27
845.723	13857.91
846.047	13941.53
846.371	13811.13
846.695	13850.91
847.019	13685.49
847.343	13659.95
847.666	13617.47
847.99	13559.16
848.313	13510.8
848.637	13420.86
848.96	13419.96
849.284	13398.26
849.607	13322.11
849.931	13238.95
850.254	13187.2
850.577	13090.48
850.9	13008.67
851.223	13027.2
851.546	13054.77
851.869	12861.33
852.192	12783.36
852.515	12796.92
852.838	12704.27
853.161	12824.95
853.483	12615.91
853.806	12710.6
854.129	12638.28
854.451	12542.47
854.774	12438.51
855.096	12491.39
855.419	12439.19
855.741	12480.77
856.063	12424.28
856.385	12359.65
856.708	12295.69
857.03	12247.33
857.352	12317.16
857.674	12205.3
857.996	12162.36
858.318	11997.62
858.64	12053.67
858.961	12045.08
859.283	12065.19
859.605	11956.72
859.926	11870.39
860.248	11928.92
860.57	11882.6
860.891	11815.93
861.212	11849.38
861.534	11810.28
861.855	11788.36
862.176	11693.45
862.498	11784.52
862.819	11654.35
863.14	11705.43
863.461	11568.71
863.782	11631.76
864.103	11584.3
864.424	11568.71
864.745	11539.78
865.065	11506.34
865.386	11446.68
865.707	11419.78
866.027	11460.46
866.348	11518.76
866.668	11427.92
866.989	11427.92
867.309	11290.97
867.63	11380.69
867.95	11406.23
868.27	11293.01
868.59	11257.3
868.91	11319.22
869.23	11291.2
869.55	11180.02
869.87	11265.21
870.19	11280.13
870.51	11222.28
870.83	11222.95
871.15	11175.05
871.469	11148.83
871.789	11252.11
872.109	11184.76
872.428	11064.77
872.748	11156.29
873.067	11018.44
873.386	11054.6
873.706	11061.6
874.025	10915.16
874.344	10962.17
874.663	10940.25
874.982	10930.98
875.301	10915.84
875.62	10885.79
875.939	10901.38
876.258	10888.95
876.577	10870.87
876.896	10866.58
877.214	10823.64
877.533	10757.2
877.852	10754.04
878.17	10811.89
878.489	10823.19
878.807	10703.87
879.125	10755.4
879.444	10770.08
879.762	10739.8
880.08	10635.4
880.398	10660.48
880.716	10714.72
881.034	10566.47
881.352	10626.13
881.67	10514.5
881.988	10583.87
882.306	10589.07
882.624	10458.45
882.941	10513.59
883.259	10408.29
883.577	10431.11
883.894	10346.14
884.212	10393.82
884.529	10376.2
884.846	10281.51
885.164	10399.92
885.481	10287.84
885.798	10323.09
886.115	10176.2
886.432	10175.52
886.75	10161.06
887.067	10155.18
887.383	10075.19
887.7	10118.12
888.017	10072.93
888.334	10062.76
888.651	10010.33
888.967	10047.62
889.284	9957.45
889.6	9860.73
889.917	9894.4
890.233	9870.67
890.55	9852.37
890.866	9856.89
891.182	9833.16
891.498	9808.98
891.815	9753.61
892.131	9712.26
892.447	9616.89
892.763	9677.23
893.079	9629.32
893.395	9587.06
893.71	9570.79
894.026	9527.86
894.342	9513.62
894.657	9512.72
894.973	9397.46
895.289	9415.32
895.604	9451.93
895.92	9298.94
896.235	9302.55
896.55	9321.53
896.865	9305.72
897.181	9206.28
897.496	9225.04
897.811	9249.67
898.126	9185.94
898.441	9059.39
898.756	9006.29
899.071	9098.04
899.386	9073.86
899.7	8975.78
900.015	8931.71
900.33	8859.17
900.644	8851.26
900.959	8883.81
901.273	8841.32
901.588	8806.52
901.902	8780.31
902.216	8703.02
902.531	8740.98
902.845	8667.09
903.159	8617.6
903.473	8552.52
903.787	8542.8
904.101	8547.77
904.415	8493.31
904.729	8467.77
905.042	8427.55
905.356	8394.33
905.67	8406.08
905.984	8387.55
906.297	8334.89
906.611	8261.45
906.924	8228.68
907.237	8212.86
907.551	8141.23
907.864	8190.72
908.177	8148.46
908.491	8094.45
908.804	8036.14
909.117	7991.4
909.43	7933.55
909.743	7929.71
910.056	7942.14
910.368	7820.56
910.681	7807.9
910.994	7795.92
911.307	7786.21
911.619	7765.42
911.932	7784.4
912.244	7704.4
912.557	7670.28
912.869	7571.3
913.181	7608.81
913.494	7584.63
913.806	7549.6
914.118	7488.81
914.43	7469.38
914.742	7469.38
915.054	7397.74
915.366	7405.88
915.678	7442.71
915.99	7294.24
916.302	7307.12
916.613	7193
916.925	7263.28
917.236	7208.6
917.548	7172.21
917.859	7141.48
918.171	7136.28
918.482	7023.29
918.794	7032.56
919.105	7000.69
919.416	7007.7
919.727	6983.74
920.038	6941.71
920.349	6882.05
920.66	6791.43
920.971	6869.85
921.282	6798.21
921.593	6848.15
921.903	6767.7
922.214	6764.54
922.525	6698.33
922.835	6696.07
923.146	6652
923.456	6633.47
923.767	6589.63
924.077	6577.2
924.387	6532.91
924.697	6485.22
925.008	6476.86
925.318	6433.7
925.628	6436.19
925.938	6370.65
926.248	6351.44
926.558	6329.07
926.867	6331.56
927.177	6285.23
927.487	6266.02
927.796	6210.2
928.106	6273.25
928.416	6232.58
928.725	6194.84
929.034	6132.24
929.344	6146.7
929.653	6130.88
929.962	6028.51
930.271	6030.55
930.581	6003.43
930.89	5984.45
931.199	5981.74
931.508	5960.27
931.817	5961.62
932.125	5918.46
932.434	5907.61
932.743	5860.83
933.051	5792.14
933.36	5835.07
933.669	5761.18
933.977	5748.07
934.286	5677.56
934.594	5721.86
934.902	5712.82
935.21	5655.19
935.519	5655.19
935.827	5619.94
936.135	5619.94
936.443	5514.4
936.751	5522.54
937.059	5539.04
937.367	5478.92
937.674	5503.56
937.982	5482.54
938.29	5439.83
938.597	5433.05
938.905	5339.27
939.213	5307.85
939.52	5351.02
939.827	5311.02
940.135	5287.97
940.442	5312.83
940.749	5235.99
941.056	5254.52
941.363	5152.15
941.67	5196.9
941.977	5134.3
942.284	5138.82
942.591	5097.24
942.898	5058.6
943.205	5095.88
943.511	5055.66
943.818	5057.24
944.125	4982.44
944.431	4988.99
944.738	4964.59
945.044	4926.4
945.35	4905.38
945.657	4851.6
945.963	4871.03
946.269	4844.14
946.575	4831.94
946.881	4802.78
947.187	4822.9
947.493	4817.7
947.799	4763.46
948.105	4740.64
948.41	4682.33
948.716	4712.39
949.022	4661.54
949.327	4646.63
949.633	4608.21
949.938	4636.91
950.244	4599.4
950.549	4551.49
950.854	4551.04
951.16	4522.34
951.465	4487.31
951.77	4476.46
952.075	4465.62
952.38	4490.93
952.685	4444.6
952.99	4407.09
953.294	4361.89
953.599	4340.87
953.904	4298.39
954.209	4342.46
954.513	4320.99
954.818	4303.81
955.122	4276.92
955.426	4257.71
955.731	4250.48
956.035	4226.08
956.339	4221.78
956.643	4210.93
956.948	4177.49
957.252	4127.32
957.556	4137.49
957.86	4096.59
958.163	4157.38
958.467	4066.08
958.771	4059.98
959.075	4095.01
959.378	3998.51
959.682	4055.01
959.985	3995.8
960.289	3983.6
960.592	3954.67
960.896	3907.89
961.199	3910.6
961.502	3939.08
961.805	3893.43
962.108	3919.19
962.411	3893.43
962.714	3866.08
963.017	3835.8
963.32	3842.13
963.623	3770.27
963.926	3803.04
964.228	3751.74
964.531	3748.8
964.833	3763.94
965.136	3712.64
965.438	3695.47
965.741	3673.77
966.043	3674.9
966.345	3639.88
966.648	3616.6
966.95	3644.4
967.252	3587
967.554	3564.17
967.856	3553.78
968.158	3539.31
968.46	3533.66
968.761	3531.4
969.063	3526.43
969.365	3474.68
969.666	3482.82
969.968	3449.82
970.269	3450.95
970.571	3445.3
970.872	3437.85
971.174	3379.77
971.475	3401.46
971.776	3367.57
972.077	3361.01
972.378	3351.75
972.679	3309.72
972.98	3340.22
973.281	3330.96
973.582	3335.48
973.883	3283.28
974.183	3282.37
974.484	3261.35
974.785	3244.63
975.085	3256.38
975.386	3222.49
975.686	3201.7
975.986	3147.46
976.287	3169.15
976.587	3155.14
976.887	3136.61
977.187	3144.97
977.487	3103.62
977.787	3052.55
978.087	3062.26
978.387	3087.35
978.687	3100.91
978.987	3023.85
979.286	3036.05
979.586	3025.2
979.885	3013.9
980.185	2964.19
980.484	2961.02
980.784	2964.41
981.083	2965.54
981.382	2912.44
981.682	2881.25
981.981	2909.95
982.28	2883.29
982.579	2914.47
982.878	2847.13
983.177	2841.7
983.475	2851.65
983.774	2814.81
984.073	2795.6
984.372	2765.77
984.67	2771.2
984.969	2777.98
985.267	2768.94
985.566	2722.84
985.864	2742.5
986.162	2749.73
986.461	2703.86
986.759	2686.68
987.057	2644.65
987.355	2675.16
987.653	2663.18
987.951	2647.59
988.249	2625.67
988.547	2597.64
988.844	2576.18
989.142	2623.18
989.44	2586.8
989.737	2561.49
990.035	2589.96
990.332	2523.3
990.63	2556.51
990.927	2545.22
991.224	2550.87
991.521	2502.73
991.819	2494.14
992.116	2471.09
992.413	2475.84
992.71	2424.77
993.006	2453.92
993.303	2454.14
993.6	2425.67
993.897	2425.67
994.193	2432.68
994.49	2424.31
994.787	2403.07
995.083	2392.9
995.379	2379.8
995.676	2377.76
995.972	2349.97
996.268	2319.46
996.565	2296.86
996.861	2290.08
997.157	2289.86
997.453	2301.61
997.749	2293.92
998.044	2224.32
998.34	2231.55
998.636	2238.56
998.932	2233.59
999.227	2213.7
999.523	2186.81
999.818	2212.57
1000.114	2161.04
1000.409	2167.6
1000.704	2137.77
1001	2142.51
1001.295	2133.47
1001.59	2123.08
1001.885	2110.2
1002.18	2151.1
1002.475	2119.46
1002.77	2084.89
1003.065	2047.6
1003.359	2054.16
1003.654	2043.76
1003.949	2016.64
1004.243	2046.47
1004.538	2020.94
1004.832	2010.54
1005.127	2026.13
1005.421	1962.86
1005.715	1961.05
1006.009	1961.5
1006.304	1960.6
1006.598	1963.31
1006.892	1902.75
1007.186	1905.46
1007.48	1915.63
1007.773	1877.89
1008.067	1856.65
1008.361	1853.93
1008.655	1864.1
1008.948	1842.41
1009.242	1842.41
1009.535	1831.56
1009.829	1825.91
1010.122	1815.29
1010.415	1792.92
1010.708	1782.75
1011.001	1772.58
1011.295	1759.47
1011.588	1738.91
1011.881	1749.53
1012.173	1716.08
1012.466	1727.61
1012.759	1717.67
1013.052	1713.6
1013.344	1673.37
1013.637	1657.56
1013.93	1677.67
1014.222	1654.39
1014.514	1660.72
1014.807	1661.85
1015.099	1638.35
1015.391	1622.98
1015.683	1613.94
1015.976	1606.94
1016.268	1589.53
1016.56	1560.83
1016.851	1565.13
1017.143	1542.08
1017.435	1571.46
1017.727	1534.62
1018.018	1529.2
1018.31	1503.89
1018.602	1523.32
1018.893	1492.59
1019.185	1498.24
1019.476	1491.91
1019.767	1465.92
1020.058	1458.24
1020.35	1467.96
1020.641	1447.84
1020.932	1450.56
1021.223	1441.06
1021.514	1436.77
1021.804	1441.74
1022.095	1414.4
1022.386	1441.74
1022.677	1396.32
1022.967	1382.99
1023.258	1381.18
1023.548	1374.17
1023.839	1327.85
1024.129	1327.39
1024.419	1319.26
1024.709	1302.99
1025	1341.18
1025.29	1292.82
1025.58	1301.63
1025.87	1295.76
1026.16	1274.29
1026.449	1272.25
1026.739	1232.26
1027.029	1277
1027.319	1258.02
1027.608	1249.66
1027.898	1218.02
1028.187	1236.1
1028.477	1217.79
1028.766	1206.04
1029.055	1236.1
1029.344	1206.72
1029.634	1195.19
1029.923	1183.44
1030.212	1195.19
1030.501	1161.3
1030.79	1125.37
1031.078	1148.19
1031.367	1150.22
1031.656	1154.29
1031.945	1118.81
1032.233	1138.92
1032.522	1107.06
1032.81	1113.84
1033.099	1099.15
1033.387	1081.75
1033.675	1070.68
1033.963	1074.29
1034.251	1063.45
1034.54	1076.55
1034.828	1054.41
1035.116	1071.13
1035.403	1034.29
1035.691	1064.8
1035.979	1020.28
1036.267	1035.88
1036.554	996.1
1036.842	1010.34
1037.129	988.87
1037.417	990.91
1037.704	988.42
1037.992	973.28
1038.279	991.81
1038.566	975.09
1038.853	975.09
1039.14	975.09
