Data from hue_38_FLMS001491_00076.txt Node
Date: Tue Feb 07 17:31:58 GMT 2017
User: dcchb
Spectrometer: FLMS00149
Trigger mode: 0
Integration Time (sec): 2.000000E-2
Scans to average: 10
Electric dark correction enabled: true
Nonlinearity correction enabled: false
Boxcar width: 0
XAxis mode: Wavelengths
Number of Pixels in Spectrum: 2048
>>>>>Begin Spectral Data<<<<<
341.393	-13.22
341.776	-13.22
342.16	-13.22
342.543	-70.62
342.927	-53.22
343.31	-66.55
343.693	-70.39
344.077	-72.88
344.46	-68.36
344.843	-59.77
345.226	-21.13
345.61	-27.68
345.993	-24.52
346.376	3.5
346.759	-0.56
347.142	39.66
347.525	35.59
347.908	57.06
348.291	86.66
348.674	85.99
349.057	103.39
349.44	122.82
349.823	150.17
350.206	161.01
350.588	209.37
350.971	207.57
351.354	221.12
351.737	239.65
352.119	254.8
352.502	258.41
352.884	288.92
353.267	274.68
353.65	314.46
354.032	289.82
354.414	290.27
354.797	304.51
355.179	335.92
355.562	311.07
355.944	321.91
356.326	332.08
356.709	330.5
357.091	342.02
357.473	350.61
357.855	337.73
358.238	349.03
358.62	340.67
359.002	353.78
359.384	354.45
359.766	354.45
360.148	314.23
360.53	323.49
360.912	333.89
361.294	324.17
361.676	330.05
362.057	355.81
362.439	349.48
362.821	321.69
363.203	335.47
363.584	342.7
363.966	329.14
364.348	340.67
364.729	323.95
365.111	323.72
365.493	313.1
365.874	327.34
366.256	310.16
366.637	323.49
367.019	326.43
367.4	314.91
367.781	313.78
368.163	318.97
368.544	344.28
368.925	318.07
369.306	318.52
369.688	295.25
370.069	307.68
370.45	318.97
370.831	325.08
371.212	318.97
371.593	308.81
371.974	319.2
372.355	326.66
372.736	342.93
373.117	339.31
373.498	281.69
373.879	326.43
374.26	305.42
374.641	321.91
375.021	310.61
375.402	338.18
375.783	341.57
376.163	341.12
376.544	328.01
376.925	343.15
377.305	324.4
377.686	338.64
378.066	343.38
378.447	337.73
378.827	339.99
379.208	324.17
379.588	341.35
379.968	340.22
380.349	341.8
380.729	334.12
381.109	347
381.489	319.43
381.87	354.23
382.25	332.08
382.63	351.74
383.01	350.84
383.39	340.89
383.77	341.12
384.15	352.42
384.53	363.27
384.91	360.56
385.29	347
385.67	357.17
386.049	365.53
386.429	344.28
386.809	351.06
387.189	351.74
387.568	375.47
387.948	381.57
388.328	367.33
388.707	360.78
389.087	360.33
389.466	373.44
389.846	382.25
390.225	366.88
390.605	357.62
390.984	374.11
391.363	370.05
391.743	373.21
392.122	361.01
392.501	375.92
392.881	392.19
393.26	371.63
393.639	380.22
394.018	417.5
394.397	381.12
394.776	374.79
395.155	405.3
395.534	374.11
395.913	390.16
396.292	403.94
396.671	393.1
397.05	396.71
397.429	405.98
397.808	393.1
398.186	396.26
398.565	389.48
398.944	397.39
399.323	407.33
399.701	387.45
400.08	394.45
400.458	404.62
400.837	395.58
401.215	437.62
401.594	408.01
401.972	403.94
402.351	377.05
402.729	402.81
403.107	417.28
403.486	419.09
403.864	407.56
404.242	406.43
404.62	417.73
404.999	424.96
405.377	434.68
405.755	445.07
406.133	418.63
406.511	430.84
406.889	422.93
407.267	433.32
407.645	441.91
408.023	445.53
408.401	417.5
408.779	437.62
409.156	462.02
409.534	448.69
409.912	466.32
410.29	449.14
410.667	471.06
411.045	466.77
411.422	476.71
411.8	474.68
412.178	460.44
412.555	473.77
412.933	488.69
413.31	488.01
413.687	471.29
414.065	485.3
414.442	488.24
414.819	477.61
415.197	505.86
415.574	492.08
415.951	489.82
416.328	476.94
416.705	504.51
417.082	509.7
417.46	502.92
417.837	498.18
418.214	511.96
418.591	525.07
418.967	516.94
419.344	524.39
419.721	529.36
420.098	521.68
420.475	525.75
420.852	556.71
421.228	532.98
421.605	537.5
421.982	542.7
422.358	538.18
422.735	525.97
423.111	545.64
423.488	543.15
423.864	553.54
424.241	574.56
424.617	580.89
424.994	555.35
425.37	567.78
425.746	579.31
426.123	582.7
426.499	589.93
426.875	572.3
427.251	602.81
427.627	594.67
428.003	604.62
428.379	607.33
428.756	593.54
429.132	623.15
429.507	622.02
429.883	630.15
430.259	594.9
430.635	635.35
431.011	629.02
431.387	644.39
431.763	659.53
432.138	650.49
432.514	661.79
432.89	671.51
433.265	659.53
433.641	672.64
434.016	701.34
434.392	694.56
434.767	703.82
435.143	698.63
435.518	705.41
435.894	705.41
436.269	711.73
436.644	727.33
437.02	706.31
437.395	768.91
437.77	737.95
438.145	734.56
438.52	751.05
438.895	750.6
439.271	765.52
439.646	789.92
440.021	773.65
440.395	779.98
440.77	753.31
441.145	777.27
441.52	794.22
441.895	805.52
442.27	807.78
442.645	786.31
443.019	786.53
443.394	776.59
443.769	818.17
444.143	829.24
444.518	809.13
444.892	836.48
445.267	828.11
445.641	842.35
446.016	840.99
446.39	822.46
446.764	816.14
447.139	837.61
447.513	870.82
447.887	843.48
448.262	856.59
448.636	847.1
449.01	862.46
449.384	862.01
449.758	889.81
450.132	916.47
450.506	908.79
450.88	912.86
451.254	924.38
451.628	916.25
452.002	920.09
452.376	930.03
452.75	940.2
453.123	966.64
453.497	939.98
453.871	948.11
454.244	961.9
454.618	1001.44
454.992	995.34
455.365	990.14
455.739	1020.65
456.112	1015.45
456.486	1026.07
456.859	1052.06
457.232	1048.22
457.606	1058.16
457.979	1052.97
458.352	1057.49
458.725	1106.75
459.099	1110.59
459.472	1104.94
459.845	1139.29
460.218	1113.3
460.591	1143.81
460.964	1158.5
461.337	1145.85
461.71	1155.79
462.083	1222
462.456	1209.8
462.829	1209.57
463.201	1246.41
463.574	1230.14
463.947	1228.33
464.32	1269.01
464.692	1283.02
465.065	1310.14
465.438	1335.9
465.81	1331.15
466.183	1351.04
466.555	1365.73
466.928	1382
467.3	1375.22
467.672	1456.35
468.045	1477.59
468.417	1465.39
468.789	1469.9
469.161	1506.29
469.534	1519.17
469.906	1583.57
470.278	1569.56
470.65	1597.59
471.022	1629
471.394	1660.18
471.766	1704.93
472.138	1701.54
472.51	1713.97
472.882	1773.63
473.253	1806.17
473.625	1816.11
473.997	1866.96
474.369	1919.84
474.74	1950.8
475.112	1989.89
475.484	2020.62
475.855	2066.27
476.227	2086.61
476.598	2139.49
476.97	2184.91
477.341	2271.47
477.713	2291.13
478.084	2316.66
478.455	2408.64
478.827	2446.38
479.198	2538.58
479.569	2534.96
479.94	2642.98
480.311	2703.54
480.682	2764.33
481.053	2823.09
481.424	2933.6
481.795	3005.68
482.166	3039.81
482.537	3102.18
482.908	3229.86
483.279	3299.91
483.65	3377.2
484.021	3461.49
484.391	3516.86
484.762	3600.02
485.133	3652.67
485.503	3774.93
485.874	3870.97
486.244	3966.79
486.615	4073.9
486.985	4120
487.356	4237.74
487.726	4312.54
488.097	4464.18
488.467	4499.43
488.837	4643.83
489.207	4758.18
489.578	4844.73
489.948	4936.93
490.318	5042.47
490.688	5164.72
491.058	5231.61
491.428	5408.11
491.798	5489.46
492.168	5619.63
492.538	5707.99
492.908	5778.94
493.278	5938.94
493.648	5946.62
494.017	6121.76
494.387	6195.2
494.757	6298.48
495.126	6446.95
495.496	6530.34
495.866	6596.1
496.235	6721.97
496.605	6808.52
496.974	6819.37
497.344	6954.28
497.713	7052.58
498.082	7208.74
498.452	7288.51
498.821	7377.55
499.19	7455.28
499.559	7584.09
499.928	7615.05
500.298	7719.46
500.667	7813.01
501.036	7920.13
501.405	8024.53
501.774	8053.69
502.143	8160.12
502.512	8216.39
502.88	8339.1
503.249	8410.97
503.618	8430.4
503.987	8532.54
504.356	8594.46
504.724	8735.93
505.093	8774.12
505.462	8831.07
505.83	8942.25
506.199	9007.56
506.567	9203.26
506.936	9177.72
507.304	9315.35
507.672	9367.1
508.041	9376.36
508.409	9533.65
508.777	9590.6
509.145	9705.62
509.514	9786.97
509.882	9850.02
510.25	9890.47
510.618	9996.01
510.986	10035.33
511.354	10167.53
511.722	10252.27
512.09	10275.55
512.458	10332.5
512.826	10497.01
513.193	10451.59
513.561	10486.84
513.929	10610.23
514.297	10687.97
514.664	10839.83
515.032	10839.15
515.4	10955.76
515.767	10977.68
516.135	11064.91
516.502	10995.53
516.869	11241.63
517.237	11255.18
517.604	11244.34
517.972	11355.29
518.339	11481.39
518.706	11452.24
519.073	11539.24
519.44	11581.28
519.808	11726.81
520.175	11787.15
520.542	11884.09
520.909	11938.56
521.276	11948.95
521.643	12098.1
522.009	12184.88
522.376	12281.37
522.743	12261.94
523.11	12417.19
523.477	12479.11
523.843	12588.26
524.21	12655.37
524.577	12799.32
524.943	12799.32
525.31	12945.76
525.676	13082.48
526.043	13126.32
526.409	13156.15
526.776	13255.36
527.142	13328.12
527.508	13352.98
527.874	13510.49
528.241	13603.15
528.607	13576.71
528.973	13724.72
529.339	13832.97
529.705	13943.48
530.071	13971.72
530.437	14119.29
530.803	14112.96
531.169	14298.95
531.535	14265.27
531.901	14312.51
532.267	14380.3
532.632	14456.46
532.998	14410.58
533.364	14655.77
533.73	14676.56
534.095	14718.14
534.461	14793.62
534.826	14825.71
535.192	14860.06
535.557	15063.9
535.923	15036.78
536.288	15208.98
536.653	15094.41
537.019	15138.7
537.384	15254.18
537.749	15308.86
538.114	15281.75
538.479	15451.68
538.845	15486.71
539.21	15455.53
539.575	15521.06
539.94	15548.4
540.305	15716.76
540.67	15696.42
541.034	15859.13
541.399	15962.41
541.764	15875.85
542.129	16027.04
542.494	16104.55
542.858	16130.31
543.223	16116.3
543.587	16309.74
543.952	16301.15
544.316	16393.81
544.681	16436.07
545.045	16491.66
545.41	16575.5
545.774	16550.86
546.138	16627.7
546.503	16750.86
546.867	16728.94
547.231	16930.97
547.595	16910.63
547.959	16978.88
548.324	16967.8
548.688	17059.1
549.052	17222.03
549.416	17213.9
549.779	17163.05
550.143	17255.03
550.507	17378.87
550.871	17397.62
551.235	17436.26
551.599	17491.63
551.962	17522.82
552.326	17608.24
552.689	17725.97
553.053	17619.31
553.417	17722.13
553.78	17952.64
554.143	17896.14
554.507	17923.26
554.87	18029.02
555.234	18164.16
555.597	18160.31
555.96	18246.41
556.323	18332.96
556.686	18230.37
557.05	18445.73
557.413	18390.36
557.776	18553.75
558.139	18632.84
558.502	18739.96
558.865	18718.72
559.228	18833.06
559.59	18880.75
559.953	18985.38
560.316	19047.97
560.679	19074.64
561.041	19215.2
561.404	19341.53
561.767	19492.26
562.129	19410
562.492	19624.46
562.854	19497.91
563.217	19476.66
563.579	19606.6
563.941	19630.33
564.304	19706.04
564.666	19966.59
565.028	19876.65
565.39	20003.2
565.753	20161.62
566.115	20182.63
566.477	20229.41
566.839	20390.54
567.201	20417.66
567.563	20419.69
567.925	20624.66
568.287	20730.19
568.648	20668.04
569.01	20859.45
569.372	20846.8
569.734	20892.22
570.095	21063.97
570.457	21176.96
570.819	21209.72
571.18	21207.46
571.542	21361.13
571.903	21502.37
572.265	21587.57
572.626	21536.04
572.987	21708.92
573.349	21767.45
573.71	21906.2
574.071	21952.08
574.432	22063.04
574.794	22267.32
575.155	22322.24
575.516	22302.35
575.877	22528.33
576.238	22637.48
576.599	22708.89
576.96	22803.81
577.32	22873.18
577.681	23139.39
578.042	23152.72
578.403	23267.07
578.763	23450.57
579.124	23488.53
579.485	23849.66
579.845	23879.49
580.206	23991.8
580.566	24159.93
580.927	24313.6
581.287	24382.75
581.648	24589.3
582.008	24677.88
582.368	24871.32
582.728	25040.36
583.089	25197.19
583.449	25491.65
583.809	25453.23
584.169	25755.59
584.529	25864.52
584.889	26257.73
585.249	26284.39
585.609	26410.49
585.969	26806.19
586.329	26813.65
586.688	27042.79
587.048	27273.52
587.408	27452.95
587.768	27633.74
588.127	27805.26
588.487	28017.23
588.846	28319.14
589.206	28337.9
589.565	28643.88
589.925	28906.02
590.284	28998.67
590.643	29168.61
591.003	29603.85
591.362	29746.45
591.721	30056.5
592.08	30249.94
592.44	30307.56
592.799	30488.8
593.158	30791.17
593.517	30954.33
593.876	31149.35
594.235	31336.24
594.593	31534.2
594.952	31872.27
595.311	31915.43
595.67	32243.56
596.029	32379.6
596.387	32796.76
596.746	33016.87
597.104	32996.53
597.463	33138.45
597.822	33457.09
598.18	33643.07
598.538	33716.29
598.897	34084.19
599.255	33947.02
599.613	34401.69
599.972	34463.16
600.33	34740.67
600.688	34844.17
601.046	35235.12
601.404	35394.44
601.762	35513.98
602.12	35733.86
602.478	35776.8
602.836	36036.91
603.194	35948.32
603.552	36227.18
603.91	36229.89
604.268	36687.96
604.625	36655.87
604.983	36913.04
605.341	36822.65
605.698	37236.65
606.056	37429.41
606.413	37420.82
606.771	37597.54
607.128	37645
607.485	37720.48
607.843	37659.01
608.2	38152.78
608.557	38328.6
608.914	38313.23
609.272	38588.25
609.629	38611.08
609.986	38935.81
610.343	38750.73
610.7	39197.73
611.057	39209.7
611.414	39314.56
611.771	39402.92
612.127	39637.71
612.484	39654.44
612.841	40000.19
613.198	39870.25
613.554	40151.83
613.911	40221.65
614.267	40345.49
614.624	40347.3
614.98	40478.6
615.337	40658.03
615.693	40726.73
616.05	40720.17
616.406	41031.12
616.762	40957.45
617.118	41031.12
617.475	41084.68
617.831	41269.31
618.187	41411.68
618.543	41354.05
618.899	41680.82
619.255	41629.07
619.611	41731.45
619.967	41858
620.323	41876.53
620.678	41769.64
621.034	41789.97
621.39	41957.65
621.746	41923.53
622.101	42433.12
622.457	42017.77
622.812	42292.56
623.168	42322.39
623.523	42493.23
623.879	42616.17
624.234	42309.73
624.589	42467.47
624.945	42695.94
625.3	42740.01
625.655	42629.5
626.01	42746.56
626.365	42789.04
626.72	42682.15
627.075	42846.44
627.43	42781.36
627.785	42860.45
628.14	42937.52
628.495	42880.57
628.85	42853.45
629.205	42850.74
629.559	42983.16
629.914	42800.8
630.269	42841.02
630.623	42769.38
630.978	42883.05
631.332	43070.62
631.687	43079.21
632.041	42924.18
632.396	43106.32
632.75	42836.73
633.104	42976.16
633.459	42768.93
633.813	42833.79
634.167	42846.67
634.521	42940.23
634.875	43122.59
635.229	42808.48
635.583	42857.97
635.937	42778.42
636.291	42763.51
636.645	42809.16
636.999	42686.9
637.352	42926.44
637.706	42660.91
638.06	42723.28
638.413	42595.6
638.767	42562.16
639.121	42662.49
639.474	42331.88
639.828	42383.18
640.181	42512.44
640.534	42547.02
640.888	42484.87
641.241	42315.16
641.594	42386.12
641.947	42672.66
642.301	42370.07
642.654	42558.09
643.007	42390.18
643.36	42570.29
643.713	42265.89
644.066	42421.82
644.419	42236.74
644.771	42006.47
645.124	41639.02
645.477	41631.11
645.83	41347.95
646.182	41206.71
646.535	41110.22
646.888	41158.13
647.24	41057.79
647.593	41284
647.945	41135.75
648.298	41025.93
648.65	40930.11
649.002	40842.65
649.355	40987.06
649.707	40938.92
650.059	41161.29
650.411	41528.74
650.763	41539.36
651.115	41918.56
651.467	41789.07
651.819	41829.07
652.171	41691.67
652.523	41769.41
652.875	41777.55
653.227	41521.28
653.578	41951.1
653.93	41777.32
654.282	41561.28
654.633	41629.75
654.985	41613.71
655.337	41553.14
655.688	41598.79
656.039	41883.08
656.391	41420.49
656.742	41449.64
657.094	41474.73
657.445	41543.2
657.796	41536.2
658.147	41451
658.498	41554.05
658.849	41429.31
659.2	41468.4
659.551	41265.47
659.902	41538
660.253	41371.45
660.604	41376.65
660.955	41161.06
661.306	41320.61
661.656	41248.07
662.007	41124.23
662.358	41317.44
662.708	41195.87
663.059	41203.55
663.409	41018.02
663.76	41392.92
664.11	41196.54
664.461	41346.82
664.811	41314.96
665.161	41187.05
665.511	41213.72
665.862	41117.45
666.212	41192.7
666.562	41250.33
666.912	41135.53
667.262	41210.1
667.612	41278.35
667.962	41270.21
668.312	41287.16
668.662	41341.85
669.011	41201.52
669.361	41245.36
669.711	41086.72
670.06	40986.61
670.41	41016.21
670.76	41032.03
671.109	41071.35
671.459	41033.16
671.808	40817.8
672.157	41048.75
672.507	40829.55
672.856	40926.04
673.205	40854.41
673.554	41007.85
673.904	40884.69
674.253	41063.89
674.602	40880.39
674.951	40416
675.3	40155.89
675.649	40775.54
675.998	40851.24
676.346	40842.65
676.695	40911.58
677.044	40549.78
677.393	40749.1
677.741	40845.82
678.09	40553.17
678.438	40518.37
678.787	40657.35
679.135	40633.39
679.484	40455.55
679.832	40414.42
680.181	40308.88
680.529	40483.79
680.877	40393.63
681.225	40237.93
681.573	40403.34
681.922	40125.84
682.27	40126.52
682.618	40117.02
682.966	39982.34
683.314	40132.39
683.661	39808.33
684.009	39743.02
684.357	39837.26
684.705	39787.09
685.053	39811.04
685.4	39545.51
685.748	39420.32
686.095	39572.18
686.443	39255.13
686.79	39272.98
687.138	39416.03
687.485	39309.59
687.832	39264.17
688.18	39226.88
688.527	39009.71
688.874	38921.58
689.221	38843.39
689.568	38901.01
689.915	38649.72
690.262	38683.16
690.609	38541.25
690.956	38455.6
691.303	38611.08
691.65	38149.39
691.997	38409.05
692.344	38110.3
692.69	38177.41
693.037	38079.79
693.383	37809.06
693.73	37869.63
694.077	37819.91
694.423	37658.33
694.769	37540.59
695.116	37494.49
695.462	37429.41
695.808	37337.66
696.155	37367.04
696.501	37144.9
696.847	37054.28
697.193	36835.53
697.539	37067.39
697.885	36819.26
698.231	36648.64
698.577	36675.98
698.923	36533.16
699.269	36348.99
699.614	36093.18
699.96	36133.85
700.306	36198.94
700.651	36118.26
700.997	35994.42
701.342	35962.56
701.688	35771.38
702.033	35769.34
702.379	35729.79
702.724	35539.07
703.069	35805.5
703.415	35381.78
703.76	35346.53
704.105	35280.32
704.45	35261.56
704.795	35019.31
705.14	35072.41
705.485	34935.24
705.83	34642.14
706.175	34805.53
706.52	34687.56
706.865	34486.89
707.209	34623.61
707.554	34392.2
707.899	34412.77
708.243	34294.13
708.588	34229.04
708.932	33999.22
709.277	34029.73
709.621	34001.48
709.966	33737.98
710.31	33824.76
710.654	33585.67
710.998	33646.23
711.342	33683.75
711.687	33540.93
712.031	33457.31
712.375	33243.08
712.719	33404.88
713.063	33234.04
713.407	33279.46
713.75	33163.31
714.094	33160.82
714.438	33015.06
714.782	33079.24
715.125	32818.91
715.469	32952.01
715.812	32784.34
716.156	32484.23
716.499	32568.3
716.843	32777.56
717.186	32394.06
717.53	32664.56
717.873	32531.46
718.216	32414.18
718.559	32328.75
718.902	32019.16
719.246	32247.85
719.589	31990.68
719.932	32081.08
720.275	32004.24
720.617	31984.81
720.96	31885.6
721.303	31928.99
721.646	31881.76
721.989	31677.92
722.331	31655.78
722.674	31631.6
723.016	31745.94
723.359	31516.35
723.701	31694.87
724.044	31445.16
724.386	31337.59
724.729	31510.47
725.071	31252.17
725.413	31295.79
725.755	31249.23
726.097	31248.56
726.439	30975.8
726.782	31023.93
727.124	31173.98
727.465	31012.63
727.807	30797.04
728.149	30817.83
728.491	30733.99
728.833	30841.11
729.175	30743.26
729.516	30693.77
729.858	30657.61
730.199	30599.31
730.541	30519.31
730.882	30449.71
731.224	30507.33
731.565	30265.31
731.906	30381.46
732.248	30387.11
732.589	30253.33
732.93	29973.79
733.271	30219.88
733.612	30186.89
733.953	30175.14
734.294	30027.57
734.635	30081.13
734.976	29962.49
735.317	29932.43
735.658	29882.72
735.999	29797.52
736.339	29835.49
736.68	29927.46
737.021	29706
737.361	29569.5
737.702	29773.12
738.042	29714.13
738.383	29633.68
738.723	29608.6
739.063	29524.76
739.404	29667.13
739.744	29533.8
740.084	29368.61
740.424	29339.45
740.764	29312.34
741.104	29411.32
741.444	29286.35
741.784	29275.5
742.124	29234.6
742.464	29185.11
742.804	29189.18
743.143	29009.52
743.483	28989.63
743.823	28847.49
744.162	28835.51
744.502	28896.3
744.841	28769.75
745.181	28890.88
745.52	28777.66
745.86	28859.47
746.199	28757.77
746.538	28644.78
746.877	28705.8
747.216	28523.88
747.556	28458.35
747.895	28582.86
748.234	28326.6
748.573	28378.35
748.911	28318.69
749.25	28334.06
749.589	28082.99
749.928	28192.37
750.267	28233.95
750.605	28178.36
750.944	28051.13
751.283	27920.28
751.621	28006.16
751.96	27880.74
752.298	27873.28
752.636	27920.06
752.975	27802.09
753.313	27506.06
753.651	27685.49
753.989	27682.55
754.327	27667.18
754.666	27420.18
755.004	27409.34
755.342	27445.27
755.679	27354.65
756.017	27249.11
756.355	27284.59
756.693	27068.1
757.031	27136.35
757.368	26982.68
757.706	26934.77
758.044	26861.33
758.381	27028.33
758.719	26873.08
759.056	26801.67
759.394	26703.14
759.731	26503.82
760.068	26528
760.405	26408.01
760.743	26303.38
761.08	26352.41
761.417	26137.5
761.754	26121.23
762.091	26083.95
762.428	25998.3
762.765	25886.89
763.102	25928.47
763.438	25869.49
763.775	25623.62
764.112	25683.51
764.449	25682.83
764.785	25438.54
765.122	25377.98
765.458	25275.15
765.795	25199.9
766.131	25198.77
766.467	24991.09
766.804	25024.77
767.14	24884.88
767.476	24861.61
767.812	24917.88
768.148	24740.48
768.485	24516.3
768.821	24450.77
769.157	24474.95
769.492	24453.26
769.828	24467.27
770.164	24199.93
770.5	24116.09
770.836	24185.24
771.171	23982.99
771.507	23913.16
771.842	23740.51
772.178	23701.41
772.513	23566.05
772.849	23500.51
773.184	23515.88
773.519	23432.94
773.855	23403.57
774.19	23212.84
774.525	23103.01
774.86	23183.46
775.195	23040.64
775.53	23009
775.865	22858.27
776.2	22729.68
776.535	22631.61
776.87	22647.88
777.205	22468.9
777.539	22440.43
777.874	22446.08
778.209	22251.28
778.543	22250.38
778.878	22111.62
779.212	22083.6
779.547	21982.81
779.881	22048.35
780.215	21869.37
780.55	21908.92
780.884	21754.8
781.218	21659.88
781.552	21704.18
781.886	21558.42
782.22	21463.5
782.554	21395.71
782.888	21120.46
783.222	21080.91
783.556	20950.52
783.889	20933.35
784.223	20777.19
784.557	20775.61
784.89	20803.63
785.224	20608.61
785.557	20508.27
785.891	20614.49
786.224	20484.55
786.558	20530.65
786.891	20258.11
787.224	20194.84
787.557	20133.82
787.891	20049.08
788.224	20000.72
788.557	20110.09
788.89	19938.12
789.223	19975.86
789.556	19702.87
789.888	19685.25
790.221	19631.69
790.554	19469.66
790.887	19473.95
791.219	19384.46
791.552	19349.21
791.884	19142.21
792.217	19213.62
792.549	19152.6
792.882	19078.26
793.214	18891.59
793.546	18926.4
793.879	18803.46
794.211	18676.01
794.543	18821.76
794.875	18617.93
795.207	18797.13
795.539	18586.97
795.871	18533.19
796.203	18375.45
796.535	18314.66
796.867	18253.64
797.198	18179.3
797.53	18199.63
797.862	18074.21
798.193	18158.05
798.525	17990.15
798.856	17975.91
799.188	17800.77
799.519	17752.87
799.85	17695.47
800.182	17736.37
800.513	17762.13
800.844	17631.97
801.175	17723.94
801.506	17565.3
801.837	17570.05
802.168	17512.65
802.499	17442.82
802.83	17396.04
803.161	17333.67
803.491	17294.12
803.822	17281.69
804.153	17135.71
804.483	16981.36
804.814	17076.95
805.145	16927.13
805.475	17013
805.805	16944.98
806.136	16760.12
806.466	16763.74
806.796	16824.53
807.126	16558.1
807.457	16691.88
807.787	16596.96
808.117	16547.25
808.447	16489.4
808.777	16512
809.107	16370.76
809.436	16378.21
809.766	16392.9
810.096	16262.28
810.426	16209.4
810.755	16273.58
811.085	16151.1
811.414	16084.66
811.744	16007.83
812.073	15927.83
812.403	16012.57
812.732	15905.68
813.061	15916.98
813.39	15772.58
813.719	15732.81
814.049	15769.87
814.378	15660.72
814.707	15701.85
815.036	15595.41
815.365	15537.33
815.693	15462.76
816.022	15391.35
816.351	15395.64
816.68	15262.54
817.008	15364
817.337	15238.58
817.665	15213.05
817.994	15182.54
818.322	15177.57
818.651	15113.84
818.979	15047.4
819.307	15140.51
819.636	15087.4
819.964	14919.95
820.292	15012.15
820.62	15060.06
820.948	14923.34
821.276	15021.41
821.604	15014.63
821.932	14960.85
822.259	14960.62
822.587	14903.68
822.915	14903.68
823.243	14915.65
823.57	14837.46
823.898	14806.05
824.225	14818.93
824.553	14891.25
824.88	14832.49
825.207	14869.55
825.535	14849.89
825.862	14910.23
826.189	14835.88
826.516	14903.68
826.843	14960.4
827.17	14980.96
827.497	14830.01
827.824	14930.57
828.151	14969.44
828.478	14886.73
828.805	14929.66
829.131	14872.49
829.458	14804.47
829.785	14719.95
830.111	14703.68
830.438	14877.69
830.764	14839.72
831.09	14825.03
831.417	14766.28
831.743	14857.12
832.069	14804.02
832.395	14756.34
832.722	14863.68
833.048	14688.09
833.374	14830.68
833.7	14666.85
834.026	14653.29
834.351	14644.7
834.677	14633.4
835.003	14655.09
835.329	14727.64
835.654	14679.28
835.98	14561.09
836.306	14538.26
836.631	14529.9
836.956	14514.53
837.282	14598.83
837.607	14449.9
837.932	14473.4
838.258	14393.18
838.583	14391.82
838.908	14275.67
839.233	14435.21
839.558	14310.7
839.883	14259.4
840.208	14183.47
840.533	14175.33
840.858	14172.62
841.182	14327.42
841.507	14221.89
841.832	14112.28
842.156	14062.12
842.481	14112.96
842.805	14046.07
843.13	13938.28
843.454	13964.04
843.778	13861.67
844.103	13913.87
844.427	13813.54
844.751	13828
845.075	13823.03
845.399	13827.09
845.723	13731.96
846.047	13738.73
846.371	13617.38
846.695	13650.6
847.019	13478.18
847.343	13400.89
847.666	13383.04
847.99	13324.96
848.313	13353.21
848.637	13221.91
848.96	13244.74
849.284	13262.14
849.607	13110.28
849.931	12981.69
850.254	13032.54
850.577	12933.33
850.9	12801.13
851.223	12769.95
851.546	12731.53
851.869	12682.94
852.192	12810.17
852.515	12576.05
852.838	12558.65
853.161	12525.21
853.483	12476.62
853.806	12367.25
854.129	12354.82
854.451	12312.56
854.774	12304.42
855.096	12250.19
855.419	12203.86
855.741	12235.95
856.063	12112.11
856.385	12089.96
856.708	12156.63
857.03	12022.85
857.352	12074.82
857.674	11954.37
857.996	11875.73
858.318	11828.95
858.64	11831.89
858.961	11774.49
859.283	11784.66
859.605	11730.88
859.926	11696.98
860.248	11721.16
860.57	11630.54
860.891	11670.09
861.212	11559.58
861.534	11570.88
861.855	11540.15
862.176	11554.84
862.498	11585.12
862.819	11488.85
863.14	11438.23
863.461	11443.88
863.782	11428.74
864.103	11449.53
864.424	11383.54
864.745	11407.5
865.065	11284.56
865.386	11267.16
865.707	11224.22
866.027	11266.26
866.348	11248.18
866.668	11280.04
866.989	11196.88
867.309	11164.79
867.63	11234.62
867.95	11163.89
868.27	11092.93
868.59	11154.17
868.91	11028.3
869.23	11060.39
869.55	11049.54
869.87	11052.7
870.19	11063.78
870.51	10945.59
870.83	11067.84
871.15	10917.34
871.469	10904.91
871.789	10992.37
872.109	10900.62
872.428	10836.66
872.748	10908.07
873.067	10857.91
873.386	10827.4
873.706	10832.14
874.025	10767.06
874.344	10786.5
874.663	10783.33
874.982	10781.3
875.301	10749.66
875.62	10699.49
875.939	10635.77
876.258	10637.12
876.577	10604.35
876.896	10611.81
877.214	10647.29
877.533	10580.17
877.852	10566.39
878.17	10618.59
878.489	10585.6
878.807	10571.59
879.125	10505.15
879.444	10523.23
879.762	10485.94
880.08	10430.35
880.398	10414.98
880.716	10416.11
881.034	10402.55
881.352	10406.39
881.67	10298.15
881.988	10334.98
882.306	10295.21
882.624	10292.95
882.941	10244.36
883.259	10287.75
883.577	10241.43
883.894	10144.03
884.212	10194.87
884.529	10145.61
884.846	10076.01
885.164	10072.84
885.481	10113.75
885.798	10010.02
886.115	10056.35
886.432	10017.93
886.75	9959.85
887.067	10012.73
887.383	9916.46
887.7	9947.65
888.017	9894.77
888.334	9909
888.651	9830.36
888.967	9804.37
889.284	9722.8
889.6	9701.33
889.917	9754.21
890.233	9707.2
890.55	9695.68
890.866	9672.63
891.182	9641.22
891.498	9561.44
891.815	9586.08
892.131	9567.77
892.447	9537.26
892.763	9518.51
893.079	9438.28
893.395	9455.23
893.71	9419.53
894.026	9404.84
894.342	9364.16
894.657	9257.72
894.973	9300.21
895.289	9262.92
895.604	9241.23
895.92	9231.06
896.235	9153.32
896.55	9216.37
896.865	9099.08
897.181	9065.86
897.496	9014.34
897.811	8966.88
898.126	8937.73
898.441	8954
898.756	8931.18
899.071	8810.5
899.386	8866.55
899.7	8843.04
900.015	8789.71
900.33	8740.45
900.644	8739.77
900.959	8703.61
901.273	8727.34
901.588	8641.69
901.902	8664.52
902.216	8581.13
902.531	8521.24
902.845	8498.42
903.159	8520.34
903.473	8468.59
903.787	8438.31
904.101	8307.01
904.415	8357.86
904.729	8280.35
905.042	8270.86
905.356	8264.08
905.67	8249.39
905.984	8170.52
906.297	8118.09
906.611	8146.34
906.924	8085.32
907.237	8098.43
907.551	8032.67
907.864	8037.19
908.177	8026.57
908.491	7990.86
908.804	7941.37
909.117	7927.36
909.43	7837.42
909.743	7814.37
910.056	7814.37
910.368	7811.66
910.681	7752.23
910.994	7699.8
911.307	7664.09
911.619	7668.84
911.932	7625.22
912.244	7505.68
912.557	7561.72
912.869	7562.4
913.181	7459.35
913.494	7439.47
913.806	7389.07
914.118	7408.51
914.43	7329.86
914.742	7328.51
915.054	7366.7
915.366	7267.49
915.678	7216.19
915.99	7187.04
916.302	7154.95
916.613	7128.97
916.925	7094.16
917.236	7116.31
917.548	7058.23
917.859	7052.81
918.171	6989.53
918.482	6989.99
918.794	6940.04
919.105	6886.94
919.416	6865.92
919.727	6871.34
920.038	6850.78
920.349	6753.61
920.66	6747.73
920.971	6756.77
921.282	6748.64
921.593	6644.91
921.903	6633.38
922.214	6642.2
922.525	6570.11
922.835	6539.38
923.146	6523.78
923.456	6519.72
923.767	6460.28
924.077	6440.4
924.387	6472.03
924.697	6443.11
925.008	6337.8
925.318	6326.73
925.628	6369.44
925.938	6327.18
926.248	6224.81
926.558	6162.66
926.867	6221.42
927.177	6186.39
927.487	6246.05
927.796	6139.61
928.106	6176.22
928.416	6115.88
928.725	6079.5
929.034	6033.63
929.344	6053.97
929.653	5995.44
929.962	5969.67
930.271	5958.6
930.581	5963.35
930.89	5905.27
931.199	5859.62
931.508	5858.94
931.817	5855.33
932.125	5794.99
932.434	5747.76
932.743	5694.2
933.051	5682.45
933.36	5658.95
933.669	5672.28
933.977	5648.78
934.286	5631.83
934.594	5546.63
934.902	5561.32
935.21	5518.16
935.519	5533.98
935.827	5522.91
936.135	5462.57
936.443	5420.08
936.751	5432.96
937.059	5376.69
937.367	5364.04
937.674	5355.23
937.982	5343.7
938.29	5321.1
938.597	5302.8
938.905	5228.9
939.213	5210.37
939.52	5208.34
939.827	5234.33
940.135	5174.89
940.442	5103.48
940.749	5147.77
941.056	5138.06
941.363	5066.19
941.67	5083.14
941.977	5031.17
942.284	4968.57
942.591	5024.61
942.898	5013.31
943.205	4944.16
943.511	4969.93
943.818	4951.85
944.125	4903.94
944.431	4903.03
944.738	4902.58
945.044	4806.31
945.35	4821.68
945.657	4748.91
945.963	4741.68
946.269	4701.46
946.575	4715.92
946.881	4737.39
947.187	4692.42
947.493	4629.37
947.799	4615.81
948.105	4658.75
948.41	4613.78
948.716	4600.9
949.022	4557.28
949.327	4541.24
949.633	4505.08
949.938	4541.46
950.244	4493.1
950.549	4436.15
950.854	4417.62
951.16	4456.04
951.465	4423.95
951.77	4362.48
952.075	4367.91
952.38	4363.39
952.685	4336.72
952.99	4307.8
953.294	4287.01
953.599	4256.5
953.904	4241.81
954.209	4203.62
954.513	4198.42
954.818	4181.92
955.122	4197.74
955.426	4175.82
955.731	4121.81
956.035	4087.01
956.339	4117.97
956.643	4072.32
956.948	4058.54
957.252	4053.11
957.556	4037.07
957.86	4032.55
958.163	4025.77
958.467	3971.99
958.771	3995.04
959.075	3970.63
959.378	3928.15
959.682	3921.37
959.985	3924.98
960.289	3855.6
960.592	3881.59
960.896	3875.04
961.199	3857.86
961.502	3828.94
961.805	3837.75
962.108	3734.25
962.411	3742.39
962.714	3707.13
963.017	3698.09
963.32	3726.34
963.623	3683.18
963.926	3686.57
964.228	3674.59
964.531	3662.62
964.833	3656.74
965.136	3617.64
965.438	3626.23
965.741	3608.15
966.043	3590.08
966.345	3519.57
966.648	3540.36
966.95	3550.53
967.252	3518.66
967.554	3515.73
967.856	3511.89
968.158	3485.45
968.46	3467.37
968.761	3447.93
969.063	3420.81
969.365	3410.19
969.666	3413.81
969.968	3357.99
970.269	3383.07
970.571	3338.1
970.872	3372.91
971.174	3334.49
971.475	3343.3
971.776	3280.93
972.077	3287.03
972.378	3280.7
972.679	3257.43
972.98	3268.28
973.281	3241.61
973.582	3198.9
973.883	3208.62
974.183	3188.05
974.484	3165
974.785	3139.69
975.085	3128.17
975.386	3142.86
975.686	3130.43
975.986	3082.29
976.287	3068.73
976.587	3018.79
976.887	3057.66
977.187	3014.5
977.487	3040.03
977.787	2987.83
978.087	3022.63
978.387	3006.81
978.687	3002.07
978.987	2963.88
979.286	2944.67
979.586	2958.91
979.885	2925.01
980.185	2920.49
980.484	2899.02
980.784	2872.13
981.083	2870.55
981.382	2897.44
981.682	2884.78
981.981	2793.26
982.28	2838.68
982.579	2825.12
982.878	2856.54
983.177	2798.68
983.475	2811.11
983.774	2763.43
984.073	2737.67
984.372	2721.62
984.67	2754.39
984.969	2727.5
985.267	2691.79
985.566	2682.98
985.864	2653.38
986.162	2651.57
986.461	2649.53
986.759	2676.88
987.057	2623.09
987.355	2624.68
987.653	2636.2
987.951	2578.8
988.249	2575.86
988.547	2565.92
988.844	2574.06
989.142	2547.84
989.44	2534.28
989.737	2515.98
990.035	2536.54
990.332	2506.26
990.63	2493.15
990.927	2460.16
991.224	2466.94
991.521	2449.09
991.819	2464.68
992.116	2438.92
992.413	2399.6
992.71	2402.31
993.006	2419.48
993.303	2370.22
993.6	2408.19
993.897	2390.11
994.193	2371.12
994.49	2360.73
994.787	2299.26
995.083	2328.41
995.379	2304.91
995.676	2270.34
995.972	2315.08
996.268	2273.27
996.565	2241.86
996.861	2238.25
997.157	2245.25
997.453	2237.79
997.749	2230.11
998.044	2194.18
998.34	2200.28
998.636	2202.54
998.932	2180.17
999.227	2157.8
999.523	2141.07
999.818	2155.54
1000.114	2137.01
1000.409	2127.51
1000.704	2119.83
1001	2096.78
1001.295	2089.1
1001.59	2078.02
1001.885	2065.82
1002.18	2068.76
1002.475	2062.21
1002.77	2043
1003.065	2013.62
1003.359	2019.49
1003.654	1995.09
1003.949	2008.65
1004.243	1993.28
1004.538	1973.39
1004.832	1941.3
1005.127	1958.03
1005.421	1964.36
1005.715	1931.81
1006.009	1931.81
1006.304	1895.88
1006.598	1901.08
1006.892	1878.48
1007.186	1864.47
1007.48	1881.65
1007.773	1860.86
1008.067	1838.48
1008.361	1832.61
1008.655	1854.98
1008.948	1807.52
1009.242	1815.88
1009.535	1800.29
1009.829	1782.44
1010.122	1772.27
1010.415	1754.19
1010.708	1746.96
1011.001	1746.06
1011.295	1744.25
1011.588	1713.51
1011.881	1748.32
1012.173	1735.66
1012.466	1684.14
1012.759	1668.09
1013.052	1666.06
1013.344	1644.82
1013.637	1646.85
1013.93	1647.98
1014.222	1618.6
1014.514	1640.97
1014.807	1621.09
1015.099	1617.7
1015.391	1626.96
1015.683	1601.88
1015.976	1575.66
1016.268	1571.82
1016.56	1533.41
1016.851	1545.38
1017.143	1567.3
1017.435	1538.15
1017.727	1539.06
1018.018	1525.95
1018.31	1483.01
1018.602	1477.59
1018.893	1464.48
1019.185	1487.76
1019.476	1460.87
1019.767	1477.59
1020.058	1430.58
1020.35	1451.83
1020.641	1447.76
1020.932	1401.21
1021.223	1398.72
1021.514	1389.91
1021.804	1383.13
1022.095	1357.14
1022.386	1370.92
1022.677	1357.82
1022.967	1334.99
1023.258	1360.98
1023.548	1332.06
1023.839	1322.79
1024.129	1313.98
1024.419	1309.23
1024.709	1280.08
1025	1296.8
1025.29	1285.5
1025.58	1293.86
1025.87	1279.18
1026.16	1287.76
1026.449	1270.81
1026.739	1274.2
1027.029	1240.31
1027.319	1233.07
1027.608	1224.71
1027.898	1227.65
1028.187	1245.28
1028.477	1192.85
1028.766	1167.54
1029.055	1163.47
1029.344	1160.31
1029.634	1158.95
1029.923	1165.73
1030.212	1150.82
1030.501	1130.48
1030.79	1146.98
1031.078	1140.65
1031.367	1128.22
1031.656	1099.97
1031.945	1121.67
1032.233	1102.91
1032.522	1090.25
1032.81	1089.8
1033.099	1095.68
1033.387	1051.38
1033.675	1074.21
1033.963	1071.5
1034.251	1063.14
1034.54	1046.41
1034.828	1035.79
1035.116	1033.31
1035.403	1037.83
1035.691	1013.87
1035.979	994.89
1036.267	997.6
1036.554	1008.9
1036.842	993.99
1037.129	1011.39
1037.417	979.3
1037.704	981.33
1037.992	979.52
1038.279	945.17
1038.566	950.14
1038.853	950.14
1039.14	950.14
