Data from hue_34_FLMS001491_00087.txt Node
Date: Tue Feb 07 17:26:20 GMT 2017
User: dcchb
Spectrometer: FLMS00149
Trigger mode: 0
Integration Time (sec): 2.000000E-2
Scans to average: 10
Electric dark correction enabled: true
Nonlinearity correction enabled: false
Boxcar width: 0
XAxis mode: Wavelengths
Number of Pixels in Spectrum: 2048
>>>>>Begin Spectral Data<<<<<
341.393	-4.46
341.776	-4.46
342.16	-4.46
342.543	-61.86
342.927	-67.51
343.31	-70.9
343.693	-88.75
344.077	-57.12
344.46	-51.92
344.843	-56.67
345.226	-34.97
345.61	-35.65
345.993	-35.87
346.376	-12.82
346.759	5.03
347.142	24.46
347.525	50.9
347.908	61.07
348.291	96.1
348.674	92.94
349.057	114.18
349.44	142.65
349.823	125.7
350.206	146.27
350.588	190.11
350.971	214.06
351.354	227.17
351.737	231.01
352.119	251.35
352.502	263.33
352.884	285.47
353.267	295.87
353.65	297.68
354.032	308.07
354.414	323.89
354.797	288.64
355.179	311.23
355.562	312.82
355.944	323.44
356.326	333.38
356.709	326.38
357.091	322.99
357.473	358.01
357.855	340.61
358.238	332.25
358.62	328.86
359.002	353.27
359.384	342.19
359.766	327.51
360.148	339.93
360.53	339.48
360.912	355.08
361.294	320.5
361.676	312.82
362.057	316.66
362.439	353.27
362.821	334.74
363.203	351.91
363.584	315.75
363.966	343.55
364.348	341.06
364.729	331.12
365.111	318.01
365.493	328.86
365.874	334.06
366.256	298.81
366.637	318.69
367.019	301.52
367.4	310.33
367.781	328.86
368.163	303.1
368.544	297.9
368.925	319.37
369.306	336.54
369.688	299.94
370.069	293.61
370.45	322.53
370.831	322.31
371.212	312.82
371.593	337.9
371.974	329.31
372.355	312.36
372.736	316.66
373.117	310.78
373.498	296.55
373.879	315.3
374.26	308.3
374.641	319.6
375.021	335.87
375.402	323.44
375.783	308.3
376.163	319.14
376.544	326.38
376.925	312.36
377.305	331.12
377.686	341.06
378.066	347.17
378.447	316.21
378.827	313.49
379.208	353.04
379.588	351.23
379.968	343.78
380.349	337.22
380.729	350.1
381.109	337.9
381.489	333.83
381.87	335.64
382.25	352.36
382.63	345.36
383.01	342.42
383.39	348.52
383.77	326.38
384.15	343.78
384.53	338.8
384.91	339.93
385.29	340.61
385.67	347.62
386.049	364.34
386.429	347.39
386.809	361.4
387.189	347.84
387.568	356.43
387.948	347.17
388.328	347.84
388.707	374.96
389.087	344.91
389.466	376.32
389.846	347.62
390.225	360.5
390.605	373.61
390.984	357.11
391.363	361.85
391.743	364.34
392.122	365.47
392.501	357.34
392.881	378.8
393.26	367.73
393.639	360.5
394.018	377.9
394.397	398.92
394.776	382.19
395.155	387.39
395.534	358.47
395.913	373.15
396.292	376.54
396.671	394.4
397.05	386.71
397.429	387.62
397.808	372.7
398.186	388.29
398.565	384.68
398.944	414.28
399.323	375.87
399.701	387.62
400.08	410.89
400.458	393.27
400.837	397.56
401.215	413.38
401.594	402.98
401.972	372.25
402.351	394.85
402.729	423.77
403.107	407.96
403.486	396.2
403.864	405.92
404.242	391.68
404.62	419.71
404.999	422.64
405.377	417.9
405.755	439.82
406.133	417.45
406.511	437.56
406.889	416.32
407.267	435.53
407.645	445.24
408.023	425.36
408.401	447.05
408.779	425.36
409.156	435.53
409.534	432.59
409.912	455.19
410.29	478.01
410.667	458.12
411.045	450.44
411.422	452.7
411.8	461.29
412.178	464.68
412.555	468.97
412.933	470.33
413.31	453.6
413.687	472.59
414.065	474.17
414.442	480.04
414.819	479.14
415.197	471.23
415.574	509.65
415.951	485.24
416.328	471.68
416.705	509.42
417.082	497.9
417.46	488.18
417.837	498.35
418.214	504.68
418.591	480.72
418.967	532.92
419.344	510.33
419.721	508.29
420.098	511.46
420.475	501.29
420.852	520.95
421.228	539.48
421.605	536.09
421.982	525.01
422.358	513.94
422.735	563.66
423.111	539.7
423.488	542.42
423.864	549.65
424.241	573.15
424.617	555.75
424.994	561.4
425.37	558.91
425.746	558.23
426.123	582.64
426.499	541.74
426.875	574.05
427.251	569.08
427.627	560.04
428.003	584.67
428.379	587.16
428.756	584.22
429.132	596.88
429.507	601.4
429.883	618.12
430.259	624.45
430.635	621.96
431.011	601.85
431.387	629.19
431.763	650.66
432.138	636.2
432.514	637.55
432.89	627.38
433.265	627.61
433.641	670.32
434.016	675.29
434.392	661.51
434.767	681.85
435.143	674.16
435.518	672.36
435.894	678.46
436.269	692.47
436.644	675.07
437.02	711
437.395	709.87
437.77	726.82
438.145	706.7
438.52	709.42
438.895	735.86
439.271	715.74
439.646	721.39
440.021	736.31
440.395	760.94
440.77	737.66
441.145	741.73
441.52	755.52
441.895	748.06
442.27	772.69
442.645	760.94
443.019	784.22
443.394	787.83
443.769	770.43
444.143	743.99
444.518	793.71
444.892	774.95
445.267	811.11
445.641	801.84
446.016	800.94
446.39	805.01
446.764	808.85
447.139	788.51
447.513	826.48
447.887	814.05
448.262	815.63
448.636	811.56
449.01	835.97
449.384	863.54
449.758	858.56
450.132	857.66
450.506	861.05
450.88	852.69
451.254	853.59
451.628	868.73
452.002	866.7
452.376	889.3
452.75	894.27
453.123	896.53
453.497	915.29
453.871	901.95
454.244	937.43
454.618	922.52
454.992	927.04
455.365	946.92
455.739	978.11
456.112	969.52
456.486	998.22
456.859	981.5
457.232	1016.07
457.606	957.09
457.979	1029.86
458.352	1010.43
458.725	1038.22
459.099	1033.93
459.472	1027.6
459.845	1059.69
460.218	1070.99
460.591	1073.25
460.964	1104.21
461.337	1068.28
461.71	1085.23
462.083	1141.04
462.456	1141.72
462.829	1146.47
463.201	1181.95
463.574	1165.9
463.947	1194.38
464.32	1213.36
464.692	1246.58
465.065	1209.97
465.438	1224.21
465.81	1257.2
466.183	1238.67
466.555	1283.64
466.928	1293.13
467.3	1293.81
467.672	1331.32
468.045	1332.9
468.417	1375.16
468.789	1376.52
469.161	1379
469.534	1380.13
469.906	1455.84
470.278	1467.59
470.65	1464.88
471.022	1514.59
471.394	1538.1
471.766	1508.27
472.138	1561.37
472.51	1603.18
472.882	1614.93
473.253	1648.83
473.625	1694.25
473.997	1740.12
474.369	1741.48
474.74	1779.9
475.112	1821.03
475.484	1844.3
475.855	1900.57
476.227	1868.71
476.598	1954.13
476.97	1986.22
477.341	2052.21
477.713	2077.52
478.084	2103.05
478.455	2195.03
478.827	2217.85
479.198	2273.22
479.569	2280.45
479.94	2397.51
480.311	2384.17
480.682	2477.05
481.053	2550.27
481.424	2588.91
481.795	2629.59
482.166	2700.32
482.537	2786.65
482.908	2851.51
483.279	2897.83
483.65	2948.68
484.021	3042.01
484.391	3138.05
484.762	3161.33
485.133	3210.82
485.503	3302.34
485.874	3409.46
486.244	3445.84
486.615	3547.76
486.985	3626.18
487.356	3770.35
487.726	3773.29
488.097	3888.32
488.467	3907.3
488.837	4016.9
489.207	4130.8
489.578	4245.59
489.948	4301.86
490.318	4346.38
490.688	4441.97
491.058	4549.77
491.428	4630.22
491.798	4688.75
492.168	4880.83
492.538	4899.81
492.908	4977.55
493.278	5061.17
493.648	5141.16
494.017	5195.63
494.387	5276.98
494.757	5341.16
495.126	5473.36
495.496	5485.79
495.866	5606.46
496.235	5646.24
496.605	5741.6
496.974	5836.51
497.344	5845.78
497.713	5975.49
498.082	6064.53
498.452	6118.99
498.821	6166.67
499.19	6256.62
499.559	6301.59
499.928	6405.09
500.298	6404.41
500.667	6526.89
501.036	6576.83
501.405	6688.02
501.774	6692.99
502.143	6826.54
502.512	6776.38
502.88	6917.84
503.249	6940.44
503.618	7048.23
503.987	7055.46
504.356	7126.65
504.724	7161.22
505.093	7195.12
505.462	7250.49
505.83	7363.48
506.199	7483.25
506.567	7528.9
506.936	7562.57
507.304	7592.4
507.672	7701.32
508.041	7766.18
508.409	7805.73
508.777	7852.96
509.145	7932.28
509.514	7926.18
509.882	7962.33
510.25	8047.75
510.618	8054.08
510.986	8177.47
511.354	8250.91
511.722	8323
512.09	8370.91
512.458	8394.64
512.826	8489.55
513.193	8471.02
513.561	8525.26
513.929	8633.05
514.297	8694.52
514.664	8723.67
515.032	8810.22
515.4	8799.83
515.767	8882.08
516.135	8873.95
516.502	8895.87
516.869	9003.66
517.237	9099.48
517.604	9035.3
517.972	9165.24
518.339	9226.93
518.706	9219.02
519.073	9317.1
519.44	9323.2
519.808	9429.19
520.175	9335.63
520.542	9527.26
520.909	9504.44
521.276	9565
521.643	9618.11
522.009	9718.67
522.376	9762.51
522.743	9732
523.11	9857.2
523.477	9971.55
523.843	10070.75
524.21	10115.72
524.577	10149.85
524.943	10242.73
525.31	10243.63
525.676	10341.93
526.043	10414.7
526.409	10482.72
526.776	10551.64
527.142	10606.11
527.508	10622.38
527.874	10724.97
528.241	10784.63
528.607	10842.26
528.973	10903.27
529.339	10909.15
529.705	10991.63
530.071	11080.22
530.437	11171.51
530.803	11129.93
531.169	11319.98
531.535	11224.17
531.901	11293.77
532.267	11326.09
532.632	11398.17
532.998	11475.91
533.364	11532.63
533.73	11571.05
534.095	11690.6
534.461	11679.52
534.826	11751.39
535.192	11866.41
535.557	11792.06
535.923	11901.66
536.288	11851.27
536.653	11962.68
537.019	12027.76
537.384	12016.46
537.749	12082.9
538.114	12256.46
538.479	12104.6
538.845	12233.63
539.21	12195.44
539.575	12339.62
539.94	12373.52
540.305	12445.38
540.67	12363.35
541.034	12469.11
541.399	12567.18
541.764	12639.72
542.129	12656.67
542.494	12738.03
542.858	12808.08
543.223	12754.75
543.587	12853.28
543.952	12824.13
544.316	12933.05
544.681	12980.05
545.045	13027.28
545.41	13064.57
545.774	13140.28
546.138	13125.81
546.503	13307.96
546.867	13333.94
547.231	13332.36
547.595	13400.16
547.959	13386.37
548.324	13486.48
548.688	13484
549.052	13593.37
549.416	13586.59
549.779	13637.21
550.143	13698
550.507	13765.8
550.871	13871.78
551.235	13767.6
551.599	13986.36
551.962	13925.11
552.326	13973.93
552.689	14089.63
553.053	14032.23
553.417	13985.9
553.78	14285.33
554.143	14141.83
554.507	14295.27
554.87	14248.27
555.234	14460.02
555.597	14347.93
555.96	14275.16
556.323	14525.55
556.686	14392.9
557.05	14559
557.413	14611.65
557.776	14652.55
558.139	14750.4
558.502	14738.2
558.865	14812.1
559.228	14916.5
559.59	15082.37
559.953	15014.58
560.316	15127.79
560.679	15107.46
561.041	15215.7
561.404	15243.5
561.767	15366.66
562.129	15363.27
562.492	15474
562.854	15410.95
563.217	15436.26
563.579	15537.73
563.941	15585.64
564.304	15651.4
564.666	15709.02
565.028	15801
565.39	15786.31
565.753	15862.24
566.115	15872.63
566.477	15955.12
566.839	16047.32
567.201	16264.04
567.563	16172.74
567.925	16294.54
568.287	16286.18
568.648	16362.56
569.01	16450.92
569.372	16511.94
569.734	16461.54
570.095	16612.5
570.457	16655.21
570.819	16798.48
571.18	16725.94
571.542	16993.73
571.903	16886.84
572.265	16993.73
572.626	17089.55
572.987	17091.58
573.349	17236.21
573.71	17412.71
574.071	17438.24
574.432	17505.13
574.794	17624
575.155	17677.11
575.516	17630.33
575.877	17787.84
576.238	17943.77
576.599	17965.01
576.96	18120.03
577.32	18240.93
577.681	18346.92
578.042	18549.17
578.403	18618.1
578.763	18682.96
579.124	18869.39
579.485	18957.07
579.845	19235.26
580.206	19246.56
580.566	19341.24
580.927	19510.28
581.287	19802.02
581.648	19788.24
582.008	20053.99
582.368	20203.14
582.728	20331.73
583.089	20508.9
583.449	20626.18
583.809	20832.96
584.169	21092.16
584.529	21261.42
584.889	21608.75
585.249	21580.51
585.609	21780.5
585.969	22097.1
586.329	22258
586.688	22528.73
587.048	22646.69
587.408	22957.87
587.768	23222.27
588.127	23354.92
588.487	23470.85
588.846	23891.41
589.206	23965.75
589.565	24292.98
589.925	24560.54
590.284	24781.33
590.643	24977.48
591.003	25275.32
591.362	25487.07
591.721	25818.81
592.08	26038.69
592.44	26281.4
592.799	26543.54
593.158	26728.39
593.517	27006.35
593.876	27419
594.235	27557.98
594.593	27785.99
594.952	28054.23
595.311	28247
595.67	28490.15
596.029	28870.94
596.387	29197.71
596.746	29350.7
597.104	29501.65
597.463	29740.52
597.822	30008.31
598.18	30099.15
598.538	30314.29
598.897	30782.98
599.255	30753.6
599.613	31365.11
599.972	31251.44
600.33	31646.68
600.688	31724.87
601.046	32119.66
601.404	32474.46
601.762	32488.47
602.12	32699.31
602.478	32911.06
602.836	33193.31
603.194	33046.87
603.552	33468.78
603.91	33467.43
604.268	33809.34
604.625	33903.12
604.983	34252.26
605.341	34324.35
605.698	34501.97
606.056	34784.9
606.413	34897.22
606.771	35165.91
607.128	35367.04
607.485	35297.89
607.843	35551.66
608.2	35848.38
608.557	36069.84
608.914	36020.13
609.272	36399.1
609.629	36554.12
609.986	36868.24
610.343	36655.59
610.7	37096.03
611.057	37267.1
611.414	37288.34
611.771	37458.51
612.127	37653.08
612.484	37748.44
612.841	37894.2
613.198	37967.42
613.554	37974.43
613.911	38426.62
614.267	38485.82
614.624	38531.7
614.98	38727.85
615.337	38980.27
615.693	38832.93
616.05	39061.85
616.406	39295.07
616.762	39314.28
617.118	39333.71
617.475	39376.2
617.831	39599.02
618.187	39882.85
618.543	39814.38
618.899	40193.35
619.255	40189.06
619.611	40047.14
619.967	40400.12
620.323	40453.46
620.678	40277.19
621.034	40376.85
621.39	40514.92
621.746	40513.57
622.101	41004.85
622.457	40820.9
622.812	40905.2
623.168	40916.27
623.523	41037.62
623.879	41130.95
624.234	40852.32
624.589	41244.4
624.945	41198.07
625.3	41286.65
625.655	41302.25
626.01	41416.59
626.365	41466.54
626.72	41387.22
627.075	41338.18
627.43	41436.03
627.785	41468.34
628.14	41607.32
628.495	41671.05
628.85	41599.87
629.205	41564.39
629.559	41797.6
629.914	41703.37
630.269	41808.9
630.623	41696.59
630.978	41666.98
631.332	41788.79
631.687	41862.91
632.041	41737.72
632.396	41683.03
632.75	41630.6
633.104	41770.94
633.459	41669.24
633.813	41674.44
634.167	41642.13
634.521	41864.49
634.875	41725.51
635.229	41653.65
635.583	41683.03
635.937	41700.65
636.291	41607.32
636.645	41779.07
636.999	41690.49
637.352	41776.36
637.706	41512.41
638.06	41640.32
638.413	41558.74
638.767	41597.15
639.121	41737.26
639.474	41461.34
639.828	41517.16
640.181	41465.86
640.534	41426.09
640.888	41418.63
641.241	41383.83
641.594	41405.75
641.947	41539.53
642.301	41391.74
642.654	41388.12
643.007	41424.5
643.36	41388.35
643.713	41414.79
644.066	41382.92
644.419	41254.11
644.771	41015.02
645.124	40586.33
645.477	40570.97
645.83	40287.58
646.182	40090.75
646.535	39948.38
646.888	40228.6
647.24	39943.86
647.593	40126.23
647.945	40050.53
648.298	39916.52
648.65	39859.12
649.002	39760.82
649.355	39963.53
649.707	39999.91
650.059	40057.76
650.411	40484.64
650.763	40668.82
651.115	41011.41
651.467	40938.42
651.819	40771.64
652.171	40790.62
652.523	40641.25
652.875	40635.82
653.227	40536.39
653.578	40884.86
653.93	40719.89
654.282	40646.67
654.633	40489.84
654.985	40662.26
655.337	40573.45
655.688	40559.22
656.039	40718.08
656.391	40454.81
656.742	40492.78
657.094	40539.78
657.445	40700
657.796	40503.17
658.147	40555.15
658.498	40462.95
658.849	40575.94
659.2	40432.21
659.551	40466.34
659.902	40574.81
660.253	40482.61
660.604	40451.87
660.955	40246.68
661.306	40505.88
661.656	40286.23
662.007	40375.27
662.358	40515.38
662.708	40390.41
663.059	40402.38
663.409	40204.65
663.76	40464.53
664.11	40262.95
664.461	40524.87
664.811	40394.47
665.161	40368.26
665.511	40255.5
665.862	40293.91
666.212	40483.96
666.562	40293.01
666.912	40204.42
667.262	40172.11
667.612	40283.74
667.962	40271.09
668.312	40195.38
668.662	40276.74
669.011	40220.47
669.361	40154.48
669.711	40095.27
670.06	40194.03
670.41	40196.97
670.76	40052.56
671.109	40239.45
671.459	40018.67
671.808	40000.81
672.157	40158.1
672.507	39947.71
672.856	39949.97
673.205	39986.58
673.554	40047.37
673.904	39932.34
674.253	40062.51
674.602	39891.21
674.951	39494.84
675.3	39347.27
675.649	39890.99
675.998	39735.51
676.346	39857.99
676.695	39980.7
677.044	39637.43
677.393	39771.67
677.741	39837.2
678.09	39711.33
678.438	39730.99
678.787	39818.67
679.135	39805.11
679.484	39528.96
679.832	39698.67
680.181	39481.28
680.529	39587.72
680.877	39502.29
681.225	39305.24
681.573	39631.33
681.922	39313.15
682.27	39221.17
682.618	39284.22
682.966	39075.64
683.314	39139.82
683.661	39142.98
684.009	38896.43
684.357	38854.18
684.705	38869.77
685.053	38855.76
685.4	38799.94
685.748	38514.3
686.095	38516.78
686.443	38511.81
686.79	38424.36
687.138	38329.22
687.485	38504.81
687.832	38338.03
688.18	38377.13
688.527	38221.42
688.874	38165.83
689.221	38256.68
689.568	37869.8
689.915	37734.88
690.262	37984.37
690.609	37876.57
690.956	37696.92
691.303	37664.6
691.65	37488.79
691.997	37455.12
692.344	37176.93
692.69	37297.83
693.037	37248.57
693.383	36892.19
693.73	37136.03
694.077	36846.09
694.423	36908.69
694.769	36826.88
695.116	36615.14
695.462	36667.79
695.808	36464.86
696.155	36603.61
696.501	36278.65
696.847	36262.15
697.193	36063.06
697.539	36222.83
697.885	35986.45
698.231	35893.58
698.577	35834.37
698.923	35848.61
699.269	35872.33
699.614	35489.07
699.96	35387.83
700.306	35411.1
700.651	35248.17
700.997	35222.41
701.342	35108.51
701.688	34919.36
702.033	34913.49
702.379	34848.18
702.724	34672.37
703.069	34984.22
703.415	34497
703.76	34622.42
704.105	34555.76
704.45	34562.31
704.795	34210
705.14	34146.96
705.485	34078.03
705.83	33941.99
706.175	33920.07
706.52	33972.27
706.865	33935.21
707.209	33812.27
707.554	33584.71
707.899	33720.3
708.243	33476.46
708.588	33474.2
708.932	33346.52
709.277	33306.75
709.621	33164.83
709.966	33019.98
710.31	33074.44
710.654	32808.23
710.998	32937.27
711.342	32945.63
711.687	32914.22
712.031	32712.87
712.375	32669.03
712.719	32595.81
713.063	32647.33
713.407	32686.88
713.75	32385.87
714.094	32478.98
714.438	32384.06
714.782	32280.79
715.125	32239.21
715.469	32235.14
715.812	32146.33
716.156	31968.48
716.499	32002.6
716.843	32035.82
717.186	31752.44
717.53	31835.6
717.873	31952.44
718.216	31740.46
718.559	31515.39
718.902	31421.83
719.246	31394.94
719.589	31332.11
719.932	31240.59
720.275	31446.91
720.617	31184.1
720.96	31218.67
721.303	31298.22
721.646	31103.87
721.989	30893.93
722.331	31140.93
722.674	30964.67
723.016	31085.34
723.359	30990.43
723.701	30888.51
724.044	30687.61
724.386	30517.22
724.729	30794.5
725.071	30748.17
725.413	30516.77
725.755	30582.76
726.097	30460.27
726.439	30400.39
726.782	30417.34
727.124	30455.3
727.465	30261.18
727.807	30291.92
728.149	30221.63
728.491	30183.67
728.833	30135.08
729.175	30071.58
729.516	30009.66
729.858	29969.21
730.199	30018.48
730.541	29944.58
730.882	29748.65
731.224	30069.77
731.565	29712.04
731.906	29841.76
732.248	29736.9
732.589	29560.64
732.93	29596.34
733.271	29624.59
733.612	29651.93
733.953	29638.6
734.294	29582.33
734.635	29426.85
734.976	29468.89
735.317	29312.73
735.658	29313.86
735.999	29286.07
736.339	29249.23
736.68	29208.1
737.021	29117.71
737.361	28922.01
737.702	29117.03
738.042	29071.16
738.383	28979.86
738.723	29023.02
739.063	28880.2
739.404	28982.57
739.744	28884.27
740.084	28662.58
740.424	28818.96
740.764	28629.81
741.104	28845.17
741.444	28584.16
741.784	28538.97
742.124	28554.56
742.464	28611.28
742.804	28554.33
743.143	28478.18
743.483	28483.83
743.823	28398.41
744.162	28335.81
744.502	28504.17
744.841	28178.52
745.181	28270.95
745.52	28088.58
745.86	28235.47
746.199	28165.87
746.538	28021.01
746.877	28211.07
747.216	28027.12
747.556	28084.74
747.895	27971.52
748.234	27810.17
748.573	27837.74
748.911	27795.94
749.25	27845.43
749.589	27698.09
749.928	27829.61
750.267	27871.64
750.605	27600.01
750.944	27557.07
751.283	27505.55
751.621	27576.05
751.96	27397.08
752.298	27434.36
752.636	27371.99
752.975	27225.1
753.313	27224.43
753.651	27280.7
753.989	27062.4
754.327	27153.92
754.666	26932.91
755.004	27046.35
755.342	27018.33
755.679	26935.62
756.017	26800.71
756.355	26806.58
756.693	26672.58
757.031	26641.39
757.368	26563.88
757.706	26564.56
758.044	26403.66
758.381	26441.17
758.719	26379.25
759.056	26442.98
759.394	26387.84
759.731	26033.72
760.068	26155.75
760.405	26005.25
760.743	25908.08
761.08	25963.89
761.417	25798.02
761.754	25777.23
762.091	25718.25
762.428	25681.19
762.765	25446.85
763.102	25556.67
763.438	25405.49
763.775	25242.78
764.112	25429.22
764.449	25305.61
764.785	25202.78
765.122	25081.66
765.458	24864.26
765.795	24940.87
766.131	24944.26
766.467	24803.25
766.804	24774.77
767.14	24603.7
767.476	24702.68
767.812	24501.11
768.148	24549.24
768.485	24279.64
768.821	24291.85
769.157	24245.29
769.492	23976.83
769.828	24056.37
770.164	23811.18
770.5	23777.96
770.836	23835.59
771.171	23579.1
771.507	23609.61
771.842	23511.53
772.178	23451.19
772.513	23340.69
772.849	23287.13
773.184	23155.61
773.519	23184.31
773.855	23083.97
774.19	22922.84
774.525	22856.4
774.86	22901.15
775.195	22756.52
775.53	22644.88
775.865	22532.12
776.2	22460.71
776.535	22278.34
776.87	22384.78
777.205	22226.14
777.539	22064.11
777.874	22155.63
778.209	22023.88
778.543	21886.94
778.878	21814.62
779.212	21855.08
779.547	21745.25
779.881	21794.51
780.215	21560.17
780.55	21608.75
780.884	21384.13
781.218	21385.71
781.552	21344.35
781.886	21188.2
782.22	21113.63
782.554	20916.79
782.888	20868.43
783.222	20761.09
783.556	20772.84
783.889	20659.17
784.223	20507.31
784.557	20595
784.89	20505.05
785.224	20425.96
785.557	20277.94
785.891	20200.88
786.224	20127.44
786.558	20116.14
786.891	20080.43
787.224	19943.49
787.557	19878.4
787.891	19889.93
788.224	19807.67
788.557	19837.5
788.89	19661.69
789.223	19667.79
789.556	19441.58
789.888	19350.28
790.221	19458.53
790.554	19252.21
790.887	19282.26
791.219	19146.45
791.552	19143.51
791.884	19071.19
792.217	18975.15
792.549	18907.36
792.882	18717.76
793.214	18717.08
793.546	18683.41
793.879	18641.6
794.211	18641.37
794.543	18640.7
794.875	18436.86
795.207	18557.76
795.539	18452
795.871	18478.67
796.203	18207.71
796.535	18181.73
796.867	18198.67
797.198	18078
797.53	18046.81
797.862	17908.06
798.193	17917.33
798.525	17935.86
798.856	17898.79
799.188	17655.41
799.519	17613.83
799.85	17535.87
800.182	17518.47
800.513	17512.59
800.844	17361.41
801.175	17405.25
801.506	17387.62
801.837	17279.15
802.168	17225.14
802.499	17209.32
802.83	17096.1
803.161	17060.4
803.491	16995.32
803.822	16996.45
804.153	16958.25
804.483	16785.83
804.814	16760.75
805.145	16802.55
805.475	16646.85
805.805	16609.34
806.136	16607.98
806.466	16641.88
806.796	16598.04
807.126	16415.67
807.457	16439.17
807.787	16417.03
808.117	16256.13
808.447	16229.69
808.777	16351.72
809.107	16229.01
809.436	16123.02
809.766	16125.73
810.096	16087.09
810.426	15964.38
810.755	16096.36
811.085	16048.45
811.414	15804.61
811.744	15744.73
812.073	15728
812.403	15765.07
812.732	15669.25
813.061	15663.15
813.39	15543.6
813.719	15570.49
814.049	15589.03
814.378	15499.76
814.707	15528.24
815.036	15493.89
815.365	15365.75
815.693	15267.45
816.022	15272.42
816.351	15191.3
816.68	15156.49
817.008	15144.74
817.337	15106.33
817.665	15024.07
817.994	15063.84
818.322	15076.72
818.651	15010.74
818.979	14918.31
819.307	15028.14
819.636	14978.65
819.964	14850.97
820.292	14890.96
820.62	14831.08
820.948	14808.71
821.276	14915.14
821.604	14835.15
821.932	14792.44
822.259	14768.93
822.587	14756.28
822.915	14749.27
823.243	14772.78
823.57	14777.75
823.898	14707.47
824.225	14726
824.553	14662.5
824.88	14648.03
825.207	14757.86
825.535	14716.51
825.862	14745.43
826.189	14674.7
826.516	14642.38
826.843	14662.04
827.17	14684.64
827.497	14756.28
827.824	14720.12
828.151	14721.03
828.478	14603.97
828.805	14724.42
829.131	14704.08
829.458	14658.65
829.785	14608.03
830.111	14617.07
830.438	14669.95
830.764	14672.67
831.09	14751.31
831.417	14548.83
831.743	14746.11
832.069	14630.18
832.395	14537.08
832.722	14582.72
833.048	14545.66
833.374	14565.78
833.7	14430.19
834.026	14452.11
834.351	14483.52
834.677	14469.05
835.003	14571.88
835.329	14456.63
835.654	14502.95
835.98	14385.67
836.306	14350.41
836.631	14370.98
836.956	14332.79
837.282	14446.68
837.607	14297.31
837.932	14294.6
838.258	14308.15
838.583	14302.28
838.908	14282.17
839.233	14199.68
839.558	14128.27
839.883	14075.62
840.208	14094.83
840.533	14063.42
840.858	14099.12
841.182	14058.22
841.507	14036.07
841.832	13942.97
842.156	13943.42
842.481	14006.02
842.805	13879.24
843.13	13867.94
843.454	13931.22
843.778	13759.47
844.103	13849.86
844.427	13719.7
844.751	13745.91
845.075	13742.07
845.399	13694.16
845.723	13568.29
846.047	13541.85
846.371	13533.03
846.695	13450.32
847.019	13237.9
847.343	13303.44
847.666	13330.33
847.99	13178.24
848.313	13224.34
848.637	13117
848.96	13087.62
849.284	13049.43
849.607	12987.29
849.931	12824.35
850.254	12846.95
850.577	12819.61
850.9	12647.18
851.223	12735.31
851.546	12608.76
851.869	12523.34
852.192	12497.81
852.515	12466.17
852.838	12513.85
853.161	12493.06
853.483	12354.53
853.806	12260.3
854.129	12307.53
854.451	12178.95
854.774	12174.65
855.096	12096.24
855.419	12093.52
855.741	12029.34
856.063	11977.59
856.385	11925.39
856.708	11926.3
857.03	11914.77
857.352	11954.77
857.674	11880.2
857.996	11807.88
858.318	11793.87
858.64	11655.8
858.961	11627.1
859.283	11678.39
859.605	11617.83
859.926	11672.74
860.248	11533.31
860.57	11564.72
860.891	11597.72
861.212	11482.24
861.534	11526.08
861.855	11407.67
862.176	11489.47
862.498	11435.46
862.819	11358.85
863.14	11277.95
863.461	11362.24
863.782	11328.8
864.103	11330.61
864.424	11344.62
864.745	11276.37
865.065	11220.55
865.386	11185.53
865.707	11154.57
866.027	11191.85
866.348	11087.67
866.668	11168.35
866.989	11075.25
867.309	11030.95
867.63	11049.26
867.95	11075.25
868.27	10966.32
868.59	10989.6
868.91	10934.46
869.23	10937.4
869.55	10884.29
869.87	10918.41
870.19	10842.48
870.51	10873.22
870.83	10866.21
871.15	10860.34
871.469	10843.39
871.789	10850.17
872.109	10796.61
872.428	10709.61
872.748	10737.85
873.067	10712.09
873.386	10736.95
873.706	10741.92
874.025	10639.55
874.344	10657.86
874.663	10672.77
874.982	10687.91
875.301	10632.32
875.62	10616.95
875.939	10594.13
876.258	10588.48
876.577	10490.4
876.896	10535.82
877.214	10500.35
877.533	10470.74
877.852	10425.09
878.17	10442.27
878.489	10509.84
878.807	10383.51
879.125	10409.95
879.444	10347.13
879.762	10392.1
880.08	10378.31
880.398	10361.37
880.716	10343.06
881.034	10296.28
881.352	10277.07
881.67	10243.63
881.988	10282.05
882.306	10220.8
882.624	10213.12
882.941	10073.46
883.259	10106.23
883.577	10055.16
883.894	10088.6
884.212	10080.02
884.529	9982.17
884.846	10044.76
885.164	9948.27
885.481	9932.45
885.798	9981.49
886.115	9892.68
886.432	9964.77
886.75	9863.53
887.067	9799.8
887.383	9777.88
887.7	9795.51
888.017	9778.33
888.334	9722.74
888.651	9753.25
888.967	9758.44
889.284	9685.23
889.6	9645
889.917	9636.41
890.233	9616.07
890.55	9579.92
890.866	9559.58
891.182	9523.65
891.498	9480.94
891.815	9469.86
892.131	9361.62
892.447	9448.62
892.763	9368.17
893.079	9360.04
893.395	9292.92
893.71	9284.11
894.026	9275.29
894.342	9223.77
894.657	9160.95
894.973	9155.07
895.289	9124.11
895.604	9202.53
895.92	9070.33
896.235	8991.23
896.55	9094.05
896.865	9016.09
897.181	8912.14
897.496	8987.62
897.811	8870.11
898.126	8872.59
898.441	8870.11
898.756	8797.11
899.071	8772.26
899.386	8764.12
899.7	8689.32
900.015	8705.82
900.33	8597.8
900.644	8655.87
900.959	8644.35
901.273	8572.71
901.588	8553.05
901.902	8546.5
902.216	8460.4
902.531	8458.82
902.845	8458.59
903.159	8408.65
903.473	8368.42
903.787	8327.75
904.101	8314.64
904.415	8300.4
904.729	8241.42
905.042	8181.99
905.356	8162.78
905.67	8099.28
905.984	8134.76
906.297	8058.15
906.611	8053.63
906.924	8052.5
907.237	7998.72
907.551	7992.39
907.864	7992.39
908.177	7909.45
908.491	7914.88
908.804	7863.8
909.117	7853.86
909.43	7749.46
909.743	7766.63
910.056	7708.33
910.368	7764.15
910.681	7661.32
910.994	7660.19
911.307	7564.15
911.619	7535.45
911.932	7545.62
912.244	7509.46
912.557	7487.32
912.869	7422.23
913.181	7406.42
913.494	7402.57
913.806	7339.3
914.118	7322.8
914.43	7269.47
914.742	7279.19
915.054	7262.69
915.366	7212.97
915.678	7137.04
915.99	7087.1
916.302	7041.45
916.613	7031.06
916.925	7071.28
917.236	7030.83
917.548	6947.9
917.859	7020.89
918.171	6933.66
918.482	6898.86
918.794	6853.66
919.105	6928.46
919.416	6763.72
919.727	6779.31
920.038	6739.54
920.349	6652.08
920.66	6642.14
920.971	6650.96
921.282	6654.34
921.593	6609.83
921.903	6568.25
922.214	6570.05
922.525	6591.07
922.835	6509.26
923.146	6462.71
923.456	6413.45
923.767	6436.27
924.077	6397.18
924.387	6351.3
924.697	6316.73
925.008	6293.9
925.318	6262.94
925.628	6255.49
925.938	6234.02
926.248	6178.65
926.558	6169.84
926.867	6095.04
927.177	6129.39
927.487	6073.57
927.796	6015.04
928.106	6043.06
928.416	6027.92
928.725	6026.34
929.034	5942.5
929.344	5932.56
929.653	5971.42
929.962	5911.77
930.271	5854.14
930.581	5809.62
930.89	5763.75
931.199	5765.33
931.508	5801.94
931.817	5805.55
932.125	5721.04
932.434	5735.95
932.743	5623.86
933.051	5648.27
933.36	5584.99
933.669	5587.25
933.977	5602.4
934.286	5550.42
934.594	5503.87
934.902	5516.07
935.21	5479.46
935.519	5490.76
935.827	5453.47
936.135	5372.34
936.443	5357.2
936.751	5347.03
937.059	5373.93
937.367	5294.15
937.674	5384.32
937.982	5297.54
938.29	5245.79
938.597	5210.31
938.905	5156.31
939.213	5162.63
939.52	5152.69
939.827	5183.87
940.135	5116.08
940.442	5137.77
940.749	5086.02
941.056	5097.78
941.363	5055.29
941.67	5011.68
941.977	4976.87
942.284	4949.76
942.591	4986.14
942.898	4987.72
943.205	4889.87
943.511	4869.08
943.818	4855.97
944.125	4790.89
944.431	4800.38
944.738	4823.21
945.044	4769.42
945.35	4719.25
945.657	4759.71
945.963	4699.82
946.269	4724.45
946.575	4632.48
946.881	4641.97
947.187	4660.95
947.493	4610.1
947.799	4587.96
948.105	4583.89
948.41	4557.22
948.716	4542.76
949.022	4517.45
949.327	4470.45
949.633	4447.17
949.938	4469.09
950.244	4439.04
950.549	4416.66
950.854	4427.28
951.16	4412.82
951.465	4336.67
951.77	4357.91
952.075	4320.39
952.38	4343.9
952.685	4320.17
952.99	4263
953.294	4226.84
953.599	4247.85
953.904	4252.15
954.209	4155.88
954.513	4200.17
954.818	4178.03
955.122	4094.19
955.426	4113.17
955.731	4129.89
956.035	4077.01
956.339	4077.24
956.643	4064.36
956.948	4058.71
957.252	3999.95
957.556	4004.47
957.86	3975.32
958.163	3975.77
958.467	3900.07
958.771	3933.96
959.075	3903
959.378	3884.25
959.682	3919.73
959.985	3865.49
960.289	3839.73
960.592	3796.79
960.896	3814.87
961.199	3790.69
961.502	3775.1
961.805	3768.09
962.108	3731.48
962.411	3779.84
962.714	3732.61
963.017	3672.28
963.32	3686.97
963.623	3679.51
963.926	3661.66
964.228	3660.07
964.531	3609
964.833	3641.09
965.136	3559.51
965.438	3592.73
965.741	3546.4
966.043	3567.19
966.345	3538.95
966.648	3482.22
966.95	3516.35
967.252	3471.83
967.554	3441.1
967.856	3463.47
968.158	3426.18
968.46	3395.22
968.761	3402.23
969.063	3406.07
969.365	3333.75
969.666	3370.59
969.968	3345.05
970.269	3355
970.571	3329.69
970.872	3324.26
971.174	3270.25
971.475	3245.62
971.776	3252.4
972.077	3255.79
972.378	3227.09
972.679	3227.77
972.98	3177.15
973.281	3174.44
973.582	3178.28
973.883	3171.05
974.183	3158.17
974.484	3165.4
974.785	3092.18
975.085	3098.28
975.386	3079.3
975.686	3093.76
975.986	3084.5
976.287	3069.58
976.587	3053.31
976.887	3047.89
977.187	3024.16
977.487	3020.77
977.787	3036.81
978.087	2971.96
978.387	2974.22
978.687	2965.63
978.987	2921.34
979.286	2919.75
979.586	2933.09
979.885	2866.42
980.185	2876.82
980.484	2858.29
980.784	2856.25
981.083	2825.74
981.382	2837.95
981.682	2827.1
981.981	2815.8
982.28	2769.25
982.579	2786.88
982.878	2729.48
983.177	2772.86
983.475	2772.64
983.774	2731.74
984.073	2726.54
984.372	2709.14
984.67	2678.86
984.969	2689.48
985.267	2709.59
985.566	2675.47
985.864	2651.74
986.162	2648.35
986.461	2624.62
986.759	2613.1
987.057	2608.8
987.355	2560.44
987.653	2574.68
987.951	2553.44
988.249	2581.23
988.547	2549.82
988.844	2562.02
989.142	2549.82
989.44	2524.51
989.737	2490.16
990.035	2498.07
990.332	2485.19
990.63	2464.62
990.927	2481.35
991.224	2412.87
991.521	2411.52
991.819	2420.11
992.116	2433.44
992.413	2403.16
992.71	2363.84
993.006	2368.36
993.303	2337.62
993.6	2318.64
993.897	2354.57
994.193	2345.98
994.49	2322.71
994.787	2312.09
995.083	2283.61
995.379	2289.94
995.676	2288.36
995.972	2258.3
996.268	2270.96
996.565	2239.09
996.861	2231.64
997.157	2191.19
997.453	2231.18
997.749	2179.21
998.044	2185.31
998.34	2166.78
998.636	2162.26
998.932	2169.49
999.227	2154.12
999.523	2162.94
999.818	2096.5
1000.114	2096.5
1000.409	2096.72
1000.704	2093.11
1001	2072.54
1001.295	2058.53
1001.59	2049.04
1001.885	2042.49
1002.18	2021.25
1002.475	2024.18
1002.77	1997.07
1003.065	2007.46
1003.359	1997.97
1003.654	1990.96
1003.949	1959.33
1004.243	1980.34
1004.538	1924.75
1004.832	1945.32
1005.127	1920.46
1005.421	1918.88
1005.715	1899.44
1006.009	1916.39
1006.304	1884.75
1006.598	1864.41
1006.892	1883.85
1007.186	1879.33
1007.48	1842.04
1007.773	1855.37
1008.067	1799.78
1008.361	1795.72
1008.655	1805.21
1008.948	1791.42
1009.242	1783.96
1009.535	1756.39
1009.829	1771.54
1010.122	1742.38
1010.415	1761.37
1010.708	1745.77
1011.001	1723.85
1011.295	1687.92
1011.588	1712.1
1011.881	1710.52
1012.173	1694.02
1012.466	1670.3
1012.759	1682.27
1013.052	1669.17
1013.344	1640.92
1013.637	1671.2
1013.93	1629.84
1014.222	1602.05
1014.514	1628.71
1014.807	1600.01
1015.099	1580.35
1015.391	1609.05
1015.683	1579.9
1015.976	1546.46
1016.268	1544.65
1016.56	1529.73
1016.851	1515.27
1017.143	1517.98
1017.435	1545.55
1017.727	1489.28
1018.018	1471.2
1018.31	1487.48
1018.602	1483.41
1018.893	1476.63
1019.185	1468.04
1019.476	1455.16
1019.767	1453.35
1020.058	1430.98
1020.35	1427.59
1020.641	1374.71
1020.932	1414.48
1021.223	1397.31
1021.514	1410.41
1021.804	1369.06
1022.095	1369.96
1022.386	1353.02
1022.677	1362.28
1022.967	1369.29
1023.258	1316.86
1023.548	1320.93
1023.839	1322.28
1024.129	1314.37
1024.419	1327.93
1024.709	1281.83
1025	1307.82
1025.29	1297.42
1025.58	1266.69
1025.87	1249.29
1026.16	1256.07
1026.449	1258.55
1026.739	1246.8
1027.029	1223.3
1027.319	1242.51
1027.608	1194.38
1027.898	1190.31
1028.187	1194.15
1028.477	1190.99
1028.766	1162.74
1029.055	1173.58
1029.344	1162.51
1029.634	1156.86
1029.923	1148.95
1030.212	1141.5
1030.501	1107.82
1030.79	1134.94
1031.078	1112.8
1031.367	1097.88
1031.656	1101.5
1031.945	1109.63
1032.233	1083.87
1032.522	1073.47
1032.81	1079.58
1033.099	1084.32
1033.387	1065.34
1033.675	1042.74
1033.963	1064.21
1034.251	1037.54
1034.54	1034.38
1034.828	1006.13
1035.116	1006.36
1035.403	1016.07
1035.691	1032.12
1035.979	1016.75
1036.267	1005.23
1036.554	1014.27
1036.842	998.45
1037.129	960.71
1037.417	993.93
1037.704	973.36
1037.992	957.55
1038.279	958.45
1038.566	972.91
1038.853	972.91
1039.14	972.91
