Data from hue_20_FLMS001491_68.txt Node
Date: Mon Feb 06 15:34:28 GMT 2017
User: dcchb
Spectrometer: FLMS00149
Trigger mode: 0
Integration Time (sec): 2.000000E-2
Scans to average: 10
Electric dark correction enabled: true
Nonlinearity correction enabled: false
Boxcar width: 0
XAxis mode: Wavelengths
Number of Pixels in Spectrum: 2048
>>>>>Begin Spectral Data<<<<<
341.393	-3.5
341.776	-3.5
342.16	-3.5
342.543	-44.63
342.927	-67.23
343.31	-65.42
343.693	-70.17
344.077	-65.2
344.46	-62.71
344.843	-45.76
345.226	-54.35
345.61	-31.3
345.993	-21.13
346.376	2.6
346.759	-8.02
347.142	29.04
347.525	43.5
347.908	60.68
348.291	82.14
348.674	93.67
349.057	112.43
349.44	128.7
349.823	132.54
350.206	166.44
350.588	202.59
350.971	212.08
351.354	223.61
351.737	234.91
352.119	259.32
352.502	275.13
352.884	283.04
353.267	284.4
353.65	294.34
354.032	290.95
354.414	309.94
354.797	320.56
355.179	318.07
355.562	315.13
355.944	333.44
356.326	335.47
356.709	334.34
357.091	370.27
357.473	323.95
357.855	343.15
358.238	342.7
358.62	332.99
359.002	337.05
359.384	356.26
359.766	337.96
360.148	327.56
360.53	341.57
360.912	329.14
361.294	342.93
361.676	320.33
362.057	328.47
362.439	350.16
362.821	335.7
363.203	325.53
363.584	318.75
363.966	331.18
364.348	315.81
364.729	328.01
365.111	318.97
365.493	301.8
365.874	327.56
366.256	337.05
366.637	304.74
367.019	316.49
367.4	306.32
367.781	332.76
368.163	323.27
368.544	289.37
368.925	305.87
369.306	308.13
369.688	315.13
370.069	319.65
370.45	310.84
370.831	321.91
371.212	307.45
371.593	327.11
371.974	333.89
372.355	330.05
372.736	336.6
373.117	301.8
373.498	336.38
373.879	290.27
374.26	325.53
374.641	316.04
375.021	309.94
375.402	315.81
375.783	317.84
376.163	329.6
376.544	318.3
376.925	327.56
377.305	333.89
377.686	343.83
378.066	316.04
378.447	331.18
378.827	339.09
379.208	340.89
379.588	316.49
379.968	342.7
380.349	336.6
380.729	340.44
381.109	345.41
381.489	364.85
381.87	333.66
382.25	333.44
382.63	343.38
383.01	340.44
383.39	352.87
383.77	328.01
384.15	346.32
384.53	352.42
384.91	351.06
385.29	351.97
385.67	340.22
386.049	353.32
386.429	355.13
386.809	363.49
387.189	352.87
387.568	352.65
387.948	352.87
388.328	352.19
388.707	357.84
389.087	348.13
389.466	361.23
389.846	356.49
390.225	361.23
390.605	361.46
390.984	369.14
391.363	343.61
391.743	353.1
392.122	365.75
392.501	379.31
392.881	353.1
393.26	376.15
393.639	370.95
394.018	382.93
394.397	366.21
394.776	377.5
395.155	357.84
395.534	390.16
395.913	386.77
396.292	388.13
396.671	370.05
397.05	383.61
397.429	372.31
397.808	375.24
398.186	384.74
398.565	387
398.944	375.02
399.323	392.42
399.701	378.86
400.08	406.2
400.458	408.01
400.837	418.63
401.215	402.36
401.594	396.49
401.972	409.82
402.351	413.66
402.729	401.91
403.107	395.81
403.486	398.52
403.864	398.29
404.242	394.9
404.62	398.29
404.999	417.05
405.377	441.68
405.755	399.65
406.133	416.15
406.511	425.64
406.889	422.93
407.267	418.86
407.645	416.83
408.023	417.73
408.401	414.11
408.779	432.42
409.156	419.99
409.534	425.19
409.912	438.75
410.29	425.19
410.667	444.4
411.045	458.86
411.422	446.65
411.8	450.04
412.178	445.3
412.555	444.4
412.933	456.82
413.31	464.51
413.687	470.38
414.065	467.9
414.442	459.31
414.819	464.96
415.197	480.78
415.574	488.24
415.951	455.92
416.328	497.5
416.705	481.23
417.082	498.4
417.46	484.17
417.837	469.93
418.214	477.84
418.591	490.72
418.967	497.95
419.344	498.4
419.721	489.82
420.098	485.75
420.475	526.65
420.852	521.23
421.228	493.66
421.605	478.52
421.982	503.83
422.358	514.22
422.735	522.81
423.111	514.9
423.488	516.03
423.864	527.56
424.241	521.23
424.617	520.78
424.994	522.36
425.37	521.68
425.746	532.3
426.123	538.86
426.499	559.87
426.875	539.53
427.251	541.12
427.627	549.03
428.003	551.96
428.379	575.47
428.756	552.64
429.132	566.65
429.507	573.88
429.883	565.3
430.259	576.14
430.635	589.7
431.011	589.93
431.387	605.52
431.763	611.17
432.138	600.55
432.514	594.9
432.89	601.45
433.265	646.65
433.641	617.95
434.016	618.18
434.392	641.23
434.767	613.2
435.143	629.7
435.518	646.88
435.894	648.23
436.269	675.58
436.644	674.45
437.02	652.3
437.395	646.2
437.77	657.95
438.145	679.42
438.52	660.43
438.895	694.78
439.271	683.26
439.646	693.43
440.021	688.23
440.395	690.04
440.77	704.95
441.145	718.06
441.52	729.13
441.895	690.72
442.27	695.69
442.645	729.59
443.019	734.78
443.394	721.22
443.769	742.47
444.143	748.79
444.518	737.04
444.892	734.56
445.267	751.28
445.641	751.73
446.016	745.18
446.39	735.46
446.764	750.15
447.139	745.63
447.513	758.74
447.887	762.13
448.262	776.82
448.636	783.37
449.01	793.54
449.384	796.48
449.758	789.92
450.132	782.24
450.506	780.43
450.88	805.52
451.254	810.71
451.628	808.91
452.002	826.98
452.376	821.79
452.75	819.98
453.123	828.34
453.497	857.27
453.871	851.84
454.244	856.81
454.618	872.41
454.992	883.93
455.365	876.47
455.739	887.1
456.112	861.33
456.486	899.52
456.859	910.15
457.232	911.05
457.606	911.95
457.979	925.06
458.352	928.9
458.725	960.31
459.099	976.13
459.472	959.64
459.845	980.88
460.218	978.84
460.591	993.31
460.964	982.91
461.337	1021.56
461.71	1031.72
462.083	1005.06
462.456	1044.15
462.829	1049.8
463.201	1040.99
463.574	1080.54
463.947	1084.6
464.32	1081.21
464.692	1080.76
465.065	1084.38
465.438	1120.99
465.81	1124.83
466.183	1150.37
466.555	1164.6
466.928	1184.71
467.3	1165.73
467.672	1184.26
468.045	1199.86
468.417	1214.09
468.789	1240.98
469.161	1238.72
469.534	1257.26
469.906	1285.5
470.278	1301.32
470.65	1332.96
471.022	1332.96
471.394	1339.06
471.766	1362.11
472.138	1378.16
472.51	1375.44
472.882	1424.93
473.253	1436.69
473.625	1454.99
473.997	1480.07
474.369	1516.01
474.74	1499.06
475.112	1530.69
475.484	1551.71
475.855	1592.61
476.227	1593.97
476.598	1638.94
476.97	1686.62
477.341	1697.7
477.713	1733.63
478.084	1715.55
478.455	1800.97
478.827	1819.05
479.198	1852.72
479.569	1882.32
479.94	1899.5
480.311	1948.99
480.682	1955.54
481.053	1999.61
481.424	2066.27
481.795	2068.76
482.166	2086.39
482.537	2133.62
482.908	2183.78
483.279	2205.7
483.65	2259.49
484.021	2307.85
484.391	2335.42
484.762	2365.25
485.133	2381.97
485.503	2443.21
485.874	2461.74
486.244	2520.27
486.615	2557.11
486.985	2562.31
487.356	2648.4
487.726	2669.42
488.097	2715.52
488.467	2694.73
488.837	2776.99
489.207	2842.75
489.578	2893.82
489.948	2918.23
490.318	2974.05
490.688	3000.26
491.058	3043.87
491.428	3059.02
491.798	3063.76
492.168	3173.59
492.538	3162.52
492.908	3237.09
493.278	3306.24
493.648	3269.41
494.017	3311.89
494.387	3374.94
494.757	3366.8
495.126	3432.11
495.496	3433.92
495.866	3491.77
496.235	3504.2
496.605	3536.97
496.974	3594.14
497.344	3582.17
497.713	3662.62
498.082	3655.84
498.452	3728.6
498.821	3704.2
499.19	3731.09
499.559	3776.74
499.928	3827.13
500.298	3794.82
500.667	3818.77
501.036	3839.79
501.405	3871.42
501.774	3940.12
502.143	3946.45
502.512	3958.43
502.88	4015.15
503.249	4046.11
503.618	4060.8
503.987	4091.08
504.356	4073.45
504.724	4130.63
505.093	4149.83
505.462	4144.41
505.83	4162.72
506.199	4200.91
506.567	4250.85
506.936	4233.67
507.304	4285.88
507.672	4276.84
508.041	4323.16
508.409	4342.15
508.777	4416.72
509.145	4375.14
509.514	4400.68
509.882	4471.18
510.25	4457.4
510.618	4502.37
510.986	4490.84
511.354	4537.62
511.722	4557.96
512.09	4559.09
512.458	4566.55
512.826	4607.22
513.193	4666.66
513.561	4654.91
513.929	4685.64
514.297	4721.8
514.664	4716.15
515.032	4711.4
515.4	4771.51
515.767	4784.39
516.135	4814.9
516.502	4783.04
516.869	4872.53
517.237	4884.05
517.604	4867.56
517.972	4932.64
518.339	4957.72
518.706	4881.79
519.073	4924.05
519.44	4965.63
519.808	5019.64
520.175	4976.25
520.542	5039.53
520.909	5062.13
521.276	5076.14
521.643	5093.54
522.009	5130.15
522.376	5132.18
522.743	5169.47
523.11	5231.16
523.477	5258.73
523.843	5284.95
524.21	5314.32
524.577	5335.79
524.943	5374.89
525.31	5401.55
525.676	5463.02
526.043	5489.23
526.409	5492.85
526.776	5532.4
527.142	5548.44
527.508	5621.43
527.874	5632.06
528.241	5620.98
528.607	5649.91
528.973	5714.31
529.339	5778.04
529.705	5749.34
530.071	5809.45
530.437	5858.49
530.803	5848.09
531.169	5884.93
531.535	5907.75
531.901	5926.06
532.267	5856.23
532.632	5970.35
532.998	6004.02
533.364	6062.78
533.73	6067.07
534.095	6053.29
534.461	6046.96
534.826	6193.62
535.192	6132.38
535.557	6220.29
535.923	6174.19
536.288	6209.44
536.653	6229.55
537.019	6267.97
537.384	6282.66
537.749	6295.09
538.114	6299.38
538.479	6332.15
538.845	6378.93
539.21	6394.97
539.575	6394.52
539.94	6462.54
540.305	6472.49
540.67	6516.78
541.034	6467.51
541.399	6541.41
541.764	6559.94
542.129	6591.13
542.494	6629.54
542.858	6651.69
543.223	6657.11
543.587	6718.81
543.952	6708.64
544.316	6745.92
544.681	6715.64
545.045	6773.04
545.41	6835.64
545.774	6887.62
546.138	6853.04
546.503	6919.03
546.867	6924
547.231	6926.26
547.595	7005.58
547.959	7031.79
548.324	7004.45
548.688	7017.1
549.052	7073.37
549.416	7104.33
549.779	7097.1
550.143	7129.19
550.507	7166.93
550.871	7218.91
551.235	7156.99
551.599	7281.05
551.962	7247.83
552.326	7263.88
552.689	7350.88
553.053	7298.23
553.417	7300.94
553.78	7416.64
554.143	7382.52
554.507	7470.88
554.87	7429.3
555.234	7519.01
555.597	7478.56
555.96	7517.88
556.323	7523.98
556.686	7546.81
557.05	7617.54
557.413	7575.51
557.776	7666.35
558.139	7707.71
558.502	7687.37
558.865	7707.25
559.228	7779.12
559.59	7805.33
559.953	7825.9
560.316	7924.65
560.679	7850.08
561.041	7882.17
561.404	7920.36
561.767	8004.2
562.129	7937.76
562.492	8031.09
562.854	8126.45
563.217	8019.34
563.579	8050.52
563.941	8098.43
564.304	8131.88
564.666	8238.54
565.028	8222.95
565.39	8231.76
565.753	8293.45
566.115	8326.45
566.477	8354.02
566.839	8385.66
567.201	8450.06
567.563	8409.38
567.925	8467.01
568.287	8492.09
568.648	8533.67
569.01	8558.76
569.372	8607.57
569.734	8662.48
570.095	8675.14
570.457	8718.53
570.819	8704.29
571.18	8747.68
571.542	8763.27
571.903	8858.64
572.265	8864.06
572.626	8904.74
572.987	8903.61
573.349	8974.79
573.71	9017.5
574.071	9069.71
574.432	9182.02
574.794	9219.76
575.155	9224.05
575.516	9316.25
575.877	9273.54
576.238	9395.12
576.599	9479.19
576.96	9539.75
577.32	9573.42
577.681	9612.97
578.042	9727.54
578.403	9702.68
578.763	9875.79
579.124	9878.05
579.485	10022
579.845	10137.02
580.206	10184.03
580.566	10194.65
580.927	10367.52
581.287	10457.24
581.648	10554.64
582.008	10688.42
582.368	10795.08
582.728	10965.47
583.089	11062.65
583.449	11198.91
583.809	11334.5
584.169	11462.64
584.529	11573.82
584.889	11828.5
585.249	11915.51
585.609	12078.44
585.969	12367.02
586.329	12452.67
586.688	12642.72
587.048	12848.14
587.408	13007.45
587.768	13267.11
588.127	13442.47
588.487	13662.58
588.846	14030.03
589.206	14065.05
589.565	14282.9
589.925	14554.76
590.284	14761.08
590.643	14957.01
591.003	15162.2
591.362	15497.33
591.721	15669.53
592.08	15973.03
592.44	16315.84
592.799	16508.15
593.158	16709.28
593.517	17018.65
593.876	17273.11
594.235	17590.84
594.593	17847.1
594.952	18103.37
595.311	18322.12
595.67	18676.46
596.029	19066.28
596.387	19339.94
596.746	19695.87
597.104	19835.75
597.463	20128.62
597.822	20441.16
598.18	20532
598.538	20793.01
598.897	21370.85
599.255	21478.42
599.613	22046.31
599.972	22108.46
600.33	22460.09
600.688	22656.01
601.046	23014.65
601.404	23307.07
601.762	23643.11
602.12	23974.4
602.478	24170.78
602.836	24548.62
603.194	24608.28
603.552	24956.29
603.91	25130.98
604.268	25444.87
604.625	25668.36
604.983	26017.73
605.341	26125.53
605.698	26502.92
606.056	26808.22
606.413	27034.43
606.771	27276.68
607.128	27470.13
607.485	27758.48
607.843	27919.38
608.2	28280.05
608.557	28530.89
608.914	28614.5
609.272	28979.24
609.629	29269.85
609.986	29553.46
610.343	29534.7
610.7	29869.38
611.057	30103.5
611.414	30225.31
611.771	30451.06
612.127	30767.67
612.484	31059.41
612.841	31198.84
613.198	31243.13
613.554	31312.51
613.911	31862.78
614.267	31966.73
614.624	32056.67
614.98	32329.88
615.337	32444.91
615.693	32587.73
616.05	32570.56
616.406	33098.9
616.762	32846.25
617.118	33248.96
617.475	33290.54
617.831	33533.92
618.187	33664.76
618.543	33957.41
618.899	34183.62
619.255	34178.2
619.611	34221.13
619.967	34485.31
620.323	34701.8
620.678	34637.62
621.034	34757.17
621.39	34786.54
621.746	34794.23
622.101	35522.79
622.457	35267.66
622.812	35449.8
623.168	35577.93
623.523	35577.48
623.879	35890.47
624.234	35687.31
624.589	35904.25
624.945	36002.78
625.3	36123.91
625.655	36181.53
626.01	36332.72
626.365	36374.07
626.72	36377.24
627.075	36472.83
627.43	36435.09
627.785	36417.46
628.14	36454.07
628.495	36791.69
628.85	36732.03
629.205	36737
629.559	37005.47
629.914	36901.74
630.269	36929.09
630.623	36884.79
630.978	36920.27
631.332	37062.87
631.687	37092.02
632.041	37059.48
632.396	36988.07
632.75	36945.81
633.104	37102.87
633.459	37104.9
633.813	36998.01
634.167	37075.52
634.521	37126.37
634.875	37223.09
635.229	37128.18
635.583	37040.95
635.937	37107.16
636.291	37081.17
636.645	37183.77
636.999	37190.1
637.352	37312.58
637.706	37108.52
638.06	37234.39
638.413	37129.08
638.767	37068.97
639.121	37293.6
639.474	36986.94
639.828	36785.13
640.181	37113.94
640.534	37212.47
640.888	36999.82
641.241	36847.73
641.594	37027.16
641.947	37238.68
642.301	37031.68
642.654	37148.06
643.007	36929.99
643.36	36984.45
643.713	36915.53
644.066	36988.97
644.419	36823.55
644.771	36685.93
645.124	36414.52
645.477	36339.72
645.83	36124.81
646.182	36138.37
646.535	35859.28
646.888	36027.19
647.24	35814.99
647.593	35980.64
647.945	35965.04
648.298	35773.18
648.65	35854.54
649.002	35739.74
649.355	35870.36
649.707	35844.37
650.059	35825.61
650.411	36342.89
650.763	36398.7
651.115	36804.79
651.467	36598.7
651.819	36649.77
652.171	36565.93
652.523	36529.77
652.875	36609.77
653.227	36329.33
653.578	36747.4
653.93	36682.99
654.282	36368.42
654.633	36353.06
654.985	36447.29
655.337	36454.52
655.688	36517.34
656.039	36561.64
656.391	36301.53
656.742	36399.38
657.094	36343.11
657.445	36403
657.796	36386.05
658.147	36354.19
658.498	36355.99
658.849	36406.16
659.2	36317.35
659.551	36196.9
659.902	36261.98
660.253	36407.52
660.604	36190.12
660.955	36227.18
661.306	36334.3
661.656	36188.09
662.007	36258.82
662.358	36147.19
662.708	36252.04
663.059	36353.73
663.409	36011.14
663.76	36227.86
664.11	36243
664.461	36209.78
664.811	36243.91
665.161	36209.56
665.511	36062.67
665.862	36292.27
666.212	36367.07
666.562	36341.98
666.912	36294.53
667.262	36130.24
667.612	36127.98
667.962	36208.2
668.312	36100.86
668.662	36360.29
669.011	36151.03
669.361	36118.26
669.711	36074.19
670.06	36084.14
670.41	36050.01
670.76	35962.11
671.109	36153.29
671.459	36059.96
671.808	35965.72
672.157	36038.71
672.507	35695.67
672.856	35950.81
673.205	35970.01
673.554	36048.43
673.904	35858.83
674.253	36137.47
674.602	35905.61
674.951	35468.11
675.3	35268.11
675.649	35878.04
675.998	35824.26
676.346	35700.42
676.695	35980.41
677.044	35616.58
677.393	35859.96
677.741	35949.45
678.09	35710.81
678.438	35614.09
678.787	35719.4
679.135	35596.01
679.484	35469.01
679.832	35570.48
680.181	35417.94
680.529	35586.07
680.877	35314.44
681.225	35350.82
681.573	35510.37
681.922	35245.51
682.27	35174.33
682.618	35229.7
682.966	35184.05
683.314	35205.51
683.661	35151.73
684.009	34964.84
684.357	34823.38
684.705	34791.29
685.053	34771.18
685.4	34761.01
685.748	34646.66
686.095	34698.41
686.443	34517.17
686.79	34533.44
687.138	34639.2
687.485	34528.24
687.832	34421.81
688.18	34293
688.527	34314.46
688.874	34224.07
689.221	34295.93
689.568	34034.7
689.915	33923.51
690.262	34011.87
690.609	33966.68
690.956	33841.94
691.303	33785.21
691.65	33659.79
691.997	33642.84
692.344	33451.66
692.69	33358.56
693.037	33369.63
693.383	33095.74
693.73	33267.03
694.077	33115.85
694.423	32996.08
694.769	32938.91
695.116	32891.68
695.462	32637.9
695.808	32571.91
696.155	32806.03
696.501	32453.72
696.847	32538.69
697.193	32329.21
697.539	32485.13
697.885	32241.75
698.231	32097.12
698.577	32109.78
698.923	31981.42
699.269	31948.2
699.614	31721.09
699.96	31729
700.306	31708.43
700.651	31578.72
700.997	31490.58
701.342	31433.18
701.688	31476.57
702.033	31200.42
702.379	31315.9
702.724	31126.53
703.069	31315.22
703.415	31016.25
703.76	30945.51
704.105	30925.63
704.45	30941.45
704.795	30717.95
705.14	30630.49
705.485	30621.23
705.83	30414.45
706.175	30404.51
706.52	30359.99
706.865	30294.23
707.209	30248.81
707.554	30119.77
707.899	30239.09
708.243	30038.19
708.588	29958.87
708.932	29818.99
709.277	29783.28
709.621	29747.13
709.966	29471.2
710.31	29619.9
710.654	29399.11
710.998	29531.09
711.342	29575.61
711.687	29257.65
712.031	29233.47
712.375	29225.33
712.719	29179.91
713.063	29232.11
713.407	29217.65
713.75	29034.38
714.094	29028.05
714.438	28871.67
714.782	28873.25
715.125	28816.76
715.469	28905.12
715.812	28610.89
716.156	28517.78
716.499	28520.27
716.843	28615.41
717.186	28372.47
717.53	28552.81
717.873	28572.7
718.216	28388.07
718.559	28384.68
718.902	28117.34
719.246	28279.14
719.589	28069.66
719.932	28068.08
720.275	27940.17
720.617	27972.71
720.96	27881.41
721.303	27818.14
721.646	27977
721.989	27675.54
722.331	27760.51
722.674	27542.21
723.016	27750.8
723.359	27694.07
723.701	27726.62
724.044	27482.1
724.386	27310.58
724.729	27524.14
725.071	27489.11
725.413	27426.06
725.755	27360.07
726.097	27376.57
726.439	27119.17
726.782	27140.64
727.124	27129.34
727.465	27054.77
727.807	27036.69
728.149	26964.15
728.491	26948.56
728.833	27019.06
729.175	26927.99
729.516	26831.27
729.858	26768
730.199	26835.11
730.541	26729.13
730.882	26708.11
731.224	26761.9
731.565	26590.83
731.906	26579.98
732.248	26570.71
732.589	26390.61
732.93	26402.81
733.271	26339.76
733.612	26423.82
733.953	26410.27
734.294	26400.55
734.635	26275.58
734.976	26298.4
735.317	26111.06
735.658	26179.09
735.999	26098.86
736.339	26126.88
736.68	26244.39
737.021	25996.04
737.361	25893.9
737.702	26081.01
738.042	25984.97
738.383	25904.74
738.723	25908.13
739.063	25826.78
739.404	25968.92
739.744	25804.63
740.084	25666.78
740.424	25751.75
740.764	25625.2
741.104	25646.22
741.444	25501.14
741.784	25447.35
742.124	25594.02
742.464	25431.53
742.804	25391.31
743.143	25390.41
743.483	25472.66
743.823	25261.82
744.162	25267.02
744.502	25333.91
744.841	25226.79
745.181	25300.92
745.52	25131.88
745.86	25225.66
746.199	25220.92
746.538	25171.43
746.877	25159.68
747.216	25149.73
747.556	25019.12
747.895	25004.43
748.234	24957.2
748.573	24905.9
748.911	24898.67
749.25	24809.63
749.589	24728.73
749.928	24788.16
750.267	24840.14
750.605	24732.34
750.944	24671.55
751.283	24525.34
751.621	24646.7
751.96	24407.61
752.298	24411
752.636	24447.38
752.975	24222.3
753.313	24278.12
753.651	24374.61
753.989	24353.6
754.327	24261.17
754.666	24078.8
755.004	24189.31
755.342	24085.13
755.679	24089.42
756.017	23883.55
756.355	23934.85
756.693	23912.93
757.031	23955.64
757.368	23855.08
757.706	23748.42
758.044	23768.98
758.381	23738.7
758.719	23560.4
759.056	23568.08
759.394	23491.92
759.731	23411.02
760.068	23462.09
760.405	23290.35
760.743	23129.9
761.08	23260.07
761.417	23152.27
761.754	23048.77
762.091	23043.8
762.428	22949.79
762.765	22835.9
763.102	22771.27
763.438	22651.04
763.775	22658.27
764.112	22713.87
764.449	22696.69
764.785	22571.04
765.122	22450.6
765.458	22337.15
765.795	22317.94
766.131	22280.21
766.467	22230.26
766.804	22036.14
767.14	22158.85
767.476	22024.17
767.812	21784.4
768.148	21933.55
768.485	21761.8
768.821	21767.9
769.157	21642.26
769.492	21520.23
769.828	21637.51
770.164	21326.56
770.5	21308.48
770.836	21410.17
771.171	21182.38
771.507	21141.25
771.842	21026
772.178	21016.51
772.513	20933.12
772.849	20766.8
773.184	20776.06
773.519	20803.18
773.855	20607.71
774.19	20587.37
774.525	20517.31
774.86	20475.96
775.195	20398.22
775.53	20341.95
775.865	20167.94
776.2	20033.26
776.535	19978.57
776.87	19991.68
777.205	19963.2
777.539	19793.72
777.874	19848.4
778.209	19779.03
778.543	19615.87
778.878	19439.15
779.212	19444.57
779.547	19459.04
779.881	19485.93
780.215	19283.45
780.55	19288.65
780.884	19241.87
781.218	19186.5
781.552	19178.59
781.886	19053.4
782.22	18981.08
782.554	18820.64
782.888	18748.09
783.222	18643.01
783.556	18562.11
783.889	18502.68
784.223	18419.52
784.557	18306.07
784.89	18431.27
785.224	18219.75
785.557	18253.42
785.891	18238.05
786.224	18097.04
786.558	18005.97
786.891	17894.33
787.224	17867.89
787.557	17856.59
787.891	17653.89
788.224	17780.44
788.557	17711.96
788.89	17640.1
789.223	17559.88
789.556	17497.73
789.888	17478.98
790.221	17327.79
790.554	17221.81
790.887	17286.89
791.219	17186.1
791.552	17140.68
791.884	17075.6
792.217	16976.84
792.549	16947.01
792.882	16883.06
793.214	16770.52
793.546	16840.57
793.879	16687.36
794.211	16638.09
794.543	16542.05
794.875	16515.61
795.207	16559.68
795.539	16501.15
795.871	16516.74
796.203	16310.87
796.535	16198.56
796.867	16196.75
797.198	16175.73
797.53	16115.17
797.862	16044.66
798.193	15955.4
798.525	15990.88
798.856	15932.12
799.188	15798.34
799.519	15782.3
799.85	15744.56
800.182	15733.48
800.513	15729.19
800.844	15471.57
801.175	15645.8
801.506	15609.65
801.837	15529.42
802.168	15488.97
802.499	15379.82
802.83	15308.86
803.161	15251.92
803.491	15275.42
803.822	15240.16
804.153	15178.02
804.483	15065.48
804.814	15103.22
805.145	15001.98
805.475	14969.89
805.805	14857.12
806.136	14914.52
806.466	14925.6
806.796	14838.37
807.126	14666.39
807.457	14761.98
807.787	14667.52
808.117	14695.77
808.447	14572.84
808.777	14593.4
809.107	14577.36
809.436	14471.14
809.766	14382.33
810.096	14386.63
810.426	14376.01
810.755	14425.5
811.085	14342.33
811.414	14362
811.744	14171.27
812.073	14040.42
812.403	14129.68
812.732	14051.04
813.061	14140.98
813.39	13923.59
813.719	13902.12
814.049	13989.12
814.378	13941.44
814.707	13841.1
815.036	13864.61
815.365	13757.04
815.693	13756.36
816.022	13698.28
816.351	13723.14
816.68	13564.95
817.008	13568.12
817.337	13536.03
817.665	13420.1
817.994	13518.18
818.322	13397.27
818.651	13515.69
818.979	13334.68
819.307	13378.74
819.636	13392.76
819.964	13279.31
820.292	13366.32
820.62	13283.38
820.948	13226.66
821.276	13285.64
821.604	13190.95
821.932	13335.81
822.259	13184.63
822.587	13238.63
822.915	13234.79
823.243	13229.14
823.57	13150.5
823.898	13236.15
824.225	13172.2
824.553	13158.64
824.88	13105.53
825.207	13217.17
825.535	13144.63
825.862	13221.69
826.189	13177.17
826.516	13202.93
826.843	13221.01
827.17	13214
827.497	13120.45
827.824	13198.41
828.151	13252.87
828.478	13182.37
828.805	13214
829.131	13161.57
829.458	13109.15
829.785	13096.04
830.111	13028.7
830.438	13189.6
830.764	13133.33
831.09	13213.32
831.417	13124.74
831.743	13167.68
832.069	13146.43
832.395	12985.76
832.722	13165.42
833.048	13039.32
833.374	13057.17
833.7	12961.13
834.026	13021.01
834.351	13050.84
834.677	13001.13
835.003	13039.32
835.329	13062.37
835.654	13039.77
835.98	12945.08
836.306	12967
836.631	12886.55
836.956	12909.15
837.282	12920.9
837.607	12854.01
837.932	12810.4
838.258	12828.93
838.583	12837.06
838.908	12776.27
839.233	12770.4
839.558	12743.51
839.883	12737.41
840.208	12615.37
840.533	12623.06
840.858	12647.92
841.182	12581.25
841.507	12639.33
841.832	12548.71
842.156	12522.95
842.481	12549.61
842.805	12593.91
843.13	12494.47
843.454	12435.49
843.778	12401.59
844.103	12401.82
844.427	12314.37
844.751	12318.43
845.075	12275.27
845.399	12235.5
845.723	12194.82
846.047	12216.51
846.371	12078.21
846.695	12099.23
847.019	12015.16
847.343	11897.65
847.666	11832.34
847.99	11849.29
848.313	11807.49
848.637	11701.05
848.96	11768.17
849.284	11703.31
849.607	11555.74
849.931	11607.49
850.254	11479.59
850.577	11404.33
850.9	11402.07
851.223	11278.46
851.546	11247.27
851.869	11176.32
852.192	11284.79
852.515	11207.73
852.838	11057.22
853.161	11108.52
853.483	11109.88
853.806	10982.65
854.129	10983.1
854.451	10958.69
854.774	10874.63
855.096	10867.17
855.419	10838.92
855.741	10786.5
856.063	10744.92
856.385	10803.67
856.708	10781.98
857.03	10663.11
857.352	10718.02
857.674	10579.27
857.996	10634.64
858.318	10510.12
858.64	10563.68
858.961	10566.39
859.283	10481.19
859.605	10372.04
859.926	10377.02
860.248	10406.62
860.57	10424.47
860.891	10388.54
861.212	10284.81
861.534	10261.76
861.855	10229
862.176	10247.3
862.498	10281.88
862.819	10209.56
863.14	10228.77
863.461	10163.91
863.782	10134.08
864.103	10142.67
864.424	10061.54
864.745	10110.36
865.065	10035.56
865.386	10059.96
865.707	10019.96
866.027	9970.02
866.348	10025.16
866.668	9992.17
866.989	9946.97
867.309	9927.54
867.63	9919.4
867.95	9873.98
868.27	9811.15
868.59	9881.89
868.91	9814.54
869.23	9800.08
869.55	9845.96
869.87	9856.13
870.19	9810.48
870.51	9794.66
870.83	9783.81
871.15	9733.87
871.469	9723.93
871.789	9724.38
872.109	9708.78
872.428	9632.63
872.748	9751.27
873.067	9691.16
873.386	9676.24
873.706	9617.71
874.025	9641.44
874.344	9593.99
874.663	9621.55
874.982	9536.36
875.301	9556.25
875.62	9457.49
875.939	9484.84
876.258	9500.2
876.577	9445.06
876.896	9450.26
877.214	9410.49
877.533	9407.55
877.852	9393.76
878.17	9360.09
878.489	9422.01
878.807	9355.12
879.125	9320.77
879.444	9352.18
879.762	9300.89
880.08	9277.61
880.398	9235.8
880.716	9228.12
881.034	9188.12
881.352	9252.75
881.67	9141.79
881.988	9232.19
882.306	9152.19
882.624	9135.69
882.941	9142.92
883.259	9052.08
883.577	9061.34
883.894	9077.61
884.212	9091.17
884.529	9059.31
884.846	8921.01
885.164	8948.8
885.481	8990.16
885.798	8961.91
886.115	8853.67
886.432	8892.31
886.75	8841.01
887.067	8860.67
887.383	8824.06
887.7	8816.6
888.017	8802.59
888.334	8778.87
888.651	8754.23
888.967	8780.22
889.284	8645.99
889.6	8642.82
889.917	8643.28
890.233	8593.56
890.55	8568.7
890.866	8558.76
891.182	8589.94
891.498	8547.46
891.815	8540.23
892.131	8450.06
892.447	8468.59
892.763	8461.59
893.079	8393.34
893.395	8463.85
893.71	8392.89
894.026	8315.6
894.342	8315.37
894.657	8233.57
894.973	8231.08
895.289	8266.11
895.604	8221.37
895.92	8136.62
896.235	8144.08
896.55	8093.69
896.865	8082.61
897.181	8125.1
897.496	8077.64
897.811	7996.29
898.126	7980.02
898.441	7963.29
898.756	7924.42
899.071	7929.62
899.386	7850.08
899.7	7820.47
900.015	7880.36
900.33	7760.13
900.644	7749.97
900.959	7740.02
901.273	7716.75
901.588	7651.66
901.902	7608.05
902.216	7603.53
902.531	7589.07
902.845	7565.56
903.159	7517.66
903.473	7473.59
903.787	7480.82
904.101	7412.8
904.415	7388.62
904.729	7375.74
905.042	7352.24
905.356	7276.31
905.67	7295.74
905.984	7296.42
906.297	7259.81
906.611	7219.36
906.924	7202.64
907.237	7185.46
907.551	7157.89
907.864	7101.17
908.177	7136.2
908.491	7104.78
908.804	7079.25
909.117	6999.48
909.43	6992.25
909.743	6944.56
910.056	6954.05
910.368	6934.85
910.681	6854.4
910.994	6818.92
911.307	6846.49
911.619	6760.39
911.932	6784.12
912.244	6739.6
912.557	6738.92
912.869	6728.75
913.181	6712.48
913.494	6620.5
913.806	6565.59
914.118	6554.74
914.43	6520.17
914.742	6540.73
915.054	6527.85
915.366	6511.81
915.678	6467.97
915.99	6414.18
916.302	6394.52
916.613	6325.37
916.925	6316.11
917.236	6361.53
917.548	6327.4
917.859	6275.2
918.171	6231.14
918.482	6208.31
918.794	6184.81
919.105	6149.78
919.416	6097.81
919.727	6131.25
920.038	6072.72
920.349	6073.63
920.66	6010.35
920.971	6021.65
921.282	6021.2
921.593	5969.22
921.903	5927.41
922.214	5924.25
922.525	5865.72
922.835	5884.48
923.146	5822.56
923.456	5810.36
923.767	5783.01
924.077	5774.88
924.387	5715.89
924.697	5716.8
925.008	5666.63
925.318	5653.98
925.628	5634.77
925.938	5622.11
926.248	5550.93
926.558	5577.59
926.867	5553.19
927.177	5536.01
927.487	5465.96
927.796	5423.25
928.106	5509.57
928.416	5420.08
928.725	5409.01
929.034	5388.22
929.344	5420.99
929.653	5365.85
929.962	5284.49
930.271	5300.99
930.581	5293.76
930.89	5213.76
931.199	5232.52
931.508	5201.56
931.817	5175.8
932.125	5176.47
932.434	5177.15
932.743	5117.04
933.051	5145.29
933.36	5037.95
933.669	5033.43
933.977	5059.41
934.286	4989.81
934.594	5023.03
934.902	4970.6
935.21	4931.73
935.519	4977.38
935.827	4943.03
936.135	4893.54
936.443	4894.22
936.751	4822.81
937.059	4855.35
937.367	4817.84
937.674	4774
937.982	4778.52
938.29	4725.86
938.597	4794.56
938.905	4686.54
939.213	4685.19
939.52	4664.85
939.827	4677.5
940.135	4596.15
940.442	4569.03
940.749	4607.9
941.056	4588.69
941.363	4521.12
941.67	4537.62
941.977	4488.36
942.284	4524.29
942.591	4435.25
942.898	4429.15
943.205	4433.89
943.511	4385.99
943.818	4421.01
944.125	4373.33
944.431	4323.16
944.738	4363.84
945.044	4328.36
945.35	4255.59
945.657	4310.73
945.963	4263.5
946.269	4256.27
946.575	4279.77
946.881	4240
947.187	4230.06
947.493	4181.7
947.799	4152.55
948.105	4137.41
948.41	4107.35
948.716	4109.84
949.022	4100.34
949.327	4091.08
949.633	4052.89
949.938	4000.91
950.244	4049.72
950.549	4022.61
950.854	4009.05
951.16	4000.46
951.465	3982.61
951.77	3918.88
952.075	3914.81
952.38	3870.97
952.685	3851.99
952.99	3880.91
953.294	3844.76
953.599	3875.27
953.904	3832.78
954.209	3774.48
954.513	3774.7
954.818	3759.11
955.122	3769.73
955.426	3712.33
955.731	3716.63
956.035	3651.54
956.339	3687.7
956.643	3671.43
956.948	3676.63
957.252	3656.97
957.556	3676.85
957.86	3587.82
958.163	3600.24
958.467	3596.18
958.771	3591.66
959.075	3551.21
959.378	3538.1
959.682	3558.89
959.985	3500.13
960.289	3495.84
960.592	3469.17
960.896	3453.81
961.199	3464.65
961.502	3418.33
961.805	3382.4
962.108	3384.43
962.411	3392.57
962.714	3385.56
963.017	3354.83
963.32	3381.72
963.623	3327.26
963.926	3303.08
964.228	3313.92
964.531	3289.29
964.833	3284.32
965.136	3249.52
965.438	3255.85
965.741	3216.98
966.043	3237.32
966.345	3215.62
966.648	3151.67
966.95	3189.41
967.252	3163.65
967.554	3153.25
967.856	3119.13
968.158	3094.49
968.46	3148.05
968.761	3108.51
969.063	3063.99
969.365	3073.48
969.666	3047.04
969.968	3027.38
970.269	3042.29
970.571	2993.25
970.872	2982.63
971.174	2990.32
971.475	2964.33
971.776	2949.41
972.077	2969.98
972.378	2899.47
972.679	2914.39
972.98	2916.19
973.281	2911
973.582	2861.96
973.883	2868.74
974.183	2839.13
974.484	2870.32
974.785	2843.43
975.085	2848.63
975.386	2808.4
975.686	2823.32
975.986	2789.64
976.287	2766.59
976.587	2756.65
976.887	2760.27
977.187	2713.26
977.487	2746.26
977.787	2703.77
978.087	2710.1
978.387	2694.51
978.687	2668.07
978.987	2674.17
979.286	2679.59
979.586	2627.84
979.885	2618.58
980.185	2621.96
980.484	2601.63
980.784	2578.58
981.083	2596.88
981.382	2602.98
981.682	2584
981.981	2548.75
982.28	2545.36
982.579	2513.27
982.878	2527.73
983.177	2505.13
983.475	2518.46
983.774	2505.36
984.073	2479.6
984.372	2458.35
984.67	2445.25
984.969	2446.83
985.267	2472.36
985.566	2419.71
985.864	2405.47
986.162	2424.91
986.461	2396.43
986.759	2386.72
987.057	2360.73
987.355	2358.24
987.653	2345.59
987.951	2377.9
988.249	2315.53
988.547	2294.97
988.844	2284.57
989.142	2295.87
989.44	2254.74
989.737	2259.04
990.035	2280.51
990.332	2250.68
990.63	2259.71
990.927	2240.96
991.224	2260.39
991.521	2245.7
991.819	2197.12
992.116	2183.78
992.413	2206.38
992.71	2206.16
993.006	2183.33
993.303	2151.24
993.6	2145.59
993.897	2165.25
994.193	2116.22
994.49	2141.07
994.787	2118.7
995.083	2074.63
995.379	2081.64
995.676	2102.43
995.972	2095.88
996.268	2086.61
996.565	2066.95
996.861	2050.68
997.157	2038.25
997.453	2018.37
997.749	2004.81
998.044	1987.41
998.34	2006.39
998.636	1966.84
998.932	1971.59
999.227	1977.91
999.523	1966.61
999.818	1976.11
1000.114	1959.84
1000.409	1924.58
1000.704	1904.92
1001	1921.42
1001.295	1910.12
1001.59	1870.35
1001.885	1858.37
1002.18	1868.54
1002.475	1847.3
1002.77	1852.27
1003.065	1847.97
1003.359	1851.36
1003.654	1819.73
1003.949	1808.65
1004.243	1814.08
1004.538	1799.61
1004.832	1800.07
1005.127	1762.33
1005.421	1749.22
1005.715	1748.77
1006.009	1763
1006.304	1711.71
1006.598	1746.96
1006.892	1713.51
1007.186	1692.5
1007.48	1720.29
1007.773	1671.93
1008.067	1668.09
1008.361	1667.19
1008.655	1693.18
1008.948	1679.62
1009.242	1631.93
1009.535	1634.19
1009.829	1648.43
1010.122	1621.31
1010.415	1593.74
1010.708	1570.02
1011.001	1575.44
1011.295	1586.51
1011.588	1561.88
1011.881	1575.89
1012.173	1568.21
1012.466	1552.84
1012.759	1520.98
1013.052	1531.82
1013.344	1522.11
1013.637	1479.62
1013.93	1513.75
1014.222	1484.37
1014.514	1465.39
1014.807	1481.88
1015.099	1434.2
1015.391	1463.35
1015.683	1425.16
1015.976	1454.76
1016.268	1433.75
1016.56	1450.24
1016.851	1418.61
1017.143	1412.28
1017.435	1425.39
1017.727	1394.43
1018.018	1379.51
1018.31	1400.75
1018.602	1363.47
1018.893	1363.24
1019.185	1355.33
1019.476	1346.29
1019.767	1319.4
1020.058	1343.58
1020.35	1319.85
1020.641	1306.97
1020.932	1284.37
1021.223	1279.4
1021.514	1283.7
1021.804	1293.86
1022.095	1251.83
1022.386	1256.35
1022.677	1246.86
1022.967	1255.45
1023.258	1207.31
1023.548	1231.49
1023.839	1234.43
1024.129	1215.67
1024.419	1200.76
1024.709	1199.86
1025	1186.75
1025.29	1177.03
1025.58	1201.21
1025.87	1158.95
1026.16	1150.37
1026.449	1181.55
1026.739	1146.52
1027.029	1147.88
1027.319	1146.3
1027.608	1124.38
1027.898	1119.41
1028.187	1104.26
1028.477	1094.32
1028.766	1111.72
1029.055	1089.35
1029.344	1102.91
1029.634	1098.62
1029.923	1062.23
1030.212	1082.8
1030.501	1046.64
1030.79	1068.56
1031.078	1036.24
1031.367	1032.85
1031.656	1028.56
1031.945	1011.61
1032.233	1032.63
1032.522	996.24
1032.81	1022.68
1033.099	995.12
1033.387	997.83
1033.675	1006.19
1033.963	967.77
1034.251	975.91
1034.54	971.84
1034.828	953.99
1035.116	952.86
1035.403	950.6
1035.691	975.91
1035.979	970.48
1036.267	936.59
1036.554	930.48
1036.842	895.46
1037.129	918.05
1037.417	913.54
1037.704	913.76
1037.992	910.15
1038.279	873.99
1038.566	888
1038.853	888
1039.14	888
