Data from hue_310_FLMS001491_72.txt Node
Date: Mon Feb 06 15:50:08 GMT 2017
User: dcchb
Spectrometer: FLMS00149
Trigger mode: 0
Integration Time (sec): 2.000000E-2
Scans to average: 10
Electric dark correction enabled: true
Nonlinearity correction enabled: false
Boxcar width: 0
XAxis mode: Wavelengths
Number of Pixels in Spectrum: 2048
>>>>>Begin Spectral Data<<<<<
341.393	-8.7
341.776	-8.7
342.16	-8.7
342.543	-38.53
342.927	-66.78
343.31	-70.17
343.693	-72.88
344.077	-65.42
344.46	-66.33
344.843	-31.75
345.226	-53.9
345.61	-20
345.993	-34.24
346.376	-19.1
346.759	24.52
347.142	29.49
347.525	40.34
347.908	48.7
348.291	79.43
348.674	110.84
349.057	100.45
349.44	119.88
349.823	146.1
350.206	149.94
350.588	195.81
350.971	223.16
351.354	260.9
351.737	234.68
352.119	253.44
352.502	275.59
352.884	285.3
353.267	287.34
353.65	274.46
354.032	298.41
354.414	306.09
354.797	308.13
355.179	327.79
355.562	328.01
355.944	327.34
356.326	352.19
356.709	349.48
357.091	336.6
357.473	353.55
357.855	358.07
358.238	336.6
358.62	337.73
359.002	359.65
359.384	340.89
359.766	337.73
360.148	356.49
360.53	340.22
360.912	336.83
361.294	327.11
361.676	322.59
362.057	330.5
362.439	320.78
362.821	319.65
363.203	332.31
363.584	322.59
363.966	331.4
364.348	340.89
364.729	300.9
365.111	309.26
365.493	311.97
365.874	312.65
366.256	309.94
366.637	316.71
367.019	320.33
367.4	315.58
367.781	311.07
368.163	311.74
368.544	305.42
368.925	314.68
369.306	319.88
369.688	319.43
370.069	316.26
370.45	313.1
370.831	317.62
371.212	311.07
371.593	309.48
371.974	317.17
372.355	323.04
372.736	323.04
373.117	309.94
373.498	284.17
373.879	319.43
374.26	323.04
374.641	311.52
375.021	308.81
375.402	316.26
375.783	318.75
376.163	333.66
376.544	324.85
376.925	348.58
377.305	338.41
377.686	330.27
378.066	334.34
378.447	331.86
378.827	329.82
379.208	322.59
379.588	349.03
379.968	339.77
380.349	344.28
380.729	332.31
381.109	342.93
381.489	339.31
381.87	324.4
382.25	346.09
382.63	356.49
383.01	349.03
383.39	358.07
383.77	350.61
384.15	322.14
384.53	349.26
384.91	330.73
385.29	355.13
385.67	355.36
386.049	340.22
386.429	358.07
386.809	349.48
387.189	338.41
387.568	347
387.948	356.04
388.328	336.15
388.707	382.7
389.087	384.96
389.466	360.56
389.846	352.87
390.225	354.45
390.605	377.73
390.984	371.85
391.363	365.3
391.743	382.02
392.122	365.98
392.501	381.57
392.881	389.26
393.26	380.44
393.639	386.32
394.018	373.89
394.397	380.44
394.776	386.54
395.155	389.93
395.534	389.03
395.913	408.69
396.292	398.29
396.671	418.86
397.05	400.78
397.429	405.75
397.808	409.37
398.186	401.68
398.565	400.55
398.944	412.98
399.323	420.21
399.701	391.74
400.08	388.8
400.458	411.18
400.837	420.21
401.215	423.38
401.594	427.45
401.972	419.54
402.351	431.06
402.729	412.08
403.107	413.21
403.486	439.42
403.864	433.32
404.242	451.85
404.62	462.93
404.999	427.45
405.377	449.37
405.755	445.75
406.133	440.1
406.511	443.72
406.889	479.65
407.267	454.56
407.645	467.22
408.023	481
408.401	495.47
408.779	491.17
409.156	497.5
409.534	489.59
409.912	523.72
410.29	500.89
410.667	530.95
411.045	525.52
411.422	526.88
411.8	514.9
412.178	532.3
412.555	555.58
412.933	561.23
413.31	561.23
413.687	578.63
414.065	604.16
414.442	574.79
414.819	577.72
415.197	587.89
415.574	606.88
415.951	585.63
416.328	608.68
416.705	626.54
417.082	641.68
417.46	649.59
417.837	652.98
418.214	666.08
418.591	655.01
418.967	677.16
419.344	703.6
419.721	675.35
420.098	691.62
420.475	694.11
420.852	710.15
421.228	729.13
421.605	743.82
421.982	736.14
422.358	723.94
422.735	720.77
423.111	732.98
423.488	768.23
423.864	771.39
424.241	777.49
424.617	767.78
424.994	793.76
425.37	820.2
425.746	790.6
426.123	815.91
426.499	835.12
426.875	833.76
427.251	855.23
427.627	870.37
428.003	847.77
428.379	892.07
428.756	883.48
429.132	885.29
429.507	895.68
429.883	915.57
430.259	928.45
430.635	947.88
431.011	945.85
431.387	962.57
431.763	969.81
432.138	963.03
432.514	999.86
432.89	989.69
433.265	1021.56
433.641	1018.84
434.016	1034.21
434.392	1043.93
434.767	1082.8
435.143	1082.12
435.518	1080.99
435.894	1103.59
436.269	1120.31
436.644	1111.04
437.02	1111.27
437.395	1117.15
437.77	1143.36
438.145	1143.36
438.52	1153.08
438.895	1170.7
439.271	1192.17
439.646	1214.09
440.021	1193.3
440.395	1213.87
440.77	1219.06
441.145	1238.72
441.52	1220.42
441.895	1227.43
442.27	1262.45
442.645	1236.69
443.019	1257.93
443.394	1269.01
443.769	1311.94
444.143	1273.53
444.518	1290.93
444.892	1292.28
445.267	1316.01
445.641	1310.59
446.016	1289.12
446.39	1299.29
446.764	1310.36
447.139	1311.26
447.513	1334.99
447.887	1324.6
448.262	1344.03
448.636	1344.03
449.01	1370.25
449.384	1343.35
449.758	1362.34
450.132	1381.77
450.506	1381.32
450.88	1391.94
451.254	1378.16
451.628	1431.49
452.002	1408.44
452.376	1411.6
452.75	1446.4
453.123	1423.8
453.497	1435.33
453.871	1440.08
454.244	1476.01
454.618	1466.97
454.992	1491.15
455.365	1475.55
455.739	1514.88
456.112	1546.29
456.486	1530.02
456.859	1544.25
457.232	1560.07
457.606	1531.82
457.979	1565.27
458.352	1572.5
458.725	1611.6
459.099	1616.34
459.472	1620.64
459.845	1623.35
460.218	1658.37
460.591	1665.83
460.964	1667.19
461.337	1656.34
461.71	1736.11
462.083	1710.58
462.456	1717.58
462.829	1739.95
463.201	1738.6
463.574	1740.86
463.947	1753.51
464.32	1782.89
464.692	1806.17
465.065	1847.52
465.438	1840.52
465.81	1844.36
466.183	1852.72
466.555	1890.23
466.928	1938.59
467.3	1871.48
467.672	1908.31
468.045	1916.67
468.417	1957.35
468.789	1960.51
469.161	1995.31
469.534	2004.58
469.906	2032.15
470.278	2032.38
470.65	2039.38
471.022	2069.66
471.394	2154.41
471.766	2134.75
472.138	2131.81
472.51	2146.72
472.882	2163.67
473.253	2182.88
473.625	2247.29
473.997	2254.97
474.369	2245.48
474.74	2285.93
475.112	2323.22
475.484	2352.59
475.855	2382.2
476.227	2419.48
476.598	2421.07
476.97	2443.44
477.341	2469.88
477.713	2498.58
478.084	2494.96
478.455	2570.67
478.827	2569.76
479.198	2641.63
479.569	2610.44
479.94	2689.99
480.311	2696.99
480.682	2730.21
481.053	2819.7
481.424	2831.9
481.795	2834.84
482.166	2869.87
482.537	2873.26
482.908	2935.18
483.279	2990.54
483.65	2982.41
484.021	3027.6
484.391	3028.06
484.762	3052.69
485.133	3087.49
485.503	3113.25
485.874	3155.28
486.244	3198.9
486.615	3203.87
486.985	3285.9
487.356	3311.66
487.726	3308.27
488.097	3397.31
488.467	3362.74
488.837	3466.46
489.207	3451.1
489.578	3480.7
489.948	3509.63
490.318	3511.21
490.688	3580.13
491.058	3590.3
491.428	3646.34
491.798	3677.3
492.168	3698.09
492.538	3704.2
492.908	3777.64
493.278	3795.72
493.648	3785.78
494.017	3886.34
494.387	3896.96
494.757	3921.82
495.126	3908.94
495.496	3942.16
495.866	3927.02
496.235	4000.01
496.605	3993.91
496.974	4011.53
497.344	4041.36
497.713	4019.67
498.082	4054.7
498.452	4127.69
498.821	4134.92
499.19	4150.96
499.559	4188.25
499.928	4153.45
500.298	4195.26
500.667	4243.39
501.036	4229.83
501.405	4209.95
501.774	4275.25
502.143	4283.39
502.512	4271.87
502.88	4316.16
503.249	4341.92
503.618	4352.31
503.987	4380.56
504.356	4418.53
504.724	4391.86
505.093	4361.35
505.462	4475.93
505.83	4442.71
506.199	4459.66
506.567	4537.62
506.936	4518.19
507.304	4549.37
507.672	4564.74
508.041	4519.99
508.409	4610.39
508.777	4598.18
509.145	4626.21
509.514	4645.41
509.882	4639.99
510.25	4629.6
510.618	4680.44
510.986	4677.96
511.354	4745.75
511.722	4774
512.09	4823.94
512.458	4762.02
512.826	4789.14
513.193	4793.66
513.561	4793.89
513.929	4826.2
514.297	4862.81
514.664	4886.76
515.032	4885.18
515.4	4912.07
515.767	4940.32
516.135	4955.24
516.502	4909.59
516.869	4981.9
517.237	4962.92
517.604	4959.53
517.972	5041.79
518.339	4996.59
518.706	5057.16
519.073	5066.42
519.44	5055.57
519.808	5136.48
520.175	5101.67
520.542	5160.43
520.909	5165.63
521.276	5173.54
521.643	5216.7
522.009	5202.46
522.376	5226.87
522.743	5281.78
523.11	5282.69
523.477	5256.7
523.843	5344.15
524.21	5416.69
524.577	5420.54
524.943	5465.96
525.31	5456.47
525.676	5423.7
526.043	5483.36
526.409	5543.47
526.776	5535.11
527.142	5525.84
527.508	5617.59
527.874	5638.83
528.241	5690.13
528.607	5676.12
528.973	5736.01
529.339	5741.2
529.705	5795.21
530.071	5820.98
530.437	5813.52
530.803	5820.75
531.169	5868.89
531.535	5922.44
531.901	5935.55
532.267	5919.96
532.632	5968.32
532.998	6003.12
533.364	6001.54
533.73	6039.05
534.095	6099.39
534.461	6076.79
534.826	6126.96
535.192	6126.28
535.557	6200.4
535.923	6201.53
536.288	6199.72
536.653	6297.35
537.019	6225.71
537.384	6310.23
537.749	6328.53
538.114	6302.55
538.479	6331.02
538.845	6347.97
539.21	6337.35
539.575	6370.79
539.94	6466.61
540.305	6497.34
540.67	6507.06
541.034	6484.46
541.399	6547.29
541.764	6587.06
542.129	6581.86
542.494	6594.29
542.858	6646.72
543.223	6670.22
543.587	6708.64
543.952	6749.99
544.316	6720.84
544.681	6740.73
545.045	6768.75
545.41	6859.14
545.774	6858.01
546.138	6824.11
546.503	6905.92
546.867	6975.97
547.231	6971.91
547.595	6981.4
547.959	7020.49
548.324	7012.58
548.688	7067.05
549.052	7124.45
549.416	7037.22
549.779	7085.8
550.143	7149.3
550.507	7233.14
550.871	7178.46
551.235	7213.93
551.599	7235.85
551.962	7285.8
552.326	7298.23
552.689	7266.59
553.053	7269.07
553.417	7284.22
553.78	7414.61
554.143	7378.9
554.507	7398.34
554.87	7429.3
555.234	7477.66
555.597	7446.92
555.96	7473.36
556.323	7524.21
556.686	7547.03
557.05	7606.92
557.413	7648.27
557.776	7584.55
558.139	7633.13
558.502	7661.83
558.865	7705.9
559.228	7700.93
559.59	7855.5
559.953	7765.78
560.316	7870.64
560.679	7868.61
561.041	7905.67
561.404	7957.19
561.767	7964.2
562.129	7904.76
562.492	8022.05
562.854	8018.43
563.217	8047.81
563.579	8039.68
563.941	8072.22
564.304	8102.72
564.666	8168.03
565.028	8168.94
565.39	8238.99
565.753	8274.47
566.115	8284.87
566.477	8291.19
566.839	8320.35
567.201	8276.28
567.563	8383.62
567.925	8403.96
568.287	8422.04
568.648	8401.93
569.01	8457.74
569.372	8493.9
569.734	8558.98
570.095	8603.5
570.457	8615.48
570.819	8683.5
571.18	8709.04
571.542	8710.17
571.903	8795.59
572.265	8828.81
572.626	8826.77
572.987	8914.45
573.349	8978.86
573.71	9008.69
574.071	8988.8
574.432	9066.99
574.794	9194
575.155	9251.17
575.516	9280.32
575.877	9335.23
576.238	9350.38
576.599	9489.13
576.96	9545.85
577.32	9686.86
577.681	9671.27
578.042	9725.06
578.403	9889.8
578.763	9993.07
579.124	10064.48
579.485	10174.31
579.845	10237.81
580.206	10396.45
580.566	10455.66
580.927	10585.82
581.287	10737.23
581.648	10824.24
582.008	11006.83
582.368	11121.85
582.728	11258.8
583.089	11391
583.449	11581.96
583.809	11789.63
584.169	11929.29
584.529	12154.6
584.889	12360.24
585.249	12430.97
585.609	12669.38
585.969	12967.91
586.329	13054.46
586.688	13298.52
587.048	13505.07
587.408	13719.98
587.768	13930.59
588.127	14196.35
588.487	14412.39
588.846	14770.57
589.206	14953.17
589.565	15164.46
589.925	15490.33
590.284	15625.24
590.643	16018.67
591.003	16312.68
591.362	16561.71
591.721	16870.63
592.08	17139.32
592.44	17421.8
592.799	17756.03
593.158	18044.61
593.517	18308.56
593.876	18680.75
594.235	18901.31
594.593	19269.44
594.952	19527.74
595.311	19800.72
595.67	20094.5
596.029	20489.97
596.387	20757.31
596.746	21140.35
597.104	21459.89
597.463	21674.8
597.822	22075.46
598.18	22241.56
598.538	22525.4
598.897	22998.83
599.255	23065.04
599.613	23669.77
599.972	23865.02
600.33	24096.43
600.688	24354.5
601.046	24816.41
601.404	25152.22
601.762	25272.44
602.12	25706.1
602.478	25923.27
602.836	26224.73
603.194	26415.01
603.552	26672.86
603.91	26779.3
604.268	27282.56
604.625	27469.9
604.983	27928.64
605.341	27990.11
605.698	28200.28
606.056	28575.18
606.413	28764.78
606.771	29171.55
607.128	29270.98
607.485	29551.65
607.843	29732.21
608.2	30096.27
608.557	30268.02
608.914	30516.6
609.272	30822.13
609.629	31147.54
609.986	31312.74
610.343	31303.92
610.7	31786.62
611.057	31906.62
611.414	32133.51
611.771	32310.9
612.127	32557.9
612.484	32810.55
612.841	33037.21
613.198	33125.12
613.554	33249.63
613.911	33579.8
614.267	33687.14
614.624	33867.92
614.98	34064.3
615.337	34417.51
615.693	34368.47
616.05	34589.26
616.406	34982.92
616.762	34882.36
617.118	34965.3
617.475	35137.49
617.831	35481.67
618.187	35459.75
618.543	35724.15
618.899	35947.42
619.255	36023.57
619.611	36058.15
619.967	36306.28
620.323	36441.41
620.678	36421.53
621.034	36476.22
621.39	36602.99
621.746	36746.27
622.101	37184.67
622.457	36953.04
622.812	37227.38
623.168	37434.38
623.523	37326.59
623.879	37642.97
624.234	37405.91
624.589	37560.48
624.945	37763.41
625.3	37992.11
625.655	37975.84
626.01	38011.09
626.365	38076.63
626.72	38086.8
627.075	38150.07
627.43	38228.94
627.785	38256.96
628.14	38351.19
628.495	38564.3
628.85	38522.26
629.205	38560
629.559	38792.31
629.914	38614.69
630.269	38683.84
630.623	38597.97
630.978	38574.01
631.332	38708.7
631.687	38818.98
632.041	38725.65
632.396	38825.76
632.75	38753.9
633.104	38966.55
633.459	38764.52
633.813	38676.38
634.167	38858.53
634.521	38957.28
634.875	38893.55
635.229	38962.93
635.583	38819.88
635.937	38834.12
636.291	38888.81
636.645	38876.6
636.999	38688.59
637.352	38962.7
637.706	38748.92
638.06	39016.26
638.413	38869.83
638.767	38817.85
639.121	38939.88
639.474	38707.12
639.828	38761.13
640.181	38902.37
640.534	38870.28
640.888	38749.15
641.241	38653.11
641.594	38858.3
641.947	38935.36
642.301	38750.28
642.654	38917.51
643.007	38957.05
643.36	38808.36
643.713	38741.24
644.066	38912.76
644.419	38562.26
644.771	38475.71
645.124	38094.93
645.477	38113.91
645.83	37787.37
646.182	37648.84
646.535	37623.08
646.888	37748.05
647.24	37560.93
647.593	37841.83
647.945	37624.66
648.298	37569.52
648.65	37355.97
649.002	37355.51
649.355	37584.66
649.707	37530.65
650.059	37623.3
650.411	37961.37
650.763	38108.26
651.115	38442.94
651.467	38475.26
651.819	38350.52
652.171	38267.13
652.523	38207.02
652.875	38171.76
653.227	38060.81
653.578	38432.32
653.93	38241.14
654.282	38152.1
654.633	38011.54
654.985	38123.4
655.337	38135.83
655.688	38125.44
656.039	38325.21
656.391	37907.59
656.742	38016.74
657.094	38061.49
657.445	38230.52
657.796	37969.74
658.147	38126.12
658.498	38107.36
658.849	38067.81
659.2	38116.4
659.551	37875.95
659.902	38162.05
660.253	38023.52
660.604	38104.87
660.955	37847.71
661.306	38016.29
661.656	37953.01
662.007	37811.32
662.358	37782.85
662.708	38070.07
663.059	37902.17
663.409	37509.86
663.76	38022.16
664.11	37953.24
664.461	37876.18
664.811	37850.42
665.161	37786.24
665.511	37817.2
665.862	37812.68
666.212	37887.93
666.562	37922.96
666.912	37859.46
667.262	37792.79
667.612	37847.71
667.962	37769.06
668.312	37773.13
668.662	38000.02
669.011	37801.38
669.361	37781.49
669.711	37828.72
670.06	37729.29
670.41	37618.33
670.76	37685.22
671.109	37923.86
671.459	37685.22
671.808	37749.4
672.157	37659.69
672.507	37389.64
672.856	37527.26
673.205	37666.02
673.554	37633.93
673.904	37668.5
674.253	37704.66
674.602	37521.84
674.951	37111.91
675.3	36933.83
675.649	37438.45
675.998	37494.72
676.346	37432.12
676.695	37515.51
677.044	37146.71
677.393	37375.18
677.741	37491.1
678.09	37348.06
678.438	37181.51
678.787	37270.55
679.135	37400.94
679.484	36986.49
679.832	37157.55
680.181	36932.7
680.529	37170.66
680.877	37030.33
681.225	36906.71
681.573	37279.58
681.922	36913.04
682.27	36848.18
682.618	36953.72
682.966	36767.06
683.314	36756.21
683.661	36682.31
684.009	36496.78
684.357	36527.06
684.705	36381.3
685.053	36455.43
685.4	36429.66
685.748	36247.3
686.095	36326.39
686.443	36059.05
686.79	36050.92
687.138	36189.9
687.485	36098.82
687.832	35974.53
688.18	36027.64
688.527	35861.32
688.874	35780.42
689.221	35777.93
689.568	35811.15
689.915	35663.81
690.262	35551.04
690.609	35605.73
690.956	35355.12
691.303	35450.93
691.65	35260.88
691.997	35247.32
692.344	35010.94
692.69	35063.6
693.037	35042.81
693.383	34777.96
693.73	34848.46
694.077	34742.02
694.423	34694.79
694.769	34597.4
695.116	34507.45
695.462	34515.14
695.808	34353.33
696.155	34309.27
696.501	34162.38
696.847	34242.38
697.193	33923.97
697.539	34178.42
697.885	33877.41
698.231	33739.34
698.577	33663.63
698.923	33650.75
699.269	33554.71
699.614	33371.89
699.96	33217.77
700.306	33302.29
700.651	33173.93
700.997	33026.14
701.342	33048.06
701.688	32906.82
702.033	32776.43
702.379	32767.16
702.724	32745.24
703.069	32896.42
703.415	32493.04
703.76	32469.77
704.105	32433.16
704.45	32307.96
704.795	32124.92
705.14	32058.93
705.485	32111.36
705.83	31909.33
706.175	32040.17
706.52	31929.22
706.865	31836.56
707.209	31699.62
707.554	31643.35
707.899	31696
708.243	31689.9
708.588	31536.23
708.932	31161.78
709.277	31441.32
709.621	31258.05
709.966	31087.21
710.31	31227.77
710.654	30966.98
710.998	30947.1
711.342	30976.93
711.687	30912.07
712.031	30800.66
712.375	30667.56
712.719	30682.47
713.063	30640.44
713.407	30670.72
713.75	30453.55
714.094	30441.12
714.438	30340.78
714.782	30301.69
715.125	30182.82
715.469	30312.76
715.812	30092.88
716.156	29994.13
716.499	29939.89
716.843	30001.36
717.186	29813.11
717.53	29976.5
717.873	29892.21
718.216	29864.41
718.559	29722.95
718.902	29600.01
719.246	29692.44
719.589	29484.76
719.932	29350.75
720.275	29407.02
720.617	29351.21
720.96	29344.65
721.303	29282.51
721.646	29289.51
721.989	29164.77
722.331	29224.88
722.674	29152.34
723.016	29228.95
723.359	29070.76
723.701	29061.5
724.044	28835.74
724.386	28805.23
724.729	28862.18
725.071	28726.82
725.413	28673.71
725.755	28775.4
726.097	28564.56
726.439	28434.17
726.782	28450.89
727.124	28595.75
727.465	28372.25
727.807	28559.36
728.149	28407.95
728.491	28345.58
728.833	28347.84
729.175	28195.08
729.516	28186.72
729.858	28023.33
730.199	28262.87
730.541	28068.75
730.882	28069.66
731.224	28099.94
731.565	27935.88
731.906	27987.17
732.248	27983.33
732.589	27707.63
732.93	27701.31
733.271	27766.84
733.612	27763.68
733.953	27648.88
734.294	27619.5
734.635	27563.91
734.976	27657.01
735.317	27473.06
735.658	27464.25
735.999	27527.3
736.339	27388.09
736.68	27447.3
737.021	27295.21
737.361	27241.66
737.702	27313.97
738.042	27207.31
738.383	27064.71
738.723	27268.1
739.063	27104.26
739.404	27228.32
739.744	27018.39
740.084	26971.83
740.424	27035.33
740.764	26881.89
741.104	27039.63
741.444	26797.37
741.784	26676.25
742.124	26838.96
742.464	26737.26
742.804	26618.4
743.143	26644.38
743.483	26667.66
743.823	26530.26
744.162	26508.79
744.502	26549.47
744.841	26321.45
745.181	26493.2
745.52	26319.87
745.86	26319.42
746.199	26311.74
746.538	26211.18
746.877	26355.8
747.216	26282.81
747.556	26341.79
747.895	26160.1
748.234	25978.86
748.573	26055.7
748.911	25984.97
749.25	25927.34
749.589	25891.64
749.928	25789.04
750.267	25771.41
750.605	25842.6
750.944	25787.23
751.283	25668.36
751.621	25749.27
751.96	25535.71
752.298	25488.93
752.636	25581.36
752.975	25295.49
753.313	25246.91
753.651	25409.16
753.989	25151.54
754.327	25148.83
754.666	25004.43
755.004	25057.76
755.342	25059.57
755.679	25004.2
756.017	24857.99
756.355	25021.38
756.693	24741.84
757.031	24856.63
757.368	24648.5
757.706	24733.7
758.044	24559.47
758.381	24537.55
758.719	24556.08
759.056	24549.52
759.394	24450.54
759.731	24202.19
760.068	24250.77
760.405	24130.1
760.743	24003.55
761.08	24215.3
761.417	24027.5
761.754	23898.47
762.091	23845.81
762.428	23739.6
762.765	23655.08
763.102	23655.08
763.438	23657.12
763.775	23408.76
764.112	23594.07
764.449	23512.49
764.785	23325.83
765.122	23225.04
765.458	23161.09
765.795	23067.53
766.131	23154.98
766.467	22963.35
766.804	22859.62
767.14	22759.06
767.476	22810.13
767.812	22685.84
768.148	22730.36
768.485	22547.32
768.821	22591.38
769.157	22355.23
769.492	22280.21
769.828	22257.83
770.164	22093.54
770.5	22133.54
770.836	22134.22
771.171	21873.21
771.507	21881.8
771.842	21678.41
772.178	21733.78
772.513	21691.29
772.849	21617.17
773.184	21488.36
773.519	21518.87
773.855	21308.93
774.19	21239.55
774.525	21108.48
774.86	21156.84
775.195	21073.01
775.53	21047.7
775.865	20829.4
776.2	20703.52
776.535	20595.05
776.87	20581.49
777.205	20534.04
777.539	20371.78
777.874	20440.25
778.209	20262.63
778.543	20352.12
778.878	20151.67
779.212	20135.18
779.547	20023.99
779.881	20056.99
780.215	19910.55
780.55	19880.04
780.884	19855.86
781.218	19777.45
781.552	19841.85
781.886	19676.66
782.22	19536.32
782.554	19407.06
782.888	19214.52
783.222	19238.48
783.556	19114.19
783.889	19151.7
784.223	18951.03
784.557	18950.35
784.89	19024.92
785.224	18889.56
785.557	18827.19
785.891	18775.21
786.224	18632.84
786.558	18618.15
786.891	18511.49
787.224	18468.33
787.557	18407.09
787.891	18310.59
788.224	18367.77
788.557	18282.57
788.89	18212.97
789.223	18187.66
789.556	18048
789.888	17971.84
790.221	17928.68
790.554	17817.27
790.887	17733.66
791.219	17674.45
791.552	17678.97
791.884	17645.3
792.217	17474.46
792.549	17516.71
792.882	17351.07
793.214	17338.41
793.546	17384.74
793.879	17232.2
794.211	17088.93
794.543	17198.98
794.875	17109.04
795.207	17152.2
795.539	17020.68
795.871	17019.33
796.203	16869.05
796.535	16758.54
796.867	16777.3
797.198	16667.7
797.53	16665.21
797.862	16561.49
798.193	16600.58
798.525	16438.55
798.856	16461.83
799.188	16309.29
799.519	16222.96
799.85	16220.93
800.182	16247.14
800.513	16214.15
800.844	15956.53
801.175	16111.55
801.506	16024.78
801.837	15961.95
802.168	15908.85
802.499	15904.1
802.83	15876.31
803.161	15833.82
803.491	15744.33
803.822	15719.7
804.153	15595.18
804.483	15420.27
804.814	15418.01
805.145	15512.93
805.475	15449.65
805.805	15323.55
806.136	15281.52
806.466	15335.3
806.796	15211.24
807.126	15142.09
807.457	15078.13
807.787	15051.92
808.117	15134.86
808.447	15100.05
808.777	15085.14
809.107	14930.12
809.436	14930.79
809.766	14898.48
810.096	14836.79
810.426	14808.54
810.755	14874.75
811.085	14773.06
811.414	14771.48
811.744	14578.94
812.073	14670.91
812.403	14561.31
812.732	14516.57
813.061	14463.24
813.39	14416.68
813.719	14350.7
814.049	14472.05
814.378	14345.5
814.707	14263.92
815.036	14304.37
815.365	14303.24
815.693	14054.43
816.022	14049.01
816.351	14030.25
816.68	13993.42
817.008	14012.17
817.337	13926.07
817.665	13874.1
817.994	13934.21
818.322	13900.54
818.651	13823.25
818.979	13831.16
819.307	13825.51
819.636	13798.85
819.964	13626.65
820.292	13754.33
820.62	13656.48
820.948	13642.01
821.276	13756.59
821.604	13621.9
821.932	13609.92
822.259	13656.48
822.587	13648.57
822.915	13626.42
823.243	13629.81
823.57	13633.43
823.898	13613.09
824.225	13567.67
824.553	13566.31
824.88	13555.24
825.207	13588.46
825.535	13502.13
825.862	13623.71
826.189	13459.87
826.516	13630.72
826.843	13615.8
827.17	13568.57
827.497	13680.21
827.824	13612.18
828.151	13620.77
828.478	13566.99
828.805	13631.84
829.131	13558.85
829.458	13481.34
829.785	13475.69
830.111	13544.16
830.438	13643.82
830.764	13554.56
831.09	13615.12
831.417	13454.67
831.743	13592.52
832.069	13448.57
832.395	13501
832.722	13526.76
833.048	13446.54
833.374	13420.33
833.7	13405.41
834.026	13382.81
834.351	13414.9
834.677	13456.03
835.003	13502.81
835.329	13383.26
835.654	13386.43
835.98	13344.85
836.306	13366.32
836.631	13243.61
836.956	13283.83
837.282	13258.97
837.607	13237.28
837.932	13218.75
838.258	13199.54
838.583	13192.08
838.908	13104.18
839.233	13080.45
839.558	13100.33
839.883	13005.87
840.208	13037.96
840.533	12968.36
840.858	12962.03
841.182	13048.13
841.507	13003.84
841.832	12926.55
842.156	12920.9
842.481	12867.35
842.805	12820.34
843.13	12807.91
843.454	12725.65
843.778	12708.25
844.103	12681.59
844.427	12719.33
844.751	12673.9
845.075	12625.09
845.399	12598.65
845.723	12522.5
846.047	12531.31
846.371	12435.04
846.695	12452.44
847.019	12280.92
847.343	12297.87
847.666	12269.39
847.99	12198.89
848.313	12194.59
848.637	12068.95
848.96	12057.65
849.284	12019.23
849.607	11977.88
849.931	11925
850.254	11848.16
850.577	11826.24
850.9	11690.43
851.223	11659.02
851.546	11647.04
851.869	11533.6
852.192	11630.77
852.515	11509.19
852.838	11461.28
853.161	11463.77
853.483	11420.15
853.806	11389.87
854.129	11354.16
854.451	11264
854.774	11320.27
855.096	11216.09
855.419	11145.13
855.741	11128.41
856.063	11047.05
856.385	11053.61
856.708	11055.64
857.03	11042.08
857.352	10933.61
857.674	10931.35
857.996	10964.57
858.318	10854.97
858.64	10925.02
858.961	10857
859.283	10852.26
859.605	10709.21
859.926	10758.93
860.248	10681.41
860.57	10614.75
860.891	10711.02
861.212	10607.29
861.534	10600.51
861.855	10576.33
862.176	10530.46
862.498	10557.35
862.819	10566.61
863.14	10438.48
863.461	10423.34
863.782	10436.67
864.103	10469.22
864.424	10403.91
864.745	10405.94
865.065	10348.32
865.386	10298.37
865.707	10337.69
866.027	10249.11
866.348	10253.63
866.668	10248.43
866.989	10296.57
867.309	10161.88
867.63	10191.26
867.95	10198.49
868.27	10101.77
868.59	10080.3
868.91	10223.35
869.23	10138.38
869.55	10025.61
869.87	10149.9
870.19	10067.19
870.51	10120.07
870.83	10051.37
871.15	9977.93
871.469	10051.6
871.789	10066.06
872.109	10122.33
872.428	9970.02
872.748	10004.6
873.067	9945.61
873.386	9968.89
873.706	9970.02
874.025	9841.89
874.344	9848.67
874.663	9884.15
874.982	9840.53
875.301	9763.7
875.62	9829.01
875.939	9737.03
876.258	9763.7
876.577	9713.53
876.896	9784.71
877.214	9700.65
877.533	9802.12
877.852	9672.4
878.17	9650.03
878.489	9695.68
878.807	9673.98
879.125	9635.57
879.444	9596.24
879.762	9554.44
880.08	9591.95
880.398	9546.08
880.716	9537.04
881.034	9434.44
881.352	9496.59
881.67	9486.64
881.988	9506.98
882.306	9464.04
882.624	9406.65
882.941	9346.53
883.259	9355.57
883.577	9327.78
883.894	9345.4
884.212	9273.99
884.529	9274.22
884.846	9268.12
885.164	9286.42
885.481	9187.22
885.798	9191.74
886.115	9211.85
886.432	9196.48
886.75	9136.6
887.067	9104.05
887.383	9016.15
887.7	9106.77
888.017	9048.01
888.334	9031.74
888.651	8944.96
888.967	9010.05
889.284	8929.82
889.6	8899.54
889.917	8889.14
890.233	8873.78
890.55	8760.56
890.866	8870.39
891.182	8832.42
891.498	8784.06
891.815	8728.7
892.131	8756.49
892.447	8669.72
892.763	8678.98
893.079	8627.91
893.395	8636.27
893.71	8640.11
894.026	8614.12
894.342	8520.34
894.657	8551.53
894.973	8504.97
895.289	8505.2
895.604	8455.26
895.92	8383.4
896.235	8356.05
896.55	8396.73
896.865	8340.68
897.181	8296.62
897.496	8292.78
897.811	8257.97
898.126	8233.57
898.441	8184.98
898.756	8134.14
899.071	8130.29
899.386	8158.32
899.7	8058.88
900.015	8037.42
900.33	7921.94
900.644	7965.33
900.959	7948.38
901.273	7935.27
901.588	7929.17
901.902	7811.88
902.216	7794.26
902.531	7751.55
902.845	7786.8
903.159	7766.91
903.473	7757.65
903.787	7650.99
904.101	7621.61
904.415	7596.98
904.729	7620.48
905.042	7524.43
905.356	7595.39
905.67	7573.47
905.984	7530.31
906.297	7403.99
906.611	7428.62
906.924	7383.87
907.237	7366.47
907.551	7341.61
907.864	7281.96
908.177	7360.82
908.491	7244.89
908.804	7271.56
909.117	7225.01
909.43	7124.67
909.743	7189.08
910.056	7104.56
910.368	7060.27
910.681	7108.17
910.994	7089.64
911.307	7020.49
911.619	6956.77
911.932	6991.34
912.244	6928.29
912.557	6905.02
912.869	6919.03
913.181	6889.88
913.494	6866.83
913.806	6825.02
914.118	6745.92
914.43	6735.3
914.742	6721.74
915.054	6700.5
915.366	6680.39
915.678	6617.57
915.99	6665.25
916.302	6564.69
916.613	6589.32
916.925	6563.56
917.236	6520.17
917.548	6436.78
917.859	6498.7
918.171	6368.08
918.482	6360.4
918.794	6332.15
919.105	6366.73
919.416	6357.01
919.727	6306.16
920.038	6278.14
920.349	6201.98
920.66	6149.33
920.971	6197.46
921.282	6139.84
921.593	6129.67
921.903	6104.36
922.214	6084.92
922.525	6041.99
922.835	6043.12
923.146	5945.49
923.456	5959.73
923.767	5984.36
924.077	5964.25
924.387	5968.32
924.697	5912.73
925.008	5881.09
925.318	5839.28
925.628	5873.86
925.938	5775.55
926.248	5811.94
926.558	5734.65
926.867	5693.75
927.177	5684.71
927.487	5694.2
927.796	5614.88
928.106	5603.13
928.416	5604.03
928.725	5597.93
929.034	5527.65
929.344	5564.49
929.653	5515.9
929.962	5488.33
930.271	5420.31
930.581	5433.42
930.89	5460.31
931.199	5373.76
931.508	5363.59
931.817	5372.85
932.125	5271.39
932.434	5276.13
932.743	5237.49
933.051	5255.12
933.36	5197.49
933.669	5193.42
933.977	5141.22
934.286	5143.48
934.594	5133.99
934.902	5105.52
935.21	5091.05
935.519	5092.41
935.827	5066.42
936.135	5027.78
936.443	5006.54
936.751	5003.15
937.059	4999.08
937.367	4962.69
937.674	4932.64
937.982	4899.65
938.29	4889.48
938.597	4848.35
938.905	4797.27
939.213	4808.57
939.52	4753.89
939.827	4781.68
940.135	4742.36
940.442	4720.89
940.749	4706.2
941.056	4721.34
941.363	4702.36
941.67	4653.32
941.977	4597.28
942.284	4617.17
942.591	4597.96
942.898	4574.68
943.205	4611.74
943.511	4500.56
943.818	4545.53
944.125	4491.52
944.431	4482.93
944.738	4504.63
945.044	4486.55
945.35	4418.08
945.657	4380.56
945.963	4404.74
946.269	4340.56
946.575	4393.67
946.881	4338.98
947.187	4308.47
947.493	4337.85
947.799	4308.25
948.105	4233
948.41	4263.28
948.716	4207.01
949.022	4224.18
949.327	4195.71
949.633	4132.66
949.938	4156.16
950.244	4136.5
950.549	4046.11
950.854	4129.5
951.16	4070.74
951.465	4050.18
951.77	4044.07
952.075	4061.02
952.38	4039.33
952.685	3970.86
952.99	3950.74
953.294	3965.88
953.599	3970.63
953.904	3899.9
954.209	3896.06
954.513	3888.6
954.818	3905.77
955.122	3831.2
955.426	3812.67
955.731	3829.16
956.035	3794.36
956.339	3753.69
956.643	3776.74
956.948	3763.86
957.252	3743.74
957.556	3741.26
957.86	3679.56
958.163	3678.89
958.467	3672.11
958.771	3688.6
959.075	3710.98
959.378	3627.36
959.682	3626.01
959.985	3607.7
960.289	3571.54
960.592	3542.62
960.896	3554.37
961.199	3563.86
961.502	3547.82
961.805	3516.4
962.108	3500.36
962.411	3462.17
962.714	3430.08
963.017	3454.03
963.32	3441.6
963.623	3435.5
963.926	3428.5
964.228	3407.48
964.531	3362.74
964.833	3347.82
965.136	3319.12
965.438	3324.55
965.741	3298.78
966.043	3311.44
966.345	3263.3
966.648	3258.78
966.95	3266.02
967.252	3246.13
967.554	3245.45
967.856	3208.84
968.158	3215.85
968.46	3180.37
968.761	3193.7
969.063	3117.32
969.365	3134.72
969.666	3139.92
969.968	3131.78
970.269	3099.01
970.571	3105.12
970.872	3100.14
971.174	3066.47
971.475	3092.91
971.776	3026.47
972.077	3009.3
972.378	3042.74
972.679	2986.48
972.98	2951.9
973.281	3015.63
973.582	2964.1
973.883	2953.48
974.183	2946.02
974.484	2943.31
974.785	2929.08
975.085	2924.1
975.386	2885.91
975.686	2856.31
975.986	2835.97
976.287	2826.48
976.587	2855.86
976.887	2808.85
977.187	2821.51
977.487	2789.87
977.787	2760.94
978.087	2782.19
978.387	2761.85
978.687	2782.41
978.987	2723.88
979.286	2725.92
979.586	2720.72
979.885	2713.49
980.185	2713.71
980.484	2688.86
980.784	2685.92
981.083	2650.21
981.382	2680.95
981.682	2652.7
981.981	2605.02
982.28	2603.21
982.579	2571.57
982.878	2616.09
983.177	2558.92
983.475	2557.56
983.774	2562.53
984.073	2533.15
984.372	2539.93
984.67	2529.54
984.969	2494.74
985.267	2505.81
985.566	2477.56
985.864	2485.92
986.162	2444.34
986.461	2436.43
986.759	2444.12
987.057	2442.53
987.355	2425.59
987.653	2430.78
987.951	2413.61
988.249	2381.97
988.547	2385.81
988.844	2401.63
989.142	2366.15
989.44	2330
989.737	2336.55
990.035	2329.77
990.332	2310.11
990.63	2306.72
990.927	2292.71
991.224	2310.33
991.521	2304.01
991.819	2244.57
992.116	2263.78
992.413	2254.52
992.71	2212.71
993.006	2240.73
993.303	2230.11
993.6	2205.03
993.897	2212.26
994.193	2200.73
994.49	2145.37
994.787	2152.37
995.083	2189.43
995.379	2145.59
995.676	2123.67
995.972	2123.9
996.268	2106.5
996.565	2079.15
996.861	2121.41
997.157	2075.31
997.453	2077.57
997.749	2086.39
998.044	2066.27
998.34	2040.29
998.636	2025.14
998.932	2012.72
999.227	2000.51
999.523	2013.85
999.818	2007.52
1000.114	1994.41
1000.409	1956.9
1000.704	1959.16
1001	1951.47
1001.295	1931.36
1001.59	1928.88
1001.885	1930.91
1002.18	1901.53
1002.475	1899.05
1002.77	1911.48
1003.065	1873.96
1003.359	1867.63
1003.654	1855.21
1003.949	1841.87
1004.243	1846.39
1004.538	1812.27
1004.832	1836.9
1005.127	1824.25
1005.421	1800.29
1005.715	1788.77
1006.009	1777.47
1006.304	1788.09
1006.598	1771.37
1006.892	1768.88
1007.186	1725.94
1007.48	1743.12
1007.773	1728.88
1008.067	1717.36
1008.361	1697.7
1008.655	1664.93
1008.948	1691.14
1009.242	1671.26
1009.535	1634.19
1009.829	1632.16
1010.122	1657.02
1010.415	1622.44
1010.708	1631.48
1011.001	1630.13
1011.295	1600.75
1011.588	1624.7
1011.881	1612.73
1012.173	1589.22
1012.466	1569.34
1012.759	1562.33
1013.052	1550.81
1013.344	1544.25
1013.637	1515.1
1013.93	1544.03
1014.222	1523.24
1014.514	1517.14
1014.807	1493.41
1015.099	1499.28
1015.391	1519.4
1015.683	1519.62
1015.976	1485.05
1016.268	1454.54
1016.56	1451.37
1016.851	1443.92
1017.143	1467.65
1017.435	1444.59
1017.727	1443.46
1018.018	1414.09
1018.31	1399.85
1018.602	1407.08
1018.893	1380.42
1019.185	1370.02
1019.476	1375.22
1019.767	1395.33
1020.058	1360.08
1020.35	1337.7
1020.641	1319.4
1020.932	1313.07
1021.223	1306.52
1021.514	1316.91
1021.804	1289.34
1022.095	1285.28
1022.386	1291.38
1022.677	1282.79
1022.967	1254.54
1023.258	1266.29
1023.548	1264.03
1023.839	1231.04
1024.129	1241.89
1024.419	1237.59
1024.709	1220.19
1025	1205.51
1025.29	1222.23
1025.58	1175.9
1025.87	1199.18
1026.16	1167.77
1026.449	1178.16
1026.739	1164.15
1027.029	1193.53
1027.319	1182.68
1027.608	1180.42
1027.898	1145.39
1028.187	1141.33
1028.477	1139.74
1028.766	1135
1029.055	1112.85
1029.344	1090.03
1029.634	1089.8
1029.923	1094.77
1030.212	1096.36
1030.501	1087.77
1030.79	1070.37
1031.078	1066.07
1031.367	1062.68
1031.656	1049.8
1031.945	1062.01
1032.233	1052.97
1032.522	1045.51
1032.81	990.6
1033.099	1030.14
1033.387	991.05
1033.675	1008.22
1033.963	1002.8
1034.251	1020.65
1034.54	978.62
1034.828	983.36
1035.116	988.34
1035.403	965.74
1035.691	944.95
1035.979	930.94
1036.267	954.89
1036.554	979.75
1036.842	951.5
1037.129	944.49
1037.417	939.52
1037.704	923.03
1037.992	934.33
1038.279	924.61
1038.566	918.05
1038.853	918.05
1039.14	918.05
