Data from hue_160_FLMS001491_00098.txt Node
Date: Tue Feb 07 16:51:58 GMT 2017
User: dcchb
Spectrometer: FLMS00149
Trigger mode: 0
Integration Time (sec): 2.000000E-2
Scans to average: 10
Electric dark correction enabled: true
Nonlinearity correction enabled: false
Boxcar width: 0
XAxis mode: Wavelengths
Number of Pixels in Spectrum: 2048
>>>>>Begin Spectral Data<<<<<
341.393	-6.57
341.776	-6.57
342.16	-6.57
342.543	-63.52
342.927	-67.81
343.31	-72.1
343.693	-74.14
344.077	-60.13
344.46	-58.54
344.843	-59.9
345.226	-35.04
345.61	-28.49
345.993	-18.77
346.376	-16.51
346.759	4.28
347.142	33.21
347.525	51.28
347.908	46.54
348.291	72.98
348.674	95.35
349.057	119.98
349.44	129.02
349.823	141
350.206	166.54
350.588	182.13
350.971	203.82
351.354	235.46
351.737	225.29
352.119	266.42
352.502	269.81
352.884	272.52
353.267	281.79
353.65	293.54
354.032	281.33
354.414	314.1
354.797	304.61
355.179	317.49
355.562	355.68
355.944	305.51
356.326	336.02
356.709	341.67
357.091	364.5
357.473	336.02
357.855	339.86
358.238	345.29
358.62	352.07
359.002	361.78
359.384	338.96
359.766	330.15
360.148	331.95
360.53	335.57
360.912	331.28
361.294	322.46
361.676	320.43
362.057	331.5
362.439	340.09
362.821	346.42
363.203	315.23
363.584	329.47
363.966	311.84
364.348	318.62
364.729	320.43
365.111	335.8
365.493	340.99
365.874	329.02
366.256	311.84
366.637	303.48
367.019	308.9
367.4	302.12
367.781	324.95
368.163	339.19
368.544	323.59
368.925	289.92
369.306	298.96
369.688	315.01
370.069	323.82
370.45	325.63
370.831	290.6
371.212	323.37
371.593	317.72
371.974	317.49
372.355	295.35
372.736	320.66
373.117	323.14
373.498	307.77
373.879	309.36
374.26	324.95
374.641	302.35
375.021	322.69
375.402	314.78
375.783	331.05
376.163	315.23
376.544	319.07
376.925	349.13
377.305	316.59
377.686	314.55
378.066	341.22
378.447	333.08
378.827	348
379.208	338.06
379.588	340.32
379.968	347.77
380.349	332.86
380.729	317.72
381.109	330.6
381.489	330.6
381.87	327.89
382.25	336.7
382.63	326.3
383.01	350.71
383.39	330.15
383.77	355.46
384.15	352.29
384.53	350.03
384.91	330.15
385.29	354.78
385.67	364.72
386.049	369.24
386.429	345.51
386.809	339.64
387.189	359.3
387.568	360.65
387.948	346.64
388.328	354.55
388.707	367.21
389.087	365.17
389.466	366.08
389.846	355.23
390.225	356.81
390.605	334.21
390.984	344.16
391.363	355
391.743	369.47
392.122	383.48
392.501	339.19
392.881	350.71
393.26	357.49
393.639	367.21
394.018	374.89
394.397	380.77
394.776	391.61
395.155	369.47
395.534	391.39
395.913	377.15
396.292	378.06
396.671	390.26
397.05	387.55
397.429	386.42
397.808	378.96
398.186	382.12
398.565	393.87
398.944	404.72
399.323	392.97
399.701	392.29
400.08	367.89
400.458	384.61
400.837	404.95
401.215	425.51
401.594	411.05
401.972	400.88
402.351	425.96
402.729	396.59
403.107	404.95
403.486	404.5
403.864	429.58
404.242	381.44
404.62	430.26
404.999	406.98
405.377	413.08
405.755	418.73
406.133	403.14
406.511	427.55
406.889	420.99
407.267	427.55
407.645	422.57
408.023	436.81
408.401	446.75
408.779	455.34
409.156	441.1
409.534	437.26
409.912	429.58
410.29	473.65
410.667	449.24
411.045	462.8
411.422	444.72
411.8	461.67
412.178	458.28
412.555	497.6
412.933	460.54
413.31	507.09
413.687	487.2
414.065	478.39
414.442	499.18
414.819	479.07
415.197	512.97
415.574	505.28
415.951	512.51
416.328	489.01
416.705	494.66
417.082	507.32
417.46	500.09
417.837	507.54
418.214	525.62
418.591	543.7
418.967	514.1
419.344	517.71
419.721	518.84
420.098	527.66
420.475	532.85
420.852	538.28
421.228	557.03
421.605	552.29
421.982	574.89
422.358	541.21
422.735	541.21
423.111	552.29
423.488	559.75
423.864	557.49
424.241	572.17
424.617	583.47
424.994	610.82
425.37	595.9
425.746	586.86
426.123	597.71
426.499	598.16
426.875	624.38
427.251	609.01
427.627	609.01
428.003	607.43
428.379	637.26
428.756	637.03
429.132	635.9
429.507	627.31
429.883	618.27
430.259	653.53
430.635	673.87
431.011	653.75
431.387	661.66
431.763	677.03
432.138	677.48
432.514	696.92
432.89	698.05
433.265	707.31
433.641	702.11
434.016	703.47
434.392	711.83
434.767	748.44
435.143	732.17
435.518	736.69
435.894	726.29
436.269	748.67
436.644	768.1
437.02	760.19
437.395	742.57
437.77	773.75
438.145	790.7
438.52	789.57
438.895	793.64
439.271	795.67
439.646	822.56
440.021	823.47
440.395	835.44
440.77	815.78
441.145	848.1
441.52	839.74
441.895	822.34
442.27	866.86
442.645	860.08
443.019	854.43
443.394	853.97
443.769	886.29
444.143	871.83
444.518	881.09
444.892	885.16
445.267	902.56
445.641	909.57
446.016	872.96
446.39	911.83
446.764	938.72
447.139	930.58
447.513	914.76
447.887	931.49
448.262	931.03
448.636	957.25
449.01	951.83
449.384	979.17
449.758	981.43
450.132	985.95
450.506	990.92
450.88	1004.25
451.254	983.91
451.628	990.02
452.002	1009.22
452.376	1061.43
452.75	1038.6
453.123	1055.1
453.497	1053.07
453.871	1075.21
454.244	1079.28
454.618	1075.44
454.992	1122.44
455.365	1110.24
455.739	1115.66
456.112	1176.45
456.486	1143.46
456.859	1131.26
457.232	1166.96
457.606	1194.3
457.979	1189.33
458.352	1210.12
458.725	1247.86
459.099	1240.41
459.472	1239.05
459.845	1273.17
460.218	1279.05
460.591	1295.55
460.964	1331.25
461.337	1328.09
461.71	1363.79
462.083	1399.27
462.456	1393.17
462.829	1388.2
463.201	1413.06
463.574	1422.55
463.947	1435.88
464.32	1429.33
464.692	1479.49
465.065	1500.74
465.438	1535.76
465.81	1535.09
466.183	1553.62
466.555	1576.67
466.928	1591.13
467.3	1616.21
467.672	1665.03
468.045	1704.35
468.417	1726.72
468.789	1720.62
469.161	1763.78
469.534	1801.75
469.906	1827.73
470.278	1861.86
470.65	1874.74
471.022	1920.84
471.394	1970.78
471.766	1995.87
472.138	2006.49
472.51	2052.36
472.882	2141.4
473.253	2141.62
473.625	2186.37
473.997	2244.9
474.369	2285.12
474.74	2291.68
475.112	2369.64
475.484	2449.86
475.855	2500.49
476.227	2507.72
476.598	2626.58
476.97	2645.34
477.341	2723.76
477.713	2782.29
478.084	2825.67
478.455	2935.05
478.827	3019.79
479.198	3051.66
479.569	3100.92
479.94	3262.72
480.311	3289.16
480.682	3413.46
481.053	3527.12
481.424	3599.44
481.795	3636.73
482.166	3744.07
482.537	3827
482.908	3937.06
483.279	4022.93
483.65	4163.72
484.021	4283.72
484.391	4380.66
484.762	4446.42
485.133	4539.3
485.503	4643.93
485.874	4797.37
486.244	4876.24
486.615	5008.89
486.985	5170.25
487.356	5235.55
487.726	5357.13
488.097	5529.11
488.467	5596
488.837	5735.2
489.207	5918.02
489.578	6040.73
489.948	6143.1
490.318	6259.71
490.688	6321.4
491.058	6527.5
491.428	6633.94
491.798	6726.59
492.168	6871.22
492.538	7002.51
492.908	7124.54
493.278	7260.13
493.648	7375.84
494.017	7542.16
494.387	7662.38
494.757	7769.5
495.126	7938.76
495.496	7955.93
495.866	8068.7
496.235	8196.38
496.605	8329.03
496.974	8385.08
497.344	8511.63
497.713	8627.1
498.082	8707.33
498.452	8811.51
498.821	8957.04
499.19	9058.05
499.559	9089.92
499.928	9197.26
500.298	9331.94
500.667	9476.12
501.036	9490.13
501.405	9549.79
501.774	9648.55
502.143	9753.85
502.512	9780.97
502.88	9909.78
503.249	9966.05
503.618	10030.23
503.987	10100.96
504.356	10175.99
504.724	10218.25
505.093	10326.95
505.462	10347.06
505.83	10477.22
506.199	10548.86
506.567	10693.26
506.936	10639.25
507.304	10694.85
507.672	10816.42
508.041	10910.21
508.409	10984.1
508.777	11072.01
509.145	11148.62
509.514	11073.14
509.882	11076.08
510.25	11246.47
510.618	11208.96
510.986	11271.1
511.354	11374.83
511.722	11410.99
512.09	11535.95
512.458	11495.95
512.826	11643.52
513.193	11620.02
513.561	11635.16
513.929	11688.27
514.297	11893.01
514.664	11853.69
515.032	11889.62
515.4	11907.92
515.767	11929.84
516.135	12036.96
516.502	11846.91
516.869	12110.18
517.237	12140.91
517.604	12024.08
517.972	12112.21
518.339	12186.56
518.706	12184.3
519.073	12168.03
519.44	12212.09
519.808	12358.08
520.175	12297.52
520.542	12361.24
520.909	12433.33
521.276	12344.07
521.643	12460.68
522.009	12502.71
522.376	12509.04
522.743	12565.31
523.11	12556.27
523.477	12685.3
523.843	12700.44
524.21	12831.74
524.577	12786.54
524.943	12782.02
525.31	12826.77
525.676	12847.56
526.043	12897.5
526.409	12864.73
526.776	12933.21
527.142	12968.46
527.508	12936.82
527.874	12985.18
528.241	13017.27
528.607	13031.06
528.973	13072.86
529.339	12988.12
529.705	13130.49
530.071	13085.52
530.437	13104.27
530.803	13082.81
531.169	13193.09
531.535	13013.88
531.901	13036.48
532.267	13011.85
532.632	13067.66
532.998	13082.81
533.364	13037.38
533.73	13055.91
534.095	13057.04
534.461	13037.38
534.826	13044.39
535.192	12965.97
535.557	13120.77
535.923	12944.28
536.288	12945.18
536.653	12984.73
537.019	12904.51
537.384	12906.99
537.749	12894.11
538.114	12853.43
538.479	12837.16
538.845	12822.47
539.21	12758.07
539.575	12768.46
539.94	12752.42
540.305	12787.45
540.67	12711.52
541.034	12624.06
541.399	12627.22
541.764	12551.07
542.129	12645.53
542.494	12541.58
542.858	12518.3
543.223	12531.86
543.587	12466.78
543.952	12436.5
544.316	12391.98
544.681	12471.97
545.045	12441.69
545.41	12440.11
545.774	12248.48
546.138	12283.05
546.503	12224.07
546.867	12242.15
547.231	12239.21
547.595	12160.57
547.959	12086.9
548.324	12111.76
548.688	12128.03
549.052	12062.95
549.416	12047.8
549.779	12006.45
550.143	12021.59
550.507	11994.92
550.871	11952.89
551.235	11897.75
551.599	11900.46
551.962	11853.23
552.326	11851.65
552.689	11867.02
553.053	11773.46
553.417	11729.62
553.78	11820.47
554.143	11788.6
554.507	11757.42
554.87	11778.21
555.234	11818.43
555.597	11704.31
555.96	11712.9
556.323	11687.36
556.686	11609.62
557.05	11732.56
557.413	11623.86
557.776	11647.14
558.139	11632
558.502	11595.16
558.865	11635.16
559.228	11615.95
559.59	11594.71
559.953	11550.19
560.316	11653.92
560.679	11671.54
561.041	11594.48
561.404	11632.67
561.767	11698.21
562.129	11615.73
562.492	11664.09
562.854	11627.02
563.217	11602.84
563.579	11687.14
563.941	11674.93
564.304	11634.03
564.666	11668.61
565.028	11603.07
565.39	11770.3
565.753	11801.71
566.115	11678.1
566.477	11740.47
566.839	11800.58
567.201	11787.47
567.563	11786.79
567.925	11839.67
568.287	11852.33
568.648	11825.66
569.01	11858.66
569.372	11926.9
569.734	11822.5
570.095	11813.46
570.457	11853.91
570.819	11836.28
571.18	11839.9
571.542	11987.92
571.903	11981.59
572.265	11982.95
572.626	11982.5
572.987	11947.24
573.349	11993.12
573.71	12001.7
574.071	11989.28
574.432	11965.77
574.794	12075.37
575.155	12024.53
575.516	12026.56
575.877	12061.82
576.238	12045.54
576.599	12053
576.96	12049.84
577.32	12141.14
577.681	12092.32
578.042	12178.2
578.403	12086.67
578.763	12087.13
579.124	12062.72
579.485	12118.76
579.845	12096.62
580.206	12074.92
580.566	12070.63
580.927	12081.02
581.287	12121.48
581.648	12002.16
582.008	12059.78
582.368	12074.47
582.728	12088.26
583.089	12047.13
583.449	12123.28
583.809	12095.04
584.169	12080.8
584.529	11986.79
584.889	12070.85
585.249	11985.89
585.609	11965.77
585.969	12069.73
586.329	12060.91
586.688	12052.32
587.048	12013.46
587.408	11987.47
587.768	11949.05
588.127	11919.22
588.487	11890.97
588.846	12083.96
589.206	11914.7
589.565	11979.56
589.925	12044.41
590.284	11912.89
590.643	11908.15
591.003	11854.14
591.362	11923.74
591.721	11907.47
592.08	11904.53
592.44	11932.33
592.799	11820.92
593.158	11897.07
593.517	11877.41
593.876	11879.22
594.235	11813.46
594.593	11866.57
594.952	11847.13
595.311	11782.05
595.67	11873.8
596.029	11824.99
596.387	11857.08
596.746	11934.81
597.104	11860.46
597.463	11794.48
597.822	11855.27
598.18	11780.02
598.538	11839.67
598.897	11916.06
599.255	11791.31
599.613	11937.98
599.972	11755.83
600.33	11888.49
600.688	11763.52
601.046	11791.54
601.404	11881.03
601.762	11769.62
602.12	11880.35
602.478	11813.91
602.836	11826.57
603.194	11791.54
603.552	11788.6
603.91	11777.3
604.268	11859.11
604.625	11755.61
604.983	11853.46
605.341	11762.61
605.698	11873.57
606.056	11891.65
606.413	11887.13
606.771	11845.78
607.128	11808.49
607.485	11799.22
607.843	11820.47
608.2	11898.88
608.557	11880.8
608.914	11769.62
609.272	11909.5
609.629	11984.08
609.986	11917.64
610.343	11910.41
610.7	12072.44
611.057	11967.35
611.414	11917.41
611.771	11971.2
612.127	11977.75
612.484	12038.99
612.841	12050.06
613.198	12012.55
613.554	11943.63
613.911	12049.16
614.267	12052.78
614.624	11938.88
614.98	11957.64
615.337	12055.94
615.693	12087.35
616.05	12057.52
616.406	12065.43
616.762	12112.44
617.118	12111.08
617.475	12081.25
617.831	12034.7
618.187	12145.66
618.543	12182.49
618.899	12219.33
619.255	12147.69
619.611	12162.38
619.967	12258.65
620.323	12152.43
620.678	12143.17
621.034	12170.97
621.39	12180.46
621.746	12128.48
622.101	12231.08
622.457	12117.86
622.812	12190.17
623.168	12223.39
623.523	12173.45
623.879	12227.01
624.234	12126.67
624.589	12223.17
624.945	12169.38
625.3	12137.97
625.655	12151.08
626.01	12167.12
626.365	12150.63
626.72	12164.41
627.075	12240.79
627.43	12174.36
627.785	12161.47
628.14	12073.57
628.495	12107.01
628.85	12155.6
629.205	12116.28
629.559	12166.22
629.914	12036.28
630.269	12107.01
630.623	12054.58
630.978	12049.39
631.332	12071.98
631.687	12120.57
632.041	12012.78
632.396	12053
632.75	11990.86
633.104	11968.94
633.459	11993.12
633.813	12033.57
634.167	11948.6
634.521	11999.44
634.875	11997.41
635.229	11886
635.583	11890.97
635.937	11919.67
636.291	11829.73
636.645	11880.35
636.999	11869.73
637.352	11877.64
637.706	11781.37
638.06	11855.27
638.413	11837.41
638.767	11770.52
639.121	11810.07
639.474	11726.68
639.828	11822.5
640.181	11789.96
640.534	11763.29
640.888	11738.43
641.241	11587.25
641.594	11739.11
641.947	11661.6
642.301	11666.57
642.654	11693.24
643.007	11706.12
643.36	11623.64
643.713	11694.59
644.066	11638.32
644.419	11633.35
644.771	11511.77
645.124	11441.49
645.477	11405.79
645.83	11312.68
646.182	11247.6
646.535	11272.46
646.888	11277.43
647.24	11282.4
647.593	11253.48
647.945	11217.09
648.298	11232.23
648.65	11273.81
649.002	11203.53
649.355	11330.08
649.707	11221.39
650.059	11296.19
650.411	11370.31
650.763	11434.94
651.115	11528.72
651.467	11453.24
651.819	11437.88
652.171	11467.48
652.523	11457.09
652.875	11507.25
653.227	11407.37
653.578	11528.5
653.93	11494.37
654.282	11417.09
654.633	11368.27
654.985	11364.66
655.337	11484.43
655.688	11465.22
656.039	11473.13
656.391	11423.41
656.742	11417.09
657.094	11473.81
657.445	11440.14
657.796	11470.42
658.147	11415.28
658.498	11424.54
658.849	11473.81
659.2	11427.26
659.551	11503.64
659.902	11493.24
660.253	11545.22
660.604	11541.15
660.955	11456.86
661.306	11516.52
661.656	11506.8
662.007	11474.71
662.358	11468.38
662.708	11453.24
663.059	11532.34
663.409	11356.3
663.76	11485.79
664.11	11427.48
664.461	11572.79
664.811	11518.1
665.161	11484.88
665.511	11485.79
665.862	11514.94
666.212	11544.77
666.562	11480.14
666.912	11542.51
667.262	11506.12
667.612	11524.65
667.962	11489.4
668.312	11543.19
668.662	11518.55
669.011	11492.79
669.361	11483.53
669.711	11513.58
670.06	11470.64
670.41	11440.36
670.76	11457.99
671.109	11526.46
671.459	11475.84
671.808	11398.1
672.157	11526.46
672.507	11401.49
672.856	11394.49
673.205	11414.15
673.554	11440.14
673.904	11473.36
674.253	11464.77
674.602	11497.08
674.951	11247.83
675.3	11142.07
675.649	11288.95
675.998	11323.53
676.346	11290.76
676.695	11382.96
677.044	11306.36
677.393	11437.43
677.741	11316.75
678.09	11298.9
678.438	11263.42
678.787	11295.73
679.135	11304.77
679.484	11177.77
679.832	11270.2
680.181	11195.85
680.529	11174.38
680.877	11143.87
681.225	11153.36
681.573	11156.53
681.922	11141.39
682.27	11122.86
682.618	11145.46
682.966	11061.39
683.314	10950.43
683.661	11044.89
684.009	10982.3
684.357	10934.39
684.705	10886.03
685.053	10918.79
685.4	10879.02
685.748	10884.9
686.095	10889.64
686.443	10841.51
686.79	10829.08
687.138	10854.16
687.485	10850.1
687.832	10755.86
688.18	10780.49
688.527	10707.27
688.874	10718.35
689.221	10705.02
689.568	10600.16
689.915	10617.33
690.262	10550.89
690.609	10526.71
690.956	10537.34
691.303	10500.27
691.65	10434.97
691.997	10417.11
692.344	10400.39
692.69	10316.78
693.037	10349.32
693.383	10200.17
693.73	10269.32
694.077	10162.43
694.423	10141.41
694.769	10132.83
695.116	10078.82
695.462	10061.64
695.808	10008.76
696.155	10026.39
696.501	9950.01
696.847	9960.4
697.193	9893.06
697.539	9918.14
697.885	9793.17
698.231	9751.37
698.577	9821.65
698.923	9713.63
699.269	9700.07
699.614	9640.86
699.96	9647.64
700.306	9657.81
700.651	9527.87
700.997	9571.26
701.342	9528.77
701.688	9417.37
702.033	9453.75
702.379	9419.85
702.724	9398.61
703.069	9486.97
703.415	9256.01
703.76	9326.29
704.105	9329.46
704.45	9232.29
704.795	9219.63
705.14	9143.47
705.485	9113.42
705.83	9131.72
706.175	9082.91
706.52	9071.84
706.865	9058.96
707.209	9044.27
707.554	8999.07
707.899	9025.06
708.243	8949.81
708.588	8948.45
708.932	8887.66
709.277	8888.11
709.621	8918.17
709.966	8750.94
710.31	8797.72
710.654	8708.23
710.998	8739.42
711.342	8748.68
711.687	8676.59
712.031	8667.55
712.375	8687.22
712.719	8658.52
713.063	8609.48
713.407	8637.27
713.75	8626.65
714.094	8583.26
714.438	8570.61
714.782	8633.21
715.125	8531.29
715.469	8527.67
715.812	8537.16
716.156	8460.33
716.499	8419.65
716.843	8469.14
717.186	8466.2
717.53	8437.05
717.873	8457.62
718.216	8467.33
718.559	8387.34
718.902	8366.55
719.246	8338.75
719.589	8327.45
719.932	8289.03
720.275	8325.64
720.617	8313.67
720.96	8250.84
721.303	8288.36
721.646	8296.26
721.989	8271.63
722.331	8293.33
722.674	8299.88
723.016	8272.31
723.359	8301.46
723.701	8249.26
724.044	8221.24
724.386	8208.36
724.729	8211.75
725.071	8156.38
725.413	8200.67
725.755	8180.34
726.097	8175.14
726.439	8108.93
726.782	8155.48
727.124	8138.3
727.465	8123.84
727.807	8113.22
728.149	8049.27
728.491	8073.22
728.833	8182.6
729.175	8130.62
729.516	8065.76
729.858	8093.33
730.199	8129.49
730.541	8059.66
730.882	8057.18
731.224	8168.36
731.565	8081.58
731.906	8072.09
732.248	8086.55
732.589	8016.27
732.93	7999.32
733.271	8050.17
733.612	8030.28
733.953	8064.41
734.294	8071.64
734.635	7998.65
734.976	8082.03
735.317	7995.48
735.658	8047.68
735.999	8075.25
736.339	8084.07
736.68	8120.45
737.021	8083.62
737.361	8076.84
737.702	8039.77
738.042	8078.19
738.383	8049.49
738.723	8154.35
739.063	8088.13
739.404	8096.04
739.744	8082.03
740.084	8139.21
740.424	8172.43
740.764	8107.57
741.104	8202.26
741.444	8124.52
741.784	8144.18
742.124	8224.85
742.464	8248.36
742.804	8204.74
743.143	8226.44
743.483	8328.35
743.823	8229.83
744.162	8240.67
744.502	8335.36
744.841	8331.52
745.181	8399.54
745.52	8358.64
745.86	8368.35
746.199	8482.7
746.538	8515.47
746.877	8520.89
747.216	8507.78
747.556	8593.66
747.895	8692.64
748.234	8642.24
748.573	8692.41
748.911	8838.17
749.25	8869.36
749.589	8877.94
749.928	8994.55
750.267	9024.38
750.605	9066.19
750.944	9089.46
751.283	9231.61
751.621	9275.45
751.96	9275
752.298	9450.13
752.636	9518.61
752.975	9605.83
753.313	9648.32
753.651	9835.21
753.989	9817.58
754.327	9924.92
754.666	10081.75
755.004	10139.83
755.342	10343.67
755.679	10420.73
756.017	10509.31
756.355	10650.55
756.693	10834.28
757.031	10959.02
757.368	11004.89
757.706	11093.93
758.044	11286.69
758.381	11508.38
758.719	11527.14
759.056	11775.95
759.394	11832.67
759.731	11951.54
760.068	12089.16
760.405	12272.21
760.743	12426.1
761.08	12572.08
761.417	12695.47
761.754	12876.48
762.091	12987.44
762.428	13190.6
762.765	13209.81
763.102	13536.81
763.438	13641.89
763.775	13728.44
764.112	13868.1
764.449	14192.61
764.785	14144.7
765.122	14393.51
765.458	14456.55
765.795	14609.77
766.131	14795.76
766.467	14860.84
766.804	14943.1
767.14	15120.94
767.476	15283.65
767.812	15342.63
768.148	15593.25
768.485	15611.1
768.821	15675.28
769.157	15893.58
769.492	15969.28
769.828	16093.35
770.164	16142.61
770.5	16228.94
770.836	16355.94
771.171	16430.51
771.507	16503.96
771.842	16567.46
772.178	16743.5
772.513	16843.16
772.849	16818.98
773.184	16912.99
773.519	17093.32
773.855	17126.99
774.19	17209.25
774.525	17251.74
774.86	17353.88
775.195	17439.53
775.53	17424.16
775.865	17480.88
776.2	17402.01
776.535	17473.65
776.87	17561.78
777.205	17484.72
777.539	17556.59
777.874	17746.64
778.209	17580.09
778.543	17690.82
778.878	17659.41
779.212	17688.56
779.547	17607.43
779.881	17770.14
780.215	17709.12
780.55	17871.61
780.884	17780.54
781.218	17785.51
781.552	17843.81
781.886	17758.84
782.22	17715.68
782.554	17746.19
782.888	17619.64
783.222	17628
783.556	17692.63
783.889	17697.83
784.223	17597.26
784.557	17732.85
784.89	17671.61
785.224	17654.66
785.557	17673.19
785.891	17575.57
786.224	17650.14
786.558	17576.47
786.891	17517.94
787.224	17452.63
787.557	17395.46
787.891	17530.15
788.224	17549.81
788.557	17507.32
788.89	17538.73
789.223	17477.04
789.556	17442.47
789.888	17404.73
790.221	17329.25
790.554	17298.97
790.887	17255.8
791.219	17274.56
791.552	17273.66
791.884	17118.18
792.217	17167.9
792.549	17156.14
792.882	17104.62
793.214	17088.12
793.546	17095.58
793.879	17084.73
794.211	16964.29
794.543	16957.73
794.875	16858.53
795.207	16885.87
795.539	16839.77
795.871	16916.38
796.203	16704.63
796.535	16659.43
796.867	16626.67
797.198	16554.35
797.53	16570.85
797.862	16562.49
798.193	16538.99
798.525	16400.01
798.856	16496.28
799.188	16298.09
799.519	16286.11
799.85	16285.21
800.182	16370.63
800.513	16276.85
800.844	16069.62
801.175	16257.64
801.506	16186.23
801.837	16100.35
802.168	16117.75
802.499	16095.16
802.83	16045.21
803.161	15973.8
803.491	15973.8
803.822	15942.62
804.153	15842.28
804.483	15727.26
804.814	15750.53
805.145	15717.54
805.475	15709.86
805.805	15650.2
806.136	15619.69
806.466	15684.55
806.796	15650.65
807.126	15523.19
807.457	15445.68
807.787	15479.58
808.117	15410.2
808.447	15380.37
808.777	15325.91
809.107	15401.61
809.436	15227.38
809.766	15242.75
810.096	15291.34
810.426	15213.37
810.755	15165.01
811.085	15216.31
811.414	15143.99
811.744	15092.24
812.073	15074.39
812.403	14981.74
812.732	14944.45
813.061	14994.85
813.39	14859.93
813.719	14922.53
814.049	14969.08
814.378	14906.49
814.707	14841.86
815.036	14864
815.365	14798.24
815.693	14697.23
816.022	14681.18
816.351	14575.42
816.68	14462.66
817.008	14593.5
817.337	14429.89
817.665	14498.59
817.994	14525.25
818.322	14486.38
818.651	14434.18
818.979	14428.99
819.307	14465.14
819.636	14395.09
819.964	14348.99
820.292	14369.33
820.62	14420.17
820.948	14286.84
821.276	14356.67
821.604	14357.12
821.932	14317.58
822.259	14298.14
822.587	14272.83
822.915	14223.79
823.243	14327.97
823.57	14259.05
823.898	14276.67
824.225	14244.13
824.553	14254.98
824.88	14244.81
825.207	14280.74
825.535	14290.23
825.862	14326.16
826.189	14260.4
826.516	14275.32
826.843	14412.04
827.17	14254.98
827.497	14304.69
827.824	14393.05
828.151	14405.71
828.478	14346.73
828.805	14425.14
829.131	14252.27
829.458	14332.94
829.785	14214.98
830.111	14277.35
830.438	14362.55
830.764	14324.35
831.09	14374.75
831.417	14218.14
831.743	14320.97
832.069	14381.75
832.395	14221.08
832.722	14286.62
833.048	14267.18
833.374	14244.58
833.7	14163.23
834.026	14188.54
834.351	14209.78
834.677	14160.52
835.003	14154.64
835.329	14157.58
835.654	14178.6
835.98	14157.81
836.306	14126.39
836.631	14087.07
836.956	14130.24
837.282	14165.26
837.607	13989.9
837.932	13967.98
838.258	13984.02
838.583	13955.55
838.908	13901.32
839.233	13982.22
839.558	13871.49
839.883	13873.52
840.208	13782
840.533	13782.67
840.858	13834.65
841.182	13757.82
841.507	13844.59
841.832	13650.7
842.156	13674.65
842.481	13678.04
842.805	13630.36
843.13	13700.42
843.454	13662
843.778	13614.77
844.103	13478.5
844.427	13476.24
844.751	13506.07
845.075	13480.76
845.399	13337.94
845.723	13331.16
846.047	13327.77
846.371	13242.58
846.695	13232.63
847.019	13160.54
847.343	13050.04
847.666	13063.37
847.99	12907.67
848.313	13003.26
848.637	12891.4
848.96	12841.68
849.284	12866.09
849.607	12756.03
849.931	12785.64
850.254	12762.14
850.577	12596.04
850.9	12492.09
851.223	12499.54
851.546	12388.36
851.869	12283.73
852.192	12431.3
852.515	12266.78
852.838	12270.4
853.161	12260.23
853.483	12153.34
853.806	12053
854.129	12148.37
854.451	12029.95
854.774	11935.72
855.096	11928.49
855.419	11960.12
855.741	11924.42
856.063	11791.31
856.385	11867.47
856.708	11764.42
857.03	11728.04
857.352	11672.45
857.674	11730.75
857.996	11644.2
858.318	11519.68
858.64	11577.76
858.961	11591.09
859.283	11502.06
859.605	11425.67
859.926	11412.79
860.248	11441.72
860.57	11412.12
860.891	11417.09
861.212	11295.73
861.534	11275.62
861.855	11251.89
862.176	11222.97
862.498	11212.12
862.819	11215.06
863.14	11202.18
863.461	11180.26
863.782	11079.92
864.103	11114.27
864.424	11181.39
864.745	11116.3
865.065	11066.14
865.386	11056.42
865.707	11046.25
866.027	10964.44
866.348	10983.2
866.668	11028.62
866.989	10925.12
867.309	10864.11
867.63	10924.44
867.95	10902.52
868.27	10807.84
868.59	10890.55
868.91	10748.86
869.23	10817.33
869.55	10734.84
869.87	10815.29
870.19	10860.72
870.51	10728.07
870.83	10787.5
871.15	10702.3
871.469	10648.07
871.789	10657.56
872.109	10681.51
872.428	10653.04
872.748	10687.16
873.067	10626.15
873.386	10626.6
873.706	10660.95
874.025	10547.96
874.344	10470.45
874.663	10557.22
874.982	10514.06
875.301	10495.3
875.62	10453.95
875.939	10397.45
876.258	10435.42
876.577	10446.94
876.896	10438.13
877.214	10335.53
877.533	10334.18
877.852	10297.34
878.17	10367.4
878.489	10382.54
878.807	10302.77
879.125	10301.18
879.444	10327.4
879.762	10294.63
880.08	10215.99
880.398	10235.87
880.716	10218.02
881.034	10142.09
881.352	10078.14
881.67	10157.68
881.988	10116.33
882.306	10050.8
882.624	10028.42
882.941	10011.02
883.259	9988.2
883.577	10038.37
883.894	9978.93
884.212	10001.98
884.529	9965.15
884.846	9921.31
885.164	9924.47
885.481	9862.78
885.798	9829.33
886.115	9819.61
886.432	9817.13
886.75	9859.16
887.067	9750.46
887.383	9761.31
887.7	9693.97
888.017	9701.2
888.334	9773.29
888.651	9687.64
888.967	9613.29
889.284	9596.34
889.6	9533.29
889.917	9500.3
890.233	9528.55
890.55	9480.41
890.866	9469.57
891.182	9339.63
891.498	9365.62
891.815	9360.87
892.131	9365.39
892.447	9308.89
892.763	9287.2
893.079	9282.91
893.395	9190.25
893.71	9209.69
894.026	9163.59
894.342	9151.16
894.657	9101.89
894.973	9042.46
895.289	9072.52
895.604	9049.69
895.92	8966.76
896.235	8882.24
896.55	8878.17
896.865	8896.48
897.181	8866.65
897.496	8858.96
897.811	8794.78
898.126	8785.29
898.441	8720.21
898.756	8687.89
899.071	8699.87
899.386	8695.58
899.7	8565.64
900.015	8539.65
900.33	8502.59
900.644	8450.61
900.959	8473.44
901.273	8501.68
901.588	8444.74
901.902	8410.61
902.216	8349.6
902.531	8381.01
902.845	8313.21
903.159	8278.19
903.473	8281.12
903.787	8250.39
904.101	8137.4
904.415	8184.4
904.729	8172.43
905.042	8085.2
905.356	7981.24
905.67	8042.94
905.984	8004.75
906.297	8037.06
906.611	7937.63
906.924	7967.91
907.237	7883.62
907.551	7862.6
907.864	7827.35
908.177	7794.58
908.491	7778.31
908.804	7785.09
909.117	7677.75
909.43	7616.51
909.743	7657.41
910.056	7593.91
910.368	7588.49
910.681	7559.56
910.994	7457.19
911.307	7474.59
911.619	7406.57
911.932	7418.32
912.244	7379
912.557	7372.67
912.869	7326.35
913.181	7247.48
913.494	7267.59
913.806	7164.77
914.118	7203.19
914.43	7187.14
914.742	7190.31
915.054	7042.96
915.366	7068.05
915.678	7080.25
915.99	7034.15
916.302	6953.02
916.613	6995.28
916.925	6918
917.236	6928.17
917.548	6889.97
917.859	6880.93
918.171	6798.9
918.482	6767.49
918.794	6733.37
919.105	6748.51
919.416	6721.62
919.727	6649.53
920.038	6623.54
920.349	6644.56
920.66	6637.78
920.971	6584.67
921.282	6564.79
921.593	6518.01
921.903	6467.39
922.214	6443.88
922.525	6447.5
922.835	6439.82
923.146	6397.78
923.456	6411.57
923.767	6330.21
924.077	6313.49
924.387	6319.82
924.697	6285.92
925.008	6223.55
925.318	6236.66
925.628	6181.29
925.938	6184.46
926.248	6101.75
926.558	6087.28
926.867	6061.52
927.177	6067.4
927.487	6033.27
927.796	6017.91
928.106	6000.51
928.416	6000.73
928.725	5929.55
929.034	5916.44
929.344	5910.79
929.653	5846.61
929.962	5844.35
930.271	5795.77
930.581	5821.53
930.89	5807.06
931.199	5765.26
931.508	5744.92
931.817	5711.02
932.125	5684.81
932.434	5675.09
932.743	5611.36
933.051	5636.67
933.36	5598.93
933.669	5533.4
933.977	5555.55
934.286	5549.44
934.594	5492.5
934.902	5457.02
935.21	5476
935.519	5476.23
935.827	5450.69
936.135	5377.47
936.443	5341.99
936.751	5354.2
937.059	5285.95
937.367	5277.81
937.674	5283.24
937.982	5271.03
938.29	5264.25
938.597	5256.12
938.905	5190.81
939.213	5196.01
939.52	5178.38
939.827	5102.45
940.135	5072.62
940.442	5030.59
940.749	5090.7
941.056	5078.04
941.363	5001.66
941.67	4977.03
941.977	4929.35
942.284	4946.75
942.591	4892.51
942.898	4909.69
943.205	4869.91
943.511	4842.12
943.818	4844.83
944.125	4771.84
944.431	4812.06
944.738	4789.92
945.044	4770.48
945.35	4722.57
945.657	4723.25
945.963	4682.35
946.269	4682.35
946.575	4632.86
946.881	4686.42
947.187	4622.24
947.493	4588.34
947.799	4569.81
948.105	4528.23
948.41	4533.43
948.716	4522.35
949.022	4466.08
949.327	4461.79
949.633	4389.25
949.938	4421.11
950.244	4422.24
950.549	4422.69
950.854	4393.09
951.16	4383.37
951.465	4321.45
951.77	4332.98
952.075	4335.24
952.38	4250.04
952.685	4313.54
952.99	4206.88
953.294	4235.81
953.599	4184.73
953.904	4187.45
954.209	4162.36
954.513	4139.99
954.818	4110.61
955.122	4143.83
955.426	4112.42
955.731	4147
956.035	4087.34
956.339	4043.95
956.643	4055.7
956.948	4003.27
957.252	4007.11
957.556	4012.54
957.86	4007.11
958.163	3975.02
958.467	3923.5
958.771	3930.96
959.075	3939.32
959.378	3864.29
959.682	3875.14
959.985	3855.48
960.289	3828.13
960.592	3851.18
960.896	3806.67
961.199	3792.43
961.502	3780.68
961.805	3787
962.108	3677.63
962.411	3748.81
962.714	3702.49
963.017	3675.14
963.32	3694.35
963.623	3669.04
963.926	3656.61
964.228	3651.64
964.531	3647.12
964.833	3602.15
965.136	3564.19
965.438	3599.21
965.741	3516.28
966.043	3541.14
966.345	3532.32
966.648	3502.49
966.95	3467.92
967.252	3498.2
967.554	3486
967.856	3439.9
968.158	3414.59
968.46	3393.57
968.761	3415.49
969.063	3394.02
969.365	3396.96
969.666	3378.2
969.968	3367.81
970.269	3312.44
970.571	3304.76
970.872	3317.19
971.174	3260.24
971.475	3268.83
971.776	3255.72
972.077	3234.7
972.378	3252.33
972.679	3250.97
972.98	3228.38
973.281	3198.77
973.582	3165.55
973.883	3232.67
974.183	3173.46
974.484	3158.32
974.785	3133.91
975.085	3107.02
975.386	3099.57
975.686	3087.59
975.986	3053.24
976.287	3065.89
976.587	3055.72
976.887	3020.02
977.187	3028.38
977.487	2992.45
977.787	3031.54
978.087	3009.4
978.387	2970.3
978.687	2934.82
978.987	2942.96
979.286	2937.54
979.586	2919.23
979.885	2892.79
980.185	2888.5
980.484	2856.18
980.784	2872.68
981.083	2837.43
981.382	2871.1
981.682	2825.67
981.981	2788.16
982.28	2808.73
982.579	2780.48
982.878	2758.11
983.177	2776.18
983.475	2757.65
983.774	2755.62
984.073	2738.44
984.372	2704.77
984.67	2706.36
984.969	2668.84
985.267	2664.77
985.566	2662.51
985.864	2635.17
986.162	2612.57
986.461	2606.47
986.759	2593.59
987.057	2599.92
987.355	2597.66
987.653	2548.62
987.951	2554.04
988.249	2556.75
988.547	2552.69
988.844	2558.11
989.142	2514.72
989.44	2508.62
989.737	2483.08
990.035	2451.22
990.332	2465.68
990.63	2446.25
990.927	2447.83
991.224	2455.97
991.521	2419.81
991.819	2435.4
992.116	2388.17
992.413	2390.21
992.71	2366.25
993.006	2376.42
993.303	2357.89
993.6	2341.62
993.897	2344.56
994.193	2329.64
994.49	2288.97
994.787	2294.84
995.083	2329.42
995.379	2273.82
995.676	2286.48
995.972	2241.06
996.268	2224.11
996.565	2251.9
996.861	2234.05
997.157	2240.15
997.453	2233.37
997.749	2188.18
998.044	2171
998.34	2166.48
998.636	2144.56
998.932	2132.13
999.227	2145.92
999.523	2118.8
999.818	2113.6
1000.114	2093.26
1000.409	2091
1000.704	2080.61
1001	2084.22
1001.295	2046.03
1001.59	2070.67
1001.885	2026.83
1002.18	2036.32
1002.475	2044.9
1002.77	1974.62
1003.065	1975.3
1003.359	1986.15
1003.654	1988.41
1003.949	1972.36
1004.243	1981.63
1004.538	1961.06
1004.832	1912.25
1005.127	1918.35
1005.421	1909.54
1005.715	1929.65
1006.009	1905.92
1006.304	1877
1006.598	1840.62
1006.892	1826.15
1007.186	1849.88
1007.48	1829.99
1007.773	1828.41
1008.067	1826.83
1008.361	1813.27
1008.655	1803.55
1008.948	1756.78
1009.242	1794.51
1009.535	1788.87
1009.829	1766.72
1010.122	1739.83
1010.415	1735.31
1010.708	1717.45
1011.001	1738.02
1011.295	1700.73
1011.588	1717
1011.881	1683.11
1012.173	1673.84
1012.466	1673.39
1012.759	1680.85
1013.052	1679.49
1013.344	1639.94
1013.637	1626.61
1013.93	1620.51
1014.222	1607.18
1014.514	1620.73
1014.807	1630.68
1015.099	1578.25
1015.391	1601.3
1015.683	1580.74
1015.976	1573.5
1016.268	1547.52
1016.56	1532.15
1016.851	1528.76
1017.143	1526.73
1017.435	1486.95
1017.727	1482.66
1018.018	1486.95
1018.31	1474.98
1018.602	1474.07
1018.893	1484.92
1019.185	1452.6
1019.476	1418.03
1019.767	1434.98
1020.058	1417.8
1020.35	1432.04
1020.641	1405.82
1020.932	1426.84
1021.223	1391.81
1021.514	1408.31
1021.804	1364.47
1022.095	1365.6
1022.386	1377.8
1022.677	1359.5
1022.967	1343.91
1023.258	1335.09
1023.548	1314.3
1023.839	1312.95
1024.129	1298.03
1024.419	1319.73
1024.709	1294.19
1025	1274.08
1025.29	1287.86
1025.58	1255.77
1025.87	1256.9
1026.16	1218.71
1026.449	1239.28
1026.739	1249.67
1027.029	1233.63
1027.319	1230.69
1027.608	1216.23
1027.898	1212.38
1028.187	1207.19
1028.477	1185.04
1028.766	1164.93
1029.055	1144.81
1029.344	1164.7
1029.634	1147.3
1029.923	1155.21
1030.212	1135.55
1030.501	1148.43
1030.79	1118.15
1031.078	1128.77
1031.367	1104.14
1031.656	1077.25
1031.945	1083.35
1032.233	1097.81
1032.522	1131.71
1032.81	1112.95
1033.099	1072.05
1033.387	1067.08
1033.675	1062.56
1033.963	1045.38
1034.251	1063.91
1034.54	1048.09
1034.828	1016.46
1035.116	1007.87
1035.403	1030.92
1035.691	1016
1035.979	999.73
1036.267	982.56
1036.554	971.49
1036.842	993.63
1037.129	989.79
1037.417	950.47
1037.704	979.85
1037.992	965.61
1038.279	929
1038.566	947.31
1038.853	947.31
1039.14	947.31
