Data from hue_32_FLMS001491_00052.txt Node
Date: Tue Feb 07 17:23:35 GMT 2017
User: dcchb
Spectrometer: FLMS00149
Trigger mode: 0
Integration Time (sec): 2.000000E-2
Scans to average: 10
Electric dark correction enabled: true
Nonlinearity correction enabled: false
Boxcar width: 0
XAxis mode: Wavelengths
Number of Pixels in Spectrum: 2048
>>>>>Begin Spectral Data<<<<<
341.393	-26.21
341.776	-26.21
342.16	-26.21
342.543	-59.66
342.927	-58.53
343.31	-72.09
343.693	-63.95
344.077	-74.35
344.46	-63.5
344.843	-42.48
345.226	-66.21
345.61	-30.96
345.993	-23.95
346.376	-18.08
346.759	4.97
347.142	9.94
347.525	46.33
347.908	84.07
348.291	95.82
348.674	96.27
349.057	118.19
349.44	156.61
349.823	152.99
350.206	160.45
350.588	204.51
350.971	206.55
351.354	253.1
351.737	234.8
352.119	265.08
352.502	268.47
352.884	283.83
353.267	302.14
353.65	306.88
354.032	327.22
354.414	327.22
354.797	309.37
355.179	345.08
355.562	333.55
355.944	338.3
356.326	330.84
356.709	320.44
357.091	333.32
357.473	344.62
357.855	368.13
358.238	322.48
358.62	352.76
359.002	340.78
359.384	350.05
359.766	345.3
360.148	334.91
360.53	336.49
360.912	344.4
361.294	348.24
361.676	333.1
362.057	345.3
362.439	345.75
362.821	347.79
363.203	336.04
363.584	325.64
363.966	324.96
364.348	309.6
364.729	320.22
365.111	301.91
365.493	320.9
365.874	329.71
366.256	338.75
366.637	332.19
367.019	334
367.4	317.05
367.781	301.91
368.163	329.26
368.544	326.77
368.925	333.1
369.306	329.48
369.688	336.04
370.069	335.58
370.45	333.55
370.831	323.38
371.212	329.26
371.593	322.93
371.974	319.31
372.355	330.61
372.736	344.17
373.117	349.82
373.498	340.33
373.879	350.27
374.26	332.19
374.641	331.52
375.021	325.42
375.402	328.8
375.783	341.69
376.163	328.58
376.544	326.55
376.925	324.29
377.305	349.82
377.686	341.46
378.066	320.67
378.447	324.29
378.827	334
379.208	328.58
379.588	343.04
379.968	348.24
380.349	348.92
380.729	351.18
381.109	326.77
381.489	355.47
381.87	359.54
382.25	344.62
382.63	341.69
383.01	360.89
383.39	349.37
383.77	353.21
384.15	361.35
384.53	360.22
384.91	367.45
385.29	368.13
385.67	365.19
386.049	367.9
386.429	376.94
386.809	351.4
387.189	357.28
387.568	373.55
387.948	368.13
388.328	366.77
388.707	361.57
389.087	374.23
389.466	363.15
389.846	362.25
390.225	359.99
390.605	355.02
390.984	379.43
391.363	385.98
391.743	388.01
392.122	385.75
392.501	383.27
392.881	386.43
393.26	383.49
393.639	375.58
394.018	381.46
394.397	405.41
394.776	401.12
395.155	391.63
395.534	400.67
395.913	388.46
396.292	392.76
396.671	405.41
397.05	400.67
397.429	406.54
397.808	401.8
398.186	391.63
398.565	399.31
398.944	404.51
399.323	402.7
399.701	402.48
400.08	403.15
400.458	397.28
400.837	403.15
401.215	398.41
401.594	418.52
401.972	426.66
402.351	408.12
402.729	428.24
403.107	437.73
403.486	419.65
403.864	416.49
404.242	423.94
404.62	430.5
404.999	418.29
405.377	433.43
405.755	441.34
406.133	451.51
406.511	429.37
406.889	454.23
407.267	453.32
407.645	461.23
408.023	445.64
408.401	435.69
408.779	447.45
409.156	471.17
409.534	460.33
409.912	455.13
410.29	475.92
410.667	457.62
411.045	460.33
411.422	458.52
411.8	496.03
412.178	455.58
412.555	495.58
412.933	491.29
413.31	476.82
413.687	492.64
414.065	479.54
414.442	505.52
414.819	501.23
415.197	500.1
415.574	493.55
415.951	515.01
416.328	510.72
416.705	517.05
417.082	500.55
417.46	501.91
417.837	528.57
418.214	513.88
418.591	516.82
418.967	501.68
419.344	530.38
419.721	542.58
420.098	522.92
420.475	538.52
420.852	532.87
421.228	537.61
421.605	553.21
421.982	533.55
422.358	553.66
422.735	563.83
423.111	549.59
423.488	554.79
423.864	572.41
424.241	567.89
424.617	568.35
424.994	589.36
425.37	586.2
425.746	571.06
426.123	576.48
426.499	552.98
426.875	598.4
427.251	606.76
427.627	599.53
428.003	619.19
428.379	615.13
428.756	611.96
429.132	623.94
429.507	617.16
429.883	633.43
430.259	644.73
430.635	624.39
431.011	644.73
431.387	661
431.763	657.84
432.138	651.73
432.514	654.22
432.89	663.49
433.265	668.68
433.641	679.98
434.016	677.04
434.392	689.47
434.767	677.27
435.143	712.52
435.518	703.26
435.894	707.78
436.269	703.26
436.644	728.34
437.02	707.55
437.395	756.36
437.77	747.32
438.145	750.94
438.52	719.53
438.895	737.16
439.271	766.08
439.646	751.17
440.021	757.49
440.395	756.82
440.77	788.23
441.145	773.54
441.52	773.09
441.895	778.74
442.27	796.36
442.645	781.45
443.019	813.54
443.394	803.82
443.769	804.27
444.143	809.7
444.518	842.69
444.892	825.97
445.267	830.49
445.641	823.26
446.016	814.44
446.39	834.78
446.764	850.37
447.139	830.03
447.513	861.67
447.887	861.9
448.262	890.37
448.636	842.24
449.01	872.29
449.384	873.88
449.758	863.71
450.132	896.7
450.506	874.78
450.88	897.38
451.254	901.67
451.628	911.84
452.002	919.07
452.376	907.32
452.75	920.65
453.123	933.31
453.497	928.79
453.871	941.44
454.244	978.28
454.618	961.1
454.992	978.51
455.365	977.38
455.739	995.91
456.112	986.41
456.486	1033.87
456.859	1035.45
457.232	1043.14
457.606	1018.5
457.979	1054.21
458.352	1083.36
458.725	1065.73
459.099	1066.41
459.472	1078.84
459.845	1122.23
460.218	1096.92
460.591	1111.16
460.964	1131.95
461.337	1165.39
461.71	1163.59
462.083	1189.12
462.456	1187.99
462.829	1200.19
463.201	1216.69
463.574	1206.75
463.947	1264.15
464.32	1227.31
464.692	1260.08
465.065	1288.78
465.438	1299.63
465.81	1330.13
466.183	1324.48
466.555	1348.67
466.928	1347.99
467.3	1362.68
467.672	1385.27
468.045	1430.02
468.417	1432.5
468.789	1413.52
469.161	1450.13
469.534	1474.54
469.906	1501.43
470.278	1520.19
470.65	1547.08
471.022	1611.26
471.394	1602.67
471.766	1625.95
472.138	1631.82
472.51	1653.97
472.882	1689.45
473.253	1734.87
473.625	1741.42
473.997	1825.49
474.369	1805.6
474.74	1818.03
475.112	1866.39
475.484	1957.69
475.855	1963.79
476.227	1987.97
476.598	2024.58
476.97	2036.33
477.341	2121.3
477.713	2165.82
478.084	2190.9
478.455	2236.33
478.827	2304.8
479.198	2326.27
479.569	2363.1
479.94	2478.35
480.311	2481.52
480.682	2541.18
481.053	2610.33
481.424	2681.06
481.795	2721.51
482.166	2779.59
482.537	2847.16
482.908	2891.9
483.279	2924.44
483.65	3065.46
484.021	3121.5
484.391	3191.33
484.762	3283.53
485.133	3300.93
485.503	3358.56
485.874	3464.99
486.244	3476.07
486.615	3577.99
486.985	3681.49
487.356	3791.31
487.726	3843.29
488.097	3910.86
488.467	3966.68
488.837	4107.01
489.207	4167.57
489.578	4248.25
489.948	4316.27
490.318	4318.3
490.688	4437.17
491.058	4582.03
491.428	4643.27
491.798	4763.72
492.168	4843.26
492.538	4879.19
492.908	5007.55
493.278	5069.25
493.648	5113.54
494.017	5220.43
494.387	5309.92
494.757	5369.58
495.126	5447.54
495.496	5486.18
495.866	5560.53
496.235	5629.91
496.605	5737.25
496.974	5760.98
497.344	5931.6
497.713	5932.5
498.082	6024.25
498.452	5991.48
498.821	6164.81
499.19	6178.82
499.559	6265.15
499.928	6284.35
500.298	6355.99
500.667	6413.39
501.036	6434.41
501.405	6581.97
501.774	6657.23
502.143	6715.3
502.512	6697.9
502.88	6792.82
503.249	6856.09
503.618	6869.88
503.987	6944.68
504.356	7001.62
504.724	7069.87
505.093	7080.72
505.462	7147.61
505.83	7234.61
506.199	7290.43
506.567	7359.58
506.936	7386.92
507.304	7450.65
507.672	7486.13
508.041	7604.09
508.409	7668.95
508.777	7685.67
509.145	7734.94
509.514	7814.03
509.882	7840.47
510.25	7863.97
510.618	7977.42
510.986	8007.47
511.354	8080.92
511.722	8099.45
512.09	8187.81
512.458	8195.49
512.826	8318.65
513.193	8357.75
513.561	8320.23
513.929	8437.52
514.297	8492.43
514.664	8464.41
515.032	8517.74
515.4	8625.54
515.767	8674.12
516.135	8678.42
516.502	8642.03
516.869	8837.51
517.237	8841.58
517.604	8847.22
517.972	8914.34
518.339	9014.23
518.706	8945.98
519.073	8964.96
519.44	9019.42
519.808	9131.51
520.175	9173.09
520.542	9218.06
520.909	9323.14
521.276	9285.63
521.643	9348
522.009	9470.94
522.376	9538.73
522.743	9537.38
523.11	9652.4
523.477	9698.05
523.843	9762.91
524.21	9829.57
524.577	9863.47
524.943	9875.22
525.31	9995.22
525.676	10099.17
526.043	10089.23
526.409	10179.62
526.776	10188.43
527.142	10281.31
527.508	10342.1
527.874	10377.81
528.241	10440.63
528.607	10485.37
528.973	10624.35
529.339	10606.27
529.705	10638.14
530.071	10709.32
530.437	10767.63
530.803	10873.39
531.169	10931.01
531.535	10897.11
531.901	11029.31
532.267	11029.77
532.632	11019.37
532.998	11006.04
533.364	11238.35
533.73	11199.03
534.095	11288.97
534.461	11300.04
534.826	11447.16
535.192	11516.99
535.557	11590.43
535.923	11539.58
536.288	11581.39
536.653	11604.21
537.019	11589.98
537.384	11764.89
537.749	11770.54
538.114	11784.1
538.479	11748.39
538.845	11908.16
539.21	11896.41
539.575	11976.86
539.94	11966.69
540.305	12095.28
540.67	12091.66
541.034	12142.28
541.399	12231.32
541.764	12223.18
542.129	12374.82
542.494	12383.63
542.858	12320.58
543.223	12440.58
543.587	12554.92
543.952	12507.47
544.316	12610.97
544.681	12530.97
545.045	12680.57
545.41	12770.29
545.774	12771.19
546.138	12809.83
546.503	12809.38
546.867	12863.16
547.231	13033.1
547.595	12970.28
547.959	13070.62
548.324	13047.79
548.688	13131.41
549.052	13201.69
549.416	13145.87
549.779	13280.1
550.143	13287.56
550.507	13425.18
550.871	13333.66
551.235	13412.3
551.599	13516.48
551.962	13515.35
552.326	13584.28
552.689	13722.13
553.053	13628.57
553.417	13669.47
553.78	13808.68
554.143	13728.45
554.507	13846.19
554.87	13894.55
555.234	14011.38
555.597	14036.69
555.96	13968.45
556.323	14037.82
556.686	14088.44
557.05	14219.29
557.413	14220.64
557.776	14310.13
558.139	14331.83
558.502	14443.46
558.865	14481.65
559.228	14410.92
559.59	14595.32
559.953	14545.61
560.316	14697.24
560.679	14731.82
561.041	14732.04
561.404	14855.88
561.767	14825.15
562.129	14855.2
562.492	14952.83
562.854	15006.16
563.217	15007.51
563.579	15079.6
563.941	15190.34
564.304	15285.7
564.666	15231.01
565.028	15324.79
565.39	15418.13
565.753	15413.15
566.115	15499.71
566.477	15658.8
566.839	15624.67
567.201	15755.07
567.563	15696.76
567.925	15821.28
568.287	15897.66
568.648	15836.42
569.01	15948.73
569.372	16108.05
569.734	16033.7
570.095	16276.86
570.457	16250.65
570.819	16172.46
571.18	16288.84
571.542	16385.33
571.903	16449.96
572.265	16672.78
572.626	16619.22
572.987	16650.64
573.349	16819.9
573.71	16898.09
574.071	16949.61
574.432	17061.92
574.794	17259.21
575.155	17139.44
575.516	17234.35
575.877	17348.7
576.238	17493.1
576.599	17581.46
576.96	17659.2
577.32	17766.99
577.681	17792.75
578.042	18055.57
578.403	18085.63
578.763	18220.09
579.124	18331.04
579.485	18519.74
579.845	18679.73
580.206	18749.56
580.566	18938.03
580.927	19057.58
581.287	19297.8
581.648	19368.53
582.008	19592.48
582.368	19702.31
582.728	19917.67
583.089	20111.56
583.449	20275.85
583.809	20447.82
584.169	20556.07
584.529	20699.12
584.889	21087.36
585.249	21158.77
585.609	21330.74
585.969	21745.42
586.329	21808.24
586.688	22036.26
587.048	22271.73
587.408	22468.34
587.768	22711.27
588.127	22983.8
588.487	23016.57
588.846	23479.16
589.206	23609.77
589.565	23846.83
589.925	24267.61
590.284	24429.19
590.643	24604.1
591.003	25033.24
591.362	25224.2
591.721	25428.03
592.08	25682.26
592.44	26045.64
592.799	26307.1
593.158	26500.32
593.517	26735.79
593.876	27007.65
594.235	27243.13
594.593	27630.46
594.952	27834.07
595.311	28099.83
595.67	28368.29
596.029	28656.2
596.387	28932.12
596.746	29223.19
597.104	29238.55
597.463	29731.2
597.822	29932.55
598.18	29937.29
598.538	30269.26
598.897	30671.28
599.255	30628.35
599.613	31276.92
599.972	31304.94
600.33	31621.99
600.688	31770.46
601.046	32105.37
601.404	32405.48
601.762	32532.03
602.12	32872.58
602.478	33115.74
602.836	33387.37
603.194	33343.08
603.552	33580.81
603.91	33595.5
604.268	34066.67
604.625	34197.74
604.983	34470.73
605.341	34530.17
605.698	34772.19
606.056	35084.73
606.413	35176.7
606.771	35569.01
607.128	35627.99
607.485	35738.04
607.843	35906.85
608.2	36324.69
608.557	36624.57
608.914	36606.95
609.272	36835.87
609.629	37001.51
609.986	37263.43
610.343	37216.87
610.7	37565.79
611.057	37813.24
611.414	37859.8
611.771	37958.55
612.127	38257.98
612.484	38226.79
612.841	38612.54
613.198	38629.72
613.554	38712.65
613.911	39042.36
614.267	39121.46
614.624	39220.66
614.98	39509.47
615.337	39687.09
615.693	39604.16
616.05	39783.59
616.406	40035.78
616.762	39874.66
617.118	40145.39
617.475	40295.44
617.831	40303.35
618.187	40516.45
618.543	40574.07
618.899	40967.74
619.255	40853.39
619.611	40939.94
619.967	41141.52
620.323	41285.69
620.678	41148.3
621.034	41239.82
621.39	41305.58
621.746	41213.83
622.101	41905.79
622.457	41542.86
622.812	41740.6
623.168	41945.79
623.523	41998.67
623.879	42044.32
624.234	41730.2
624.589	42040.7
624.945	42197.53
625.3	42294.26
625.655	42336.74
626.01	42378.55
626.365	42462.39
626.72	42421.03
627.075	42456.51
627.43	42374.71
627.785	42476.85
628.14	42605.21
628.495	42656.51
628.85	42718.2
629.205	42570.63
629.559	42727.46
629.914	42638.2
630.269	42717.97
630.623	42651.31
630.978	42587.13
631.332	43012.88
631.687	42937.18
632.041	42736.05
632.396	42873
632.75	42751.42
633.104	42862.15
633.459	42697.63
633.813	42800.46
634.167	42779.89
634.521	42889.95
634.875	42770.17
635.229	42842.26
635.583	42752.1
635.937	42820.12
636.291	42785.54
636.645	42776.73
636.999	42814.02
637.352	42901.02
637.706	42578.32
638.06	42856.27
638.413	42671.65
638.767	42641.59
639.121	42779.67
639.474	42567.69
639.828	42462.84
640.181	42640.01
640.534	42560.24
640.888	42486.11
641.241	42356.85
641.594	42299.68
641.947	42590.52
642.301	42443.4
642.654	42475.72
643.007	42464.87
643.36	42536.73
643.713	42600.69
644.066	42683.4
644.419	42353.46
644.771	42080.93
645.124	41726.13
645.477	41726.36
645.83	41534.95
646.182	41413.37
646.535	41215.19
646.888	41382.19
647.24	41143.78
647.593	41467.16
647.945	41324.56
648.298	41177
648.65	41095.19
649.002	40896.78
649.355	41143.55
649.707	41135.19
650.059	41437.78
650.411	41742.86
650.763	41623.31
651.115	42130.19
651.467	42021.27
651.819	42005.9
652.171	41938.56
652.523	41807.71
652.875	41853.36
653.227	41801.16
653.578	41987.14
653.93	41903.53
654.282	41712.35
654.633	41696.08
654.985	41870.31
655.337	41878.9
655.688	41829.63
656.039	41919.58
656.391	41518.91
656.742	41652.46
657.094	41843.87
657.445	41882.51
657.796	41765.68
658.147	41820.82
658.498	41667.6
658.849	41649.07
659.2	41540.6
659.551	41631.22
659.902	41767.04
660.253	41576.08
660.604	41673.25
660.955	41530.21
661.306	41659.47
661.656	41583.99
662.007	41694.5
662.358	41491.79
662.708	41577.44
663.059	41519.59
663.409	41187.39
663.76	41527.5
664.11	41541.73
664.461	41622.41
664.811	41614.05
665.161	41623.54
665.511	41517.78
665.862	41463.77
666.212	41451.79
666.562	41433.94
666.912	41439.81
667.262	41394.84
667.612	41438.46
667.962	41426.48
668.312	41364.79
668.662	41540.6
669.011	41390.78
669.361	41374.96
669.711	41296.32
670.06	41347.16
670.41	41190.56
670.76	41301.96
671.109	41379.93
671.459	41385.8
671.808	41346.26
672.157	41387.16
672.507	41071.24
672.856	41180.39
673.205	41279.59
673.554	41388.06
673.904	41238.24
674.253	41440.49
674.602	41200.72
674.951	40745.6
675.3	40498.82
675.649	41071.24
675.998	40914.4
676.346	41093.61
676.695	41229.2
677.044	40926.61
677.393	40930.22
677.741	41135.42
678.09	40976.55
678.438	40881.41
678.787	40948.75
679.135	40960.73
679.484	40685.94
679.832	40876.67
680.181	40543.57
680.529	40643.45
680.877	40595.54
681.225	40607.75
681.573	40788.98
681.922	40617.69
682.27	40357.58
682.618	40477.58
682.966	40225.61
683.314	40453.4
683.661	40218.83
684.009	40065.39
684.357	40202.56
684.705	40049.57
685.053	40182.67
685.4	39944.49
685.748	39850.48
686.095	39852.06
686.443	39736.36
686.79	39490.04
687.138	39700.88
687.485	39629.47
687.832	39452.52
688.18	39654.1
688.527	39459.75
688.874	39414.56
689.221	39252.75
689.568	39209.36
689.915	39132.76
690.262	39068.35
690.609	38939.32
690.956	38937.28
691.303	38856.61
691.65	38692.99
691.997	38661.13
692.344	38363.96
692.69	38474.69
693.037	38398.09
693.383	38127.13
693.73	38231.09
694.077	38121.71
694.423	38008.72
694.769	37832.9
695.116	37792.23
695.462	37796.52
695.808	37609.18
696.155	37657.54
696.501	37444.44
696.847	37410.09
697.193	37242.86
697.539	37408.06
697.885	37181.85
698.231	36931.23
698.577	37121.06
698.923	36896.88
699.269	36847.39
699.614	36688.3
699.96	36611.92
700.306	36652.14
700.651	36300.06
700.997	36292.38
701.342	36207.86
701.688	36154.76
702.033	36013.06
702.379	36057.36
702.724	35980.07
703.069	35969.9
703.415	35656.01
703.76	35622.57
704.105	35507.31
704.45	35526.98
704.795	35452.4
705.14	35143.71
705.485	35258.28
705.83	35086.76
706.175	35189.58
706.52	34854.45
706.865	34891.51
707.209	34889.7
707.554	34757.28
707.899	34850.61
708.243	34661.24
708.588	34472.77
708.932	34448.36
709.277	34317.06
709.621	34443.39
709.966	34274.81
710.31	34298.99
710.654	33990.74
710.998	34080.46
711.342	33943.06
711.687	33780.58
712.031	33713.69
712.375	33705.55
712.719	33640.92
713.063	33627.82
713.407	33646.12
713.75	33504.88
714.094	33536.97
714.438	33303.53
714.782	33394.15
715.125	33176.53
715.469	33245.91
715.812	33130.65
716.156	32916.87
716.499	32987.16
716.843	32960.26
717.186	32850.21
717.53	32908.51
717.873	32964.56
718.216	32836.42
718.559	32709.2
718.902	32438.24
719.246	32557.34
719.589	32488.86
719.932	32328.42
720.275	32392.37
720.617	32269.89
720.96	32283.22
721.303	32266.27
721.646	32211.58
721.989	32076.44
722.331	32206.61
722.674	32019.27
723.016	31994.86
723.359	31876.22
723.701	31984.47
724.044	31721.88
724.386	31662.9
724.729	31717.81
725.071	31639.39
725.413	31566.4
725.755	31547.42
726.097	31491.15
726.439	31273.98
726.782	31424.03
727.124	31512.62
727.465	31272.4
727.807	31300.42
728.149	31262.23
728.491	31232.17
728.833	31303.13
729.175	31092.52
729.516	31064.72
729.858	30986.76
730.199	30988.34
730.541	30860.88
730.882	30975.91
731.224	30928
731.565	30735.01
731.906	30674.45
732.248	30743.15
732.589	30596.94
732.93	30550.38
733.271	30574.11
733.612	30630.61
733.953	30496.37
734.294	30442.14
734.635	30449.14
734.976	30378.18
735.317	30214.12
735.658	30345.87
735.999	30170.51
736.339	30065.2
736.68	30183.84
737.021	30071.75
737.361	29951.3
737.702	30119.66
738.042	29851.42
738.383	29927.8
738.723	30014.35
739.063	29838.54
739.404	29984.75
739.744	29864.07
740.084	29646
740.424	29723.74
740.764	29634.02
741.104	29833.11
741.444	29523.52
741.784	29516.06
742.124	29510.41
742.464	29428.6
742.804	29460.69
743.143	29475.61
743.483	29450.3
743.823	29178.67
744.162	29224.32
744.502	29270.42
744.841	29087.14
745.181	29191.55
745.52	29105
745.86	29164.43
746.199	29032.91
746.538	29038.56
746.877	29125.11
747.216	28996.07
747.556	28949.75
747.895	28865.46
748.234	28873.82
748.573	28879.24
748.911	28895.96
749.25	28822.74
749.589	28666.36
749.928	28513.6
750.267	28620.04
750.605	28658.68
750.944	28533.49
751.283	28468.86
751.621	28495.52
751.96	28298.46
752.298	28234.51
752.636	28238.58
752.975	28150.22
753.313	28082.88
753.651	28123.55
753.989	27980.73
754.327	28017.34
754.666	27956.55
755.004	27880.62
755.342	27882.43
755.679	27834.97
756.017	27742.55
756.355	27812.83
756.693	27565.38
757.031	27691.02
757.368	27495.32
757.706	27559.73
758.044	27420.75
758.381	27451.03
758.719	27241.09
759.056	27317.7
759.394	27242.22
759.731	27069.34
760.068	27070.7
760.405	26996.35
760.743	26899.41
761.08	26966.75
761.417	26801.1
761.754	26708.9
762.091	26724.5
762.428	26579.41
762.765	26371.51
763.102	26556.14
763.438	26324.05
763.775	26204.06
764.112	26284.28
764.449	26275.02
764.785	26010.84
765.122	25862.14
765.458	25794.12
765.795	25811.75
766.131	25813.11
766.467	25634.13
766.804	25542.38
767.14	25246.79
767.476	25375.38
767.812	25332.67
768.148	25369.73
768.485	25139.23
768.821	25029.4
769.157	25068.95
769.492	24891.1
769.828	24995.73
770.164	24630.99
770.5	24676.64
770.836	24681.38
771.171	24441.17
771.507	24510.32
771.842	24426.25
772.178	24344.44
772.513	24106.48
772.849	24110.55
773.184	24080.04
773.519	24062.42
773.855	23913.5
774.19	23874.17
774.525	23731.81
774.86	23738.36
775.195	23671.69
775.53	23519.38
775.865	23445.03
776.2	23311.93
776.535	23084.36
776.87	23092.73
777.205	23047.3
777.539	22906.52
777.874	22970.47
778.209	22784.26
778.543	22725.73
778.878	22662
779.212	22560.54
779.547	22516.92
779.881	22570.03
780.215	22360.32
780.55	22286.87
780.884	22304.72
781.218	22238.51
781.552	22141.11
781.886	22024.96
782.22	21881.23
782.554	21761.24
782.888	21580.45
783.222	21599.43
783.556	21504.97
783.889	21426.56
784.223	21287.35
784.557	21333
784.89	21301.36
785.224	21154.02
785.557	21005.1
785.891	20947.25
786.224	20853.46
786.558	20823.86
786.891	20735.27
787.224	20630.19
787.557	20607.82
787.891	20544.54
788.224	20534.6
788.557	20406.02
788.89	20510.87
789.223	20303.65
789.556	20066.59
789.888	20187.27
790.221	20051.22
790.554	19868.63
790.887	19925.8
791.219	19800.38
791.552	19822.53
791.884	19781.85
792.217	19717.9
792.549	19537.11
792.882	19479.04
793.214	19351.58
793.546	19358.59
793.879	19276.78
794.211	19093.74
794.543	19171.47
794.875	19182.77
795.207	19224.35
795.539	19081.31
795.871	18898.71
796.203	18879.73
796.535	18765.61
796.867	18806.74
797.198	18709.11
797.53	18717.93
797.862	18576.23
798.193	18626.18
798.525	18463.7
798.856	18521.55
799.188	18291.72
799.519	18240.65
799.85	18209.01
800.182	18147.32
800.513	18061.67
800.844	17937.61
801.175	18124.04
801.506	17975.35
801.837	17902.81
802.168	17872.07
802.499	17778.97
802.83	17653.1
803.161	17636.37
803.491	17629.14
803.822	17693.77
804.153	17495.81
804.483	17418.98
804.814	17334.01
805.145	17361.35
805.475	17421.69
805.805	17239.55
806.136	17230.73
806.466	17209.04
806.796	17168.59
807.126	17069.61
807.457	16894.25
807.787	16993.45
808.117	16910.52
808.447	16840.46
808.777	16981.7
809.107	16809.5
809.436	16708.94
809.766	16798.88
810.096	16591.88
810.426	16520.47
810.755	16560.69
811.085	16489.06
811.414	16511.2
811.744	16433.47
812.073	16289.29
812.403	16318.89
812.732	16288.84
813.061	16279.8
813.39	16138.33
813.719	16136.75
814.049	16129.29
814.378	16154.83
814.707	16073.93
815.036	16007.04
815.365	15935.4
815.693	15849.53
816.022	15854.95
816.351	15806.82
816.68	15736.99
817.008	15767.95
817.337	15663.09
817.665	15591.91
817.994	15637.1
818.322	15625.13
818.651	15547.39
818.979	15388.3
819.307	15462.64
819.636	15442.08
819.964	15248.41
820.292	15425.13
820.62	15416.32
820.948	15355.3
821.276	15301.29
821.604	15267.62
821.932	15317.56
822.259	15345.81
822.587	15272.59
822.915	15225.59
823.243	15321.86
823.57	15212.48
823.898	15272.37
824.225	15179.94
824.553	15224.91
824.88	15198.24
825.207	15217
825.535	15193.72
825.862	15278.02
826.189	15171.35
826.516	15243.22
826.843	15317.56
827.17	15290.22
827.497	15262.42
827.824	15262.42
828.151	15291.58
828.478	15252.93
828.805	15242.09
829.131	15217.9
829.458	15184.91
829.785	15219.03
830.111	15148.75
830.438	15244.8
830.764	15215.87
831.09	15228.75
831.417	15108.76
831.743	15212.48
832.069	15187.4
832.395	15098.36
832.722	15135.42
833.048	15013.62
833.374	15126.38
833.7	15029.44
834.026	15005.03
834.351	15170.67
834.677	14987.85
835.003	15010.68
835.329	15026.95
835.654	15014.29
835.98	15013.39
836.306	14957.8
836.631	14805.26
836.956	14879.61
837.282	14946.05
837.607	14840.51
837.932	14704.7
838.258	14836.22
838.583	14868.31
838.908	14694.98
839.233	14689.11
839.558	14589.45
839.883	14684.13
840.208	14618.15
840.533	14587.19
840.858	14572.5
841.182	14627.41
841.507	14605.72
841.832	14466.06
842.156	14504.25
842.481	14484.59
842.805	14377.7
843.13	14410.02
843.454	14368.44
843.778	14222.22
844.103	14252.73
844.427	14199.85
844.751	14230.59
845.075	14129.8
845.399	14131.61
845.723	14030.59
846.047	14111.49
846.371	13910.82
846.695	13924.61
847.019	13768.68
847.343	13802.57
847.666	13701.33
847.99	13619.53
848.313	13653.2
848.637	13510.15
848.96	13503.15
849.284	13556.03
849.607	13371.4
849.931	13402.81
850.254	13326.43
850.577	13213.21
850.9	13121.01
851.223	13123.27
851.546	13108.36
851.869	12995.14
852.192	13078.07
852.515	12947
852.838	12866.78
853.161	12875.82
853.483	12784.07
853.806	12800.34
854.129	12741.13
854.451	12656.16
854.774	12590.4
855.096	12579.56
855.419	12557.64
855.741	12500.91
856.063	12455.04
856.385	12414.14
856.708	12383.86
857.03	12265.44
857.352	12390.18
857.674	12249.62
857.996	12245.78
858.318	12199.68
858.64	12176.4
858.961	12134.6
859.283	12086.91
859.605	12035.84
859.926	12032.68
860.248	12087.59
860.57	11892.79
860.891	12007.37
861.212	11814.83
861.534	11829.75
861.855	11858.45
862.176	11849.86
862.498	11833.81
862.819	11866.81
863.14	11696.64
863.461	11735.51
863.782	11711.33
864.103	11626.59
864.424	11657.55
864.745	11665.68
865.065	11599.02
865.386	11581.39
865.707	11619.58
866.027	11544.56
866.348	11505.91
866.668	11508.4
866.989	11506.36
867.309	11415.97
867.63	11486.03
867.95	11458.23
868.27	11370.32
868.59	11381.62
868.91	11316.99
869.23	11320.15
869.55	11300.95
869.87	11371.23
870.19	11342.98
870.51	11288.06
870.83	11309.08
871.15	11270.66
871.469	11232.47
871.789	11239.48
872.109	11267.5
872.428	11159.25
872.748	11216.88
873.067	11191.34
873.386	11094.85
873.706	11080.84
874.025	10995.64
874.344	11008.52
874.663	11063.89
874.982	11026.38
875.301	11028.41
875.62	10944.8
875.939	10954.97
876.258	10938.92
876.577	10873.61
876.896	10835.42
877.214	10855.99
877.533	10855.99
877.852	10831.13
878.17	10839.04
878.489	10867.96
878.807	10815.08
879.125	10813.73
879.444	10724.24
879.762	10773.95
880.08	10681.98
880.398	10611.92
880.716	10664.58
881.034	10599.95
881.352	10614.86
881.67	10557.69
881.988	10606.73
882.306	10524.92
882.624	10511.14
882.941	10489.67
883.259	10438.14
883.577	10355.21
883.894	10408.09
884.212	10452.83
884.529	10385.26
884.846	10339.84
885.164	10328.09
885.481	10304.14
885.798	10296.45
886.115	10260.97
886.432	10264.59
886.75	10228.88
887.067	10264.81
887.383	10178.49
887.7	10207.19
888.017	10149.56
888.334	10162.22
888.651	10106.17
888.967	10069.34
889.284	10067.53
889.6	10058.49
889.917	9930.59
890.233	9965.84
890.55	9902.11
890.866	9919.51
891.182	9878.38
891.498	9838.16
891.815	9779.63
892.131	9775.11
892.447	9762.68
892.763	9791.83
893.079	9712.51
893.395	9698.05
893.71	9653.31
894.026	9607.21
894.342	9568.79
894.657	9501.67
894.973	9480.43
895.289	9563.59
895.604	9510.03
895.92	9464.38
896.235	9403.37
896.55	9394.33
896.865	9361.11
897.181	9336.25
897.496	9378.74
897.811	9217.16
898.126	9179.19
898.441	9136.26
898.756	9132.64
899.071	9200.89
899.386	9083.15
899.7	9010.84
900.015	9076.6
900.33	8956.6
900.644	8903.49
900.959	8924.51
901.273	8840.9
901.588	8844.74
901.902	8862.82
902.216	8766.1
902.531	8748.02
902.845	8696.04
903.159	8739.88
903.473	8691.3
903.787	8636.84
904.101	8603.84
904.415	8614.24
904.729	8547.35
905.042	8466.9
905.356	8493.11
905.67	8484.3
905.984	8420.12
906.297	8359.33
906.611	8302.38
906.924	8348.71
907.237	8326.56
907.551	8259.44
907.864	8276.17
908.177	8201.37
908.491	8194.13
908.804	8103.06
909.117	8139.22
909.43	8059.45
909.743	8023.29
910.056	8068.49
910.368	8026.23
910.681	7931.09
910.994	7937.42
911.307	7903.3
911.619	7785.56
911.932	7847.93
912.244	7797.76
912.557	7783.07
912.869	7664.21
913.181	7681.61
913.494	7688.61
913.806	7611.55
914.118	7529.97
914.43	7504.89
914.742	7586.47
915.054	7514.83
915.366	7447.26
915.678	7413.59
915.99	7365.91
916.302	7390.09
916.613	7290.43
916.925	7309.86
917.236	7328.39
917.548	7253.14
917.859	7270.32
918.171	7180.38
918.482	7140.15
918.794	7109.87
919.105	7099.25
919.416	7049.08
919.727	7082.07
920.038	7048.85
920.349	6962.08
920.66	6933.38
920.971	6966.37
921.282	6888.63
921.593	6827.62
921.903	6818.58
922.214	6761.63
922.525	6831.23
922.835	6703.78
923.146	6698.35
923.456	6660.84
923.767	6668.3
924.077	6617
924.387	6607.06
924.697	6569.09
925.008	6562.31
925.318	6529.09
925.628	6489.32
925.938	6469.66
926.248	6424.01
926.558	6466.04
926.867	6383.33
927.177	6395.09
927.487	6304.47
927.796	6283.9
928.106	6280.29
928.416	6175.2
928.725	6243
929.034	6190.12
929.344	6159.39
929.653	6120.97
929.962	6112.38
930.271	6069.9
930.581	6076
930.89	6016.56
931.199	6012.5
931.508	5986.51
931.817	5988.54
932.125	5925.49
932.434	5897.02
932.743	5856.12
933.051	5806.63
933.36	5844.14
933.669	5783.8
933.977	5778.38
934.286	5754.65
934.594	5812.73
934.902	5667.65
935.21	5680.75
935.519	5654.31
935.827	5654.77
936.135	5637.82
936.443	5551.04
936.751	5589.91
937.059	5527.54
937.367	5531.83
937.674	5505.84
937.982	5480.08
938.29	5427.2
938.597	5402.34
938.905	5373.19
939.213	5368.45
939.52	5325.96
939.827	5356.24
940.135	5312.85
940.442	5261.33
940.749	5245.29
941.056	5267.66
941.363	5221.56
941.67	5186.3
941.977	5132.75
942.284	5172.07
942.591	5150.37
942.898	5077.38
943.205	5081.67
943.511	5067.66
943.818	5067.89
944.125	5029.7
944.431	4984.73
944.738	4947.67
945.044	5002.58
945.35	4944.5
945.657	4919.42
945.963	4857.27
946.269	4876.71
946.575	4856.6
946.881	4800.78
947.187	4763.72
947.493	4774.79
947.799	4794.9
948.105	4760.55
948.41	4711.97
948.716	4735.47
949.022	4654.57
949.327	4678.52
949.633	4617.51
949.938	4607.79
950.244	4591.97
950.549	4554.46
950.854	4609.14
951.16	4574.57
951.465	4513.78
951.77	4488.92
952.075	4474.46
952.38	4434.91
952.685	4452.09
952.99	4376.38
953.294	4420.22
953.599	4443.72
953.904	4326.21
954.209	4326.21
954.513	4341.58
954.818	4275.59
955.122	4291.41
955.426	4247.8
955.731	4250.06
956.035	4240.34
956.339	4214.13
956.643	4261.36
956.948	4186.33
957.252	4116.73
957.556	4133.22
957.86	4093.23
958.163	4121.47
958.467	4120.12
958.771	4072.89
959.075	4074.7
959.378	4053
959.682	4035.15
959.985	4055.71
960.289	3936.85
960.592	3960.12
960.896	3931.2
961.199	3950.63
961.502	3902.72
961.805	3883.74
962.108	3874.47
962.411	3878.54
962.714	3848.03
963.017	3817.53
963.32	3805.1
963.623	3773.69
963.926	3807.58
964.228	3775.49
964.531	3696.17
964.833	3757.87
965.136	3716.06
965.438	3695.27
965.741	3688.26
966.043	3672.45
966.345	3639.9
966.648	3631.09
966.95	3657.3
967.252	3633.35
967.554	3567.59
967.856	3618.66
968.158	3504.99
968.46	3528.04
968.761	3526.46
969.063	3471.32
969.365	3512.68
969.666	3469.29
969.968	3457.31
970.269	3423.41
970.571	3430.42
970.872	3444.66
971.174	3389.97
971.475	3345.9
971.776	3395.39
972.077	3360.82
972.378	3358.56
972.679	3324.88
972.98	3334.83
973.281	3306.35
973.582	3319.46
973.883	3276.98
974.183	3268.84
974.484	3239.91
974.785	3184.55
975.085	3206.47
975.386	3194.94
975.686	3191.55
975.986	3152.46
976.287	3164.89
976.587	3115.85
976.887	3150.43
977.187	3134.38
977.487	3111.33
977.787	3084.66
978.087	3061.16
978.387	3064.33
978.687	3104.33
978.987	3032.69
979.286	3023.65
979.586	2995.85
979.885	3000.37
980.185	3018.23
980.484	2972.13
980.784	2965.35
981.083	2963.09
981.382	2960.6
981.682	2928.28
981.981	2935.29
982.28	2899.13
982.579	2858.46
982.878	2908.17
983.177	2862.98
983.475	2891.9
983.774	2879.25
984.073	2806.25
984.372	2833.15
984.67	2789.98
984.969	2812.13
985.267	2779.81
985.566	2790.44
985.864	2707.73
986.162	2697.78
986.461	2690.32
986.759	2714.5
987.057	2682.19
987.355	2672.7
987.653	2705.01
987.951	2683.55
988.249	2669.76
988.547	2638.35
988.844	2620.95
989.142	2646.94
989.44	2578.01
989.737	2549.54
990.035	2569.88
990.332	2559.03
990.63	2554.28
990.927	2539.14
991.224	2524
991.521	2509.76
991.819	2490.78
992.116	2522.87
992.413	2483.55
992.71	2468.86
993.006	2478.8
993.303	2436.09
993.6	2435.87
993.897	2445.13
994.193	2432.93
994.49	2420.73
994.787	2404.23
995.083	2374.85
995.379	2383.44
995.676	2359.49
995.972	2314.74
996.268	2315.42
996.565	2311.58
996.861	2313.16
997.157	2353.61
997.453	2272.93
997.749	2261.86
998.044	2259.6
998.34	2245.36
998.636	2245.14
998.932	2226.83
999.227	2172.82
999.523	2217.57
999.818	2201.52
1000.114	2156.78
1000.409	2182.32
1000.704	2154.52
1001	2134.86
1001.295	2138.93
1001.59	2122.2
1001.885	2116.33
1002.18	2094.86
1002.475	2105.26
1002.77	2088.76
1003.065	2072.71
1003.359	2052.6
1003.654	2001.98
1003.949	2039.49
1004.243	2052.6
1004.538	2021.64
1004.832	2016.67
1005.127	2001.3
1005.421	1958.14
1005.715	1966.73
1006.009	1949.33
1006.304	1964.69
1006.598	1941.87
1006.892	1966.05
1007.186	1909.1
1007.48	1918.37
1007.773	1872.04
1008.067	1870.01
1008.361	1888.76
1008.655	1870.01
1008.948	1864.13
1009.242	1861.19
1009.535	1832.72
1009.829	1827.97
1010.122	1816.9
1010.415	1804.02
1010.708	1769.45
1011.001	1799.05
1011.295	1808.09
1011.588	1768.77
1011.881	1775.55
1012.173	1752.04
1012.466	1736
1012.759	1732.61
1013.052	1740.07
1013.344	1711.59
1013.637	1718.37
1013.93	1677.7
1014.222	1660.52
1014.514	1638.15
1014.807	1643.12
1015.099	1619.17
1015.391	1643.35
1015.683	1637.47
1015.976	1619.17
1016.268	1610.81
1016.56	1609.45
1016.851	1589.79
1017.143	1566.74
1017.435	1572.16
1017.727	1569.68
1018.018	1552.28
1018.31	1536.23
1018.602	1497.81
1018.893	1528.32
1019.185	1498.27
1019.476	1477.7
1019.767	1513.63
1020.058	1499.4
1020.35	1481.54
1020.641	1468.89
1020.932	1438.83
1021.223	1441.09
1021.514	1421.66
1021.804	1405.39
1022.095	1401.32
1022.386	1396.57
1022.677	1379.85
1022.967	1384.82
1023.258	1369.46
1023.548	1357.48
1023.839	1350.25
1024.129	1361.09
1024.419	1352.28
1024.709	1357.93
1025	1321.1
1025.29	1313.41
1025.58	1312.96
1025.87	1284.71
1026.16	1298.72
1026.449	1302.79
1026.739	1304.15
1027.029	1248.33
1027.319	1282.23
1027.608	1271.15
1027.898	1238.16
1028.187	1269.57
1028.477	1193.19
1028.766	1227.76
1029.055	1231.38
1029.344	1190.7
1029.634	1204.49
1029.923	1169.01
1030.212	1192.96
1030.501	1187.09
1030.79	1167.65
1031.078	1167.88
1031.367	1138.28
1031.656	1147.99
1031.945	1140.08
1032.233	1113.42
1032.522	1128.78
1032.81	1140.08
1033.099	1120.87
1033.387	1122
1033.675	1111.16
1033.963	1078.84
1034.251	1093.53
1034.54	1099.18
1034.828	1089.46
1035.116	1053.98
1035.403	1073.19
1035.691	1051.5
1035.979	1052.4
1036.267	1022.35
1036.554	1039.97
1036.842	1011.27
1037.129	983.02
1037.417	1001.78
1037.704	1001.1
1037.992	985.06
1038.279	1011.27
1038.566	970.82
1038.853	970.82
1039.14	970.82
