Data from hue_290_FLMS001491_00084.txt Node
Date: Tue Feb 07 15:53:23 GMT 2017
User: dcchb
Spectrometer: FLMS00149
Trigger mode: 0
Integration Time (sec): 2.000000E-2
Scans to average: 10
Electric dark correction enabled: true
Nonlinearity correction enabled: false
Boxcar width: 0
XAxis mode: Wavelengths
Number of Pixels in Spectrum: 2048
>>>>>Begin Spectral Data<<<<<
341.393	-11.81
341.776	-11.81
342.16	-11.81
342.543	-70.56
342.927	-64.91
343.31	-71.47
343.693	-50.45
344.077	-71.47
344.46	-69.66
344.843	-42.99
345.226	-44.35
345.61	-27.17
345.993	-10.23
346.376	-7.74
346.759	21.19
347.142	13.95
347.525	53.28
347.908	54.41
348.291	68.42
348.674	81.3
349.057	102.99
349.44	104.12
349.823	155.19
350.206	142.09
350.588	168.53
350.971	192.48
351.354	193.84
351.737	241.52
352.119	242.87
352.502	252.82
352.884	284.23
353.267	275.87
353.65	297.79
354.032	281.52
354.414	283.1
354.797	313.61
355.179	333.04
355.562	314.29
355.944	333.49
356.326	317
356.709	326.94
357.091	322.19
357.473	340.95
357.855	319.94
358.238	317
358.62	343.21
359.002	338.69
359.384	328.3
359.766	340.05
360.148	337.79
360.53	333.72
360.912	311.57
361.294	331.01
361.676	302.76
362.057	334.62
362.439	337.11
362.821	342.53
363.203	316.32
363.584	318.13
363.966	326.26
364.348	314.96
364.729	305.25
365.111	300.95
365.493	312.25
365.874	301.4
366.256	312.03
366.637	308.86
367.019	321.29
367.4	298.47
367.781	324
368.163	306.83
368.544	315.42
368.925	319.03
369.306	313.16
369.688	287.85
370.069	306.15
370.45	309.99
370.831	298.92
371.212	295.53
371.593	300.27
371.974	310.9
372.355	320.84
372.736	319.48
373.117	310.67
373.498	323.1
373.879	286.94
374.26	313.38
374.641	317.9
375.021	292.14
375.402	324.45
375.783	278.81
376.163	308.86
376.544	320.84
376.925	314.29
377.305	332.59
377.686	323.1
378.066	332.14
378.447	321.07
378.827	305.02
379.208	323.32
379.588	342.76
379.968	333.72
380.349	326.49
380.729	324.45
381.109	330.56
381.489	326.94
381.87	342.53
382.25	335.75
382.63	333.49
383.01	346.83
383.39	357.67
383.77	340.05
384.15	346.83
384.53	342.99
384.91	349.76
385.29	343.21
385.67	351.35
386.049	339.82
386.429	350.89
386.809	346.83
387.189	371.01
387.568	358.58
387.948	347.05
388.328	373.94
388.707	366.49
389.087	355.41
389.466	368.75
389.846	375.98
390.225	371.01
390.605	354.51
390.984	358.13
391.363	370.33
391.743	358.13
392.122	385.7
392.501	361.97
392.881	375.75
393.26	346.38
393.639	370.1
394.018	366.26
394.397	374.62
394.776	380.05
395.155	404.9
395.534	389.99
395.913	379.59
396.292	394.28
396.671	414.62
397.05	394.74
397.429	383.44
397.808	416.88
398.186	404.9
398.565	399.71
398.944	401.06
399.323	418.69
399.701	405.58
400.08	382.76
400.458	398.58
400.837	401.51
401.215	424.79
401.594	433.83
401.972	427.5
402.351	422.08
402.729	436.32
403.107	433.38
403.486	430.44
403.864	438.35
404.242	454.17
404.62	439.48
404.999	448.97
405.377	470.67
405.755	464.56
406.133	436.09
406.511	455.75
406.889	456.43
407.267	469.54
407.645	474.28
408.023	480.83
408.401	472.47
408.779	485.13
409.156	488.07
409.534	482.19
409.912	502.08
410.29	530.33
410.667	498.91
411.045	526.26
411.422	548.18
411.8	550.66
412.178	543.43
412.555	544.56
412.933	541.4
413.31	561.06
413.687	558.35
414.065	580.49
414.442	565.13
414.819	594.28
415.197	606.03
415.574	622.75
415.951	614.16
416.328	624.56
416.705	669.98
417.082	632.7
417.46	659.81
417.837	652.81
418.214	670.89
418.591	689.42
418.967	687.84
419.344	678.57
419.721	686.25
420.098	690.32
420.475	700.04
420.852	739.36
421.228	729.64
421.605	753.82
421.982	736.42
422.358	755.86
422.735	741.62
423.111	774.39
423.488	788.4
423.864	772.13
424.241	819.81
424.617	802.63
424.994	803.76
425.37	826.59
425.746	830.66
426.123	844.22
426.499	841.28
426.875	851.22
427.251	856.64
427.627	890.32
428.003	886.25
428.379	908.62
428.756	927.6
429.132	928.96
429.507	942.29
429.883	936.87
430.259	961.95
430.635	938.68
431.011	968.96
431.387	989.75
431.763	1001.95
432.138	999.47
432.514	1005.34
432.89	1049.18
433.265	1052.12
433.641	1062.06
434.016	1072.01
434.392	1107.03
434.767	1088.5
435.143	1096.64
435.518	1100.71
435.894	1160.82
436.269	1132.8
436.644	1141.16
437.02	1180.7
437.395	1178.9
437.77	1210.53
438.145	1214.15
438.52	1232.91
438.895	1241.04
439.271	1227.93
439.646	1246.24
440.021	1276.75
440.395	1284.2
440.77	1267.93
441.145	1276.97
441.52	1316.75
441.895	1332.11
442.27	1324.88
442.645	1339.34
443.019	1343.86
443.394	1352
443.769	1368.95
444.143	1330.53
444.518	1389.29
444.892	1391.77
445.267	1374.37
445.641	1399.23
446.016	1388.61
446.39	1389.74
446.764	1425.67
447.139	1412.56
447.513	1394.94
447.887	1413.01
448.262	1414.6
448.636	1421.15
449.01	1443.97
449.384	1450.98
449.758	1467.48
450.132	1489.62
450.506	1486.01
450.88	1488.72
451.254	1460.24
451.628	1525.78
452.002	1545.89
452.376	1507.47
452.75	1527.81
453.123	1533.24
453.497	1572.33
453.871	1543.41
454.244	1583.63
454.618	1612.1
454.992	1609.62
455.365	1612.1
455.739	1657.08
456.112	1647.81
456.486	1643.52
456.859	1662.27
457.232	1683.74
457.606	1700.01
457.979	1704.98
458.352	1737.75
458.725	1718.99
459.099	1739.56
459.472	1739.11
459.845	1786.56
460.218	1798.99
460.591	1810.74
460.964	1789.95
461.337	1865.66
461.71	1836.51
462.083	1886.22
462.456	1893
462.829	1876.5
463.201	1907.01
463.574	1906.33
463.947	1949.95
464.32	1966.67
464.692	1961.7
465.065	1971.19
465.438	1982.94
465.81	2029.27
466.183	2042.15
466.555	2074.69
466.928	2099.32
467.3	2087.8
467.672	2089.38
468.045	2155.14
468.417	2142.94
468.789	2137.06
469.161	2139.32
469.534	2190.39
469.906	2229.94
470.278	2232.2
470.65	2281.69
471.022	2285.31
471.394	2355.59
471.766	2330.05
472.138	2375.25
472.51	2395.36
472.882	2464.74
473.253	2417.06
473.625	2466.77
473.997	2490.95
474.369	2465.42
474.74	2553.55
475.112	2535.92
475.484	2631.74
475.855	2603.94
476.227	2642.36
476.598	2701.79
476.97	2692.53
477.341	2733.43
477.713	2809.36
478.084	2793.77
478.455	2849.36
478.827	2828.34
479.198	2928.91
479.569	2906.53
479.94	2968.45
480.311	2976.59
480.682	3053.42
481.053	3113.08
481.424	3125.06
481.795	3150.14
482.166	3193.53
482.537	3210.71
482.908	3289.8
483.279	3292.74
483.65	3379.74
484.021	3386.3
484.391	3371.38
484.762	3398.72
485.133	3466.07
485.503	3516.46
485.874	3516.24
486.244	3580.41
486.615	3649.79
486.985	3651.82
487.356	3705.16
487.726	3705.83
488.097	3807.75
488.467	3772.73
488.837	3855.66
489.207	3878.71
489.578	3934.53
489.948	3885.49
490.318	3988.09
490.688	3970.69
491.058	4029.22
491.428	4045.26
491.798	4104.24
492.168	4164.58
492.538	4163.9
492.908	4195.09
493.278	4232.83
493.648	4251.13
494.017	4343.33
494.387	4338.81
494.757	4334.74
495.126	4376.78
495.496	4374.07
495.866	4430.56
496.235	4451.35
496.605	4479.6
496.974	4471.46
497.344	4499.71
497.713	4499.71
498.082	4568.41
498.452	4606.38
498.821	4609.54
499.19	4608.18
499.559	4695.64
499.928	4678.92
500.298	4666.71
500.667	4750.78
501.036	4703.55
501.405	4740.61
501.774	4730.67
502.143	4779.48
502.512	4801.85
502.88	4810.21
503.249	4813.83
503.618	4855.86
503.987	4841.4
504.356	4899.25
504.724	4926.14
505.093	4922.07
505.462	4967.5
505.83	4992.58
506.199	4937.89
506.567	5013.6
506.936	5009.98
507.304	5028.96
507.672	5059.92
508.041	5117.32
508.409	5093.82
508.777	5115.29
509.145	5105.12
509.514	5159.81
509.882	5197.77
510.25	5205.23
510.618	5209.98
510.986	5181.28
511.354	5221.5
511.722	5267.83
512.09	5299.24
512.458	5292.46
512.826	5299.92
513.193	5262.86
513.561	5364.32
513.929	5411.78
514.297	5387.37
514.664	5414.04
515.032	5444.09
515.4	5451.78
515.767	5469.4
516.135	5489.29
516.502	5409.29
516.869	5533.58
517.237	5537.88
517.604	5500.36
517.972	5559.35
518.339	5549.4
518.706	5577.65
519.073	5598.67
519.44	5606.12
519.808	5666.24
520.175	5628.72
520.542	5675.73
520.909	5717.31
521.276	5672.79
521.643	5714.6
522.009	5716.63
522.376	5784.88
522.743	5816.29
523.11	5804.31
523.477	5892.44
523.843	5874.82
524.21	5954.59
524.577	5946.91
524.943	5935.15
525.31	5969.73
525.676	6020.35
526.043	6062.61
526.409	6088.15
526.776	6121.82
527.142	6184.19
527.508	6161.82
527.874	6162.49
528.241	6216.96
528.607	6196.39
528.973	6293.56
529.339	6212.89
529.705	6254.24
530.071	6366.56
530.437	6363.62
530.803	6323.85
531.169	6396.16
531.535	6387.12
531.901	6410.4
532.267	6423.05
532.632	6505.76
532.998	6494.01
533.364	6561.35
533.73	6597.06
534.095	6558.87
534.461	6595.02
534.826	6612.88
535.192	6645.19
535.557	6675.47
535.923	6665.53
536.288	6686.1
536.653	6680.22
537.019	6691.29
537.384	6774.45
537.749	6797.5
538.114	6769.71
538.479	6767
538.845	6838.18
539.21	6804.51
539.575	6854
539.94	6851.97
540.305	6902.13
540.67	6917.5
541.034	6896.94
541.399	6961.57
541.764	6990.95
542.129	6989.82
542.494	7035.92
542.858	7039.76
543.223	7009.02
543.587	7069.59
543.952	7091.96
544.316	7108.23
544.681	7058.51
545.045	7145.52
545.41	7158.85
545.774	7143.03
546.138	7157.04
546.503	7222.13
546.867	7214.22
547.231	7275.23
547.595	7235.23
547.959	7274.1
548.324	7246.76
548.688	7269.13
549.052	7347.32
549.416	7397.04
549.779	7317.04
550.143	7406.98
550.507	7396.13
550.871	7432.52
551.235	7371.28
551.599	7512.29
551.962	7400.65
552.326	7489.24
552.689	7530.82
553.053	7427.32
553.417	7562.23
553.78	7599.74
554.143	7563.81
554.507	7608.78
554.87	7654.66
555.234	7578.28
555.597	7658.95
555.96	7660.99
556.323	7696.01
556.686	7652.17
557.05	7691.94
557.413	7715.22
557.776	7719.06
558.139	7814.88
558.502	7760.19
558.865	7762.23
559.228	7851.49
559.59	7832.05
559.953	7881.54
560.316	7907.53
560.679	7832.96
561.041	7980.75
561.404	7989.11
561.767	8041.99
562.129	7975.78
562.492	7991.6
562.854	8100.75
563.217	8043.12
563.579	8071.14
563.941	8149.33
564.304	8164.93
564.666	8216.22
565.028	8265.71
565.39	8205.15
565.753	8267.75
566.115	8274.08
566.477	8319.95
566.839	8277.92
567.201	8404.24
567.563	8319.27
567.925	8421.42
568.287	8391.14
568.648	8465.26
569.01	8505.26
569.372	8518.36
569.734	8500.74
570.095	8588.64
570.457	8650.34
570.819	8610.79
571.18	8611.24
571.542	8635.65
571.903	8717.68
572.265	8750.67
572.626	8797.9
572.987	8781.86
573.349	8882.87
573.71	8921.29
574.071	8932.36
574.432	9045.58
574.794	9006.49
575.155	9079.48
575.516	9108.63
575.877	9058.01
576.238	9154.51
576.599	9268.4
576.96	9289.42
577.32	9340.04
577.681	9358.12
578.042	9467.04
578.403	9453.25
578.763	9549.3
579.124	9580.26
579.485	9676.75
579.845	9779.8
580.206	9776.18
580.566	9893.47
580.927	9944.09
581.287	10010.75
581.648	10023.63
582.008	10168.72
582.368	10238.77
582.728	10314.02
583.089	10438.31
583.449	10502.94
583.809	10574.13
584.169	10660.45
584.529	10751.98
584.889	10857.51
585.249	10956.72
585.609	10954.91
585.969	11214.56
586.329	11209.82
586.688	11367.33
587.048	11517.15
587.408	11607.55
587.768	11718.05
588.127	11792.85
588.487	12013.86
588.846	12148.1
589.206	12233.29
589.565	12345.38
589.925	12531.59
590.284	12555.32
590.643	12747.86
591.003	12904.69
591.362	13012.26
591.721	13165.93
592.08	13238.69
592.44	13375.86
592.799	13634.84
593.158	13638.23
593.517	13853.59
593.876	13934.04
594.235	14042.51
594.593	14227.59
594.952	14299
595.311	14447.47
595.67	14621.03
596.029	14788.26
596.387	14966.78
596.746	15114.35
597.104	15056.5
597.463	15211.52
597.822	15370.61
598.18	15503.94
598.538	15626.88
598.897	15819.41
599.255	15816.02
599.613	16166.3
599.972	16150.03
600.33	16275.9
600.688	16298.95
601.046	16503.46
601.404	16640.41
601.762	16761.08
602.12	16820.97
602.478	17004.92
602.836	17023.9
603.194	17132.6
603.552	17213.28
603.91	17176.67
604.268	17380.73
604.625	17470.9
604.983	17584.34
605.341	17560.39
605.698	17864.33
606.056	17834.05
606.413	17950.66
606.771	18116.98
607.128	18213.48
607.485	18135.74
607.843	18252.34
608.2	18432.23
608.557	18603.97
608.914	18462.73
609.272	18797.87
609.629	18796.51
609.986	18942.5
610.343	18884.19
610.7	19077.18
611.057	19055.49
611.414	19146.11
611.771	19234.69
612.127	19251.41
612.484	19358.53
612.841	19473.33
613.198	19448.25
613.554	19398.08
613.911	19567.11
614.267	19690.95
614.624	19644.17
614.98	19750.61
615.337	19815.69
615.693	19929.14
616.05	19903.6
616.406	20056.82
616.762	20028.12
617.118	20066.76
617.475	20074.9
617.831	20170.49
618.187	20310.82
618.543	20274.21
618.899	20441.89
619.255	20440.31
619.611	20370.71
619.967	20610.25
620.323	20682.34
620.678	20562.11
621.034	20550.59
621.39	20557.82
621.746	20609.8
622.101	20816.57
622.457	20804.14
622.812	20795.78
623.168	20859.51
623.523	20921.2
623.879	20925.27
624.234	20742.67
624.589	20851.82
624.945	20915.1
625.3	21048.43
625.655	20906.96
626.01	21008.2
626.365	21137.92
626.72	21005.27
627.075	21006.62
627.43	21036.9
627.785	21028.77
628.14	21154.87
628.495	21159.39
628.85	21153.29
629.205	21057.69
629.559	21226.73
629.914	21111.93
630.269	21096.79
630.623	21018.37
630.978	21047.98
631.332	21144.25
631.687	21233.51
632.041	21137.69
632.396	21102.89
632.75	20962.78
633.104	21036
633.459	21053.85
633.813	20942.67
634.167	20972.95
634.521	21108.32
634.875	21080.29
635.229	20961.43
635.583	20894.76
635.937	20872.62
636.291	20884.37
636.645	21050.01
636.999	20966.17
637.352	20999.62
637.706	20851.6
638.06	20939.73
638.413	20967.53
638.767	20827.19
639.121	20947.19
639.474	20823.8
639.828	20777.93
640.181	20841.2
640.534	20800.75
640.888	20826.06
641.241	20681.21
641.594	20681.66
641.947	20823.12
642.301	20807.31
642.654	20782
643.007	20786.52
643.36	20746.29
643.713	20733.64
644.066	20867.87
644.419	20639.17
644.771	20564.37
645.124	20394.89
645.477	20289.13
645.83	20277.15
646.182	20142.69
646.535	20228.11
646.888	20268.56
647.24	20077.61
647.593	20167.55
647.945	20113.54
648.298	20006.65
648.65	19958.51
649.002	20091.17
649.355	20192.18
649.707	20168.23
650.059	20189.24
650.411	20470.37
650.763	20520.53
651.115	20602.79
651.467	20612.73
651.819	20643.02
652.171	20577.03
652.523	20593.98
652.875	20504.04
653.227	20551.95
653.578	20689.79
653.93	20550.36
654.282	20523.25
654.633	20426.98
654.985	20524.6
655.337	20558.5
655.688	20626.75
656.039	20647.54
656.391	20458.84
656.742	20498.16
657.094	20509.01
657.445	20599.63
657.796	20637.14
658.147	20601.66
658.498	20478.73
658.849	20635.33
659.2	20634.43
659.551	20575.22
659.902	20564.83
660.253	20547.88
660.604	20499.07
660.955	20476.92
661.306	20573.87
661.656	20612.96
662.007	20534.77
662.358	20584.49
662.708	20519.63
663.059	20535.45
663.409	20517.37
663.76	20627.65
664.11	20570.02
664.461	20657.25
664.811	20644.15
665.161	20680.76
665.511	20646.86
665.862	20623.13
666.212	20730.02
666.562	20748.78
666.912	20679.4
667.262	20632.85
667.612	20626.29
667.962	20647.31
668.312	20571.38
668.662	20795.55
669.011	20796.91
669.361	20642.56
669.711	20654.77
670.06	20582.23
670.41	20566.41
670.76	20465.17
671.109	20515.34
671.459	20552.62
671.808	20423.14
672.157	20602.57
672.507	20479.63
672.856	20563.92
673.205	20426.98
673.554	20535.22
673.904	20512.85
674.253	20527.09
674.602	20514.88
674.951	20165.29
675.3	20023.82
675.649	20408.9
675.998	20319.86
676.346	20357.15
676.695	20432.4
677.044	20269.92
677.393	20318.73
677.741	20417.49
678.09	20331.39
678.438	20315.57
678.787	20346.08
679.135	20228.79
679.484	20213.65
679.832	20226.3
680.181	20153.31
680.529	20139.3
680.877	20085.52
681.225	20141.33
681.573	20184.72
681.922	20040.32
682.27	19951.96
682.618	19946.54
682.966	19883.49
683.314	19920.1
683.661	19824.96
684.009	19851.85
684.357	19733.21
684.705	19702.25
685.053	19667.22
685.4	19646.43
685.748	19620.22
686.095	19478.3
686.443	19532.09
686.79	19438.53
687.138	19431.52
687.485	19526.66
687.832	19427.68
688.18	19496.15
688.527	19202.83
688.874	19373.22
689.221	19224.97
689.568	19161.47
689.915	19146.56
690.262	19155.6
690.609	19018.65
690.956	18932.55
691.303	18921.93
691.65	18786.34
691.997	18792.44
692.344	18758.55
692.69	18711.09
693.037	18628.61
693.383	18577.76
693.73	18620.02
694.077	18411.21
694.423	18347.03
694.769	18410.98
695.116	18280.14
695.462	18260.25
695.808	18212.8
696.155	18238.79
696.501	18063.88
696.847	18100.71
697.193	17963.09
697.539	17989.3
697.885	17840.6
698.231	17838.57
698.577	17774.62
698.923	17717.9
699.269	17729.19
699.614	17527.17
699.96	17540.5
700.306	17456.89
700.651	17443.78
700.997	17319.26
701.342	17337.11
701.688	17272.26
702.033	17103
702.379	17085.37
702.724	17146.61
703.069	17093.73
703.415	16938.93
703.76	16954.75
704.105	16926.28
704.45	16831.14
704.795	16700.07
705.14	16730.35
705.485	16693.06
705.83	16725.61
706.175	16618.72
706.52	16579.17
706.865	16536.46
707.209	16500.53
707.554	16391.6
707.899	16347.31
708.243	16356.35
708.588	16289.46
708.932	16189.8
709.277	16148.45
709.621	16113.19
709.966	16002.23
710.31	16143.7
710.654	15945.06
710.998	15948.45
711.342	15942.8
711.687	15940.54
712.031	15752.98
712.375	15700.1
712.719	15813.09
713.063	15844.72
713.407	15831.62
713.75	15651.51
714.094	15727.89
714.438	15613.77
714.782	15619.65
715.125	15495.58
715.469	15554.56
715.812	15510.95
716.156	15399.76
716.499	15481.8
716.843	15414.68
717.186	15364.96
717.53	15431.85
717.873	15470.5
718.216	15436.83
718.559	15304.85
718.902	15136.49
719.246	15213.55
719.589	15165.42
719.932	15179.66
720.275	15151.64
720.617	15077.51
720.96	15132.65
721.303	15099.43
721.646	15087.23
721.989	14982.15
722.331	15058.76
722.674	14993.45
723.016	15032.77
723.359	14968.82
723.701	14893.56
724.044	14867.35
724.386	14856.95
724.729	14942.38
725.071	14851.76
725.413	14877.52
725.755	14819.89
726.097	14839.78
726.439	14776.96
726.782	14782.38
727.124	14826.9
727.465	14718.88
727.807	14785.54
728.149	14730.63
728.491	14709.61
728.833	14797.97
729.175	14561.59
729.516	14602.5
729.858	14720.46
730.199	14600.92
730.541	14716.84
730.882	14655.83
731.224	14724.53
731.565	14662.61
731.906	14628.03
732.248	14587.58
732.589	14554.36
732.93	14539.45
733.271	14558.66
733.612	14487.02
733.953	14510.52
734.294	14514.36
734.635	14483.4
734.976	14530.41
735.317	14543.29
735.658	14419
735.999	14575.15
736.339	14488.83
736.68	14505.78
737.021	14525.21
737.361	14482.5
737.702	14531.54
738.042	14562.27
738.383	14548.71
738.723	14528.15
739.063	14564.08
739.404	14563.4
739.744	14555.49
740.084	14519.56
740.424	14505.78
740.764	14515.72
741.104	14592.55
741.444	14587.13
741.784	14570.41
742.124	14656.28
742.464	14626.45
742.804	14658.09
743.143	14617.64
743.483	14619.67
743.823	14556.17
744.162	14757.07
744.502	14643.85
744.841	14709.16
745.181	14791.87
745.52	14750.74
745.86	14877.07
746.199	14813.34
746.538	14882.26
746.877	14945.77
747.216	15073.67
747.556	14968.36
747.895	15103.05
748.234	15033.67
748.573	15117.51
748.911	15204.97
749.25	15321.57
749.589	15222.59
749.928	15364.06
750.267	15519.08
750.605	15448.35
750.944	15469.82
751.283	15595.24
751.621	15596.14
751.96	15647.67
752.298	15785.52
752.636	15894.21
752.975	15865.52
753.313	15990.71
753.651	16141.21
753.989	16089.92
754.327	16323.58
754.666	16240.42
755.004	16485.61
755.342	16578.49
755.679	16656.45
756.017	16697.81
756.355	16848.54
756.693	16885.83
757.031	17071.81
757.368	17085.14
757.706	17145.26
758.044	17310.45
758.381	17537.11
758.719	17483.1
759.056	17643.32
759.394	17600.61
759.731	17750.44
760.068	17838.8
760.405	17909.53
760.743	18057.77
761.08	18177.77
761.417	18254.6
761.754	18302.97
762.091	18462.96
762.428	18515.84
762.765	18528.27
763.102	18777.98
763.438	18671.32
763.775	18838.54
764.112	18930.75
764.449	19091.64
764.785	19017.52
765.122	19053.91
765.458	19156.05
765.795	19146.11
766.131	19367.8
766.467	19272.43
766.804	19294.58
767.14	19412.54
767.476	19440.11
767.812	19483.95
768.148	19640.56
768.485	19573.21
768.821	19658.41
769.157	19507.45
769.492	19589.94
769.828	19761.23
770.164	19603.72
770.5	19674
770.836	19717.84
771.171	19734.79
771.507	19766.66
771.842	19703.83
772.178	19722.81
772.513	19757.84
772.849	19810.27
773.184	19729.37
773.519	19859.53
773.855	19728.92
774.19	19715.36
774.525	19725.98
774.86	19758.52
775.195	19735.02
775.53	19682.36
775.865	19577.06
776.2	19604.85
776.535	19446.89
776.87	19521.69
777.205	19455.03
777.539	19421.35
777.874	19528.02
778.209	19372.99
778.543	19445.76
778.878	19264.52
779.212	19288.48
779.547	19248.02
779.881	19323.05
780.215	19222.71
780.55	19274.69
780.884	19150.17
781.218	19116.73
781.552	19177.29
781.886	19023.4
782.22	18888.26
782.554	18898.66
782.888	18763.52
783.222	18760.81
783.556	18732.56
783.889	18716.29
784.223	18648.72
784.557	18634.71
784.89	18544.77
785.224	18522.85
785.557	18435.39
785.891	18467.71
786.224	18402.62
786.558	18415.73
786.891	18275.4
787.224	18164.66
787.557	18167.83
787.891	18159.01
788.224	18191.78
788.557	18108.17
788.89	18129.41
789.223	18088.73
789.556	17879.47
789.888	17907.5
790.221	17921.28
790.554	17717.9
790.887	17705.01
791.219	17642.19
791.552	17673.15
791.884	17666.15
792.217	17584.79
792.549	17507.96
792.882	17401.97
793.214	17283.33
793.546	17435.42
793.879	17313.16
794.211	17192.94
794.543	17201.07
794.875	17176.67
795.207	17194.29
795.539	17066.16
795.871	17088.76
796.203	17002.66
796.535	16887.18
796.867	16851.93
797.198	16827.52
797.53	16803.34
797.862	16754.98
798.193	16709.56
798.525	16632.05
798.856	16691.93
799.188	16441.55
799.519	16468.66
799.85	16339.63
800.182	16380.76
800.513	16346.18
800.844	16262.34
801.175	16269.57
801.506	16251.27
801.837	16181.44
802.168	16156.81
802.499	16055.57
802.83	15950.48
803.161	15975.34
803.491	15894.21
803.822	15937.15
804.153	15873.88
804.483	15649.93
804.814	15698.74
805.145	15699.64
805.475	15650.15
805.805	15643.83
806.136	15537.84
806.466	15525.41
806.796	15451.97
807.126	15491.29
807.457	15420.78
807.787	15385.75
808.117	15285.87
808.447	15300.78
808.777	15262.82
809.107	15307.11
809.436	15227.79
809.766	15131.75
810.096	15175.14
810.426	15103.05
810.755	15126.33
811.085	15026.22
811.414	14990.51
811.744	14973.34
812.073	14899.66
812.403	14903.28
812.732	14764.53
813.061	14815.15
813.39	14713.23
813.719	14764.75
814.049	14711.2
814.378	14549.17
814.707	14631.2
815.036	14551.65
815.365	14514.59
815.693	14408.83
816.022	14410.86
816.351	14438.43
816.68	14332.45
817.008	14360.24
817.337	14246.8
817.665	14279.79
817.994	14217.42
818.322	14268.72
818.651	14164.09
818.979	14140.81
819.307	14202.06
819.636	14212.45
819.964	14137.88
820.292	14134.26
820.62	14130.87
820.948	14089.74
821.276	14074.6
821.604	13976.53
821.932	13999.8
822.259	14000.93
822.587	14041.83
822.915	13939.46
823.243	13935.62
823.57	13942.85
823.898	13926.36
824.225	13941.72
824.553	13974.72
824.88	13918
825.207	13947.15
825.535	13936.07
825.862	13941.72
826.189	13942.4
826.516	13942.85
826.843	13973.36
827.17	13993.47
827.497	14030.76
827.824	13965.9
828.151	14011.55
828.478	13974.72
828.805	14031.44
829.131	13936.3
829.458	13917.32
829.785	13886.81
830.111	13908.96
830.438	13998.9
830.764	13885.68
831.09	13972.01
831.417	13841.16
831.743	14031.89
832.069	13936.07
832.395	13871.67
832.722	13938.79
833.048	13810.88
833.374	13823.08
833.7	13833.25
834.026	13835.06
834.351	13791.22
834.677	13850.2
835.003	13829.86
835.329	13840.94
835.654	13794.84
835.98	13661.96
836.306	13759.36
836.631	13731.11
836.956	13736.08
837.282	13612.01
837.607	13642.3
837.932	13534.28
838.258	13551.45
838.583	13596.42
838.908	13519.81
839.233	13498.57
839.558	13508.51
839.883	13431.91
840.208	13378.12
840.533	13405.47
840.858	13381.06
841.182	13409.08
841.507	13365.69
841.832	13260.84
842.156	13311.01
842.481	13255.64
842.805	13237.34
843.13	13186.72
843.454	13231.46
843.778	13151.69
844.103	13138.13
844.427	13114.63
844.751	13055.19
845.075	12934.07
845.399	12965.93
845.723	12939.94
846.047	12942.43
846.371	12808.65
846.695	12755.09
847.019	12718.93
847.343	12726.61
847.666	12684.81
847.99	12539.05
848.313	12603.23
848.637	12550.57
848.96	12530.24
849.284	12421.76
849.607	12370.01
849.931	12271.26
850.254	12245.05
850.577	12190.58
850.9	12074.88
851.223	12125.95
851.546	12037.37
851.869	11949.69
852.192	12014.32
852.515	11902
852.838	11886.18
853.161	11827.66
853.483	11842.8
853.806	11810.25
854.129	11700.2
854.451	11641.9
854.774	11594.44
855.096	11500.66
855.419	11620.88
855.741	11541.33
856.063	11489.13
856.385	11475.12
856.708	11404.16
857.03	11302.7
857.352	11362.36
857.674	11336.59
857.996	11246.43
858.318	11188.58
858.64	11136.83
858.961	11154
859.283	11139.54
859.605	11207.11
859.926	11147
860.248	11037.85
860.57	11025.19
860.891	11067.68
861.212	10943.38
861.534	10933.67
861.855	10901.13
862.176	10915.59
862.498	10934.57
862.819	10926.44
863.14	10797.63
863.461	10818.87
863.782	10817.06
864.103	10831.98
864.424	10789.04
864.745	10778.64
865.065	10648.93
865.386	10656.61
865.707	10654.13
866.027	10667.01
866.348	10643.51
866.668	10609.61
866.989	10562.6
867.309	10581.36
867.63	10572.09
867.95	10536.39
868.27	10493.23
868.59	10560.34
868.91	10518.76
869.23	10474.92
869.55	10379.78
869.87	10491.42
870.19	10387.02
870.51	10414.58
870.83	10406
871.15	10373
871.469	10348.6
871.789	10288.94
872.109	10378.43
872.428	10273.57
872.748	10329.84
873.067	10237.87
873.386	10278.54
873.706	10271.99
874.025	10215.72
874.344	10164.87
874.663	10175.04
874.982	10161.94
875.301	10140.24
875.62	10069.28
875.939	10106.8
876.258	10104.31
876.577	10104.31
876.896	10050.53
877.214	10004.88
877.533	10055.72
877.852	10039.91
878.17	10067.93
878.489	9982.51
878.807	9923.3
879.125	9963.07
879.444	9950.42
879.762	9925.78
880.08	9955.84
880.398	9883.53
880.716	9927.37
881.034	9761.95
881.352	9847.14
881.67	9778.44
881.988	9776.41
882.306	9735.05
882.624	9739.35
882.941	9727.15
883.259	9696.64
883.577	9649.18
883.894	9683.53
884.212	9636.75
884.529	9597.66
884.846	9604.89
885.164	9499.13
885.481	9496.64
885.798	9531.9
886.115	9462.75
886.432	9538.68
886.75	9415.52
887.067	9483.99
887.383	9379.58
887.7	9422.75
888.017	9381.84
888.334	9365.8
888.651	9352.24
888.967	9288.74
889.284	9279.25
889.6	9267.72
889.917	9125.58
890.233	9178.91
890.55	9138.01
890.866	9162.87
891.182	9009.65
891.498	9069.54
891.815	9017.56
892.131	9021.85
892.447	9006.49
892.763	8928.3
893.079	8949.99
893.395	8915.87
893.71	8860.05
894.026	8858.02
894.342	8808.3
894.657	8733.27
894.973	8742.31
895.289	8808.53
895.604	8720.17
895.92	8687.17
896.235	8649.43
896.55	8657.79
896.865	8562.88
897.181	8603.11
897.496	8571.47
897.811	8506.61
898.126	8446.5
898.441	8460.96
898.756	8443.79
899.071	8365.37
899.386	8388.65
899.7	8319.05
900.015	8288.99
900.33	8184.81
900.644	8262.33
900.959	8161.76
901.273	8202.21
901.588	8170.35
901.902	8093.74
902.216	8106.62
902.531	8062.1
902.845	8029.11
903.159	8022.33
903.473	7971.26
903.787	7921.09
904.101	7898.27
904.415	7911.6
904.729	7872.96
905.042	7792.96
905.356	7775.78
905.67	7742.56
905.984	7748.21
906.297	7828.44
906.611	7677.48
906.924	7708.67
907.237	7558.16
907.551	7618.5
907.864	7573.3
908.177	7589.57
908.491	7527.2
908.804	7489.69
909.117	7406.53
909.43	7413.76
909.743	7317.72
910.056	7381.67
910.368	7300.54
910.681	7263.48
910.994	7291.73
911.307	7271.16
911.619	7159.76
911.932	7209.7
912.244	7130.83
912.557	7136.25
912.869	7024.39
913.181	7007.89
913.494	6990.49
913.806	6965.86
914.118	6966.09
914.43	6921.57
914.742	6936.48
915.054	6914.34
915.366	6825.07
915.678	6871.18
915.99	6780.33
916.302	6725.19
916.613	6675.25
916.925	6684.06
917.236	6695.13
917.548	6662.82
917.859	6688.13
918.171	6634.8
918.482	6552.31
918.794	6540.11
919.105	6487.68
919.416	6435.48
919.727	6483.39
920.038	6462.6
920.349	6367.01
920.66	6380.57
920.971	6379.66
921.282	6378.76
921.593	6352.77
921.903	6304.64
922.214	6274.81
922.525	6254.47
922.835	6211.53
923.146	6178.76
923.456	6172.21
923.767	6133.57
924.077	6086.79
924.387	6124.75
924.697	6080.69
925.008	6055.15
925.318	6076.39
925.628	6004.98
925.938	5981.03
926.248	5965.66
926.558	5886.57
926.867	5906.45
927.177	5868.94
927.487	5806.12
927.796	5776.74
928.106	5740.81
928.416	5746.91
928.725	5731.77
929.034	5718.21
929.344	5703.97
929.653	5678.44
929.962	5633.47
930.271	5587.59
930.581	5539.46
930.89	5504.66
931.199	5492.23
931.508	5517.09
931.817	5516.18
932.125	5465.56
932.434	5452.23
932.743	5394.15
933.051	5397.32
933.36	5356.64
933.669	5360.71
933.977	5318.67
934.286	5307.37
934.594	5255.85
934.902	5222.18
935.21	5204.78
935.519	5243.87
935.827	5272.12
936.135	5141.96
936.443	5157.77
936.751	5154.84
937.059	5139.47
937.367	5118.23
937.674	5106.7
937.982	5030.32
938.29	5034.16
938.597	5034.61
938.905	4998.23
939.213	4980.38
939.52	4917.78
939.827	4976.54
940.135	4906.71
940.442	4848.63
940.749	4886.14
941.056	4912.36
941.363	4833.71
941.67	4808.18
941.977	4741.06
942.284	4734.51
942.591	4764.34
942.898	4704
943.205	4705.58
943.511	4690.67
943.818	4661.29
944.125	4596.66
944.431	4605.7
944.738	4607.51
945.044	4523.67
945.35	4556.89
945.657	4536.32
945.963	4514.18
946.269	4482.76
946.575	4492.48
946.881	4416.1
947.187	4418.36
947.493	4402.09
947.799	4384.24
948.105	4358.25
948.41	4378.36
948.716	4354.63
949.022	4367.06
949.327	4303.11
949.633	4285.48
949.938	4261.07
950.244	4315.76
950.549	4247.74
950.854	4186.05
951.16	4179.72
951.465	4144.92
951.77	4169.1
952.075	4122.77
952.38	4091.81
952.685	4108.76
952.99	4075.32
953.294	4072.15
953.599	4031.02
953.904	4045.26
954.209	4005.26
954.513	3991.48
954.818	4002.55
955.122	3940.86
955.426	3954.87
955.731	3929.56
956.035	3860.41
956.339	3880.07
956.643	3872.61
956.948	3814.98
957.252	3834.19
957.556	3783.35
957.86	3839.39
958.163	3802.56
958.467	3765.95
958.771	3766.17
959.075	3750.13
959.378	3737.47
959.682	3746.29
959.985	3673.29
960.289	3705.61
960.592	3642.11
960.896	3654.99
961.199	3631.26
961.502	3612.28
961.805	3609.57
962.108	3570.92
962.411	3568.44
962.714	3565.05
963.017	3537.25
963.32	3495.44
963.623	3500.19
963.926	3491.6
964.228	3497.93
964.531	3458.38
964.833	3432.17
965.136	3398.95
965.438	3424.03
965.741	3410.93
966.043	3368.89
966.345	3390.14
966.648	3387.43
966.95	3324.38
967.252	3326.64
967.554	3319.86
967.856	3332.06
968.158	3256.81
968.46	3256.13
968.761	3300.42
969.063	3199.86
969.365	3200.99
969.666	3165.28
969.968	3223.14
970.269	3168.9
970.571	3201.22
970.872	3123.25
971.174	3163.93
971.475	3113.76
971.776	3092.29
972.077	3105.4
972.378	3068.79
972.679	3105.17
972.98	3058.85
973.281	3029.47
973.582	3041.45
973.883	3040.54
974.183	3000.77
974.484	3024.5
974.785	2967.78
975.085	2975.68
975.386	3037.6
975.686	2937.72
975.986	2906.53
976.287	2924.61
976.587	2902.24
976.887	2859.08
977.187	2918.06
977.487	2863.15
977.787	2858.17
978.087	2847.1
978.387	2840.32
978.687	2841.22
978.987	2819.53
979.286	2776.59
979.586	2787.67
979.885	2748.8
980.185	2740.66
980.484	2741.79
980.784	2726.43
981.083	2723.71
981.382	2702.25
981.682	2693.43
981.981	2687.33
982.28	2646.43
982.579	2633.09
982.878	2633.09
983.177	2637.39
983.475	2660.21
983.774	2614.79
984.073	2589.93
984.372	2540.44
984.67	2567.56
984.969	2554.68
985.267	2565.53
985.566	2544.96
985.864	2536.83
986.162	2520.78
986.461	2485.53
986.759	2498.63
987.057	2476.49
987.355	2455.7
987.653	2434.46
987.951	2467.45
988.249	2450.95
988.547	2438.07
988.844	2424.96
989.142	2398.3
989.44	2405.76
989.737	2391.75
990.035	2390.39
990.332	2348.13
990.63	2344.29
990.927	2323.5
991.224	2349.94
991.521	2340.67
991.819	2298.87
992.116	2328.02
992.413	2249.6
992.71	2272.88
993.006	2288.92
993.303	2268.13
993.6	2267.45
993.897	2226.33
994.193	2246.21
994.49	2200.11
994.787	2217.96
995.083	2204.18
995.379	2162.6
995.676	2163.73
995.972	2181.36
996.268	2133.9
996.565	2142.03
996.861	2145.65
997.157	2102.49
997.453	2112.88
997.749	2058.65
998.044	2096.61
998.34	2088.25
998.636	2071.53
998.932	2067.01
999.227	2065.65
999.523	2023.17
999.818	2023.85
1000.114	1994.02
1000.409	2005.54
1000.704	1988.82
1001	1969.16
1001.295	1991.08
1001.59	1958.31
1001.885	1954.24
1002.18	1963.28
1002.475	1929.16
1002.77	1932.77
1003.065	1894.13
1003.359	1903.62
1003.654	1878.09
1003.949	1917.86
1004.243	1871.76
1004.538	1839.44
1004.832	1879.44
1005.127	1850.52
1005.421	1856.39
1005.715	1797.86
1006.009	1799.67
1006.304	1810.74
1006.598	1797.18
1006.892	1796.05
1007.186	1770.07
1007.48	1787.47
1007.773	1744.98
1008.067	1738.88
1008.361	1725.55
1008.655	1712.67
1008.948	1674.7
1009.242	1688.26
1009.535	1697.53
1009.829	1682.39
1010.122	1682.16
1010.415	1677.41
1010.708	1664.76
1011.001	1654.82
1011.295	1655.95
1011.588	1619.79
1011.881	1620.01
1012.173	1631.31
1012.466	1619.56
1012.759	1579.56
1013.052	1590.64
1013.344	1558.77
1013.637	1596.29
1013.93	1549.06
1014.222	1538.43
1014.514	1523.97
1014.807	1519.9
1015.099	1533.69
1015.391	1499.57
1015.683	1515.61
1015.976	1490.75
1016.268	1501.37
1016.56	1474.03
1016.851	1464.09
1017.143	1459.79
1017.435	1474.48
1017.727	1435.61
1018.018	1430.64
1018.31	1406.01
1018.602	1442.39
1018.893	1394.94
1019.185	1375.5
1019.476	1360.36
1019.767	1358.78
1020.058	1374.37
1020.35	1350.87
1020.641	1327.37
1020.932	1332.79
1021.223	1336.63
1021.514	1317.2
1021.804	1299.8
1022.095	1327.59
1022.386	1257.76
1022.677	1270.42
1022.967	1273.58
1023.258	1279.01
1023.548	1269.06
1023.839	1264.99
1024.129	1259.57
1024.419	1239.01
1024.709	1225.9
1025	1231.1
1025.29	1234.26
1025.58	1206.92
1025.87	1185.22
1026.16	1218.89
1026.449	1181.61
1026.739	1190.42
1027.029	1167.14
1027.319	1166.47
1027.608	1149.52
1027.898	1154.49
1028.187	1137.54
1028.477	1125.34
1028.766	1118.78
1029.055	1119.01
1029.344	1111.1
1029.634	1114.04
1029.923	1084.21
1030.212	1105.9
1030.501	1121.72
1030.79	1066.36
1031.078	1064.1
1031.367	1058.9
1031.656	1032.01
1031.945	1052.57
1032.233	1028.39
1032.522	1060.71
1032.81	1028.62
1033.099	1021.61
1033.387	1012.12
1033.675	1026.58
1033.963	1028.84
1034.251	1003.31
1034.54	1008.73
1034.828	997.66
1035.116	959.92
1035.403	988.84
1035.691	975.51
1035.979	990.43
1036.267	963.08
1036.554	961.05
1036.842	935.51
1037.129	925.34
1037.417	931.67
1037.704	918.79
1037.992	908.39
1038.279	925.79
1038.566	908.17
1038.853	908.17
1039.14	908.17
