Data from hue_350_FLMS001491_85.txt Node
Date: Mon Feb 06 15:38:38 GMT 2017
User: dcchb
Spectrometer: FLMS00149
Trigger mode: 0
Integration Time (sec): 2.000000E-2
Scans to average: 10
Electric dark correction enabled: true
Nonlinearity correction enabled: false
Boxcar width: 0
XAxis mode: Wavelengths
Number of Pixels in Spectrum: 2048
>>>>>Begin Spectral Data<<<<<
341.393	-15.06
341.776	-15.06
342.16	-15.06
342.543	-65
342.927	-76.3
343.31	-62.74
343.693	-78.78
344.077	-83.53
344.46	-59.35
344.843	-47.37
345.226	-42.85
345.61	-27.71
345.993	-16.64
346.376	-21.16
346.759	15.68
347.142	38.95
347.525	41.67
347.908	64.26
348.291	90.7
348.674	86.64
349.057	102.23
349.44	146.07
349.823	142.23
350.206	163.47
350.588	193.3
350.971	203.47
351.354	229.68
351.737	229.68
352.119	234.2
352.502	250.25
352.884	272.17
353.267	278.04
353.65	297.25
354.032	302.68
354.414	303.13
354.797	289.12
355.179	325.27
355.562	323.01
355.944	332.51
356.326	330.92
356.709	310.59
357.091	318.72
357.473	339.74
357.855	339.06
358.238	349.68
358.62	338.15
359.002	329.12
359.384	359.85
359.766	337.25
360.148	327.31
360.53	338.83
360.912	316.46
361.294	343.35
361.676	355.1
362.057	315.33
362.439	312.84
362.821	349
363.203	313.52
363.584	312.62
363.966	332.05
364.348	322.56
364.729	299.29
365.111	331.83
365.493	333.64
365.874	327.31
366.256	324.82
366.637	325.05
367.019	300.64
367.4	289.12
367.781	318.27
368.163	296.35
368.544	324.37
368.925	303.35
369.306	306.74
369.688	307.42
370.069	298.16
370.45	306.07
370.831	314.65
371.212	302
371.593	294.09
371.974	314.2
372.355	309.68
372.736	300.42
373.117	299.74
373.498	292.96
373.879	339.51
374.26	323.92
374.641	322.79
375.021	304.03
375.402	309
375.783	309.46
376.163	323.01
376.544	342.67
376.925	321.21
377.305	308.55
377.686	315.78
378.066	309.68
378.447	320.08
378.827	314.65
379.208	307.2
379.588	324.14
379.968	330.92
380.349	323.92
380.729	328.44
381.109	341.09
381.489	312.17
381.87	343.35
382.25	310.13
382.63	327.76
383.01	346.52
383.39	331.83
383.77	346.97
384.15	356.23
384.53	331.6
384.91	329.57
385.29	339.74
385.67	346.97
386.049	338.61
386.429	336.35
386.809	354.88
387.189	352.62
387.568	325.05
387.948	333.41
388.328	351.04
388.707	355.56
389.087	332.73
389.466	362.56
389.846	350.58
390.225	345.61
390.605	360.75
390.984	345.39
391.363	366.85
391.743	365.05
392.122	368.89
392.501	336.35
392.881	368.89
393.26	363.47
393.639	359.4
394.018	360.98
394.397	373.63
394.776	373.86
395.155	371.6
395.534	386.29
395.913	380.41
396.292	396.01
396.671	355.78
397.05	378.83
397.429	382.45
397.808	374.31
398.186	381.32
398.565	383.8
398.944	375.44
399.323	403.24
399.701	381.77
400.08	378.38
400.458	374.54
400.837	386.06
401.215	386.52
401.594	378.61
401.972	401.66
402.351	392.84
402.729	383.8
403.107	399.4
403.486	409.57
403.864	399.85
404.242	396.91
404.62	390.81
404.999	399.62
405.377	400.98
405.755	421.54
406.133	424.71
406.511	405.5
406.889	428.77
407.267	435.33
407.645	418.6
408.023	440.3
408.401	425.84
408.779	435.78
409.156	438.94
409.534	436.91
409.912	459.51
410.29	441.66
410.667	435.1
411.045	447.53
411.422	443.24
411.8	454.99
412.178	454.76
412.555	456.12
412.933	470.13
413.31	485.04
413.687	456.8
414.065	454.99
414.442	469.68
414.819	491.15
415.197	477.59
415.574	488.21
415.951	480.3
416.328	496.79
416.705	485.27
417.082	484.82
417.46	495.21
417.837	504.03
418.214	504.93
418.591	513.74
418.967	488.43
419.344	534.31
419.721	518.94
420.098	498.83
420.475	527.3
420.852	536.12
421.228	531.14
421.605	527.3
421.982	542.9
422.358	518.04
422.735	534.53
423.111	543.12
423.488	558.04
423.864	540.86
424.241	565.72
424.617	553.74
424.994	542.9
425.37	567.08
425.746	577.7
426.123	580.41
426.499	570.47
426.875	564.82
427.251	584.48
427.627	586.06
428.003	600.29
428.379	601.88
428.756	599.39
429.132	617.7
429.507	595.32
429.883	603.23
430.259	623.12
430.635	654.76
431.011	631.71
431.387	637.36
431.763	630.58
432.138	656.11
432.514	662.44
432.89	668.54
433.265	673.06
433.641	670.58
434.016	674.19
434.392	672.84
434.767	696.56
435.143	680.29
435.518	693.17
435.894	690.69
436.269	716.45
436.644	684.36
437.02	715.09
437.395	711.03
437.77	724.13
438.145	740.86
438.52	749.67
438.895	760.74
439.271	737.92
439.646	778.82
440.021	767.52
440.395	787.18
440.77	736.34
441.145	765.04
441.52	790.12
441.895	771.36
442.27	799.16
442.645	790.12
443.019	813.17
443.394	790.12
443.769	776.34
444.143	799.39
444.518	793.06
444.892	803.23
445.267	804.81
445.641	823.34
446.016	794.41
446.39	802.55
446.764	825.83
447.139	840.06
447.513	838.03
447.887	810.91
448.262	842.77
448.636	845.03
449.01	856.79
449.384	848.42
449.758	844.81
450.132	855.66
450.506	857.46
450.88	901.53
451.254	863.34
451.628	883.45
452.002	886.84
452.376	895.88
452.75	894.07
453.123	899.04
453.497	928.65
453.871	925.48
454.244	956.9
454.618	944.01
454.992	956.44
455.365	943.11
455.739	952.83
456.112	959.83
456.486	948.08
456.859	956.44
457.232	987.63
457.606	1002.54
457.979	1002.54
458.352	1016.56
458.725	1014.52
459.099	1040.06
459.472	1033.96
459.845	1047.74
460.218	1064.46
460.591	1060.17
460.964	1065.82
461.337	1041.64
461.71	1104.24
462.083	1084.35
462.456	1098.13
462.829	1109.89
463.201	1127.29
463.574	1119.6
463.947	1163.44
464.32	1184.23
464.692	1184.01
465.065	1204.8
465.438	1200.51
465.81	1216.32
466.183	1214.74
466.555	1239.15
466.928	1230.33
467.3	1258.13
467.672	1241.63
468.045	1296.77
468.417	1298.36
468.789	1304.68
469.161	1339.48
469.534	1369.99
469.906	1359.6
470.278	1380.61
470.65	1383.78
471.022	1406.6
471.394	1440.27
471.766	1459.03
472.138	1488.41
472.51	1480.95
472.882	1508.29
473.253	1511.91
473.625	1554.17
473.997	1550.78
474.369	1562.76
474.74	1633.94
475.112	1614.73
475.484	1636.43
475.855	1694.5
476.227	1685.69
476.598	1715.97
476.97	1733.37
477.341	1780.38
477.713	1809.75
478.084	1826.03
478.455	1870.54
478.827	1863.99
479.198	1942.86
479.569	1958.68
479.94	1959.36
480.311	1995.74
480.682	2079.8
481.053	2079.8
481.424	2092.01
481.795	2133.59
482.166	2148.95
482.537	2183.08
482.908	2255.39
483.279	2280.7
483.65	2308.95
484.021	2330.64
484.391	2390.76
484.762	2455.84
485.133	2445.44
485.503	2447.03
485.874	2521.15
486.244	2543.52
486.615	2590.75
486.985	2626.23
487.356	2653.57
487.726	2681.82
488.097	2746.45
488.467	2760.01
488.837	2794.81
489.207	2829.84
489.578	2913.68
489.948	2928.6
490.318	2980.12
490.688	2916.17
491.058	3047.69
491.428	3045.43
491.798	3058.54
492.168	3146.22
492.538	3130.4
492.908	3200.68
493.278	3221.47
493.648	3246.55
494.017	3298.53
494.387	3340.79
494.757	3355.7
495.126	3384.85
495.496	3387.57
495.866	3389.83
496.235	3485.42
496.605	3451.75
496.974	3519.31
497.344	3533.55
497.713	3566.77
498.082	3559.54
498.452	3623.04
498.821	3622.59
499.19	3634.34
499.559	3689.93
499.928	3712.3
500.298	3701.46
500.667	3795.47
501.036	3741.91
501.405	3770.38
501.774	3765.18
502.143	3854.9
502.512	3869.14
502.88	3868.91
503.249	3871.4
503.618	3926.76
503.987	3936.25
504.356	3931.73
504.724	3953.2
505.093	3922.69
505.462	4013.99
505.83	4008.11
506.199	4049.02
506.567	4051.73
506.936	4102.12
507.304	4147.32
507.672	4088.34
508.041	4139.18
508.409	4171.27
508.777	4169.01
509.145	4261.22
509.514	4254.44
509.882	4204.04
510.25	4290.82
510.618	4266.19
510.986	4326.75
511.354	4315
511.722	4382.79
512.09	4377.6
512.458	4371.5
512.826	4387.31
513.193	4357.71
513.561	4404.26
513.929	4434.32
514.297	4465.96
514.664	4449.23
515.032	4488.78
515.4	4571.72
515.767	4552.96
516.135	4535.78
516.502	4529.01
516.869	4579.4
517.237	4570.13
517.604	4553.41
517.972	4582.11
518.339	4663.92
518.706	4652.39
519.073	4678.83
519.44	4658.04
519.808	4686.29
520.175	4689.23
520.542	4736.46
520.909	4748.21
521.276	4818.72
521.643	4783.69
522.009	4805.16
522.376	4880.41
522.743	4866.4
523.11	4892.16
523.477	4924.02
523.843	4941.88
524.21	4994.98
524.577	4979.39
524.943	5039.5
525.31	5050.12
525.676	5088.54
526.043	5088.09
526.409	5091.02
526.776	5185.26
527.142	5213.73
527.508	5201.98
527.874	5225.03
528.241	5251.25
528.607	5283.56
528.973	5319.94
529.339	5310.23
529.705	5347.29
530.071	5367.4
530.437	5411.47
530.803	5426.16
531.169	5463.44
531.535	5431.35
531.901	5483.56
532.267	5512.71
532.632	5522.65
532.998	5540.5
533.364	5595.19
533.73	5598.58
534.095	5602.2
534.461	5665.92
534.826	5685.13
535.192	5714.06
535.557	5748.18
535.923	5737.11
536.288	5749.31
536.653	5752.7
537.019	5872.25
537.384	5849.87
537.749	5858.69
538.114	5879.48
538.479	5897.56
538.845	5924.45
539.21	5956.09
539.575	5984.33
539.94	5994.73
540.305	6008.29
540.67	6029.53
541.034	6050.32
541.399	6116.53
541.764	6118.57
542.129	6137.32
542.494	6162.18
542.858	6166.7
543.223	6180.26
543.587	6243.76
543.952	6227.04
544.316	6284.89
544.681	6241.95
545.045	6306.13
545.41	6297.77
545.774	6332.57
546.138	6403.31
546.503	6437.88
546.867	6472.68
547.231	6471.78
547.595	6527.14
547.959	6457.32
548.324	6534.15
548.688	6577.76
549.052	6586.35
549.416	6618.22
549.779	6556.07
550.143	6670.19
550.507	6678.1
550.871	6695.95
551.235	6663.64
551.599	6743.86
551.962	6730.76
552.326	6780.47
552.689	6827.7
553.053	6796.06
553.417	6802.17
553.78	6881.71
554.143	6848.04
554.507	6923.97
554.87	6919.9
555.234	6961.71
555.597	6899.34
555.96	6963.74
556.323	7022.05
556.686	6986.79
557.05	7038.09
557.413	7039.22
557.776	7112.44
558.139	7216.62
558.502	7161.03
558.865	7173.68
559.228	7211.65
559.59	7200.35
559.953	7231.31
560.316	7307.92
560.679	7287.58
561.041	7386.11
561.404	7354.69
561.767	7407.8
562.129	7406.67
562.492	7469.27
562.854	7453.45
563.217	7464.75
563.579	7517.18
563.941	7539.55
564.304	7546.55
564.666	7597.63
565.028	7608.02
565.39	7612.31
565.753	7681.01
566.115	7677.85
566.477	7754.01
566.839	7688.02
567.201	7856.38
567.563	7789.94
567.925	7848.01
568.287	7900.22
568.648	7793.55
569.01	7904.06
569.372	7975.47
569.734	7925.53
570.095	8014.34
570.457	8088.91
570.819	8117.61
571.18	8094.34
571.542	8177.72
571.903	8133.66
572.265	8282.58
572.626	8241
572.987	8323.03
573.349	8406.64
573.71	8371.39
574.071	8458.62
574.432	8495.23
574.794	8549.92
575.155	8607.99
575.516	8616.36
575.877	8676.69
576.238	8683.02
576.599	8819.51
576.96	8878.72
577.32	8949
577.681	9010.24
578.042	9056.8
578.403	9138.15
578.763	9267.86
579.124	9296.34
579.485	9455.66
579.845	9477.35
580.206	9598.02
580.566	9694.97
580.927	9769.09
581.287	9935.19
581.648	9954.17
582.008	10199.36
582.368	10319.14
582.728	10406.82
583.089	10541.28
583.449	10674.83
583.809	10858.56
584.169	11006.58
584.529	11145.55
584.889	11369.05
585.249	11466.9
585.609	11611.76
585.969	11812.43
586.329	11961.8
586.688	12188.92
587.048	12425.75
587.408	12587.78
587.768	12753.65
588.127	13031.15
588.487	13160.42
588.846	13513.4
589.206	13600.86
589.565	13851.92
589.925	14177.11
590.284	14483.77
590.643	14617.55
591.003	14951.1
591.362	15227.48
591.721	15467.25
592.08	15696.4
592.44	16036.27
592.799	16331.41
593.158	16504.06
593.517	16818.63
593.876	17122.57
594.235	17333.64
594.593	17523.47
594.952	17870.58
595.311	18161.64
595.67	18518.47
596.029	18808.63
596.387	19216.08
596.746	19462.4
597.104	19604.99
597.463	19975.38
597.822	20290.62
598.18	20487.68
598.538	20816.94
598.897	21193.65
599.255	21343.25
599.613	21913.41
599.972	21973.52
600.33	22291.48
600.688	22516.78
601.046	22881.52
601.404	23163.54
601.762	23428.62
602.12	23800.14
602.478	23898.21
602.836	24353.12
603.194	24454.36
603.552	24764.63
603.91	24945.87
604.268	25330.27
604.625	25534.33
604.983	25874.88
605.341	25960.31
605.698	26350.13
606.056	26691.13
606.413	26792.37
606.771	27200.5
607.128	27389.87
607.485	27399.82
607.843	27695.18
608.2	28235.05
608.557	28375.61
608.914	28480.01
609.272	28814.69
609.629	29062.82
609.986	29371.52
610.343	29499.87
610.7	29801.79
611.057	30051.27
611.414	30141.89
611.771	30301.66
612.127	30624.14
612.484	30820.29
612.841	31080.4
613.198	31149.77
613.554	31229.77
613.911	31596.32
614.267	31782.53
614.624	31931
614.98	32151.33
615.337	32416.63
615.693	32447.14
616.05	32531.43
616.406	32902.95
616.762	32777.53
617.118	33096.16
617.475	33162.15
617.831	33516.04
618.187	33725.53
618.543	33754.9
618.899	34025.63
619.255	34047.1
619.611	34105.18
619.967	34418.16
620.323	34558.05
620.678	34535.45
621.034	34563.92
621.39	34699.51
621.746	34782.45
622.101	35312.38
622.457	35125.94
622.812	35305.15
623.168	35429.89
623.523	35410.45
623.879	35632.82
624.234	35580.84
624.589	35706.04
624.945	35859.93
625.3	35933.6
625.655	35880.95
626.01	36079.14
626.365	36200.71
626.72	36169.08
627.075	36309.64
627.43	36350.99
627.785	36164.56
628.14	36504.89
628.495	36527.71
628.85	36522.06
629.205	36534.94
629.559	36765.22
629.914	36626.69
630.269	36859.23
630.623	36740.81
630.978	36715.28
631.332	36928.83
631.687	37092.67
632.041	36807.48
632.396	37085.44
632.75	36979
633.104	37050.86
633.459	36883.41
633.813	36848.61
634.167	36995.5
634.521	36946.91
634.875	37117.98
635.229	36990.3
635.583	36976.97
635.937	36999.56
636.291	37087.25
636.645	37098.09
636.999	36902.62
637.352	37091.54
637.706	36917.53
638.06	37113.69
638.413	37144.64
638.767	36886.57
639.121	37029.39
639.474	36859.23
639.828	36877.99
640.181	36977.64
640.534	37053.57
640.888	36971.77
641.241	36886.12
641.594	36853.8
641.947	37023.29
642.301	36937.87
642.654	36887.93
643.007	37011.09
643.36	36929.28
643.713	36830.53
644.066	36920.24
644.419	36823.3
644.771	36504.89
645.124	36282.97
645.477	36237.78
645.83	36061.74
646.182	35916.43
646.535	35816.09
646.888	35893.38
647.24	35701.29
647.593	35944.22
647.945	35915.52
648.298	35764.79
648.65	35659.26
649.002	35480.73
649.355	35616.1
649.707	35813.15
650.059	35889.76
650.411	36236.87
650.763	36339.69
651.115	36619.91
651.467	36555.73
651.819	36534.94
652.171	36462.85
652.523	36418.11
652.875	36503.76
653.227	36381.05
653.578	36535.62
653.93	36460.82
654.282	36285.46
654.633	36201.17
654.985	36344.67
655.337	36290.2
655.688	36446.81
656.039	36521.16
656.391	36075.97
656.742	36280.94
657.094	36350.99
657.445	36409.97
657.796	36325.68
658.147	36350.77
658.498	36181.51
658.849	36332.69
659.2	36290.2
659.551	36228.96
659.902	36374.72
660.253	36046.14
660.604	36253.82
660.955	36100.6
661.306	36395.29
661.656	36096.99
662.007	36189.87
662.358	36135.41
662.708	36138.57
663.059	36129.3
663.409	35936.77
663.76	36313.25
664.11	36207.27
664.461	36134.05
664.811	36197.55
665.161	36261.96
665.511	35984.9
665.862	36166.37
666.212	36179.92
666.562	36032.58
666.912	36084.79
667.262	36185.12
667.612	36140.83
667.962	36153.03
668.312	36129.08
668.662	36304.67
669.011	36183.54
669.361	36087.95
669.711	36170.89
670.06	35936.09
670.41	35949.65
670.76	35908.97
671.109	36118.01
671.459	36007.27
671.808	35912.81
672.157	36028.52
672.507	35752.59
672.856	35734.06
673.205	35968.18
673.554	36049.98
673.904	35764.57
674.253	36028.52
674.602	35910.1
674.951	35326.16
675.3	35181.08
675.649	35828.52
675.998	35761.63
676.346	35775.42
676.695	35967.05
677.044	35633.27
677.393	35730.44
677.741	35642.09
678.09	35565.93
678.438	35633.05
678.787	35604.12
679.135	35626.72
679.484	35281.42
679.832	35535.65
680.181	35337.91
680.529	35462.2
680.877	35289.1
681.225	35300.17
681.573	35435.54
681.922	35296.33
682.27	35100.63
682.618	35155.54
682.966	35062.89
683.314	34960.52
683.661	35001.65
684.009	34843.69
684.357	34808.21
684.705	34793.97
685.053	34782.9
685.4	34719.4
685.748	34566.63
686.095	34565.05
686.443	34563.92
686.79	34507.65
687.138	34515.11
687.485	34474.66
687.832	34349.69
688.18	34226.76
688.527	34239.18
688.874	34127.55
689.221	34151.73
689.568	34092.52
689.915	33930.49
690.262	33944.95
690.609	33854.11
690.956	33628.81
691.303	33713.1
691.65	33500.45
691.997	33570.5
692.344	33249.83
692.69	33451.86
693.037	33373.67
693.383	33062.94
693.73	33170.96
694.077	33056.62
694.423	33040.57
694.769	32993.12
695.116	32864.76
695.462	32930.74
695.808	32713.57
696.155	32641.71
696.501	32561.49
696.847	32562.62
697.193	32329.18
697.539	32305.9
697.885	32210.31
698.231	32153.82
698.577	32109.07
698.923	32026.14
699.269	31978
699.614	31712.02
699.96	31610.78
700.306	31705.47
700.651	31649.87
700.997	31410.33
701.342	31413.95
701.688	31469.54
702.033	31315.42
702.379	31320.84
702.724	31169.43
703.069	31194.97
703.415	30790.24
703.76	30872.49
704.105	30869.1
704.45	30837.92
704.795	30707.98
705.14	30648.77
705.485	30479.74
705.83	30463.69
706.175	30441.77
706.52	30305.28
706.865	30294.2
707.209	30267.76
707.554	30185.28
707.899	30148.67
708.243	30025.96
708.588	30022.8
708.932	29719.76
709.277	29824.61
709.621	29858.96
709.966	29547.1
710.31	29693.99
710.654	29471.85
710.998	29395.7
711.342	29524.05
711.687	29405.19
712.031	29285.64
712.375	29126.78
712.719	29198.87
713.063	29062.37
713.407	29196.61
713.75	29023.73
714.094	28945.09
714.438	28960.45
714.782	28887.23
715.125	28680.46
715.469	28889.49
715.812	28650.86
716.156	28530.86
716.499	28442.95
716.843	28557.07
717.186	28374.03
717.53	28505.32
717.873	28530.18
718.216	28315.72
718.559	28268.95
718.902	28080.48
719.246	28258.32
719.589	28037.31
719.932	27978.78
720.275	27936.98
720.617	27878
720.96	27905.79
721.303	27849.75
721.646	27904.44
721.989	27673.03
722.331	27792.57
722.674	27609.3
723.016	27667.38
723.359	27542.64
723.701	27657.44
724.044	27495.63
724.386	27273.49
724.729	27531.34
725.071	27316.2
725.413	27352.13
725.755	27446.82
726.097	27278.69
726.439	27149.43
726.782	27079.37
727.124	27294.73
727.465	27055.87
727.807	27065.81
728.149	26966.16
728.491	26941.75
728.833	26985.36
729.175	26859.94
729.516	26781.98
729.858	26760.51
730.199	26830.34
730.541	26732.04
730.882	26622.89
731.224	26680.51
731.565	26532.49
731.906	26534.53
732.248	26566.84
732.589	26550.12
732.93	26405.94
733.271	26380.63
733.612	26335.89
733.953	26350.58
734.294	26195.33
734.635	26272.39
734.976	26261.77
735.317	26096.8
735.658	26138.83
735.999	26130.47
736.339	26094.09
736.68	26226.97
737.021	26028.78
737.361	25918.5
737.702	26027.42
738.042	25868.33
738.383	25824.94
738.723	25884.6
739.063	25848.9
739.404	25786.07
739.744	25743.14
740.084	25729.8
740.424	25671.73
740.764	25663.82
741.104	25737.94
741.444	25540.66
741.784	25455.46
742.124	25539.3
742.464	25417.27
742.804	25343.83
743.143	25318.29
743.483	25421.34
743.823	25234.45
744.162	25188.8
744.502	25244.84
744.841	25179.08
745.181	25147.9
745.52	25178.41
745.86	25125.07
746.199	25079.88
746.538	25040.1
746.877	25073.1
747.216	25035.58
747.556	24979.77
747.895	25024.29
748.234	24888.47
748.573	24926.66
748.911	24749.04
749.25	24810.96
749.589	24717.17
749.928	24715.14
750.267	24743.61
750.605	24660.91
750.944	24555.15
751.283	24524.41
751.621	24601.02
751.96	24406.67
752.298	24372.78
752.636	24428.37
752.975	24302.04
753.313	24295.49
753.651	24385.43
753.989	24062.95
754.327	24215.27
754.666	24082.39
755.004	24002.17
755.342	24051.66
755.679	23959.68
756.017	23824.54
756.355	23831.55
756.693	23790.65
757.031	23885.56
757.368	23512.46
757.706	23547.26
758.044	23547.49
758.381	23609.63
758.719	23533.25
759.056	23503.65
759.394	23493.25
759.731	23255.07
760.068	23286.93
760.405	23131.23
760.743	23035.19
761.08	23100.72
761.417	22958.8
761.754	22983.44
762.091	22926.04
762.428	22830.22
762.765	22691.69
763.102	22750.22
763.438	22657.34
763.775	22516.78
764.112	22611.24
764.449	22443.56
764.785	22501.87
765.122	22244.92
765.458	22195.43
765.795	22184.13
766.131	22133.51
766.467	22107.3
766.804	21968.77
767.14	21842.67
767.476	21820.08
767.812	21670.25
768.148	21738.27
768.485	21606.52
768.821	21456.7
769.157	21402.01
769.492	21464.38
769.828	21341.9
770.164	21207.66
770.5	21193.43
770.836	21218.51
771.171	21039.76
771.507	20955.47
771.842	20859.42
772.178	20912.76
772.513	20801.35
772.849	20737.84
773.184	20658.3
773.519	20631.86
773.855	20549.37
774.19	20400.45
774.525	20412.2
774.86	20418.53
775.195	20334.01
775.53	20167.92
775.865	19948.49
776.2	19947.58
776.535	19837.98
776.87	19890.64
777.205	19800.47
777.539	19758.89
777.874	19656.07
778.209	19441.16
778.543	19477.09
778.878	19311.67
779.212	19307.15
779.547	19304.21
779.881	19134.72
780.215	19155.51
780.55	19142.41
780.884	19135.63
781.218	19066.02
781.552	19049.98
781.886	18847.72
782.22	18796.88
782.554	18672.81
782.888	18486.38
783.222	18474.4
783.556	18344.69
783.889	18360.05
784.223	18228.98
784.557	18129.33
784.89	18275.99
785.224	18100.63
785.557	18070.34
785.891	17974.3
786.224	17950.57
786.558	17816.57
786.891	17766.4
787.224	17680.52
787.557	17755.55
787.891	17631.94
788.224	17608.44
788.557	17550.58
788.89	17467.2
789.223	17411.83
789.556	17365.05
789.888	17293.64
790.221	17225.39
790.554	17126.41
790.887	17160.09
791.219	17042.35
791.552	17062.01
791.884	16956.93
792.217	16902.01
792.549	16878.51
792.882	16763.03
793.214	16651.85
793.546	16728.01
793.879	16534.79
794.211	16450.05
794.543	16495.47
794.875	16348.36
795.207	16395.59
795.539	16341.8
795.871	16330.5
796.203	16228.81
796.535	16076.27
796.867	16050.28
797.198	16121.92
797.53	16080.11
797.862	15958.76
798.193	15961.25
798.525	15870.18
798.856	15846.45
799.188	15759.67
799.519	15648.94
799.85	15516.74
800.182	15613.46
800.513	15613.69
800.844	15465.67
801.175	15511.77
801.506	15516.96
801.837	15368.27
802.168	15330.3
802.499	15314.48
802.83	15175.5
803.161	15198.33
803.491	15048.05
803.822	15081.72
804.153	15051.21
804.483	14895.51
804.814	14907.72
805.145	14884.67
805.475	14888.73
805.805	14790.2
806.136	14780.26
806.466	14761.05
806.796	14768.96
807.126	14572.36
807.457	14577.33
807.787	14615.97
808.117	14593.83
808.447	14456.88
808.777	14461.85
809.107	14479.7
809.436	14371.68
809.766	14349.76
810.096	14306.15
810.426	14211.91
810.755	14235.64
811.085	14216.66
811.414	14122.2
811.744	14042.65
812.073	14078.13
812.403	13965.82
812.732	13952.49
813.061	13882.88
813.39	13808.31
813.719	13834.3
814.049	13869.32
814.378	13817.35
814.707	13770.12
815.036	13752.49
815.365	13696.45
815.693	13624.59
816.022	13554.76
816.351	13532.38
816.68	13444.7
817.008	13507.3
817.337	13359.51
817.665	13330.36
817.994	13372.84
818.322	13411.94
818.651	13253.97
818.979	13316.57
819.307	13228.66
819.636	13264.59
819.964	13162.68
820.292	13193.64
820.62	13115.22
820.948	13065.96
821.276	13157.48
821.604	13142.56
821.932	13137.14
822.259	13137.82
822.587	13203.81
822.915	13050.82
823.243	13074.09
823.57	13034.54
823.898	13089.68
824.225	13059.4
824.553	13071.38
824.88	13103.7
825.207	13102.57
825.535	13027.76
825.862	13137.14
826.189	12983.7
826.516	13099.85
826.843	13077.71
827.17	13116.12
827.497	13099.4
827.824	13107.54
828.151	13144.37
828.478	13071.15
828.805	13132.85
829.131	13042.91
829.458	13098.95
829.785	13026.18
830.111	13006.07
830.438	13072.96
830.764	13071.83
831.09	13065.73
831.417	12923.59
831.743	12972.4
832.069	13049.01
832.395	12995.45
832.722	12996.81
833.048	12918.84
833.374	13002.45
833.7	12902.34
834.026	12915.9
834.351	12913.42
834.677	12929.69
835.003	12938.28
835.329	12890.14
835.654	12793.87
835.98	12840.65
836.306	12821.89
836.631	12768.11
836.956	12852.4
837.282	12800.2
837.607	12759.07
837.932	12706.42
838.258	12743.48
838.583	12684.05
838.908	12629.13
839.233	12603.82
839.558	12623.71
839.883	12574.9
840.208	12614.67
840.533	12587.32
840.858	12516.59
841.182	12538.96
841.507	12543.71
841.832	12384.39
842.156	12466.65
842.481	12412.87
842.805	12402.47
843.13	12325.41
843.454	12345.3
843.778	12210.61
844.103	12199.76
844.427	12185.3
844.751	12208.8
845.075	12199.31
845.399	12115.92
845.723	12085.42
846.047	12093.1
846.371	11983.72
846.695	11984.85
847.019	11835.03
847.343	11856.27
847.666	11728.59
847.99	11722.49
848.313	11676.61
848.637	11621.47
848.96	11643.62
849.284	11508.26
849.607	11541.93
849.931	11480.69
850.254	11352.55
850.577	11314.59
850.9	11208.83
851.223	11269.17
851.546	11243.4
851.869	11143.52
852.192	11186.01
852.515	11114.82
852.838	11054.03
853.161	11096.97
853.483	11013.58
853.806	10952.11
854.129	10956.41
854.451	10843.87
854.774	10854.26
855.096	10808.61
855.419	10752.8
855.741	10791.89
856.063	10678.22
856.385	10702.63
856.708	10634.16
857.03	10544.89
857.352	10610.43
857.674	10568.17
857.996	10506.48
858.318	10463.99
858.64	10485.68
858.961	10459.92
859.283	10436.19
859.605	10298.57
859.926	10333.15
860.248	10332.69
860.57	10365.24
860.891	10307.61
861.212	10160.5
861.534	10227.16
861.855	10136.77
862.176	10134.28
862.498	10148.07
862.819	10082.76
863.14	10145.81
863.461	10136.54
863.782	10085.47
864.103	10059.71
864.424	9965.25
864.745	9969.77
865.065	9966.15
865.386	9900.16
865.707	9883.67
866.027	9845.93
866.348	9898.58
866.668	9942.2
866.989	9819.94
867.309	9820.62
867.63	9832.59
867.95	9832.59
868.27	9718.47
868.59	9730.9
868.91	9808.87
869.23	9754.63
869.55	9726.16
869.87	9765.7
870.19	9734.52
870.51	9680.73
870.83	9676.89
871.15	9651.81
871.469	9635.31
871.789	9595.54
872.109	9643.45
872.428	9551.25
872.748	9654.52
873.067	9622.2
873.386	9593.5
873.706	9571.81
874.025	9588.99
874.344	9518.48
874.663	9504.92
874.982	9463.11
875.301	9464.92
875.62	9457.24
875.939	9344.02
876.258	9413.85
876.577	9329.56
876.896	9389.22
877.214	9336.34
877.533	9329.56
877.852	9343.12
878.17	9270.58
878.489	9342.21
878.807	9328.88
879.125	9284.81
879.444	9315.77
879.762	9238.26
880.08	9231.25
880.398	9217.47
880.716	9183.8
881.034	9167.3
881.352	9150.8
881.67	9101.54
881.988	9104.03
882.306	9128.43
882.624	9131.14
882.941	8989.68
883.259	9048.21
883.577	8996.46
883.894	8993.52
884.212	8987.42
884.529	8918.04
884.846	8929.34
885.164	8893.41
885.481	8944.26
885.798	8934.09
886.115	8724.83
886.432	8808.89
886.75	8809.34
887.067	8813.86
887.383	8793.07
887.7	8768.67
888.017	8762.79
888.334	8652.51
888.651	8701.1
888.967	8599.41
889.284	8593.31
889.6	8597.82
889.917	8513.53
890.233	8507.43
890.55	8552.85
890.866	8493.42
891.182	8442.8
891.498	8466.3
891.815	8435.8
892.131	8378.4
892.447	8366.19
892.763	8295.01
893.079	8343.59
893.395	8283.26
893.71	8248.68
894.026	8276.7
894.342	8243.71
894.657	8155.12
894.973	8156.03
895.289	8137.95
895.604	8239.87
895.92	8035.58
896.235	8032.64
896.55	8092.53
896.865	8022.7
897.181	7992.87
897.496	7992.19
897.811	7905.41
898.126	7914.23
898.441	7867.45
898.756	7892.76
899.071	7849.82
899.386	7794.23
899.7	7777.96
900.015	7704.51
900.33	7751.75
900.644	7703.84
900.959	7681.92
901.273	7647.34
901.588	7624.52
901.902	7615.93
902.216	7615.48
902.531	7572.32
902.845	7478.31
903.159	7504.29
903.473	7476.27
903.787	7394.69
904.101	7362.83
904.415	7385.43
904.729	7346.78
905.042	7296.39
905.356	7285.54
905.67	7275.6
905.984	7299.33
906.297	7253.45
906.611	7197.86
906.924	7109.95
907.237	7116.06
907.551	7107.47
907.864	7019.34
908.177	7009.84
908.491	7039.45
908.804	6976.4
909.117	6935.5
909.43	6937.3
909.743	6898.43
910.056	6859.34
910.368	6869.96
910.681	6808.27
910.994	6769.4
911.307	6744.99
911.619	6765.78
911.932	6735.05
912.244	6662.28
912.557	6625
912.869	6625
913.181	6561.49
913.494	6598.1
913.806	6528.5
914.118	6551.1
914.43	6502.74
914.742	6515.62
915.054	6476.52
915.366	6408.5
915.678	6362.63
915.99	6352.01
916.302	6330.09
916.613	6309.98
916.925	6286.93
917.236	6308.39
917.548	6240.82
917.859	6248.28
918.171	6234.05
918.482	6232.01
918.794	6137.1
919.105	6131.22
919.416	6086.7
919.727	6050.1
920.038	6086.93
920.349	6007.61
920.66	5978.68
920.971	5963.54
921.282	5970.78
921.593	5855.3
921.903	5862.76
922.214	5870.66
922.525	5863.43
922.835	5832.25
923.146	5787.05
923.456	5786.6
923.767	5796.32
924.077	5706.38
924.387	5691.01
924.697	5715.64
925.008	5643.78
925.318	5698.47
925.628	5613.72
925.938	5590.9
926.248	5525.36
926.558	5510
926.867	5487.17
927.177	5488.98
927.487	5489.88
927.796	5410.34
928.106	5392.49
928.416	5405.82
928.725	5418.93
929.034	5373.5
929.344	5363.33
929.653	5320.17
929.962	5298.25
930.271	5300.06
930.581	5213.51
930.89	5202.21
931.199	5178.71
931.508	5180.06
931.817	5157.46
932.125	5150.68
932.434	5124.02
932.743	5060.97
933.051	5078.14
933.36	5049.9
933.669	4997.92
933.977	4951.82
934.286	4976.68
934.594	4962.89
934.902	4900.75
935.21	4903.68
935.519	4896.45
935.827	4905.04
936.135	4838.15
936.443	4810.35
936.751	4809.45
937.059	4812.39
937.367	4760.86
937.674	4774.2
937.982	4757.93
938.29	4730.13
938.597	4756.34
938.905	4642.9
939.213	4650.58
939.52	4619.62
939.827	4650.81
940.135	4576.91
940.442	4559.96
940.749	4581.66
941.056	4534.43
941.363	4529.23
941.67	4525.39
941.977	4484.49
942.284	4433.64
942.591	4459.18
942.898	4476.13
943.205	4409.91
943.511	4347.09
943.818	4373.53
944.125	4305.06
944.431	4319.75
944.738	4315
945.044	4293.98
945.35	4271.61
945.657	4235.45
945.963	4212.18
946.269	4216.47
946.575	4159.98
946.881	4166.98
947.187	4143.03
947.493	4147.55
947.799	4150.26
948.105	4128.11
948.41	4077.27
948.716	4082.24
949.022	4032.97
949.327	4046.53
949.633	4028.91
949.938	4049.24
950.244	4022.35
950.549	3962.24
950.854	3926.08
951.16	3894.22
951.465	3915.01
951.77	3881.56
952.075	3888.34
952.38	3869.59
952.685	3895.8
952.99	3834.79
953.294	3830.27
953.599	3812.64
953.904	3789.36
954.209	3745.52
954.513	3751.62
954.818	3729.93
955.122	3727.44
955.426	3694.45
955.731	3698.07
956.035	3666.2
956.339	3641.8
956.643	3666.66
956.948	3648.35
957.252	3613.1
957.556	3571.52
957.86	3578.3
958.163	3562.48
958.467	3573.78
958.771	3529.71
959.075	3539.43
959.378	3529.94
959.682	3522.25
959.985	3475.93
960.289	3497.62
960.592	3439.54
960.896	3447.23
961.199	3414.46
961.502	3452.2
961.805	3454.68
962.108	3402.93
962.411	3350.51
962.714	3331.97
963.017	3375.36
963.32	3316.16
963.623	3336.49
963.926	3260.56
964.228	3294.46
964.531	3282.03
964.833	3299.66
965.136	3250.85
965.438	3246.55
965.741	3194.35
966.043	3188.48
966.345	3218.98
966.648	3175.59
966.95	3169.72
967.252	3126.1
967.554	3134.47
967.856	3089.95
968.158	3098.08
968.46	3104.18
968.761	3086.11
969.063	3059.67
969.365	3027.35
969.666	3038.42
969.968	3009.5
970.269	2984.64
970.571	3035.71
970.872	2995.49
971.174	2930.63
971.475	2913.45
971.776	2941.02
972.077	2995.26
972.378	2975.6
972.679	2922.27
972.98	2891.08
973.281	2921.59
973.582	2905.77
973.883	2849.28
974.183	2830.97
974.484	2798.66
974.785	2786.68
975.085	2815.15
975.386	2850.63
975.686	2771.31
975.986	2760.46
976.287	2752.1
976.587	2736.06
976.887	2718.21
977.187	2708.94
977.487	2681.37
977.787	2691.09
978.087	2687.47
978.387	2668.49
978.687	2676.4
978.987	2692.44
979.286	2619.68
979.586	2623.74
979.885	2626.46
980.185	2580.81
980.484	2584.88
980.784	2569.51
981.083	2551.66
981.382	2571.77
981.682	2545.33
981.981	2524.99
982.28	2516.85
982.579	2521.83
982.878	2482.51
983.177	2511.43
983.475	2480.02
983.774	2441.6
984.073	2442.73
984.372	2440.92
984.67	2431.21
984.969	2422.62
985.267	2426.24
985.566	2440.47
985.864	2378.55
986.162	2395.05
986.461	2381.27
986.759	2393.92
987.057	2380.81
987.355	2340.14
987.653	2351.66
987.951	2347.82
988.249	2323.64
988.547	2310.76
988.844	2289.74
989.142	2291.32
989.44	2288.16
989.737	2256.07
990.035	2249.07
990.332	2272.57
990.63	2236.64
990.927	2188.5
991.224	2197.32
991.521	2217.43
991.819	2186.69
992.116	2183.98
992.413	2193.93
992.71	2171.1
993.006	2150.31
993.303	2150.76
993.6	2124.32
993.897	2137.66
994.193	2107.6
994.49	2132.23
994.787	2082.29
995.083	2113.48
995.379	2037.09
995.676	2073.7
995.972	2079.35
996.268	2043.42
996.565	2028.51
996.861	2038.9
997.157	1996.19
997.453	2016.98
997.749	1996.42
998.044	1982.86
998.34	1953.25
998.636	1940.82
998.932	1977.66
999.227	1922.75
999.523	1939.02
999.818	1938.11
1000.114	1910.09
1000.409	1880.04
1000.704	1902.86
1001	1882.52
1001.295	1904.22
1001.59	1849.75
1001.885	1866.25
1002.18	1848.4
1002.475	1842.75
1002.77	1819.92
1003.065	1788.29
1003.359	1813.37
1003.654	1795.29
1003.949	1774.05
1004.243	1775.63
1004.538	1774.5
1004.832	1791.9
1005.127	1765.69
1005.421	1765.91
1005.715	1761.39
1006.009	1726.82
1006.304	1734.28
1006.598	1692.92
1006.892	1685.92
1007.186	1703.77
1007.48	1635.07
1007.773	1666.03
1008.067	1655.63
1008.361	1632.81
1008.655	1659.25
1008.948	1627.61
1009.242	1632.13
1009.535	1613.38
1009.829	1612.92
1010.122	1617.67
1010.415	1597.78
1010.708	1615.86
1011.001	1593.94
1011.295	1581.96
1011.588	1553.72
1011.881	1532.93
1012.173	1578.35
1012.466	1553.72
1012.759	1526.15
1013.052	1522.3
1013.344	1485.7
1013.637	1495.19
1013.93	1479.59
1014.222	1454.28
1014.514	1458.13
1014.807	1475.53
1015.099	1449.76
1015.391	1446.15
1015.683	1421.97
1015.976	1439.14
1016.268	1451.35
1016.56	1421.29
1016.851	1389.88
1017.143	1397.11
1017.435	1390.78
1017.727	1382.87
1018.018	1394.4
1018.31	1363.89
1018.602	1355.76
1018.893	1366.15
1019.185	1360.73
1019.476	1343.1
1019.767	1340.61
1020.058	1313.95
1020.35	1285.02
1020.641	1305.36
1020.932	1293.38
1021.223	1292.93
1021.514	1295.19
1021.804	1261.97
1022.095	1261.07
1022.386	1272.37
1022.677	1258.81
1022.967	1244.8
1023.258	1234.63
1023.548	1228.75
1023.839	1201.86
1024.129	1193.27
1024.419	1198.92
1024.709	1190.11
1025	1218.36
1025.29	1157.12
1025.58	1156.44
1025.87	1158.25
1026.16	1151.24
1026.449	1155.76
1026.739	1125.03
1027.029	1123.9
1027.319	1113.73
1027.608	1117.34
1027.898	1121.86
1028.187	1092.49
1028.477	1092.94
1028.766	1109.66
1029.055	1086.84
1029.344	1078.25
1029.634	1075.31
1029.923	1041.87
1030.212	1040.28
1030.501	1048.64
1030.79	1041.64
1031.078	1050.68
1031.367	1012.94
1031.656	1032.83
1031.945	1047.29
1032.233	1013.62
1032.522	1007.29
1032.81	992.6
1033.099	984.92
1033.387	989.44
1033.675	972.04
1033.963	945.82
1034.251	970
1034.54	955.77
1034.828	946.73
1035.116	945.37
1035.403	942.88
1035.691	926.61
1035.979	929.1
1036.267	943.79
1036.554	917.8
1036.842	894.75
1037.129	913.96
1037.417	910.57
1037.704	915.99
1037.992	879.16
1038.279	890.46
1038.566	880.97
1038.853	880.97
1039.14	880.97
