Data from hue_40_FLMS001491_33.txt Node
Date: Mon Feb 06 15:07:48 GMT 2017
User: dcchb
Spectrometer: FLMS00149
Trigger mode: 0
Integration Time (sec): 2.000000E-2
Scans to average: 10
Electric dark correction enabled: true
Nonlinearity correction enabled: false
Boxcar width: 0
XAxis mode: Wavelengths
Number of Pixels in Spectrum: 2048
>>>>>Begin Spectral Data<<<<<
341.393	-20.25
341.776	-20.25
342.16	-20.25
342.543	-61.16
342.927	-40.37
343.31	-64.09
343.693	-55.96
344.077	-66.35
344.46	-63.87
344.843	-34.72
345.226	-61.16
345.61	-24.55
345.993	-14.6
346.376	3.02
346.759	-10.31
347.142	40.08
347.525	35.79
347.908	57.94
348.291	59.29
348.674	83.92
349.057	115.56
349.44	140.19
349.823	141.1
350.206	156.46
350.588	174.32
350.971	210.47
351.354	233.52
351.737	224.94
352.119	245.73
352.502	274.2
352.884	257.93
353.267	260.42
353.65	286.4
354.032	296.12
354.414	311.71
354.797	332.73
355.179	330.25
355.562	327.76
355.944	333.41
356.326	345.39
356.709	312.17
357.091	352.84
357.473	348.32
357.855	354.88
358.238	347.42
358.62	338.38
359.002	333.41
359.384	333.41
359.766	334.77
360.148	321.43
360.53	331.83
360.912	341.32
361.294	345.39
361.676	344.26
362.057	326.4
362.439	324.37
362.821	310.36
363.203	317.59
363.584	330.25
363.966	311.26
364.348	325.73
364.729	322.56
365.111	314.88
365.493	339.06
365.874	323.47
366.256	315.33
366.637	316.46
367.019	311.94
367.4	303.58
367.781	326.4
368.163	306.07
368.544	314.43
368.925	325.73
369.306	309
369.688	320.53
370.069	316.23
370.45	298.38
370.831	313.97
371.212	316.91
371.593	304.48
371.974	306.52
372.355	313.75
372.736	313.3
373.117	314.2
373.498	319.62
373.879	321.66
374.26	307.42
374.641	319.62
375.021	318.72
375.402	320.75
375.783	318.72
376.163	312.84
376.544	317.36
376.925	333.64
377.305	344.71
377.686	325.27
378.066	318.95
378.447	325.05
378.827	320.3
379.208	311.71
379.588	302.22
379.968	325.73
380.349	309.46
380.729	339.51
381.109	325.27
381.489	344.48
381.87	339.96
382.25	337.03
382.63	330.02
383.01	330.92
383.39	331.6
383.77	333.41
384.15	334.99
384.53	336.8
384.91	361.88
385.29	346.29
385.67	330.7
386.049	356.01
386.429	352.84
386.809	326.18
387.189	344.03
387.568	349
387.948	339.28
388.328	342.22
388.707	347.19
389.087	343.8
389.466	360.75
389.846	354.2
390.225	361.21
390.605	353.97
390.984	361.66
391.363	365.27
391.743	363.47
392.122	357.36
392.501	376.12
392.881	355.1
393.26	346.29
393.639	362.11
394.018	359.17
394.397	368.89
394.776	359.62
395.155	360.75
395.534	372.28
395.913	365.95
396.292	384.71
396.671	353.07
397.05	386.06
397.429	381.09
397.808	396.01
398.186	378.61
398.565	360.98
398.944	388.32
399.323	398.49
399.701	391.49
400.08	386.06
400.458	387.65
400.837	393.29
401.215	389.45
401.594	375.89
401.972	381.54
402.351	405.5
402.729	386.06
403.107	396.23
403.486	389.45
403.864	415.22
404.242	385.16
404.62	408.66
404.999	393.52
405.377	385.39
405.755	391.49
406.133	419.06
406.511	393.52
406.889	403.46
407.267	399.62
407.645	392.84
408.023	427.87
408.401	432.16
408.779	400.98
409.156	429.9
409.534	425.61
409.912	429.45
410.29	440.75
410.667	434.65
411.045	416.12
411.422	441.88
411.8	421.09
412.178	421.99
412.555	454.08
412.933	434.65
413.31	465.61
413.687	440.53
414.065	461.09
414.442	455.44
414.819	469.22
415.197	447.3
415.574	464.25
415.951	457.25
416.328	466.97
416.705	448.43
417.082	467.87
417.46	467.64
417.837	469
418.214	484.14
418.591	457.47
418.967	495.44
419.344	476.23
419.721	480.75
420.098	479.17
420.475	468.77
420.852	486.85
421.228	491.37
421.605	520.07
421.982	504.93
422.358	514.2
422.735	525.04
423.111	500.18
423.488	508.77
423.864	506.96
424.241	515.1
424.617	516.46
424.994	527.98
425.37	520.98
425.746	525.49
426.123	525.95
426.499	517.59
426.875	535.44
427.251	545.83
427.627	556.68
428.003	546.29
428.379	552.84
428.756	571.14
429.132	574.76
429.507	569.56
429.883	550.35
430.259	559.62
430.635	577.92
431.011	581.31
431.387	579.28
431.763	612.5
432.138	594.42
432.514	583.12
432.89	597.13
433.265	590.58
433.641	623.8
434.016	603.01
434.392	622.22
434.767	628.99
435.143	636.45
435.518	613.85
435.894	639.39
436.269	613.85
436.644	648.88
437.02	626.96
437.395	637.36
437.77	670.35
438.145	641.88
438.52	681.87
438.895	690.46
439.271	663.34
439.646	669.67
440.021	682.78
440.395	695.66
440.77	663.8
441.145	695.66
441.52	699.5
441.895	693.85
442.27	699.73
442.645	692.5
443.019	705.38
443.394	721.42
443.769	722.55
444.143	690.69
444.518	734.53
444.892	726.17
445.267	759.16
445.641	725.49
446.016	744.25
446.39	739.95
446.764	737.92
447.139	715.77
447.513	738.37
447.887	721.42
448.262	747.18
448.636	759.61
449.01	746.28
449.384	775.43
449.758	751.03
450.132	759.16
450.506	777.92
450.88	785.83
451.254	788.54
451.628	784.7
452.002	789.89
452.376	795.77
452.75	792.83
453.123	806.84
453.497	836.9
453.871	822.21
454.244	807.3
454.618	845.94
454.992	837.35
455.365	851.59
455.739	856.33
456.112	876.22
456.486	887.52
456.859	890
457.232	884.58
457.606	901.08
457.979	910.8
458.352	912.38
458.725	929.1
459.099	942.43
459.472	961.87
459.845	952.83
460.218	953.28
460.591	995.76
460.964	977.23
461.337	993.28
461.71	1016.1
462.083	1000.28
462.456	1026.5
462.829	1023.33
463.201	1053.39
463.574	1061.75
463.947	1084.8
464.32	1057.68
464.692	1089.55
465.065	1083.67
465.438	1093.62
465.81	1125.03
466.183	1172.94
466.555	1165.93
466.928	1163.9
467.3	1155.31
467.672	1200.28
468.045	1248.19
468.417	1222.65
468.789	1245.7
469.161	1251.58
469.534	1272.14
469.906	1304.01
470.278	1324.8
470.65	1344
471.022	1366.83
471.394	1379.71
471.766	1394.85
472.138	1408.86
472.51	1474.17
472.882	1486.83
473.253	1515.75
473.625	1525.69
473.997	1593.49
474.369	1581.74
474.74	1608.18
475.112	1680.94
475.484	1699.02
475.855	1743.32
476.227	1774.28
476.598	1814.73
476.97	1828.96
477.341	1889.07
477.713	1932.01
478.084	1961.16
478.455	2009.98
478.827	2062.4
479.198	2159.12
479.569	2152.57
479.94	2219.46
480.311	2262.62
480.682	2335.84
481.053	2429.63
481.424	2474.37
481.795	2546.01
482.166	2587.59
482.537	2621.48
482.908	2716.17
483.279	2814.25
483.65	2844.53
484.021	2948.26
484.391	3023.96
484.762	3084.3
485.133	3114.81
485.503	3198.64
485.874	3315.03
486.244	3392.76
486.615	3496.26
486.985	3553.21
487.356	3687.22
487.726	3744.85
488.097	3839.31
488.467	3900.55
488.837	3998.85
489.207	4114.78
489.578	4195.45
489.948	4301.89
490.318	4416.01
490.688	4458.05
491.058	4568.78
491.428	4646.52
491.798	4761.32
492.168	4927.64
492.538	4923.35
492.908	5052.83
493.278	5160.85
493.648	5258.93
494.017	5337.12
494.387	5459.38
494.757	5509.77
495.126	5655.98
495.496	5676.55
495.866	5771.23
496.235	5857.11
496.605	5979.14
496.974	6064.11
497.344	6112.69
497.713	6229.3
498.082	6314.27
498.452	6429.97
498.821	6479.46
499.19	6513.13
499.559	6628.16
499.928	6775.95
500.298	6810.75
500.667	6946.57
501.036	6929.62
501.405	7007.81
501.774	7147.69
502.143	7197.64
502.512	7230.86
502.88	7392.88
503.249	7424.3
503.618	7456.84
503.987	7573.9
504.356	7666.78
504.724	7776.38
505.093	7770.73
505.462	7856.38
505.83	7935.02
506.199	8024.05
506.567	8179.76
506.936	8190.83
507.304	8280.54
507.672	8281.22
508.041	8342.46
508.409	8418.62
508.777	8569.58
509.145	8649.8
509.514	8634.43
509.882	8705.39
510.25	8809.34
510.618	8873.75
510.986	8965.95
511.354	8998.94
511.722	9094.53
512.09	9241.2
512.458	9186.51
512.826	9267.64
513.193	9415.66
513.561	9353.74
513.929	9452.94
514.297	9510.12
514.664	9650.68
515.032	9614.3
515.4	9705.37
515.767	9754.63
516.135	9864.01
516.502	9804.8
516.869	9922.99
517.237	10011.57
517.604	10054.28
517.972	10210.21
518.339	10188.74
518.706	10215.18
519.073	10338.12
519.44	10340.83
519.808	10469.64
520.175	10488.4
520.542	10610.43
520.909	10674.15
521.276	10631.67
521.643	10718.45
522.009	10795.28
522.376	10901.04
522.743	10934.03
523.11	10995.5
523.477	11042.96
523.843	11203.41
524.21	11285.89
524.577	11380.58
524.943	11410.63
525.31	11461.25
525.676	11549.16
526.043	11625.32
526.409	11717.74
526.776	11807.23
527.142	11831.19
527.508	12000.9
527.874	12022.82
528.241	12122.48
528.607	12150.5
528.973	12215.58
529.339	12195.92
529.705	12370.38
530.071	12481.56
530.437	12508.68
530.803	12656.48
531.169	12693.54
531.535	12639.3
531.901	12810.14
532.267	12845.17
532.632	12948.44
532.998	12898.05
533.364	12996.81
533.73	12960.2
534.095	13125.62
534.461	13114.54
534.826	13305.95
535.192	13309.34
535.557	13369
535.923	13397.7
536.288	13414.65
536.653	13570.35
537.019	13441.31
537.384	13568.32
537.749	13674.53
538.114	13746.39
538.479	13774.19
538.845	13880.4
539.21	13846.95
539.575	13855.54
539.94	13913.84
540.305	14058.25
540.67	14027.29
541.034	14063.22
541.399	14137.34
541.764	14199.03
542.129	14269.31
542.494	14285.13
542.858	14302.08
543.223	14394.51
543.587	14442.19
543.952	14524.9
544.316	14535.75
544.681	14538.23
545.045	14647.16
545.41	14785.68
545.774	14761.5
546.138	14803.76
546.503	14910.2
546.867	14836.98
547.231	15051.67
547.595	15060.48
547.959	15020.25
548.324	15126.69
548.688	15151.78
549.052	15272.23
549.416	15256.18
549.779	15276.97
550.143	15372.79
550.507	15493.46
550.871	15482.62
551.235	15536.85
551.599	15664.98
551.962	15628.15
552.326	15671.76
552.689	15773.46
553.053	15772.55
553.417	15784.08
553.78	16069.72
554.143	15878.76
554.507	16060.45
554.87	16108.14
555.234	16259.32
555.597	16080.34
555.96	16267.91
556.323	16274.01
556.686	16456.6
557.05	16380.9
557.413	16547.22
557.776	16570.5
558.139	16656.6
558.502	16711.96
558.865	16641
559.228	16754.45
559.59	16903.37
559.953	16829.92
560.316	17062.46
560.679	17045.06
561.041	17058.85
561.404	17190.37
561.767	17270.82
562.129	17310.36
562.492	17459.29
562.854	17396.24
563.217	17498.38
563.579	17624.03
563.941	17650.02
564.304	17773.4
564.666	17837.13
565.028	17886.62
565.39	17902.66
565.753	17953.51
566.115	18066.05
566.477	18083
566.839	18225.14
567.201	18235.31
567.563	18322.99
567.925	18406.38
568.287	18435.53
568.648	18587.39
569.01	18624.91
569.372	18773.38
569.734	18609.09
570.095	18772.25
570.457	18916.65
570.819	18911
571.18	18858.35
571.542	19151.45
571.903	19188.51
572.265	19255.85
572.626	19282.97
572.987	19327.26
573.349	19426.47
573.71	19511.21
574.071	19596.41
574.432	19715.72
574.794	19890.64
575.155	19874.59
575.516	19953.01
575.877	20064.64
576.238	20116.62
576.599	20260.79
576.96	20418.3
577.32	20416.95
577.681	20527.45
578.042	20558.64
578.403	20699.2
578.763	20757.05
579.124	20924.96
579.485	21148.68
579.845	21198.17
580.206	21269.81
580.566	21370.82
580.927	21510.48
581.287	21794.09
581.648	21733.75
582.008	21993.86
582.368	22108.88
582.728	22200.86
583.089	22381.64
583.449	22523.33
583.809	22557.68
584.169	22771.24
584.529	22852.37
584.889	23223.65
585.249	23203.77
585.609	23430.43
585.969	23631.33
586.329	23688.28
586.688	23901.38
587.048	24039.45
587.408	24166.91
587.768	24387.69
588.127	24487.58
588.487	24718.76
588.846	24906.1
589.206	24956.72
589.565	25135.7
589.925	25322.13
590.284	25636.7
590.643	25689.13
591.003	25977.25
591.362	26217.7
591.721	26281.2
592.08	26564.81
592.44	26858.14
592.799	26882.32
593.158	27048.41
593.517	27324.56
593.876	27528.4
594.235	27590.77
594.593	27814.95
594.952	28059.91
595.311	28114.6
595.67	28288.61
596.029	28622.38
596.387	28755.94
596.746	28990.06
597.104	28971.98
597.463	29050.39
597.822	29471.63
598.18	29434.57
598.538	29559.31
598.897	29982.35
599.255	29833.65
599.613	30513.63
599.972	30338.27
600.33	30604.48
600.688	30620.75
601.046	30717.47
601.404	31016.22
601.762	31185.48
602.12	31485.36
602.478	31561.74
602.836	31545.92
603.194	31477.22
603.552	31818.01
603.91	31872.92
604.268	32222.51
604.625	32062.52
604.983	32333.47
605.341	32349.29
605.698	32526.01
606.056	32761.94
606.413	32791.99
606.771	33022.95
607.128	33081.7
607.485	33214.35
607.843	33260
608.2	33561.46
608.557	33691.4
608.914	33711.74
609.272	33789.93
609.629	34124.61
609.986	34219.3
610.343	34093.65
610.7	34479.86
611.057	34485.96
611.414	34509.91
611.771	34547.65
612.127	34840.3
612.484	34873.29
612.841	35049.56
613.198	34926.85
613.554	35142.89
613.911	35454.07
614.267	35487.29
614.624	35364.8
614.98	35442.54
615.337	35846.15
615.693	35724.57
616.05	35697.45
616.406	36092.47
616.762	35938.8
617.118	36007.95
617.475	36157.1
617.831	36210.21
618.187	36261.73
618.543	36287.04
618.899	36617.88
619.255	36755.28
619.611	36743.98
619.967	36840.7
620.323	36815.39
620.678	36729.29
621.034	36762.73
621.39	36900.13
621.746	36768.38
622.101	37347.8
622.457	37068.49
622.812	37127.02
623.168	37335.15
623.523	37341.02
623.879	37451.3
624.234	37068.94
624.589	37481.59
624.945	37420.57
625.3	37493.34
625.655	37649.04
626.01	37681.58
626.365	37636.84
626.72	37599.55
627.075	37724.29
627.43	37555.26
627.785	37641.58
628.14	37719.77
628.495	37756.15
628.85	37689.26
629.205	37626.89
629.559	37926.55
629.914	37657.17
630.269	37895.81
630.623	37676.61
630.978	37753.22
631.332	37966.09
631.687	37937.84
632.041	37834.57
632.396	37834.57
632.75	37689.94
633.104	37922.25
633.459	37665.76
633.813	37827.56
634.167	37690.62
634.521	37734.01
634.875	37872.76
635.229	37663.95
635.583	37604.97
635.937	37669.15
636.291	37578.08
636.645	37658.53
636.999	37574.92
637.352	37615.82
637.706	37441.81
638.06	37614.91
638.413	37532.66
638.767	37414.02
639.121	37532.88
639.474	37299.44
639.828	37422.38
640.181	37438.2
640.534	37510.74
640.888	37346
641.241	37286.11
641.594	37444.75
641.947	37378.76
642.301	37247.92
642.654	37268.71
643.007	37391.64
643.36	37135.15
643.713	37307.35
644.066	37373.11
644.419	37090.41
644.771	36803.86
645.124	36511.44
645.477	36562.06
645.83	36350.99
646.182	36111.23
646.535	36133.6
646.888	36211.79
647.24	36020.38
647.593	36299.92
647.945	35957.78
648.298	35906.26
648.65	35936.77
649.002	35831.68
649.355	35933.6
649.707	35930.21
650.059	35996.2
650.411	36468.05
650.763	36567.03
651.115	36891.54
651.467	36662.4
651.819	36755.28
652.171	36652.68
652.523	36708.27
652.875	36719.35
653.227	36508.05
653.578	36737.65
653.93	36637.99
654.282	36568.16
654.633	36429.86
654.985	36434.83
655.337	36509.86
655.688	36490.88
656.039	36632.57
656.391	36429.64
656.742	36416.75
657.094	36343.31
657.445	36498.79
657.796	36342.18
658.147	36382.63
658.498	36431.67
658.849	36555.51
659.2	36344.89
659.551	36303.54
659.902	36398
660.253	36346.02
660.604	36297.66
660.955	36182.64
661.306	36306.93
661.656	36135.18
662.007	36325.91
662.358	36106.71
662.708	36286.81
663.059	36141.96
663.409	35895.64
663.76	36195.52
664.11	36219.92
664.461	36197.55
664.811	36155.07
665.161	36275.74
665.511	36040.27
665.862	36166.82
666.212	36168.85
666.562	36194.84
666.912	36026.48
667.262	36140.38
667.612	36110.55
667.962	36228.96
668.312	36053.37
668.662	36233.93
669.011	36007.05
669.361	36047.27
669.711	35947.16
670.06	36015.86
670.41	35856.54
670.76	36029.87
671.109	36077.33
671.459	35925.92
671.808	36040.95
672.157	36036.2
672.507	35826.26
672.856	35925.24
673.205	35934.06
673.554	35943.09
673.904	35855.64
674.253	36040.27
674.602	35864.23
674.951	35473.95
675.3	35174.08
675.649	35793.95
675.998	35716.89
676.346	35662.88
676.695	35900.61
677.044	35650.45
677.393	35729.09
677.741	35692.48
678.09	35621.75
678.438	35596.89
678.787	35570.67
679.135	35686.15
679.484	35477.34
679.832	35517.34
680.181	35359.83
680.529	35399.83
680.877	35352.38
681.225	35253.17
681.573	35586.95
681.922	35167.52
682.27	35094.53
682.618	35160.52
682.966	35129.33
683.314	35068.77
683.661	34963.91
684.009	34825.16
684.357	34730.02
684.705	34699.74
685.053	34663.81
685.4	34891.6
685.748	34483.92
686.095	34503.36
686.443	34473.08
686.79	34278.73
687.138	34460.42
687.485	34482.79
687.832	34314.66
688.18	34381.78
688.527	34101.79
688.874	34131.16
689.221	34152.41
689.568	34071.05
689.915	33757.84
690.262	33973.65
690.609	33762.13
690.956	33672.87
691.303	33596.04
691.65	33670.16
691.997	33576.83
692.344	33438.08
692.69	33380
693.037	33383.84
693.383	33021.82
693.73	33299.55
694.077	33001.25
694.423	33045.09
694.769	32900.01
695.116	32748.83
695.462	32721.71
695.808	32653.69
696.155	32740.92
696.501	32557.42
696.847	32473.13
697.193	32363.53
697.539	32274.94
697.885	32021.62
698.231	31997.21
698.577	32010.09
698.923	32067.72
699.269	31806.93
699.614	31535.75
699.96	31646.94
700.306	31646.71
700.651	31457.79
700.997	31436.09
701.342	31411.69
701.688	31312.03
702.033	31269.09
702.379	31208.76
702.724	31138.02
703.069	31151.13
703.415	30722.89
703.76	30829.33
704.105	30726.28
704.45	30662.1
704.795	30603.12
705.14	30513.63
705.485	30436.35
705.83	30366.97
706.175	30370.81
706.52	30212.62
706.865	30204.04
707.209	30260.31
707.554	30065.28
707.899	30151.38
708.243	29921.78
708.588	29905.51
708.932	29679.76
709.277	29577.39
709.621	29692.19
709.966	29431.18
710.31	29589.82
710.654	29373.78
710.998	29473.21
711.342	29403.15
711.687	29351.18
712.031	29251.07
712.375	29151.18
712.719	29181.01
713.063	29026.44
713.407	29099.66
713.75	28954.35
714.094	28934.01
714.438	28778.76
714.782	28945.09
715.125	28692.21
715.469	28767.92
715.812	28539
716.156	28343.07
716.499	28526.57
716.843	28592.78
717.186	28352.33
717.53	28412.45
717.873	28475.49
718.216	28231.88
718.559	28294.93
718.902	28016.07
719.246	28070.76
719.589	27950.76
719.932	27921.38
720.275	27986.92
720.617	27842.97
720.96	27800.03
721.303	27882.52
721.646	27798
721.989	27652.24
722.331	27865.34
722.674	27718.68
723.016	27620.6
723.359	27642.97
723.701	27619.92
724.044	27355.3
724.386	27379.25
724.729	27340.61
725.071	27354.62
725.413	27227.62
725.755	27394.84
726.097	27139.26
726.439	27044.57
726.782	27062.2
727.124	27213.15
727.465	27036.89
727.807	27005.7
728.149	26863.33
728.491	26907.63
728.833	26893.84
729.175	26804.58
729.516	26630.34
729.858	26734.75
730.199	26743.56
730.541	26633.51
730.882	26563.91
731.224	26605.26
731.565	26557.58
731.906	26441.65
732.248	26565.71
732.589	26383.8
732.93	26194.42
733.271	26394.42
733.612	26257.7
733.953	26322.1
734.294	26165.72
734.635	26143.8
734.976	26137.25
735.317	25990.81
735.658	26041.43
735.999	26105.61
736.339	25870.36
736.68	25993.07
737.021	25856.35
737.361	25866.07
737.702	25918.95
738.042	25809.58
738.383	25742.23
738.723	25728.67
739.063	25699.75
739.404	25676.02
739.744	25638.96
740.084	25624.5
740.424	25496.82
740.764	25497.27
741.104	25581.78
741.444	25408.91
741.784	25363.49
742.124	25433.09
742.464	25397.38
742.804	25314.67
743.143	25293.21
743.483	25205.3
743.823	25099.76
744.162	25137.5
744.502	25122.81
744.841	25068.13
745.181	25152.87
745.52	25032.42
745.86	25060.67
746.199	24902.48
746.538	24972.54
746.877	25006.21
747.216	24832.2
747.556	24682.15
747.895	24849.37
748.234	24691.64
748.573	24642.37
748.911	24695.71
749.25	24553.11
749.589	24466.79
749.928	24655.48
750.267	24620
750.605	24443.51
750.944	24333.46
751.283	24334.13
751.621	24338.65
751.96	24269.96
752.298	24218.66
752.636	24304.53
752.975	24102.5
753.313	23999.23
753.651	24144.08
753.989	24010.07
754.327	24061.15
754.666	23818.44
755.004	23902.51
755.342	23975.95
755.679	23832.23
756.017	23555.17
756.355	23704.32
756.693	23572.12
757.031	23592.01
757.368	23546.13
757.706	23503.2
758.044	23291.45
758.381	23365.57
758.719	23409.86
759.056	23354.5
759.394	23144.11
759.731	23015.3
760.068	23102.98
760.405	22914.51
760.743	22944.79
761.08	22921.06
761.417	22790.67
761.754	22779.6
762.091	22748.64
762.428	22642.65
762.765	22407.41
763.102	22596.33
763.438	22465.26
763.775	22367.41
764.112	22271.82
764.449	22375.77
764.785	22187.98
765.122	22070.69
765.458	22013.52
765.795	22004.25
766.131	21959.96
766.467	21886.74
766.804	21730.13
767.14	21726.52
767.476	21676.58
767.812	21524.94
768.148	21511.38
768.485	21456.92
768.821	21308.45
769.157	21318.62
769.492	21271.16
769.828	21225.97
770.164	21054.22
770.5	20988.46
770.836	21023.94
771.171	20819.65
771.507	20856.49
771.842	20617.85
772.178	20722.25
772.513	20625.98
772.849	20552.54
773.184	20444.97
773.519	20449.26
773.855	20345.99
774.19	20297.18
774.525	20233
774.86	20121.59
775.195	20188.48
775.53	20042.5
775.865	19943.52
776.2	19820.58
776.535	19716.85
776.87	19617.2
777.205	19503.07
777.539	19578.78
777.874	19651.77
778.209	19313.48
778.543	19376.75
778.878	19135.85
779.212	19210.2
779.547	19069.19
779.881	19151.22
780.215	19063.76
780.55	18972.47
780.884	18821.28
781.218	18847.95
781.552	18932.47
781.886	18663.32
782.22	18595.08
782.554	18601.86
782.888	18442.76
783.222	18236.89
783.556	18177.69
783.889	18230.79
784.223	18028.99
784.557	18063.11
784.89	18085.26
785.224	17895.89
785.557	17857.02
785.891	17786.74
786.224	17745.38
786.558	17692.95
786.891	17629.68
787.224	17577.02
787.557	17468.1
787.891	17403.47
788.224	17409.34
788.557	17315.11
788.89	17410.93
789.223	17280.31
789.556	17156.92
789.888	17139.3
790.221	17035.57
790.554	16928.23
790.887	16954.44
791.219	16906.76
791.552	16775.24
791.884	16742.47
792.217	16745.86
792.549	16655.69
792.882	16555.58
793.214	16463.61
793.546	16537.05
793.879	16361.24
794.211	16335.25
794.543	16363.27
794.875	16236.72
795.207	16317.17
795.539	16210.73
795.871	16123.73
796.203	16029.27
796.535	15903.62
796.867	15896.62
797.198	15831.53
797.53	15871.08
797.862	15812.1
798.193	15725.77
798.525	15694.14
798.856	15665.89
799.188	15559.45
799.519	15479.45
799.85	15315.61
800.182	15420.02
800.513	15350.87
800.844	15223.41
801.175	15292.79
801.506	15333.92
801.837	15185.45
802.168	15159.69
802.499	15124.21
802.83	15075.17
803.161	15006.7
803.491	15074.94
803.822	14937.32
804.153	14875.85
804.483	14749.3
804.814	14658.23
805.145	14767.61
805.475	14746.36
805.805	14626.82
806.136	14688.74
806.466	14593.6
806.796	14592.24
807.126	14505.92
807.457	14408.52
807.787	14370.55
808.117	14356.32
808.447	14344.79
808.777	14411.23
809.107	14347.28
809.436	14265.7
809.766	14188.19
810.096	14167.85
810.426	14149.09
810.755	14121.3
811.085	14081.07
811.414	13991.36
811.744	13905.93
812.073	13948.42
812.403	13904.58
812.732	13855.31
813.061	13766.28
813.39	13721.98
813.719	13660.74
814.049	13759.95
814.378	13615.32
814.707	13712.49
815.036	13612.61
815.365	13468.21
815.693	13404.03
816.022	13461.88
816.351	13366.96
816.68	13296.01
817.008	13368.55
817.337	13339.85
817.665	13247.19
817.994	13184.37
818.322	13290.58
818.651	13165.39
818.979	13099.63
819.307	13100.53
819.636	13209.68
819.964	13029.35
820.292	13078.16
820.62	13007.2
820.948	13028.22
821.276	13081.77
821.604	13012.17
821.932	13012.4
822.259	13019.4
822.587	12974.88
822.915	12963.13
823.243	12994.77
823.57	12989.12
823.898	13013.53
824.225	12892.63
824.553	12939.86
824.88	12900.54
825.207	12939.18
825.535	12899.18
825.862	12923.59
826.189	12897.15
826.516	12928.33
826.843	12973.3
827.17	12982.57
827.497	12990.7
827.824	12948.9
828.151	12902.12
828.478	12946.19
828.805	12915.45
829.131	12942.57
829.458	12887.88
829.785	12856.92
830.111	12947.09
830.438	12932.85
830.764	12906.19
831.09	12946.86
831.417	12889.24
831.743	12884.27
832.069	12918.62
832.395	12796.13
832.722	12911.84
833.048	12843.59
833.374	12814.21
833.7	12647.66
834.026	12823.25
834.351	12797.94
834.677	12742.8
835.003	12751.84
835.329	12741.44
835.654	12668.9
835.98	12690.37
836.306	12629.58
836.631	12554.33
836.956	12674.33
837.282	12679.07
837.607	12595.69
837.932	12549.81
838.258	12600.66
838.583	12555.01
838.908	12489.47
839.233	12503.48
839.558	12503.71
839.883	12367.22
840.208	12357.73
840.533	12391.17
840.858	12396.37
841.182	12393.88
841.507	12381.23
841.832	12338.52
842.156	12284.06
842.481	12335.58
842.805	12199.76
843.13	12194.57
843.454	12272.53
843.778	12159.54
844.103	12073.67
844.427	12110.73
844.751	12030.73
845.075	12031.63
845.399	11940.79
845.723	11871.86
846.047	11940.79
846.371	11864.18
846.695	11858.98
847.019	11753.22
847.343	11782.15
847.666	11583.06
847.99	11570.18
848.313	11591.64
848.637	11514.36
848.96	11460.57
849.284	11498.54
849.607	11351.2
849.931	11282.05
850.254	11224.65
850.577	11238.43
850.9	11159.57
851.223	11191.43
851.546	11126.12
851.869	10976.52
852.192	11061.04
852.515	11005.9
852.838	10965.9
853.161	10955.73
853.483	10891.32
853.806	10859.69
854.129	10849.52
854.451	10790.54
854.774	10718.22
855.096	10712.57
855.419	10675.28
855.741	10610.88
856.063	10507.61
856.385	10600.03
856.708	10527.72
857.03	10436.87
857.352	10499.7
857.674	10442.07
857.996	10458.57
858.318	10348.97
858.64	10305.58
858.961	10336.54
859.283	10292.47
859.605	10144.9
859.926	10253.15
860.248	10244.79
860.57	10156.43
860.891	10221.28
861.212	10139.48
861.534	10131.8
861.855	10062.19
862.176	10089.31
862.498	10140.84
862.819	10141.96
863.14	9978.35
863.461	9959.37
863.782	9910.78
864.103	9954.4
864.424	9925.25
864.745	9881.63
865.065	9894.51
865.386	9880.28
865.707	9817.68
866.027	9823.56
866.348	9799.15
866.668	9805.7
866.989	9721.64
867.309	9633.5
867.63	9730.22
867.95	9689.55
868.27	9743.56
868.59	9666.5
868.91	9640.51
869.23	9678.93
869.55	9621.53
869.87	9632.15
870.19	9567.52
870.51	9571.58
870.83	9600.96
871.15	9469.21
871.469	9547.63
871.789	9546.73
872.109	9572.04
872.428	9427.41
872.748	9483.9
873.067	9514.41
873.386	9526.39
873.706	9486.16
874.025	9451.36
874.344	9418.37
874.663	9448.42
874.982	9389.67
875.301	9351.48
875.62	9293.4
875.939	9298.6
876.258	9268.54
876.577	9304.92
876.896	9354.64
877.214	9245.72
877.533	9249.33
877.852	9222.44
878.17	9222.67
878.489	9226.96
878.807	9275.77
879.125	9183.8
879.444	9199.84
879.762	9124.82
880.08	9118.72
880.398	9089.56
880.716	9151.03
881.034	9091.6
881.352	9095.44
881.67	9011.15
881.988	9059.06
882.306	8990.13
882.624	9044.82
882.941	8998.49
883.259	8981.32
883.577	8882.34
883.894	8962.56
884.212	8819.51
884.529	8849.57
884.846	8860.64
885.164	8814.32
885.481	8845.28
885.798	8818.84
886.115	8704.49
886.432	8727.54
886.75	8676.47
887.067	8703.58
887.383	8691.83
887.7	8702.23
888.017	8692.29
888.334	8604.6
888.651	8529.35
888.967	8502.46
889.284	8568
889.6	8519.41
889.917	8405.74
890.233	8459.3
890.55	8419.07
890.866	8414.55
891.182	8450.03
891.498	8417.26
891.815	8377.49
892.131	8280.77
892.447	8308.34
892.763	8261.34
893.079	8291.39
893.395	8264.5
893.71	8210.94
894.026	8163.49
894.342	8133.66
894.657	8119.65
894.973	8103.37
895.289	8091.17
895.604	8113.09
895.92	8002.13
896.235	7979.08
896.55	7994.9
896.865	7931.18
897.181	7966.65
897.496	7927.56
897.811	7927.79
898.126	7812.53
898.441	7838.97
898.756	7783.38
899.071	7735.25
899.386	7705.64
899.7	7723.27
900.015	7598.3
900.33	7603.5
900.644	7604.18
900.959	7632.88
901.273	7584.74
901.588	7506.78
901.902	7452.54
902.216	7481.92
902.531	7505.2
902.845	7428.14
903.159	7442.15
903.473	7361.02
903.787	7297.07
904.101	7289.16
904.415	7330.97
904.729	7299.55
905.042	7267.69
905.356	7210.29
905.67	7180.69
905.984	7229.27
906.297	7106.34
906.611	7132.1
906.924	7141.14
907.237	7065.21
907.551	7022.05
907.864	6970.52
908.177	7021.6
908.491	7001.71
908.804	6943.18
909.117	6876.06
909.43	6847.14
909.743	6870.86
910.056	6878.1
910.368	6820.7
910.681	6785.44
910.994	6711.09
911.307	6704.32
911.619	6633.36
911.932	6683.98
912.244	6604.2
912.557	6604.2
912.869	6540.48
913.181	6537.31
913.494	6520.37
913.806	6518.33
914.118	6432.01
914.43	6472
914.742	6426.81
915.054	6405.57
915.366	6407.15
915.678	6345.45
915.99	6366.92
916.302	6257.55
916.613	6262.52
916.925	6191.79
917.236	6237.89
917.548	6174.84
917.859	6163.76
918.171	6146.14
918.482	6084.22
918.794	6048.29
919.105	6049.42
919.416	5994.28
919.727	5963.09
920.038	6015.75
920.349	5929.65
920.66	5907.27
920.971	5898.69
921.282	5919.03
921.593	5803.1
921.903	5828.86
922.214	5782.31
922.525	5751.35
922.835	5766.49
923.146	5758.13
923.456	5686.94
923.767	5702.76
924.077	5667.05
924.387	5621.63
924.697	5608.07
925.008	5638.35
925.318	5629.99
925.628	5564.46
925.938	5528.98
926.248	5548.87
926.558	5501.18
926.867	5437.91
927.177	5447.63
927.487	5434.29
927.796	5377.12
928.106	5324.92
928.416	5361.53
928.725	5362.43
929.034	5242.66
929.344	5357.46
929.653	5293.05
929.962	5225.94
930.271	5223.68
930.581	5202.66
930.89	5136.45
931.199	5085.37
931.508	5126.5
931.817	5125.15
932.125	5046.51
932.434	5046.96
932.743	4990.69
933.051	5018.03
933.36	4974.87
933.669	4910.92
933.977	4897.13
934.286	4997.02
934.594	4879.28
934.902	4844.03
935.21	4854.65
935.519	4841.77
935.827	4835.21
936.135	4813.97
936.443	4744.59
936.751	4684.26
937.059	4736.68
937.367	4693.29
937.674	4698.27
937.982	4726.29
938.29	4677.25
938.597	4669.79
938.905	4588.89
939.213	4566.74
939.52	4541.66
939.827	4579.4
940.135	4599.51
940.442	4513.19
940.749	4477.93
941.056	4461.44
941.363	4465.05
941.67	4408.78
941.977	4426.64
942.284	4411.27
942.591	4354.55
942.898	4341.21
943.205	4343.47
943.511	4323.13
943.818	4340.76
944.125	4296.24
944.431	4227.32
944.738	4254.44
945.044	4200.88
945.35	4206.53
945.657	4207.43
945.963	4182.8
946.269	4135.8
946.575	4169.92
946.881	4110.94
947.187	4094.89
947.493	4078.4
947.799	4092.86
948.105	4027.78
948.41	4011.73
948.716	3992.75
949.022	4009.02
949.327	3974.67
949.633	3970.6
949.938	3988.68
950.244	3951.85
950.549	3882.92
950.854	3926.54
951.16	3915.46
951.465	3864.39
951.77	3849.48
952.075	3855.35
952.38	3839.53
952.685	3796.6
952.99	3794.56
953.294	3791.62
953.599	3752.75
953.904	3696.94
954.209	3738.97
954.513	3731.06
954.818	3722.25
955.122	3678.41
955.426	3667.11
955.731	3642.25
956.035	3657.84
956.339	3592.76
956.643	3604.51
956.948	3579.88
957.252	3590.05
957.556	3574.45
957.86	3541.91
958.163	3505.53
958.467	3496.26
958.771	3477.06
959.075	3487
959.378	3448.13
959.682	3449.26
959.985	3447.68
960.289	3449.49
960.592	3411.97
960.896	3375.14
961.199	3392.09
961.502	3337.85
961.805	3360.9
962.108	3314.57
962.411	3315.7
962.714	3291.52
963.017	3277.06
963.32	3297.85
963.623	3269.83
963.926	3253.78
964.228	3209.72
964.531	3212.66
964.833	3233.9
965.136	3187.8
965.438	3165.88
965.741	3134.92
966.043	3139.66
966.345	3143.73
966.648	3134.92
966.95	3136.27
967.252	3101.25
967.554	3077.74
967.856	3073.9
968.158	3074.35
968.46	3045.2
968.761	3014.47
969.063	3033.23
969.365	2990.51
969.666	3015.15
969.968	2978.31
970.269	2991.64
970.571	2938.99
970.872	2952.32
971.174	2915.04
971.475	2942.38
971.776	2921.36
972.077	2882.04
972.378	2884.98
972.679	2892.89
972.98	2875.04
973.281	2820.35
973.582	2825.55
973.883	2812.21
974.183	2776.28
974.484	2808.6
974.785	2762.72
975.085	2790.52
975.386	2721.14
975.686	2722.73
975.986	2718.21
976.287	2766.34
976.587	2708.49
976.887	2695.38
977.187	2680.01
977.487	2703.97
977.787	2650.18
978.087	2664.2
978.387	2655.16
978.687	2644.08
978.987	2627.36
979.286	2612.45
979.586	2579.23
979.885	2627.81
980.185	2570.86
980.484	2576.74
980.784	2564.31
981.083	2572.45
981.382	2529.96
981.682	2521.83
981.981	2539
982.28	2502.84
982.579	2501.71
982.878	2524.76
983.177	2466.69
983.475	2433.24
983.774	2466.01
984.073	2405.45
984.372	2400.02
984.67	2406.35
984.969	2423.52
985.267	2394.82
985.566	2394.82
985.864	2356.41
986.162	2359.57
986.461	2364.77
986.759	2332.68
987.057	2323.41
987.355	2313.02
987.653	2308.95
987.951	2294.49
988.249	2295.17
988.547	2271.66
988.844	2269.4
989.142	2303.08
989.44	2258.78
989.737	2221.04
990.035	2234.38
990.332	2203.87
990.63	2230.76
990.927	2188.73
991.224	2235.05
991.521	2199.8
991.819	2158.9
992.116	2164.77
992.413	2151.21
992.71	2149.63
993.006	2122.29
993.303	2116.87
993.6	2158.22
993.897	2134.94
994.193	2133.59
994.49	2070.99
994.787	2076.19
995.083	2070.31
995.379	2056.3
995.676	2048.62
995.972	2026.92
996.268	2028.96
996.565	2034.38
996.861	1979.47
997.157	1991.67
997.453	1982.86
997.749	1981.95
998.044	1974.5
998.34	1966.13
998.636	1922.52
998.932	1933.82
999.227	1932.01
999.523	1922.29
999.818	1897.89
1000.114	1882.97
1000.409	1846.82
1000.704	1896.08
1001	1891.11
1001.295	1841.84
1001.59	1825.57
1001.885	1832.13
1002.18	1835.97
1002.475	1827.83
1002.77	1832.58
1003.065	1771.56
1003.359	1759.59
1003.654	1767.5
1003.949	1770.43
1004.243	1766.14
1004.538	1746.48
1004.832	1746.93
1005.127	1738.12
1005.421	1746.93
1005.715	1745.35
1006.009	1720.04
1006.304	1725.92
1006.598	1705.58
1006.892	1713.94
1007.186	1673.71
1007.48	1640.72
1007.773	1656.54
1008.067	1658.35
1008.361	1617.9
1008.655	1623.09
1008.948	1621.29
1009.242	1641.17
1009.535	1612.47
1009.829	1612.25
1010.122	1598.69
1010.415	1570.44
1010.708	1568.18
1011.001	1568.63
1011.295	1563.89
1011.588	1548.97
1011.881	1555.75
1012.173	1513.04
1012.466	1506.49
1012.759	1505.36
1013.052	1516.88
1013.344	1495.86
1013.637	1484.11
1013.93	1465.58
1014.222	1474.4
1014.514	1466.71
1014.807	1462.87
1015.099	1440.95
1015.391	1419.26
1015.683	1409.99
1015.976	1407.73
1016.268	1396.21
1016.56	1362.76
1016.851	1386.71
1017.143	1371.12
1017.435	1372.03
1017.727	1377
1018.018	1325.93
1018.31	1343.55
1018.602	1344
1018.893	1330.67
1019.185	1341.74
1019.476	1298.81
1019.767	1315.98
1020.058	1291.8
1020.35	1288.41
1020.641	1266.72
1020.932	1287.96
1021.223	1273.72
1021.514	1241.18
1021.804	1265.14
1022.095	1238.02
1022.386	1218.36
1022.677	1251.58
1022.967	1238.24
1023.258	1207.06
1023.548	1212.03
1023.839	1194.86
1024.129	1189.43
1024.419	1180.17
1024.709	1211.8
1025	1204.12
1025.29	1152.37
1025.58	1146.72
1025.87	1153.95
1026.16	1154.18
1026.449	1151.47
1026.739	1135.42
1027.029	1140.39
1027.319	1097.68
1027.608	1087.29
1027.898	1083.67
1028.187	1101.3
1028.477	1087.06
1028.766	1078.25
1029.055	1059.94
1029.344	1067.85
1029.634	1064.46
1029.923	1057.01
1030.212	1054.07
1030.501	1047.29
1030.79	1019.94
1031.078	1033.05
1031.367	1026.27
1031.656	1011.81
1031.945	1005.26
1032.233	997.12
1032.522	997.57
1032.81	978.36
1033.099	997.57
1033.387	974.3
1033.675	1003.45
1033.963	951.25
1034.251	980.17
1034.54	951.92
1034.828	961.64
1035.116	926.16
1035.403	934.52
1035.691	911.47
1035.979	918.7
1036.267	926.39
1036.554	915.99
1036.842	899.95
1037.129	918.93
1037.417	899.27
1037.704	887.97
1037.992	891.81
1038.279	866.73
1038.566	885.71
1038.853	885.71
1039.14	885.71
