Data from hue_350_FLMS001491_3.txt Node
Date: Mon Feb 06 15:37:28 GMT 2017
User: dcchb
Spectrometer: FLMS00149
Trigger mode: 0
Integration Time (sec): 2.000000E-2
Scans to average: 10
Electric dark correction enabled: true
Nonlinearity correction enabled: false
Boxcar width: 0
XAxis mode: Wavelengths
Number of Pixels in Spectrum: 2048
>>>>>Begin Spectral Data<<<<<
341.393	-34.84
341.776	-34.84
342.16	-34.84
342.543	-69.87
342.927	-48.63
343.31	-84.79
343.693	-87.5
344.077	-71.23
344.46	-48.4
344.843	-46.37
345.226	-49.08
345.61	-22.41
345.993	-14.96
346.376	-10.66
346.759	-9.31
347.142	43.8
347.525	38.6
347.908	73.85
348.291	73.63
348.674	90.8
349.057	124.02
349.44	138.49
349.823	149.78
350.206	175.77
350.588	185.72
350.971	206.96
351.354	229.1
351.737	241.53
352.119	228.43
352.502	263.23
352.884	255.32
353.267	287.63
353.65	312.49
354.032	286.96
354.414	306.39
354.797	317.92
355.179	308.42
355.562	332.38
355.944	336.45
356.326	318.82
356.709	336.9
357.091	334.41
357.473	348.2
357.855	345.71
358.238	323.56
358.62	336.67
359.002	324.47
359.384	347.97
359.766	319.27
360.148	322.21
360.53	318.14
360.912	329.89
361.294	336.67
361.676	350
362.057	327.86
362.439	342.32
362.821	330.8
363.203	325.6
363.584	323.56
363.966	333.51
364.348	315.2
364.729	298.03
365.111	317.46
365.493	314.53
365.874	337.8
366.256	306.84
366.637	317.92
367.019	309.55
367.4	308.88
367.781	298.93
368.163	299.16
368.544	304.36
368.925	312.49
369.306	299.16
369.688	332.83
370.069	325.82
370.45	319.05
370.831	316.33
371.212	329.89
371.593	313.4
371.974	307.75
372.355	283.57
372.736	306.62
373.117	305.94
373.498	323.11
373.879	312.27
374.26	313.4
374.641	307.75
375.021	309.55
375.402	292.83
375.783	317.24
376.163	339.16
376.544	321.53
376.925	334.19
377.305	326.95
377.686	317.46
378.066	316.11
378.447	315.43
378.827	320.18
379.208	332.6
379.588	342.77
379.968	305.49
380.349	332.38
380.729	334.86
381.109	321.98
381.489	333.73
381.87	339.84
382.25	316.33
382.63	357.01
383.01	341.42
383.39	353.62
383.77	333.96
384.15	332.83
384.53	332.15
384.91	356.56
385.29	355.65
385.67	348.65
386.049	357.69
386.429	345.94
386.809	344.81
387.189	342.77
387.568	356.11
387.948	361.08
388.328	361.08
388.707	341.64
389.087	348.42
389.466	358.82
389.846	363.56
390.225	352.72
390.605	358.82
390.984	357.01
391.363	378.7
391.743	360.17
392.122	342.32
392.501	351.81
392.881	366.5
393.26	373.96
393.639	363.79
394.018	353.39
394.397	378.7
394.776	381.87
395.155	391.81
395.534	364.92
395.913	374.64
396.292	368.99
396.671	361.53
397.05	352.26
397.429	362.21
397.808	373.96
398.186	366.5
398.565	385.94
398.944	381.19
399.323	397.69
399.701	366.05
400.08	381.19
400.458	394.98
400.837	418.03
401.215	377.57
401.594	394.3
401.972	380.06
402.351	393.39
402.729	414.86
403.107	405.14
403.486	399.72
403.864	394.52
404.242	421.87
404.62	432.04
404.999	414.86
405.377	395.43
405.755	415.09
406.133	405.37
406.511	399.04
406.889	427.52
407.267	392.04
407.645	408.76
408.023	427.29
408.401	424.58
408.779	426.39
409.156	455.76
409.534	427.29
409.912	451.92
410.29	453.05
410.667	453.51
411.045	444.69
411.422	469.1
411.8	461.64
412.178	467.97
412.555	467.06
412.933	454.63
413.31	491.02
413.687	501.64
414.065	485.82
414.442	502.77
414.819	473.84
415.197	492.15
415.574	500.28
415.951	484.46
416.328	500.74
416.705	498.25
417.082	489.66
417.46	506.84
417.837	521.75
418.214	517.46
418.591	534.41
418.967	534.41
419.344	514.97
419.721	545.03
420.098	545.71
420.475	527.4
420.852	525.59
421.228	550.45
421.605	535.76
421.982	545.03
422.358	552.03
422.735	563.78
423.111	546.84
423.488	572.37
423.864	564.01
424.241	596.55
424.617	563.33
424.994	592.03
425.37	597.91
425.746	581.64
426.123	607.17
426.499	590.22
426.875	605.37
427.251	576.44
427.627	628.19
428.003	607.85
428.379	611.24
428.756	624.57
429.132	628.42
429.507	638.13
429.883	630.45
430.259	642.43
430.635	641.75
431.011	634.29
431.387	679.04
431.763	673.16
432.138	679.26
432.514	692.14
432.89	704.35
433.265	687.62
433.641	690.33
434.016	679.26
434.392	707.28
434.767	710.22
435.143	705.02
435.518	727.4
435.894	745.47
436.269	758.36
436.644	749.99
437.02	751.35
437.395	733.5
437.77	778.24
438.145	772.59
438.52	757.23
438.895	780.28
439.271	756.55
439.646	781.18
440.021	784.12
440.395	824.79
440.77	773.5
441.145	801.52
441.52	823.89
441.895	818.69
442.27	842.87
442.645	825.7
443.019	810.56
443.394	831.35
443.769	836.55
444.143	840.84
444.518	839.48
444.892	825.02
445.267	847.17
445.641	841.29
446.016	866.38
446.39	866.15
446.764	879.03
447.139	884.91
447.513	890.33
447.887	850.33
448.262	867.73
448.636	874.74
449.01	903.21
449.384	910.67
449.758	888.3
450.132	872.03
450.506	941.4
450.88	917.22
451.254	934.85
451.628	946.83
452.002	920.84
452.376	933.49
452.75	958.8
453.123	944.11
453.497	954.73
453.871	975.98
454.244	967.62
454.618	950.22
454.992	1012.36
455.365	1000.38
455.739	1016.88
456.112	1018.24
456.486	1015.3
456.859	1030.44
457.232	1029.31
457.606	1051
457.979	1046.94
458.352	1077.67
458.725	1095.75
459.099	1083.09
459.472	1092.58
459.845	1093.94
460.218	1129.65
460.591	1136.42
460.964	1147.05
461.337	1148.4
461.71	1146.82
462.083	1181.17
462.456	1191.56
462.829	1171.23
463.201	1181.85
463.574	1194.05
463.947	1224.33
464.32	1230.89
464.692	1245.35
465.065	1260.26
465.438	1274.95
465.81	1299.58
466.183	1335.06
466.555	1334.39
466.928	1336.19
467.3	1331.67
467.672	1334.84
468.045	1403.08
468.417	1373.25
468.789	1368.74
469.161	1425
469.534	1453.93
469.906	1449.64
470.278	1453.48
470.65	1517.66
471.022	1508.84
471.394	1523.08
471.766	1557.43
472.138	1565.11
472.51	1558.33
472.882	1587.26
473.253	1652.8
473.625	1646.47
473.997	1667.48
474.369	1696.18
474.74	1704.32
475.112	1752.91
475.484	1778.89
475.855	1783.19
476.227	1799.91
476.598	1866.35
476.97	1869.96
477.341	1889.17
477.713	1914.94
478.084	1966.69
478.455	1995.16
478.827	2035.38
479.198	2056.63
479.569	2100.02
479.94	2127.59
480.311	2165.32
480.682	2178.66
481.053	2223.85
481.424	2269.05
481.795	2330.52
482.166	2365.09
482.537	2365.32
482.908	2418.65
483.279	2466.56
483.65	2499.1
484.021	2521.02
484.391	2613.9
484.762	2583.84
485.133	2622.04
485.503	2650.74
485.874	2669.72
486.244	2735.48
486.615	2785.42
486.985	2807.12
487.356	2882.82
487.726	2859.32
488.097	2956.04
488.467	2974.79
488.837	3026.54
489.207	3062.7
489.578	3098.63
489.948	3155.81
490.318	3198.07
490.688	3236.26
491.058	3256.14
491.428	3276.71
491.798	3378.17
492.168	3456.59
492.538	3436.03
492.908	3456.14
493.278	3541.11
493.648	3534.33
494.017	3587.89
494.387	3590.15
494.757	3612.74
495.126	3671.05
495.496	3736.13
495.866	3708.79
496.235	3766.19
496.605	3793.76
496.974	3793.08
497.344	3859.52
497.713	3863.58
498.082	3911.49
498.452	3939.74
498.821	3979.51
499.19	3970.7
499.559	4047.53
499.928	4025.84
500.298	4102.45
500.667	4106.06
501.036	4123.24
501.405	4170.02
501.774	4154.42
502.143	4200.07
502.512	4227.19
502.88	4272.39
503.249	4221.99
503.618	4327.75
503.987	4266.51
504.356	4323.01
504.724	4336.11
505.093	4339.73
505.462	4365.04
505.83	4436.9
506.199	4417.69
506.567	4471.7
506.936	4425.6
507.304	4501.76
507.672	4506.51
508.041	4499.73
508.409	4596.9
508.777	4613.17
509.145	4649.33
509.514	4643
509.882	4668.08
510.25	4656.33
510.618	4764.58
510.986	4736.33
511.354	4798.02
511.722	4793.96
512.09	4830.79
512.458	4825.59
512.826	4885.7
513.193	4835.31
513.561	4898.59
513.929	4894.07
514.297	4922.77
514.664	4941.52
515.032	4987.62
515.4	4987.62
515.767	5003.44
516.135	5051.35
516.502	4998.7
516.869	5066.27
517.237	5103.78
517.604	5092.48
517.972	5161.4
518.339	5182.19
518.706	5167.96
519.073	5191.91
519.44	5212.02
519.808	5205.47
520.175	5270.1
520.542	5277.78
520.909	5332.92
521.276	5298.58
521.643	5381.51
522.009	5362.98
522.376	5403.66
522.743	5472.58
523.11	5436.88
523.477	5476.88
523.843	5492.47
524.21	5596.42
524.577	5604.78
524.943	5564.33
525.31	5598.23
525.676	5659.02
526.043	5742.18
526.409	5729.52
526.776	5769.98
527.142	5767.04
527.508	5837.32
527.874	5843.65
528.241	5821.05
528.607	5897.2
528.973	5960.25
529.339	5924.1
529.705	6005.68
530.071	6054.94
530.437	6029.18
530.803	6098.33
531.169	6158.44
531.535	6146.46
531.901	6146.91
532.267	6191.66
532.632	6207.48
532.998	6217.42
533.364	6275.27
533.73	6287.93
534.095	6329.28
534.461	6332.9
534.826	6428.26
535.192	6381.94
535.557	6499.22
535.923	6405.44
536.288	6479.34
536.653	6513.68
537.019	6497.64
537.384	6492.67
537.749	6578.99
538.114	6610.86
538.479	6609.05
538.845	6615.6
539.21	6595.26
539.575	6709.84
539.94	6705.32
540.305	6779.44
540.67	6745.32
541.034	6747.12
541.399	6828.48
541.764	6861.47
542.129	6834.58
542.494	6838.65
542.858	6910.51
543.223	6910.06
543.587	6954.58
543.952	7014.01
544.316	7067.79
544.681	7049.04
545.045	7032.77
545.41	7105.76
545.774	7150.96
546.138	7195.7
546.503	7178.98
546.867	7204.97
547.231	7229.6
547.595	7285.87
547.959	7302.82
548.324	7338.07
548.688	7322.25
549.052	7400.89
549.416	7372.87
549.779	7397.05
550.143	7456.94
550.507	7471.85
550.871	7427.11
551.235	7506.88
551.599	7521.12
551.962	7549.36
552.326	7581.45
552.689	7616.25
553.053	7610.6
553.417	7623.49
553.78	7738.51
554.143	7643.15
554.507	7766.76
554.87	7709.13
555.234	7865.29
555.597	7815.35
555.96	7861.45
556.323	7821.45
556.686	7876.81
557.05	7899.64
557.413	7893.31
557.776	7932.4
558.139	7997.26
558.502	7997.71
558.865	8025.96
559.228	8063.47
559.59	8107.09
559.953	8156.58
560.316	8226.86
560.679	8221.21
561.041	8218.05
561.404	8280.19
561.767	8322
562.129	8291.04
562.492	8451.94
562.854	8338.5
563.217	8298.5
563.579	8386.63
563.941	8442.9
564.304	8457.81
564.666	8512.5
565.028	8552.05
565.39	8555.44
565.753	8614.65
566.115	8628.21
566.477	8661.65
566.839	8690.12
567.201	8820.52
567.563	8736.23
567.925	8780.07
568.287	8801.99
568.648	8811.03
569.01	8870.46
569.372	8974.86
569.734	8929.21
570.095	9000.85
570.457	9052.6
570.819	9061.41
571.18	9048.76
571.542	9159.94
571.903	9194.97
572.265	9236.78
572.626	9304.12
572.987	9319.94
573.349	9397.45
573.71	9416.43
574.071	9412.14
574.432	9534.4
574.794	9554.73
575.155	9643.09
575.516	9612.59
575.877	9787.5
576.238	9731
576.599	9843.77
576.96	9879.25
577.32	9981.16
577.681	10028.62
578.042	10094.61
578.403	10222.29
578.763	10302.51
579.124	10290.53
579.485	10502.28
579.845	10560.13
580.206	10582.05
580.566	10771.43
580.927	10921.7
581.287	11031.98
581.648	11024.3
582.008	11240.57
582.368	11341.81
582.728	11485.98
583.089	11611.18
583.449	11768.01
583.809	11958.74
584.169	12133.88
584.529	12208.45
584.889	12502.91
585.249	12633.3
585.609	12762.79
585.969	13083
586.329	13182.44
586.688	13412.26
587.048	13552.6
587.408	13843.66
587.768	13955.07
588.127	14158
588.487	14397.77
588.846	14675.05
589.206	14751.66
589.565	15026
589.925	15287.69
590.284	15500.57
590.643	15786.66
591.003	16193.66
591.362	16380.77
591.721	16625.28
592.08	16842.9
592.44	17149.79
592.799	17446.96
593.158	17648.08
593.517	17900.5
593.876	18295.52
594.235	18466.59
594.593	18824.1
594.952	19055.5
595.311	19212.79
595.67	19536.85
596.029	20060.9
596.387	20318.29
596.746	20522.58
597.104	20786.3
597.463	20991.72
597.822	21361.66
598.18	21545.83
598.538	21854.98
598.897	22241.63
599.255	22267.85
599.613	22868.06
599.972	22978.34
600.33	23413.13
600.688	23559.34
601.046	23922.49
601.404	24221.92
601.762	24319.77
602.12	24702.81
602.478	24947.55
602.836	25166.75
603.194	25356.81
603.552	25693.07
603.91	25804.02
604.268	26192.94
604.625	26328.08
604.983	26727.62
605.341	26833.83
605.698	27186.59
606.056	27487.14
606.413	27660.93
606.771	27984.98
607.128	28156.05
607.485	28326.44
607.843	28354.69
608.2	28947.67
608.557	29100.21
608.914	29333.65
609.272	29648.44
609.629	29883.92
609.986	30154.19
610.343	30207.98
610.7	30581.07
611.057	30567.52
611.414	30919.82
611.771	30943.1
612.127	31369.75
612.484	31403.2
612.841	31689.97
613.198	31705.56
613.554	31851.32
613.911	32139.68
614.267	32271.43
614.624	32454.7
614.98	32573.79
615.337	32865.99
615.693	32937.62
616.05	32987.11
616.406	33392.75
616.762	33432.98
617.118	33532.64
617.475	33737.15
617.831	33882.91
618.187	33970.36
618.543	34197.93
618.899	34483.12
619.255	34439.96
619.611	34526.73
619.967	34957
620.323	34943.67
620.678	35027.29
621.034	35023.44
621.39	35166.49
621.746	35337.11
622.101	35675.18
622.457	35318.58
622.812	35737.78
623.168	35729.19
623.523	35864.78
623.879	36054.6
624.234	35954.27
624.589	36102.74
624.945	36162.85
625.3	36262.73
625.655	36312.22
626.01	36374.59
626.365	36483.07
626.72	36453.46
627.075	36708.82
627.43	36742.04
627.785	36729.84
628.14	36744.75
628.495	36727.13
628.85	36713.79
629.205	36669.5
629.559	37062.49
629.914	36876.95
630.269	37043.96
630.623	36888.48
630.978	36966.22
631.332	37264.06
631.687	37174.35
632.041	37054.58
632.396	37367.56
632.75	37031.3
633.104	37132.99
633.459	36954.92
633.813	37180.9
634.167	37081.92
634.521	37183.61
634.875	37245.53
635.229	37218.19
635.583	37088.25
635.937	37171.86
636.291	37125.99
636.645	37272.2
636.999	37185.42
637.352	37265.19
637.706	37044.63
638.06	37295.25
638.413	37239.43
638.767	37101.81
639.121	37129.15
639.474	37113.11
639.828	37052.99
640.181	37256.15
640.534	37282.14
640.888	37054.8
641.241	36884.64
641.594	37142.71
641.947	37147.68
642.301	37038.76
642.654	37062.26
643.007	37094.58
643.36	37047.35
643.713	37008.93
644.066	37159.88
644.419	36882.38
644.771	36676.28
645.124	36407.81
645.477	36324.88
645.83	36184.99
646.182	36047.6
646.535	35909.07
646.888	36023.87
647.24	35785.68
647.593	36034.04
647.945	35934.15
648.298	35835.17
648.65	35846.02
649.002	35673.82
649.355	36003.08
649.707	35820.94
650.059	35986.13
650.411	36477.42
650.763	36391.32
651.115	36826.33
651.467	36657.75
651.819	36741.14
652.171	36646.45
652.523	36626.57
652.875	36674.02
653.227	36449.62
653.578	36684.87
653.93	36638.77
654.282	36441.26
654.633	36399.45
654.985	36553.57
655.337	36469.96
655.688	36531.43
656.039	36617.75
656.391	36246.46
656.742	36372.56
657.094	36378.66
657.445	36498.43
657.796	36437.64
658.147	36411.66
658.498	36281.72
658.849	36519
659.2	36422.73
659.551	36318.78
659.902	36504.99
660.253	36434.93
660.604	36502.05
660.955	36368.27
661.306	36425.89
661.656	36209.85
662.007	36324.43
662.358	36284.65
662.708	36383.18
663.059	36052.34
663.409	36020.48
663.76	36229.74
664.11	36300.92
664.461	36230.42
664.811	36212.11
665.161	36115.62
665.511	36104.55
665.862	36208.05
666.212	36309.06
666.562	36289.4
666.912	36240.81
667.262	36222.51
667.612	36286.24
667.962	36122.62
668.312	36044.66
668.662	36288.72
669.011	36230.19
669.361	36296.4
669.711	36010.54
670.06	36034.72
670.41	36111.55
670.76	36050.76
671.109	36150.42
671.459	36090.76
671.808	35992.91
672.157	36036.07
672.507	35821.61
672.856	36003.3
673.205	35893.25
673.554	36040.37
673.904	35929.18
674.253	36067.03
674.602	35880.14
674.951	35444.9
675.3	35196.09
675.649	35859.35
675.998	35880.6
676.346	35792.46
676.695	36039.46
677.044	35673.82
677.393	35751.79
677.741	35798.79
678.09	35738
678.438	35644.44
678.787	35695.52
679.135	35714.5
679.484	35543.66
679.832	35629.98
680.181	35386.15
680.529	35572.58
680.877	35372.81
681.225	35479.02
681.573	35561.28
681.922	35285.36
682.27	35243.32
682.618	35256.88
682.966	35075.87
683.314	35148.19
683.661	35188.41
684.009	35013.73
684.357	34991.58
684.705	34839.72
685.053	34914.97
685.4	34850.11
685.748	34683.57
686.095	34809.44
686.443	34491.71
686.79	34629.78
687.138	34667.29
687.485	34470.69
687.832	34488.54
688.18	34394.31
688.527	34338.72
688.874	34349.79
689.221	34194.54
689.568	34061.89
689.915	33988.22
690.262	34046.07
690.609	33938.05
690.956	33740.99
691.303	33699.86
691.65	33732.4
691.997	33543.48
692.344	33348.23
692.69	33416.48
693.037	33390.94
693.383	33132.65
693.73	33287.22
694.077	33084.51
694.423	33004.97
694.769	32909.37
695.116	32910.73
695.462	32815.37
695.808	32656.05
696.155	32659.21
696.501	32520.01
696.847	32533.11
697.193	32403.17
697.539	32576.05
697.885	32184.87
698.231	32046.8
698.577	32070.75
698.923	32057.65
699.269	31869.63
699.614	31686.58
699.96	31624.66
700.306	31793.7
700.651	31516.87
700.997	31359.81
701.342	31422.63
701.688	31447.94
702.033	31235.29
702.379	31377.44
702.724	31126.37
703.069	31209.08
703.415	30758.02
703.76	30877.79
704.105	30905.36
704.45	31005.02
704.795	30639.15
705.14	30579.27
705.485	30410.91
705.83	30433.06
706.175	30450
706.52	30188.09
706.865	30212.72
707.209	30180.63
707.554	30091.14
707.899	30237.13
708.243	29997.81
708.588	30002.56
708.932	29747.65
709.277	29742
709.621	29835.11
709.966	29565.51
710.31	29598.73
710.654	29523.02
710.998	29504.72
711.342	29530.71
711.687	29330.03
712.031	29277.83
712.375	29128.46
712.719	29199.19
713.063	29125.97
713.407	29246.42
713.75	29038.97
714.094	28945.86
714.438	28951.51
714.782	28947.22
715.125	28717.39
715.469	28948.12
715.812	28595.36
716.156	28554.01
716.499	28550.39
716.843	28559.88
717.186	28424.07
717.53	28570.73
717.873	28482.6
718.216	28407.35
718.559	28397.86
718.902	28101.37
719.246	28213.68
719.589	28116.05
719.932	27982.72
720.275	28034.02
720.617	28003.52
720.96	27855.72
721.303	27977.98
721.646	27900.69
721.989	27719.91
722.331	27669.51
722.674	27636.29
723.016	27669.29
723.359	27554.94
723.701	27567.14
724.044	27496.86
724.386	27331.22
724.729	27416.19
725.071	27292.12
725.413	27263.65
725.755	27270.88
726.097	27087.61
726.439	27002.19
726.782	27088.06
727.124	27247.6
727.465	27065.46
727.807	27016.65
728.149	26987.5
728.491	27010.09
728.833	27024.56
729.175	26853.04
729.516	26921.28
729.858	26881.06
730.199	26776.88
730.541	26715.87
730.882	26657.34
731.224	26815.75
731.565	26529.88
731.906	26502.54
732.248	26545.02
732.589	26422.09
732.93	26355.87
733.271	26370.34
733.612	26435.42
733.953	26438.58
734.294	26374.41
734.635	26138.71
734.976	26366.04
735.317	26238.14
735.658	26108.2
735.999	26095.09
736.339	25954.08
736.68	26097.8
737.021	26155.2
737.361	25960.86
737.702	26044.02
738.042	25938.71
738.383	25911.37
738.723	25898.26
739.063	25770.13
739.404	25888.99
739.744	25766.74
740.084	25564.94
740.424	25765.61
740.764	25594.76
741.104	25682.9
741.444	25505.5
741.784	25389.35
742.124	25506.18
742.464	25488.1
742.804	25409.01
743.143	25307.31
743.483	25456.01
743.823	25286.98
744.162	25321.1
744.502	25250.59
744.841	25190.93
745.181	25272.74
745.52	25070.26
745.86	25239.07
746.199	25052.86
746.538	24942.8
746.877	25168.11
747.216	25081.11
747.556	24982.58
747.895	24907.55
748.234	24787.55
748.573	24851.96
748.911	24867.1
749.25	24734.67
749.589	24724.51
749.928	24608.58
750.267	24605.86
750.605	24599.76
750.944	24526.54
751.283	24405.87
751.621	24487.9
751.96	24392.54
752.298	24402.03
752.636	24395.93
752.975	24192.99
753.313	24172.88
753.651	24319.32
753.989	24229.6
754.327	24120.68
754.666	24053.11
755.004	24075.48
755.342	24039.55
755.679	23997.07
756.017	23938.09
756.355	23903.51
756.693	23815.6
757.031	23840.46
757.368	23671.43
757.706	23744.64
758.044	23523.18
758.381	23634.59
758.719	23456.06
759.056	23378.33
759.394	23325.45
759.731	23286.13
760.068	23250.87
760.405	23183.53
760.743	23008.84
761.08	23155.51
761.417	22971.78
761.754	22934.04
762.091	22922.52
762.428	22872.35
762.765	22652.92
763.102	22699.7
763.438	22640.04
763.775	22483.66
764.112	22543.09
764.449	22464.68
764.785	22350.1
765.122	22403.66
765.458	22271.24
765.795	22143.56
766.131	22091.13
766.467	22089.32
766.804	22002.32
767.14	21919.61
767.476	21927.74
767.812	21763.23
768.148	21735.43
768.485	21641.2
768.821	21508.09
769.157	21483.69
769.492	21410.47
769.828	21435.55
770.164	21299.96
770.5	21311.71
770.836	21221.32
771.171	21045.28
771.507	21008.22
771.842	20764.84
772.178	20826.98
772.513	20782.24
772.849	20692.97
773.184	20665.85
773.519	20663.82
773.855	20483.49
774.19	20438.29
774.525	20374.56
774.86	20289.14
775.195	20241.91
775.53	20130.05
775.865	20160.56
776.2	19979.09
776.535	19805.31
776.87	19942.48
777.205	19707.91
777.539	19624.3
777.874	19701.13
778.209	19514.25
778.543	19563.74
778.878	19363.06
779.212	19398.09
779.547	19319
779.881	19307.7
780.215	19131.88
780.55	19225.21
780.884	18986.35
781.218	18938.22
781.552	19003.75
781.886	18820.03
782.22	18819.58
782.554	18765.57
782.888	18545.68
783.222	18520.6
783.556	18491.67
783.889	18407.61
784.223	18253.94
784.557	18223.43
784.89	18254.39
785.224	18054.4
785.557	18073.15
785.891	18061.18
786.224	17952.25
786.558	17965.81
786.891	17780.28
787.224	17714.75
787.557	17685.59
787.891	17684.46
788.224	17492.15
788.557	17492.38
788.89	17502.1
789.223	17385.94
789.556	17333.74
789.888	17250.35
790.221	17278.83
790.554	17096.91
790.887	17109.34
791.219	17001.09
791.552	16970.13
791.884	16856.01
792.217	16870.7
792.549	16837.93
792.882	16636.81
793.214	16640.42
793.546	16660.99
793.879	16591.16
794.211	16495.34
794.543	16519.75
794.875	16420.09
795.207	16435.91
795.539	16286.54
795.871	16376.02
796.203	16176.26
796.535	16083.38
796.867	16137.61
797.198	15954.57
797.53	15945.08
797.862	15893.1
798.193	15981.23
798.525	15905.53
798.856	15803.84
799.188	15650.17
799.519	15671.41
799.85	15662.82
800.182	15622.37
800.513	15541.7
800.844	15345.99
801.175	15518.87
801.506	15457.86
801.837	15399.78
802.168	15340.57
802.499	15348.71
802.83	15218.31
803.161	15133.57
803.491	15060.8
803.822	15046.34
804.153	15076.17
804.483	14924.31
804.814	14846.8
805.145	14863.52
805.475	14877.98
805.805	14693.36
806.136	14723.19
806.466	14775.16
806.796	14632.12
807.126	14554.38
807.457	14592.57
807.787	14532.68
808.117	14470.31
808.447	14380.37
808.777	14454.27
809.107	14406.13
809.436	14361.61
809.766	14430.31
810.096	14357.09
810.426	14300.82
810.755	14271.9
811.085	14298.79
811.414	14179.25
811.744	14040.49
812.073	14062.41
812.403	13995.52
812.732	13938.57
813.061	14009.08
813.39	13868.07
813.719	13834.62
814.049	13960.72
814.378	13882.53
814.707	13748.97
815.036	13791.01
815.365	13653.61
815.693	13530.9
816.022	13625.36
816.351	13581.75
816.68	13515.08
817.008	13532.03
817.337	13380.4
817.665	13475.31
817.994	13444.12
818.322	13348.53
818.651	13261.76
818.979	13295.2
819.307	13338.59
819.636	13219.5
819.964	13159.84
820.292	13237.35
820.62	13193.51
820.948	13097.24
821.276	13200.74
821.604	13119.39
821.932	13093.4
822.259	13186.05
822.587	13100.63
822.915	13083.46
823.243	13191.93
823.57	13065.15
823.898	13114.87
824.225	13020.63
824.553	12979.96
824.88	13067.86
825.207	13089.78
825.535	13007.53
825.862	13116.45
826.189	13019.73
826.516	13049.33
826.843	13082.1
827.17	13026.96
827.497	13089.56
827.824	13066.28
828.151	13083
828.478	13144.24
828.805	13133.4
829.131	12951.48
829.458	13000.29
829.785	12954.65
830.111	13022.67
830.438	13132.04
830.764	13002.1
831.09	13031.48
831.417	12912.84
831.743	13034.64
832.069	13017.24
832.395	12945.83
832.722	13023.57
833.048	12990.35
833.374	12900.64
833.7	12938.37
834.026	12925.49
834.351	12894.31
834.677	12864.03
835.003	12925.49
835.329	12878.94
835.654	12766.4
835.98	12771.6
836.306	12765.05
836.631	12676.23
836.956	12739.51
837.282	12889.11
837.607	12676.69
837.932	12714.43
838.258	12725.5
838.583	12737.02
838.908	12643.92
839.233	12658.61
839.558	12642.56
839.883	12562.34
840.208	12536.58
840.533	12613.19
840.858	12551.04
841.182	12528.44
841.507	12527.76
841.832	12482.34
842.156	12381.33
842.481	12412.96
842.805	12334.77
843.13	12220.65
843.454	12327.54
843.778	12234.66
844.103	12227.66
844.427	12224.72
844.751	12226.3
845.075	12118.51
845.399	12088.45
845.723	12080.09
846.047	12090.71
846.371	11921.68
846.695	11939.76
847.019	11882.13
847.343	11759.87
847.666	11770.72
847.99	11756.26
848.313	11683.94
848.637	11616.15
848.96	11619.31
849.284	11604.17
849.607	11481.92
849.931	11462.71
850.254	11402.14
850.577	11398.75
850.9	11249.83
851.223	11277.4
851.546	11200.12
851.869	11125.09
852.192	11188.36
852.515	11119.21
852.838	10977.3
853.161	11038.31
853.483	10941.82
853.806	10895.49
854.129	10892.78
854.451	10866.34
854.774	10844.64
855.096	10751.77
855.419	10801.71
855.741	10752.44
856.063	10739.79
856.385	10632.45
856.708	10681.94
857.03	10597.19
857.352	10554.48
857.674	10520.58
857.996	10583.86
858.318	10482.62
858.64	10465.67
858.961	10405.79
859.283	10415.28
859.605	10395.84
859.926	10362.4
860.248	10257.54
860.57	10237.88
860.891	10204.21
861.212	10227.26
861.534	10212.34
861.855	10180.48
862.176	10181.61
862.498	10127.83
862.819	10154.94
863.14	10095.06
863.461	10054.38
863.782	10036.53
864.103	10013.71
864.424	9964.44
864.745	10016.19
865.065	9943.2
865.386	9940.26
865.707	9955.85
866.027	9837.67
866.348	9841.28
866.668	9852.81
866.989	9865.69
867.309	9825.91
867.63	9886.25
867.95	9765.8
868.27	9766.25
868.59	9780.04
868.91	9759.25
869.23	9703.43
869.55	9680.83
869.87	9789.53
870.19	9643.09
870.51	9682.41
870.83	9689.42
871.15	9604.45
871.469	9637.44
871.789	9660.04
872.109	9625.24
872.428	9511.12
872.748	9605.58
873.067	9608.74
873.386	9550.67
873.706	9503.21
874.025	9462.08
874.344	9466.15
874.663	9519.03
874.982	9450.33
875.301	9415.08
875.62	9454.4
875.939	9372.82
876.258	9422.31
876.577	9324.01
876.896	9349.99
877.214	9281.97
877.533	9313.16
877.852	9293.72
878.17	9264.35
878.489	9325.36
878.807	9268.64
879.125	9310.67
879.444	9231.35
879.762	9172.6
880.08	9227.29
880.398	9176.21
880.716	9170.34
881.034	9067.74
881.352	9133.5
881.67	9165.59
881.988	9128.98
882.306	9053.05
882.624	9058.93
882.941	9027.52
883.259	9037.23
883.577	8970.12
883.894	8957.01
884.212	8960.63
884.529	8932.83
884.846	8928.08
885.164	8902.55
885.481	8900.74
885.798	8838.14
886.115	8833.62
886.432	8856
886.75	8790.23
887.067	8833.17
887.383	8794.53
887.7	8759.28
888.017	8732.61
888.334	8728.77
888.651	8649.67
888.967	8630.69
889.284	8580.75
889.6	8671.14
889.917	8529.9
890.233	8572.61
890.55	8479.28
890.866	8474.99
891.182	8456.23
891.498	8474.31
891.815	8388.66
892.131	8435.89
892.447	8399.96
892.763	8347.08
893.079	8292.62
893.395	8352.51
893.71	8270.7
894.026	8232.28
894.342	8247.65
894.657	8199.06
894.973	8209.46
895.289	8199.06
895.604	8193.64
895.92	8086.07
896.235	8010.14
896.55	8022.35
896.865	8013.53
897.181	7983.25
897.496	7996.58
897.811	7931.05
898.126	7836.14
898.441	7863.48
898.756	7852.63
899.071	7870.26
899.386	7800.88
899.7	7757.27
900.015	7735.57
900.33	7695.8
900.644	7679.98
900.959	7691.51
901.273	7618.51
901.588	7572.64
901.902	7595.69
902.216	7517.95
902.531	7506.43
902.845	7461.23
903.159	7378.52
903.473	7404.73
903.787	7390.5
904.101	7352.98
904.415	7376.71
904.729	7329.93
905.042	7320.44
905.356	7235.47
905.67	7249.94
905.984	7246.32
906.297	7142.82
906.611	7183.72
906.924	7185.08
907.237	7147.34
907.551	7088.81
907.864	7062.37
908.177	7106.89
908.491	7037.96
908.804	6995.71
909.117	6948.48
909.43	6916.84
909.743	6887.91
910.056	6830.51
910.368	6821.7
910.681	6863.05
910.994	6790.29
911.307	6738.09
911.619	6779.67
911.932	6649.95
912.244	6705.32
912.557	6651.31
912.869	6581.25
913.181	6595.72
913.494	6553.01
913.806	6523.18
914.118	6514.36
914.43	6441.6
914.742	6510.52
915.054	6415.16
915.366	6437.3
915.678	6436.85
915.99	6378.1
916.302	6295.61
916.613	6264.2
916.925	6220.13
917.236	6264.2
917.548	6207.93
917.859	6186.69
918.171	6144.65
918.482	6143.52
918.794	6122.73
919.105	6071.21
919.416	6056.97
919.727	5980.59
920.038	6043.19
920.349	6006.13
920.66	5929.75
920.971	5963.87
921.282	5969.97
921.593	5911.89
921.903	5842.52
922.214	5819.47
922.525	5875.74
922.835	5782.63
923.146	5747.15
923.456	5738.34
923.767	5715.06
924.077	5725.46
924.387	5712.8
924.697	5671.45
925.008	5672.12
925.318	5609.3
925.628	5623.76
925.938	5574.95
926.248	5536.08
926.558	5531.11
926.867	5482.53
927.177	5491.79
927.487	5477.33
927.796	5402.75
928.106	5483.43
928.416	5395.07
928.725	5358.01
929.034	5328.41
929.344	5335.18
929.653	5307.84
929.962	5330.66
930.271	5231.23
930.581	5212.02
930.89	5181.06
931.199	5248.63
931.508	5181.29
931.817	5134.51
932.125	5132.25
932.434	5099.94
932.743	5069.88
933.051	5052.25
933.36	5017.45
933.669	4973.39
933.977	4974.06
934.286	4980.39
934.594	4908.76
934.902	4931.35
935.21	4913.05
935.519	4902.2
935.827	4841.19
936.135	4829.21
936.443	4795.09
936.751	4798.7
937.059	4820.4
937.367	4774.75
937.674	4723.22
937.982	4709.44
938.29	4660.85
938.597	4691.13
938.905	4674.19
939.213	4637.35
939.52	4588.99
939.827	4626.05
940.135	4554.87
940.442	4542.66
940.749	4532.04
941.056	4539.27
941.363	4449.33
941.67	4478.94
941.977	4479.16
942.284	4422.89
942.591	4426.51
942.898	4407.07
943.205	4403.23
943.511	4377.02
943.818	4378.15
944.125	4284.82
944.431	4319.17
944.738	4282.78
945.044	4254.99
945.35	4309.22
945.657	4226.97
945.963	4236
946.269	4155.1
946.575	4195.1
946.881	4141.32
947.187	4136.8
947.493	4127.98
947.799	4089.34
948.105	4103.35
948.41	4059.96
948.716	4084.14
949.022	4035.11
949.327	4022.22
949.633	3989.01
949.938	4010.7
950.244	3998.5
950.549	3936.35
950.854	3936.35
951.16	3902
951.465	3916.92
951.77	3902.91
952.075	3873.08
952.38	3865.17
952.685	3837.82
952.99	3802.57
953.294	3850.7
953.599	3826.3
953.904	3781.55
954.209	3754.89
954.513	3765.51
954.818	3697.71
955.122	3733.64
955.426	3685.28
955.731	3680.99
956.035	3681.22
956.339	3629.69
956.643	3672.4
956.948	3610.71
957.252	3575
957.556	3618.39
957.86	3546.98
958.163	3563.03
958.467	3553.99
958.771	3535.91
959.075	3528.45
959.378	3502.01
959.682	3492.97
959.985	3476.7
960.289	3456.14
960.592	3449.81
960.896	3466.31
961.199	3399.64
961.502	3359.42
961.805	3394.9
962.108	3351.73
962.411	3355.12
962.714	3340.21
963.017	3303.6
963.32	3361
963.623	3308.57
963.926	3310.38
964.228	3285.75
964.531	3270.61
964.833	3236.93
965.136	3219.76
965.438	3212.53
965.741	3207.56
966.043	3209.59
966.345	3199.65
966.648	3156.03
966.95	3175.92
967.252	3105.86
967.554	3131.4
967.856	3117.84
968.158	3079.42
968.46	3063.15
968.761	3070.84
969.063	3035.81
969.365	2998.52
969.666	3041.69
969.968	2979.09
970.269	3007.56
970.571	2990.84
970.872	2934.57
971.174	2953.78
971.475	2954.91
971.776	2951.07
972.077	2898.41
972.378	2888.7
972.679	2886.21
972.98	2906.1
973.281	2906.77
973.582	2870.84
973.883	2828.36
974.183	2843.72
974.484	2825.19
974.785	2818.87
975.085	2825.87
975.386	2799.21
975.686	2728.47
975.986	2737.29
976.287	2779.55
976.587	2723.5
976.887	2693.9
977.187	2723.5
977.487	2735.25
977.787	2707.01
978.087	2651.19
978.387	2629.04
978.687	2618.19
978.987	2646.67
979.286	2592.88
979.586	2596.27
979.885	2582.71
980.185	2571.87
980.484	2576.39
980.784	2582.94
981.083	2565.54
981.382	2542.49
981.682	2582.94
981.981	2538.65
982.28	2535.26
982.579	2493.68
982.878	2489.38
983.177	2495.49
983.475	2530.74
983.774	2462.94
984.073	2486.45
984.372	2458.42
984.67	2443.96
984.969	2444.87
985.267	2407.58
985.566	2440.8
985.864	2388.37
986.162	2350.18
986.461	2344.3
986.759	2369.16
987.057	2344.53
987.355	2325.77
987.653	2324.64
987.951	2316.51
988.249	2296.62
988.547	2318.99
988.844	2299.78
989.142	2311.76
989.44	2267.24
989.737	2233.8
990.035	2252.78
990.332	2227.7
990.63	2225.66
990.927	2222.05
991.224	2218.88
991.521	2184.08
991.819	2205.55
992.116	2156.96
992.413	2172.33
992.71	2145.21
993.006	2138.66
993.303	2159.9
993.6	2140.47
993.897	2164.19
994.193	2089.39
994.49	2101.82
994.787	2073.12
995.083	2071.77
995.379	2047.14
995.676	2047.81
995.972	2047.81
996.268	2016.4
996.565	2027.02
996.861	2050.07
997.157	2029.51
997.453	2009.62
997.749	2003.97
998.044	1964.88
998.34	1954.71
998.636	1986.12
998.932	1980.7
999.227	1927.59
999.523	1942.05
999.818	1916.74
1000.114	1925.78
1000.409	1894.6
1000.704	1923.75
1001	1883.3
1001.295	1881.49
1001.59	1922.39
1001.885	1853.69
1002.18	1879.46
1002.475	1845.11
1002.77	1841.94
1003.065	1796.29
1003.359	1795.84
1003.654	1786.35
1003.949	1824.99
1004.243	1777.76
1004.538	1777.31
1004.832	1765.33
1005.127	1759.01
1005.421	1746.58
1005.715	1722.62
1006.009	1705.68
1006.304	1703.87
1006.598	1693.25
1006.892	1705.9
1007.186	1674.49
1007.48	1709.52
1007.773	1685.56
1008.067	1648.5
1008.361	1618.45
1008.655	1618.45
1008.948	1643.98
1009.242	1636.3
1009.535	1637.65
1009.829	1601.05
1010.122	1596.98
1010.415	1590.88
1010.708	1595.62
1011.001	1597.88
1011.295	1532.8
1011.588	1588.62
1011.881	1526.47
1012.173	1533.02
1012.466	1518.79
1012.759	1534.83
1013.052	1514.27
1013.344	1483.31
1013.637	1508.84
1013.93	1461.84
1014.222	1493.48
1014.514	1467.94
1014.807	1477.43
1015.099	1469.3
1015.391	1475.85
1015.683	1445.8
1015.976	1453.48
1016.268	1417.1
1016.56	1418.45
1016.851	1377.55
1017.143	1402.63
1017.435	1387.27
1017.727	1373.03
1018.018	1364.89
1018.31	1367.38
1018.602	1349.07
1018.893	1376.64
1019.185	1348.62
1019.476	1324.67
1019.767	1316.08
1020.058	1331.45
1020.35	1307.27
1020.641	1286.7
1020.932	1285.35
1021.223	1279.02
1021.514	1280.83
1021.804	1276.76
1022.095	1262.52
1022.386	1257.1
1022.677	1241.28
1022.967	1255.52
1023.258	1200.6
1023.548	1206.93
1023.839	1215.97
1024.129	1184.33
1024.419	1196.76
1024.709	1201.51
1025	1178.46
1025.29	1174.39
1025.58	1163.32
1025.87	1152.7
1026.16	1152.7
1026.449	1152.7
1026.739	1136.65
1027.029	1104.79
1027.319	1122.41
1027.608	1136.2
1027.898	1130.1
1028.187	1100.72
1028.477	1100.49
1028.766	1091.91
1029.055	1068.4
1029.344	1076.54
1029.634	1055.98
1029.923	1059.59
1030.212	1029.99
1030.501	1050.55
1030.79	1011
1031.078	1046.94
1031.367	1016.65
1031.656	1021.85
1031.945	1025.47
1032.233	1028.86
1032.522	1009.87
1032.81	988.86
1033.099	956.77
1033.387	993.6
1033.675	976.43
1033.963	955.19
1034.251	978.69
1034.54	962.42
1034.828	972.81
1035.116	954.06
1035.403	935.07
1035.691	955.64
1035.979	917.9
1036.267	935.53
1036.554	909.09
1036.842	913.61
1037.129	912.93
1037.417	913.38
1037.704	881.52
1037.992	890.56
1038.279	895.3
1038.566	885.58
1038.853	885.58
1039.14	885.58
