Data from hue_34_FLMS001491_00030.txt Node
Date: Tue Feb 07 17:25:25 GMT 2017
User: dcchb
Spectrometer: FLMS00149
Trigger mode: 0
Integration Time (sec): 2.000000E-2
Scans to average: 10
Electric dark correction enabled: true
Nonlinearity correction enabled: false
Boxcar width: 0
XAxis mode: Wavelengths
Number of Pixels in Spectrum: 2048
>>>>>Begin Spectral Data<<<<<
341.393	-13.12
341.776	-13.12
342.16	-13.12
342.543	-45.21
342.927	-57.87
343.31	-66
343.693	-77.98
344.077	-74.81
344.46	-61.93
344.843	-59.22
345.226	-34.82
345.61	-26.68
345.993	-5.89
346.376	4.96
346.759	4.73
347.142	48.57
347.525	24.62
347.908	41.79
348.291	74.33
348.674	93.77
349.057	114.56
349.44	133.09
349.823	146.42
350.206	174.9
350.588	189.13
350.971	195.69
351.354	224.39
351.737	251.73
352.119	246.08
352.502	284.5
352.884	291.05
353.267	262.8
353.65	330.6
354.032	313.2
354.414	302.35
354.797	299.19
355.179	327.89
355.562	335.12
355.944	314.78
356.326	326.3
356.709	338.51
357.091	345.29
357.473	364.27
357.855	359.75
358.238	352.74
358.62	355.91
359.002	342.58
359.384	357.04
359.766	350.94
360.148	326.53
360.53	355.91
360.912	344.38
361.294	337.15
361.676	344.84
362.057	335.8
362.439	335.34
362.821	332.41
363.203	348.68
363.584	329.69
363.966	325.18
364.348	333.76
364.729	340.54
365.111	331.5
365.493	314.78
365.874	334.44
366.256	318.62
366.637	307.1
367.019	310.26
367.4	332.18
367.781	331.95
368.163	328.11
368.544	297.61
368.925	330.15
369.306	308
369.688	305.74
370.069	317.49
370.45	324.5
370.831	310.03
371.212	306.64
371.593	315.23
371.974	319.3
372.355	327.66
372.736	302.8
373.117	333.99
373.498	335.34
373.879	343.03
374.26	319.75
374.641	333.31
375.021	312.29
375.402	312.52
375.783	332.18
376.163	348
376.544	330.15
376.925	332.86
377.305	326.3
377.686	334.67
378.066	319.53
378.447	319.98
378.827	330.15
379.208	347.32
379.588	341.22
379.968	340.99
380.349	335.57
380.729	322.01
381.109	367.66
381.489	338.73
381.87	317.72
382.25	350.26
382.63	352.29
383.01	337.83
383.39	363.37
383.77	348
384.15	351.39
384.53	333.99
384.91	352.52
385.29	349.58
385.67	349.81
386.049	361.56
386.429	349.58
386.809	358.85
387.189	352.52
387.568	369.02
387.948	349.36
388.328	354.78
388.707	354.78
389.087	352.29
389.466	373.76
389.846	365.17
390.225	350.94
390.605	372.63
390.984	382.35
391.363	369.92
391.743	365.63
392.122	375.8
392.501	382.35
392.881	372.41
393.26	392.74
393.639	382.35
394.018	372.41
394.397	374.67
394.776	399.52
395.155	375.12
395.534	387.77
395.913	377.38
396.292	381.44
396.671	387.32
397.05	393.87
397.429	398.85
397.808	395.91
398.186	387.77
398.565	380.99
398.944	381.22
399.323	390.94
399.701	366.98
400.08	393.42
400.458	381.67
400.837	388
401.215	407.66
401.594	415.57
401.972	385.06
402.351	418.05
402.729	395
403.107	390.03
403.486	406.75
403.864	404.5
404.242	407.66
404.62	419.41
404.999	432.52
405.377	410.6
405.755	426.87
406.133	410.37
406.511	414.21
406.889	425.51
407.267	422.35
407.645	437.04
408.023	433.87
408.401	423.93
408.779	432.74
409.156	428.68
409.534	447.21
409.912	432.06
410.29	466.64
410.667	448.34
411.045	449.47
411.422	456.47
411.8	451.5
412.178	489.92
412.555	466.87
412.933	469.13
413.31	460.09
413.687	488.33
414.065	472.06
414.442	489.01
414.819	459.18
415.197	477.26
415.574	470.26
415.951	447.21
416.328	484.72
416.705	477.94
417.082	503.7
417.46	491.5
417.837	509.58
418.214	494.21
418.591	508.9
418.967	488.79
419.344	509.58
419.721	533.08
420.098	503.02
420.475	496.02
420.852	521.55
421.228	523.36
421.605	529.24
421.982	528.56
422.358	517.26
422.735	550.93
423.111	524.04
423.488	543.02
423.864	533.53
424.241	535.79
424.617	557.94
424.994	551.84
425.37	520.65
425.746	557.26
426.123	536.02
426.499	554.55
426.875	556.58
427.251	588.9
427.627	584.38
428.003	585.96
428.379	585.96
428.756	590.7
429.132	609.91
429.507	590.7
429.883	594.55
430.259	595.45
430.635	623.02
431.011	603.36
431.387	631.83
431.763	607.43
432.138	630.25
432.514	607.88
432.89	626.86
433.265	645.62
433.641	663.7
434.016	682.23
434.392	681.1
434.767	678.84
435.143	664.15
435.518	676.58
435.894	703.24
436.269	683.36
436.644	684.49
437.02	682.45
437.395	678.39
437.77	695.79
438.145	706.63
438.52	706.86
438.895	715.22
439.271	717.93
439.646	746.86
440.021	735.56
440.395	756.35
440.77	735.79
441.145	724.49
441.52	759.29
441.895	741.44
442.27	758.61
442.645	768.55
443.019	767.2
443.394	766.97
443.769	761.55
444.143	774.65
444.518	748.21
444.892	770.81
445.267	767.42
445.641	773.75
446.016	793.19
446.39	796.58
446.764	813.07
447.139	806.74
447.513	781.89
447.887	824.14
448.262	795.45
448.636	811.26
449.01	831.38
449.384	834.54
449.758	830.02
450.132	834.99
450.506	846.74
450.88	827.76
451.254	830.7
451.628	859.4
452.002	888.78
452.376	861.21
452.75	887.87
453.123	877.48
453.497	891.71
453.871	899.62
454.244	890.58
454.618	930.81
454.992	915.22
455.365	936.01
455.739	938.49
456.112	947.53
456.486	933.75
456.859	974.88
457.232	964.03
457.606	1002.67
457.979	1015.33
458.352	1002.9
458.725	1007.87
459.099	1022.33
459.472	1042.9
459.845	1036.34
460.218	1060.75
460.591	1070.92
460.964	1082.9
461.337	1103.69
461.71	1102.1
462.083	1100.97
462.456	1112.72
462.829	1118.37
463.201	1167.19
463.574	1164.48
463.947	1162.89
464.32	1149.56
464.692	1173.74
465.065	1185.72
465.438	1197.02
465.81	1220.97
466.183	1253.51
466.555	1265.49
466.928	1279.73
467.3	1291.03
467.672	1306.84
468.045	1369.89
468.417	1370.8
468.789	1369.89
469.161	1390.23
469.534	1379.38
469.906	1429.55
470.278	1421.42
470.65	1441.76
471.022	1501.42
471.394	1516.1
471.766	1528.76
472.138	1545.93
472.51	1603.11
472.882	1599.72
473.253	1651.24
473.625	1657.34
473.997	1691.01
474.369	1716.1
474.74	1771.01
475.112	1796.1
475.484	1821.41
475.855	1870.45
476.227	1886.26
476.598	1949.54
476.97	1982.08
477.341	2016.2
477.713	2064.11
478.084	2089.87
478.455	2188.4
478.827	2200.61
479.198	2291.45
479.569	2277.67
479.94	2345.01
480.311	2389.3
480.682	2487.83
481.053	2572.12
481.424	2595.17
481.795	2653.93
482.166	2724.43
482.537	2743.19
482.908	2862.06
483.279	2898.67
483.65	2953.13
484.021	3029.51
484.391	3141.82
484.762	3196.06
485.133	3205.78
485.503	3290.97
485.874	3410.29
486.244	3474.47
486.615	3589.95
486.985	3656.84
487.356	3707.46
487.726	3775.03
488.097	3869.94
488.467	3926.89
488.837	4069.03
489.207	4152.87
489.578	4246.88
489.948	4290.27
490.318	4374.56
490.688	4471.96
491.058	4528
491.428	4681.22
491.798	4740.88
492.168	4865.62
492.538	4912.85
492.908	5006.63
493.278	5120.76
493.648	5143.81
494.017	5240.53
494.387	5326.17
494.757	5430.58
495.126	5533.63
495.496	5608.65
495.866	5658.37
496.235	5743.34
496.605	5864.92
496.974	5869.89
497.344	5971.81
497.713	6036.89
498.082	6079.15
498.452	6189.88
498.821	6260.61
499.19	6326.15
499.559	6408.63
499.928	6479.82
500.298	6515.97
500.667	6586.25
501.036	6635.29
501.405	6708.28
501.774	6776.76
502.143	6823.99
502.512	6935.17
502.88	6965.9
503.249	7015.62
503.618	7157.31
503.987	7193.02
504.356	7212.45
504.724	7298.78
505.093	7285.22
505.462	7294.48
505.83	7470.3
506.199	7550.52
506.567	7644.3
506.936	7670.74
507.304	7731.99
507.672	7779.67
508.041	7808.59
508.409	7915.26
508.777	7954.13
509.145	7996.61
509.514	8100.34
509.882	8178.08
510.25	8159.09
510.618	8222.14
510.986	8218.3
511.354	8312.99
511.722	8376.49
512.09	8486.32
512.458	8471.85
512.826	8519.54
513.193	8626.2
513.561	8618.74
513.929	8703.26
514.297	8764.05
514.664	8753.2
515.032	8875.01
515.4	8894.89
515.767	9019.64
516.135	9049.69
516.502	8934.67
516.869	9070.48
517.237	9172.17
517.604	9146.19
517.972	9213.08
518.339	9275
518.706	9275.9
519.073	9362
519.44	9380.3
519.808	9518.15
520.175	9437.93
520.542	9635.21
520.909	9638.83
521.276	9584.59
521.643	9728.54
522.009	9802.44
522.376	9872.27
522.743	9853.96
523.11	10045.37
523.477	10085.82
523.843	10107.52
524.21	10212.82
524.577	10253.73
524.943	10369.2
525.31	10362.2
525.676	10516.77
526.043	10434.29
526.409	10536.43
526.776	10556.54
527.142	10691.91
527.508	10656.43
527.874	10787.05
528.241	10850.32
528.607	10852.58
528.973	10951.11
529.339	10930.09
529.705	11039.92
530.071	11136.87
530.437	11256.87
530.803	11266.81
531.169	11357.2
531.535	11326.92
531.901	11346.13
532.267	11492.79
532.632	11491.44
532.998	11530.08
533.364	11618.44
533.73	11666.12
534.095	11800.35
534.461	11804.2
534.826	11878.09
535.192	11866.79
535.557	11980.46
535.923	11990.18
536.288	12021.59
536.653	12042.61
537.019	12087.35
537.384	12185.65
537.749	12212.32
538.114	12238.31
538.479	12252.77
538.845	12294.35
539.21	12351.07
539.575	12391.07
539.94	12477.17
540.305	12580.9
540.67	12594.46
541.034	12572.31
541.399	12634.23
541.764	12669.26
542.129	12690.73
542.494	12757.62
542.858	12857.05
543.223	12892.3
543.587	12969.59
543.952	12962.36
544.316	13097.27
544.681	13042.58
545.045	13187.44
545.41	13192.41
545.774	13189.02
546.138	13250.26
546.503	13325.51
546.867	13319.64
547.231	13428.11
547.595	13469.01
547.959	13573.19
548.324	13593.98
548.688	13497.03
549.052	13584.94
549.416	13641.21
549.779	13764.82
550.143	13658.84
550.507	13852.73
550.871	13894.54
551.235	13900.64
551.599	13935.89
551.962	13974.31
552.326	14036.9
552.689	14129.11
553.053	14088.65
553.417	14157.13
553.78	14312.38
554.143	14278.48
554.507	14384.47
554.87	14353.96
555.234	14530.9
555.597	14475.76
555.96	14472.37
556.323	14532.49
556.686	14548.3
557.05	14635.53
557.413	14595.99
557.776	14694.51
558.139	14831.46
558.502	14870.1
558.865	14948.75
559.228	15081.62
559.59	15032.81
559.953	15118.01
560.316	15195.29
560.679	15155.52
561.041	15281.84
561.404	15414.27
561.767	15430.77
562.129	15395.74
562.492	15492.91
562.854	15492.91
563.217	15532.46
563.579	15581.05
563.941	15688.61
564.304	15727.71
564.666	15880.47
565.028	15906.01
565.39	15850.19
565.753	16011.54
566.115	16011.99
566.477	16131.31
566.839	16183.74
567.201	16355.04
567.563	16271.65
567.925	16351.87
568.287	16344.19
568.648	16450.85
569.01	16515.03
569.372	16595.93
569.734	16601.58
570.095	16722.71
570.457	16748.47
570.819	16840.45
571.18	16812.88
571.542	16942.82
571.903	16971.74
572.265	17131.29
572.626	17156.82
572.987	17388
573.349	17477.04
573.71	17424.16
574.071	17594.78
574.432	17567.43
574.794	17824.15
575.155	17755.9
575.516	17770.14
575.877	17933.98
576.238	18014.88
576.599	18229.34
576.96	18254.42
577.32	18336.68
577.681	18378.94
578.042	18621.64
578.403	18772.6
578.763	18768.08
579.124	18946.61
579.485	19111.8
579.845	19317.22
580.206	19403.54
580.566	19429.76
580.927	19655.97
581.287	19829.52
581.648	19885.34
582.008	20148.83
582.368	20306.8
582.728	20501.14
583.089	20661.36
583.449	20782.04
583.809	21023.61
584.169	21232.42
584.529	21276.71
584.889	21664.95
585.249	21744.95
585.609	21976.81
585.969	22365.27
586.329	22514.87
586.688	22659.28
587.048	22848.65
587.408	23050.91
587.768	23297.45
588.127	23536.09
588.487	23731.11
588.846	24083.19
589.206	24144.21
589.565	24325.67
589.925	24714.14
590.284	24773.12
590.643	25149.38
591.003	25480.9
591.362	25714.79
591.721	25969.92
592.08	26139.64
592.44	26442.91
592.799	26727.87
593.158	26933.97
593.517	27230
593.876	27298.48
594.235	27666.83
594.593	27845.58
594.952	28076.31
595.311	28264.1
595.67	28587.71
596.029	29014.82
596.387	29209.16
596.746	29450.74
597.104	29560.56
597.463	29940.22
597.822	30165.52
598.18	30231.73
598.538	30432.41
598.897	30805.28
599.255	30797.14
599.613	31565.03
599.972	31469.67
600.33	31819.71
600.688	31869.88
601.046	32197.78
601.404	32488.85
601.762	32616.76
602.12	32847.26
602.478	33070.3
602.836	33279.56
603.194	33237.3
603.552	33392.55
603.91	33476.39
604.268	33854.46
604.625	33952.31
604.983	34383.04
605.341	34430.04
605.698	34734.21
606.056	34876.36
606.413	35006.98
606.771	35287.42
607.128	35458.49
607.485	35428.21
607.843	35556.11
608.2	36049.43
608.557	36210.79
608.914	36223.67
609.272	36514.05
609.629	36632.02
609.986	36889.86
610.343	36837.66
610.7	37261.15
611.057	37366.69
611.414	37440.81
611.771	37667.92
612.127	37830.63
612.484	37877.18
612.841	38203.73
613.198	38278.53
613.554	38230.85
613.911	38422.25
614.267	38493.66
614.624	38737.05
614.98	38990.15
615.337	39066.98
615.693	39051.84
616.05	39083.93
616.406	39457.25
616.762	39366.18
617.118	39486.41
617.475	39589.45
617.831	39672.16
618.187	39922.55
618.543	40055.43
618.899	40210
619.255	40208.87
619.611	40133.17
619.967	40485.02
620.323	40676.2
620.678	40488.64
621.034	40514.17
621.39	40568.64
621.746	40551.91
622.101	41182.18
622.457	40790.33
622.812	40980.38
623.168	41015.18
623.523	41018.79
623.879	41346.02
624.234	41059.47
624.589	41391.67
624.945	41365.9
625.3	41492.91
625.655	41470.53
626.01	41544.2
626.365	41495.84
626.72	41440.25
627.075	41644.31
627.43	41488.16
627.785	41768.15
628.14	41672.56
628.495	41865.33
628.85	41880.24
629.205	41611.1
629.559	42020.12
629.914	41891.31
630.269	41884.76
630.623	41835.27
630.978	41842.73
631.332	42045.66
631.687	42038.65
632.041	41857.87
632.396	42044.53
632.75	41860.13
633.104	41978.54
633.459	41814.71
633.813	41763.18
634.167	41882.5
634.521	41840.24
634.875	41947.13
635.229	41813.12
635.583	41669.62
635.937	41889.73
636.291	41750.98
636.645	41715.05
636.999	41703.3
637.352	41872.56
637.706	41759.11
638.06	41835.5
638.413	41809.51
638.767	41588.72
639.121	41859.68
639.474	41511.66
639.828	41488.39
640.181	41765.89
640.534	41666.69
640.888	41570.42
641.241	41308.05
641.594	41469.86
641.947	41613.58
642.301	41426.02
642.654	41408.61
643.007	41425.11
643.36	41424.66
643.713	41502.62
644.066	41469.86
644.419	41307.15
644.771	41030.55
645.124	40703.1
645.477	40606.15
645.83	40414.52
646.182	40423.1
646.535	40161.19
646.888	40269.89
647.24	40067.18
647.593	40302.2
647.945	40230.11
648.298	40074.86
648.65	40092.72
649.002	39960.52
649.355	40109.89
649.707	40031.7
650.059	40388.98
650.411	40623.78
650.763	40661.06
651.115	41122.07
651.467	41000.49
651.819	40844.56
652.171	40926.37
652.523	40781.06
652.875	40735.86
653.227	40671.01
653.578	41089.07
653.93	40847.5
654.282	40743.1
654.633	40757.33
654.985	40746.71
655.337	40806.6
655.688	40698.58
656.039	40818.8
656.391	40553.27
656.742	40695.64
657.094	40667.17
657.445	40887.5
657.796	40706.71
658.147	40557.56
658.498	40579.48
658.849	40633.49
659.2	40603.44
659.551	40450.45
659.902	40652.02
660.253	40499.49
660.604	40661.74
660.955	40503.33
661.306	40675.3
661.656	40286.38
662.007	40434.4
662.358	40528.19
662.708	40432.82
663.059	40386.95
663.409	40156.22
663.76	40534.29
664.11	40536.55
664.461	40550.11
664.811	40504.01
665.161	40432.14
665.511	40484.57
665.862	40449.32
666.212	40593.95
666.562	40529.09
666.912	40395.53
667.262	40291.13
667.612	40315.31
667.962	40384.46
668.312	40314.18
668.662	40499.71
669.011	40492.93
669.361	40309.66
669.711	40281.64
670.06	40267.63
670.41	40263.79
670.76	40201.87
671.109	40311.69
671.459	40113.96
671.808	40174.3
672.157	40207.52
672.507	39986.73
672.856	39997.58
673.205	40054.53
673.554	40214.07
673.904	40172.94
674.253	40196.22
674.602	40129.55
674.951	39521.21
675.3	39382.91
675.649	39976.56
675.998	39887.75
676.346	39984.92
676.695	40166.16
677.044	39725.5
677.393	39921.87
677.741	40087.75
678.09	39813.4
678.438	39782.22
678.787	39790.35
679.135	39793.06
679.484	39599.4
679.832	39841.88
680.181	39559.4
680.529	39628.32
680.877	39517.82
681.225	39531.6
681.573	39638.27
681.922	39438.72
682.27	39383.81
682.618	39354.43
682.966	39187.43
683.314	39295.45
683.661	39207.54
684.009	39075.57
684.357	38928.45
684.705	38849.59
685.053	39054.55
685.4	38960.54
685.748	38754
686.095	38706.76
686.443	38568.46
686.79	38518.3
687.138	38623.83
687.485	38502.48
687.832	38448.24
688.18	38585.64
688.527	38196.04
688.874	38276.72
689.221	38220.45
689.568	38238.53
689.915	37956.05
690.262	37931.19
690.609	37767.58
690.956	37674.7
691.303	37513.12
691.65	37445.1
691.997	37514.03
692.344	37213.47
692.69	37243.07
693.037	37226.13
693.383	36967.38
693.73	37275.62
694.077	36923.08
694.423	36983.19
694.769	36844.44
695.116	36847.38
695.462	36808.06
695.808	36533.49
696.155	36664.33
696.501	36532.58
696.847	36315.42
697.193	36194.29
697.539	36354.06
697.885	36100.73
698.231	36041.98
698.577	35895.77
698.923	35853.51
699.269	35791.81
699.614	35550.01
699.96	35562.44
700.306	35450.81
700.651	35373.52
700.997	35241.77
701.342	35102.34
701.688	35214.65
702.033	35062.11
702.379	34964.04
702.724	34754.1
703.069	34988.22
703.415	34427.1
703.76	34621
704.105	34634.33
704.45	34561.56
704.795	34348.01
705.14	34179.88
705.485	34272.08
705.83	34070.95
706.175	34076.83
706.52	33956.16
706.865	33917.06
707.209	33888.36
707.554	33690.85
707.899	33846.1
708.243	33630.06
708.588	33546.9
708.932	33367.7
709.277	33418.09
709.621	33424.42
709.966	33129.06
710.31	33232.56
710.654	32882.96
710.998	33040.02
711.342	32923.19
711.687	32714.61
712.031	32852.68
712.375	32642.29
712.719	32798.45
713.063	32506.02
713.407	32671.67
713.75	32507.61
714.094	32508.06
714.438	32374.95
714.782	32370.21
715.125	32255.41
715.469	32288.4
715.812	31954.63
716.156	32064.45
716.499	31886.83
716.843	32047.5
717.186	31794.4
717.53	31937.23
717.873	31934.29
718.216	31793.05
718.559	31744.69
718.902	31565.03
719.246	31606.61
719.589	31411.36
719.932	31415.88
720.275	31360.29
720.617	31415.66
720.96	31224.48
721.303	31192.61
721.646	31319.16
721.989	31026.74
722.331	31105.61
722.674	31107.87
723.016	31120.75
723.359	31013.63
723.701	31053.86
724.044	30862.23
724.386	30683.25
724.729	30823.81
725.071	30611.38
725.413	30580.65
725.755	30703.36
726.097	30548.34
726.439	30510.82
726.782	30436.02
727.124	30527.32
727.465	30283.48
727.807	30326.87
728.149	30255.69
728.491	30271.05
728.833	30243.26
729.175	30250.26
729.516	30010.27
729.858	30061.79
730.199	30033.32
730.541	29962.59
730.882	29934.79
731.224	29834.46
731.565	29864.51
731.906	29847.79
732.248	29757.4
732.589	29624.07
732.93	29602.37
733.271	29616.61
733.612	29555.14
733.953	29568.7
734.294	29424.07
734.635	29316.96
734.976	29405.77
735.317	29269.05
735.658	29279.67
735.999	29273.57
736.339	29164.87
736.68	29227.24
737.021	29186.11
737.361	29046.23
737.702	29238.99
738.042	29048.94
738.383	28974.59
738.723	29061.37
739.063	28961.94
739.404	29039.45
739.744	28995.61
740.084	28790.64
740.424	28797.42
740.764	28717.2
741.104	28912.9
741.444	28644.43
741.784	28606.69
742.124	28673.13
742.464	28577.99
742.804	28419.58
743.143	28566.69
743.483	28466.36
743.823	28397.66
744.162	28180.04
744.502	28319.47
744.841	28116.99
745.181	28364.44
745.52	28240.83
745.86	28308.17
746.199	28073.37
746.538	28048.29
746.877	28139.13
747.216	28100.26
747.556	27966.26
747.895	27999.93
748.234	27857.78
748.573	27848.07
748.911	27828.18
749.25	27719.71
749.589	27639.71
749.928	27667.51
750.267	27673.83
750.605	27650.56
750.944	27586.15
751.283	27504.12
751.621	27503.67
751.96	27374.63
752.298	27369.66
752.636	27362.88
752.975	27229.55
753.313	27086.28
753.651	27189.78
753.989	27067.3
754.327	27031.59
754.666	26975.32
755.004	26954.08
755.342	27068.65
755.679	26943.68
756.017	26759.73
756.355	26775.78
756.693	26733.97
757.031	26646.52
757.368	26641.77
757.706	26563.13
758.044	26395.22
758.381	26497.37
758.719	26419.86
759.056	26261.44
759.394	26304.38
759.731	26089.92
760.068	26037.95
760.405	25929.25
760.743	25923.37
761.08	25932.86
761.417	25692.87
761.754	25686.54
762.091	25698.97
762.428	25604.96
762.765	25500.33
763.102	25530.16
763.438	25307.8
763.775	25231.86
764.112	25314.12
764.449	25334.23
764.785	25154.8
765.122	25031.19
765.458	24911.87
765.795	24839.33
766.131	24934.47
766.467	24688.6
766.804	24679.11
767.14	24436.86
767.476	24547.36
767.812	24410.19
768.148	24498.55
768.485	24238.67
768.821	24239.35
769.157	24097.88
769.492	24063.76
769.828	24070.54
770.164	23763.88
770.5	23660.15
770.836	23828.74
771.171	23605.69
771.507	23595.75
771.842	23407.51
772.178	23444.12
772.513	23339.03
772.849	23214.06
773.184	23214.74
773.519	23099.04
773.855	22991.92
774.19	22897.24
774.525	22920.51
774.86	22864.7
775.195	22799.84
775.53	22658.15
775.865	22517.81
776.2	22453.63
776.535	22316.46
776.87	22349.68
777.205	22215.22
777.539	22158.5
777.874	22032.85
778.209	21923.03
778.543	21885.06
778.878	21681.9
779.212	21815.91
779.547	21599.19
779.881	21588.57
780.215	21529.82
780.55	21533.2
780.884	21327.33
781.218	21242.59
781.552	21272.87
781.886	21163.72
782.22	21040.11
782.554	21048.25
782.888	20810.51
783.222	20740.46
783.556	20612.33
783.889	20601.03
784.223	20504.31
784.557	20455.27
784.89	20470.18
785.224	20370.07
785.557	20199.91
785.891	20192.45
786.224	20209.85
786.558	20139.12
786.891	19941.38
787.224	19909.29
787.557	19873.36
787.891	19832.68
788.224	19749.52
788.557	19780.48
788.89	19640.6
789.223	19573.26
789.556	19536.65
789.888	19443.54
790.221	19342.98
790.554	19136.21
790.887	19239.48
791.219	19106.6
791.552	19040.16
791.884	19021.63
792.217	18917.23
792.549	18908.42
792.882	18804.92
793.214	18693.51
793.546	18773.5
793.879	18603.56
794.211	18456.68
794.543	18486.73
794.875	18323.57
795.207	18466.17
795.539	18352.27
795.871	18271.82
796.203	18147.76
796.535	18093.07
796.867	18092.39
797.198	18035.22
797.53	18017.82
797.862	17939.85
798.193	17940.08
798.525	17713.87
798.856	17855.56
799.188	17628
799.519	17522.24
799.85	17535.57
800.182	17468.68
800.513	17481.11
800.844	17297.84
801.175	17359.3
801.506	17326.99
801.837	17282.92
802.168	17192.98
802.499	17212.64
802.83	17063.72
803.161	17006.77
803.491	16996.83
803.822	17046.09
804.153	16793.67
804.483	16792.31
804.814	16680.9
805.145	16733.78
805.475	16662.82
805.805	16624.86
806.136	16658.76
806.466	16578.76
806.796	16490.85
807.126	16311.87
807.457	16313.46
807.787	16380.57
808.117	16287.47
808.447	16182.16
808.777	16246.34
809.107	16156.85
809.436	16167.7
809.766	16003.63
810.096	16041.6
810.426	15988.72
810.755	15960.47
811.085	15916.86
811.414	15793.69
811.744	15757.09
812.073	15672.34
812.403	15742.62
812.732	15715.96
813.061	15581.5
813.39	15566.58
813.719	15523.19
814.049	15565.9
814.378	15566.81
814.707	15386.25
815.036	15443.2
815.365	15371.33
815.693	15252.69
816.022	15238.46
816.351	15118.68
816.68	15154.84
817.008	15158.01
817.337	15003.43
817.665	14988.07
817.994	15007.73
818.322	15021.51
818.651	14937.22
818.979	14876.43
819.307	14833.04
819.636	14769.32
819.964	14718.69
820.292	14866.49
820.62	14769.99
820.948	14768.64
821.276	14768.64
821.604	14787.17
821.932	14834.85
822.259	14744.23
822.587	14710.79
822.915	14675.53
823.243	14737.68
823.57	14687.96
823.898	14739.26
824.225	14707.4
824.553	14663.1
824.88	14597.57
825.207	14748.3
825.535	14738.58
825.862	14664.69
826.189	14634.4
826.516	14726.83
826.843	14708.98
827.17	14706.94
827.497	14701.07
827.824	14736.55
828.151	14727.06
828.478	14586.49
828.805	14692.93
829.131	14633.5
829.458	14551.47
829.785	14572.26
830.111	14663.33
830.438	14674.63
830.764	14611.81
831.09	14577.68
831.417	14485.03
831.743	14609.32
832.069	14571.58
832.395	14542.2
832.722	14496.78
833.048	14540.39
833.374	14534.74
833.7	14387.86
834.026	14508.53
834.351	14507.85
834.677	14402.32
835.003	14419.04
835.329	14409.78
835.654	14391.7
835.98	14318.93
836.306	14381.08
836.631	14372.26
836.956	14327.29
837.282	14329.55
837.607	14242.1
837.932	14281.87
838.258	14217.69
838.583	14222.66
838.908	14158.48
839.233	14238.93
839.558	14140.41
839.883	14124.81
840.208	14101.31
840.533	14050.01
840.858	14092.27
841.182	14060.41
841.507	13963.69
841.832	13916.46
842.156	13972.5
842.481	14019.96
842.805	13833.07
843.13	13829.45
843.454	13810.47
843.778	13679.17
844.103	13733.64
844.427	13658.38
844.751	13727.53
845.075	13638.72
845.399	13543.36
845.723	13466.3
846.047	13585.17
846.371	13323.93
846.695	13369.58
847.019	13206.19
847.343	13226.53
847.666	13200.54
847.99	13196.02
848.313	13156.93
848.637	13069.02
848.96	12989.47
849.284	12925.97
849.607	12891.17
849.931	12958.52
850.254	12789.03
850.577	12692.76
850.9	12629.94
851.223	12602.14
851.546	12451.86
851.869	12462.94
852.192	12507.68
852.515	12506.1
852.838	12396.04
853.161	12368.7
853.483	12317.63
853.806	12253.22
854.129	12287.8
854.451	12156.73
854.774	12196.28
855.096	12103.4
855.419	12041.25
855.741	11997.86
856.063	11978.88
856.385	11953.12
856.708	11973.68
857.03	11907.7
857.352	11931.42
857.674	11796.74
857.996	11720.81
858.318	11709.73
858.64	11742.05
858.961	11696.18
859.283	11666.57
859.605	11634.03
859.926	11587.93
860.248	11570.98
860.57	11520.13
860.891	11493.92
861.212	11460.93
861.534	11488.5
861.855	11386.35
862.176	11416.18
862.498	11416.41
862.819	11380.93
863.14	11240.59
863.461	11229.52
863.782	11315.17
864.103	11289.41
864.424	11252.12
864.745	11273.59
865.065	11149.75
865.386	11159.24
865.707	11168.05
866.027	11159.69
866.348	11039.47
866.668	11131.9
866.989	11022.75
867.309	10964.44
867.63	10980.94
867.95	10994.95
868.27	10871.79
868.59	10967.83
868.91	10881.06
869.23	10857.55
869.55	10827.5
869.87	10913.6
870.19	10911.11
870.51	10893.48
870.83	10835.18
871.15	10804.22
871.469	10810.1
871.789	10818.23
872.109	10730.1
872.428	10705.02
872.748	10796.31
873.067	10721.06
873.386	10751.34
873.706	10630.67
874.025	10604
874.344	10574.62
874.663	10640.61
874.982	10528.75
875.301	10585.02
875.62	10604.9
875.939	10503.66
876.258	10554.06
876.577	10465.02
876.896	10465.25
877.214	10450.56
877.533	10448.52
877.852	10362.43
878.17	10496.21
878.489	10432.93
878.807	10466.83
879.125	10398.36
879.444	10371.01
879.762	10342.99
880.08	10345.48
880.398	10287.85
880.716	10335.76
881.034	10265.03
881.352	10242.88
881.67	10236.1
881.988	10247.63
882.306	10165.14
882.624	10203.56
882.941	10060.51
883.259	10069.55
883.577	10087.63
883.894	10095.09
884.212	10034.98
884.529	9988.65
884.846	10023.9
885.164	9888.09
885.481	9950.23
885.798	9896.22
886.115	9822.78
886.432	9881.76
886.75	9845.15
887.067	9889.9
887.383	9780.07
887.7	9734.42
888.017	9757.47
888.334	9718.37
888.651	9740.07
888.967	9701.2
889.284	9653.07
889.6	9645.83
889.917	9561.32
890.233	9596.34
890.55	9479.28
890.866	9506.85
891.182	9552.05
891.498	9452.84
891.815	9468.44
892.131	9411.72
892.447	9451.04
892.763	9348.67
893.079	9384.82
893.395	9328.33
893.71	9302.34
894.026	9251.49
894.342	9261.21
894.657	9180.31
894.973	9119.29
895.289	9114.55
895.604	9182.8
895.92	9095.11
896.235	9001.11
896.55	8970.82
896.865	9021.9
897.181	8945.06
897.496	9004.27
897.811	8912.97
898.126	8885.18
898.441	8877.72
898.756	8801.11
899.071	8731.73
899.386	8782.13
899.7	8717.95
900.015	8697.38
900.33	8557.27
900.644	8616.48
900.959	8576.03
901.273	8570.38
901.588	8495.13
901.902	8493.1
902.216	8464.62
902.531	8462.36
902.845	8344.4
903.159	8354.57
903.473	8331.07
903.787	8296.26
904.101	8222.14
904.415	8216.27
904.729	8230.28
905.042	8208.36
905.356	8112.31
905.67	8082.71
905.984	8103.5
906.297	8141.01
906.611	8047.23
906.924	7994.35
907.237	7996.84
907.551	7992.32
907.864	7954.8
908.177	7934.24
908.491	7842.27
908.804	7790.74
909.117	7817.18
909.43	7772.21
909.743	7682.04
910.056	7697.64
910.368	7658.77
910.681	7579.67
910.994	7594.81
911.307	7614.7
911.619	7561.37
911.932	7559.79
912.244	7495.83
912.557	7441.37
912.869	7376.97
913.181	7393.46
913.494	7346.01
913.806	7341.04
914.118	7303.3
914.43	7251.09
914.742	7248.83
915.054	7184.66
915.366	7155.5
915.678	7093.13
915.99	7137.88
916.302	7067.37
916.613	7042.29
916.925	7012.46
917.236	7024.89
917.548	6967.71
917.859	6998.9
918.171	6969.97
918.482	6839.35
918.794	6834.83
919.105	6842.74
919.416	6765.23
919.727	6758
920.038	6781.5
920.349	6660.6
920.66	6683.88
920.971	6661.73
921.282	6677.78
921.593	6554.84
921.903	6523.88
922.214	6565.91
922.525	6513.49
922.835	6479.59
923.146	6439.59
923.456	6407.73
923.767	6388.29
924.077	6391.23
924.387	6348.29
924.697	6265.13
925.008	6293.38
925.318	6288.18
925.628	6295.41
925.938	6251.8
926.248	6202.31
926.558	6129.54
926.867	6122.99
927.177	6095.87
927.487	6022.43
927.796	6077.57
928.106	6011.13
928.416	5998.7
928.725	5969.09
929.034	5931.81
929.344	5906.5
929.653	5941.52
929.962	5877.57
930.271	5827.18
930.581	5779.27
930.89	5807.74
931.199	5715.32
931.508	5806.61
931.817	5742.43
932.125	5712.83
932.434	5711.93
932.743	5691.59
933.051	5645.94
933.36	5634.19
933.669	5595.32
933.977	5574.75
934.286	5526.62
934.594	5468.99
934.902	5468.99
935.21	5487.98
935.519	5447.53
935.827	5462.67
936.135	5420.86
936.443	5337.25
936.751	5352.61
937.059	5356
937.367	5285.27
937.674	5327.98
937.982	5307.19
938.29	5230.81
938.597	5275.1
938.905	5142.22
939.213	5146.74
939.52	5172.96
939.827	5137.93
940.135	5144.26
940.442	5020.42
940.749	5074.43
941.056	5028.1
941.363	5025.16
941.67	5001.44
941.977	4938.84
942.284	4929.35
942.591	4937.71
942.898	4904.04
943.205	4880.31
943.511	4817.71
943.818	4874.21
944.125	4885.73
944.431	4836.24
944.738	4739.75
945.044	4758.05
945.35	4731.16
945.657	4666.08
945.963	4675.12
946.269	4699.52
946.575	4694.78
946.881	4665.85
947.187	4630.15
947.493	4640.09
947.799	4553.54
948.105	4550.6
948.41	4516.25
948.716	4528.91
949.022	4501.56
949.327	4497.49
949.633	4468.12
949.938	4483.71
950.244	4417.72
950.549	4435.12
950.854	4403.94
951.16	4372.3
951.465	4374.79
951.77	4294.34
952.075	4306.99
952.38	4306.77
952.685	4302.02
952.99	4242.13
953.294	4255.47
953.599	4222.93
953.904	4147.9
954.209	4139.54
954.513	4175.92
954.818	4153.55
955.122	4117.84
955.426	4130.72
955.731	4067.9
956.035	4070.16
956.339	4043.04
956.643	4073.33
956.948	4006.43
957.252	3973.21
957.556	3983.38
957.86	3970.28
958.163	3928.24
958.467	3923.27
958.771	3952.65
959.075	3911.52
959.378	3838.53
959.682	3873.1
959.985	3842.37
960.289	3819.09
960.592	3818.87
960.896	3817.06
961.199	3759.44
961.502	3792.2
961.805	3759.89
962.108	3766.67
962.411	3707.68
962.714	3713.11
963.017	3682.15
963.32	3678.53
963.623	3648.7
963.926	3673.34
964.228	3641.47
964.531	3611.19
964.833	3598.76
965.136	3550.18
965.438	3600.34
965.741	3566.9
966.043	3483.51
966.345	3538.88
966.648	3518.54
966.95	3478.76
967.252	3471.98
967.554	3446.22
967.856	3461.59
968.158	3404.64
968.46	3417.52
968.761	3409.16
969.063	3387.92
969.365	3386.34
969.666	3355.83
969.968	3309.5
970.269	3335.72
970.571	3304.53
970.872	3302.05
971.174	3312.44
971.475	3256.4
971.776	3237.87
972.077	3243.29
972.378	3239.9
972.679	3224.99
972.98	3187.25
973.281	3180.47
973.582	3194.7
973.883	3133.91
974.183	3162.39
974.484	3083.75
974.785	3115.38
975.085	3097.98
975.386	3075.16
975.686	3118.1
975.986	3061.15
976.287	3029.51
976.587	3011.21
976.887	3025.44
977.187	3020.7
977.487	2984.54
977.787	2934.82
978.087	2988.61
978.387	2969.85
978.687	2928.72
978.987	2963.75
979.286	2895.05
979.586	2888.05
979.885	2859.8
980.185	2846.92
980.484	2852.79
980.784	2837.88
981.083	2866.13
981.382	2813.47
981.682	2822.28
981.981	2802.62
982.28	2780.48
982.579	2769.86
982.878	2764.21
983.177	2741.38
983.475	2741.61
983.774	2720.14
984.073	2663.42
984.372	2697.99
984.67	2681.95
984.969	2683.98
985.267	2671.33
985.566	2656.64
985.864	2645.57
986.162	2642.63
986.461	2637.2
986.759	2594.04
987.057	2558.56
987.355	2579.58
987.653	2566.02
987.951	2549.98
988.249	2573.7
988.547	2542.97
988.844	2493.93
989.142	2533.25
989.44	2499.36
989.737	2470.66
990.035	2476.53
990.332	2487.83
990.63	2444.89
990.927	2443.54
991.224	2439.02
991.521	2423.65
991.819	2415.74
992.116	2411.67
992.413	2407.15
992.71	2374.39
993.006	2370.09
993.303	2375.52
993.6	2332.58
993.897	2334.16
994.193	2342.52
994.49	2295.07
994.787	2288.74
995.083	2280.15
995.379	2305.46
995.676	2274.95
995.972	2272.24
996.268	2275.41
996.565	2229.31
996.861	2222.53
997.157	2231.34
997.453	2206.03
997.749	2192.92
998.044	2194.73
998.34	2182.3
998.636	2166.93
998.932	2144.79
999.227	2142.53
999.523	2139.14
999.818	2148.18
1000.114	2075.19
1000.409	2101.4
1000.704	2114.73
1001	2048.75
1001.295	2064.34
1001.59	2049.65
1001.885	2051.91
1002.18	2017.33
1002.475	2045.81
1002.77	2011.01
1003.065	2013.04
1003.359	2014.4
1003.654	1978.46
1003.949	1959.03
1004.243	1955.41
1004.538	1919.48
1004.832	1966.71
1005.127	1938.24
1005.421	1908.86
1005.715	1896.89
1006.009	1901.18
1006.304	1885.81
1006.598	1880.61
1006.892	1885.36
1007.186	1830.45
1007.48	1861.86
1007.773	1840.84
1008.067	1822.31
1008.361	1823.67
1008.655	1814.18
1008.948	1808.53
1009.242	1761.52
1009.535	1820.28
1009.829	1778.24
1010.122	1766.27
1010.415	1733.95
1010.708	1718.58
1011.001	1716.32
1011.295	1741.86
1011.588	1686.72
1011.881	1687.4
1012.173	1690.11
1012.466	1709.32
1012.759	1663.67
1013.052	1661.41
1013.344	1646.95
1013.637	1628.64
1013.93	1607.4
1014.222	1621.41
1014.514	1621.64
1014.807	1578.93
1015.099	1561.07
1015.391	1595.2
1015.683	1564.46
1015.976	1586.16
1016.268	1551.13
1016.56	1540.06
1016.851	1529.89
1017.143	1525.82
1017.435	1504.35
1017.727	1527.4
1018.018	1518.82
1018.31	1483.79
1018.602	1484.47
1018.893	1466.61
1019.185	1479.49
1019.476	1451.93
1019.767	1447.63
1020.058	1443.34
1020.35	1425.71
1020.641	1396.33
1020.932	1411.7
1021.223	1403.34
1021.514	1386.39
1021.804	1357.01
1022.095	1377.58
1022.386	1381.87
1022.677	1354.75
1022.967	1325.6
1023.258	1341.19
1023.548	1313.4
1023.839	1310.23
1024.129	1305.49
1024.419	1323.11
1024.709	1266.17
1025	1280.86
1025.29	1298.71
1025.58	1274.75
1025.87	1252.83
1026.16	1210.8
1026.449	1232.04
1026.739	1252.83
1027.029	1219.16
1027.319	1250.57
1027.608	1207.86
1027.898	1201.31
1028.187	1207.64
1028.477	1218.48
1028.766	1193.63
1029.055	1184.59
1029.344	1188.2
1029.634	1145.27
1029.923	1149.56
1030.212	1136.23
1030.501	1152.05
1030.79	1148.66
1031.078	1112.95
1031.367	1089.9
1031.656	1101.88
1031.945	1118.15
1032.233	1105.95
1032.522	1087.19
1032.81	1094.42
1033.099	1067.98
1033.387	1079.05
1033.675	1041.77
1033.963	1034.76
1034.251	1056.46
1034.54	1023.69
1034.828	1029.34
1035.116	1022.78
1035.403	1020.07
1035.691	1032.73
1035.979	1011.48
1036.267	1008.09
1036.554	982.56
1036.842	1015.1
1037.129	973.07
1037.417	961.54
1037.704	951.15
1037.992	969.23
1038.279	957.47
1038.566	957.02
1038.853	957.02
1039.14	957.02
