Data from hue_34_FLMS001491_00008.txt Node
Date: Tue Feb 07 17:25:08 GMT 2017
User: dcchb
Spectrometer: FLMS00149
Trigger mode: 0
Integration Time (sec): 2.000000E-2
Scans to average: 10
Electric dark correction enabled: true
Nonlinearity correction enabled: false
Boxcar width: 0
XAxis mode: Wavelengths
Number of Pixels in Spectrum: 2048
>>>>>Begin Spectral Data<<<<<
341.393	-23.32
341.776	-23.32
342.16	-23.32
342.543	-55.41
342.927	-71.23
343.31	-72.36
343.693	-74.62
344.077	-59.48
344.46	-61.28
344.843	-50.89
345.226	-37.33
345.61	-30.78
345.993	-20.15
346.376	-16.09
346.759	-18.35
347.142	24.82
347.525	44.25
347.908	66.17
348.291	74.53
348.674	119.5
349.057	112.05
349.44	134.19
349.823	128.54
350.206	152.04
350.588	191.14
350.971	205.38
351.354	223.23
351.737	239.5
352.119	248.54
352.502	270.01
352.884	295.54
353.267	286.05
353.65	306.62
354.032	299.61
354.414	317.46
354.797	334.64
355.179	300.51
355.562	338.03
355.944	328.54
356.326	345.49
356.709	336.9
357.091	333.06
357.473	359.27
357.855	354.52
358.238	312.49
358.62	347.52
359.002	359.5
359.384	342.77
359.766	352.04
360.148	344.13
360.53	331.7
360.912	347.52
361.294	322.44
361.676	325.6
362.057	333.28
362.439	328.76
362.821	347.97
363.203	335.09
363.584	337.8
363.966	333.96
364.348	319.05
364.729	319.05
365.111	326.28
365.493	336.9
365.874	312.72
366.256	312.04
366.637	321.76
367.019	317.46
367.4	326.05
367.781	332.83
368.163	326.5
368.544	316.11
368.925	320.85
369.306	337.35
369.688	326.05
370.069	308.65
370.45	325.37
370.831	311.59
371.212	318.59
371.593	318.82
371.974	313.4
372.355	305.71
372.736	331.25
373.117	341.19
373.498	309.78
373.879	319.95
374.26	323.34
374.641	310.91
375.021	317.24
375.402	311.36
375.783	331.93
376.163	353.85
376.544	352.26
376.925	313.85
377.305	327.63
377.686	329.67
378.066	348.65
378.447	334.64
378.827	318.14
379.208	329.21
379.588	328.76
379.968	354.3
380.349	343.68
380.729	339.84
381.109	333.51
381.489	345.71
381.87	335.54
382.25	353.17
382.63	340.74
383.01	341.19
383.39	359.95
383.77	346.16
384.15	352.49
384.53	358.59
384.91	355.65
385.29	356.33
385.67	374.86
386.049	362.66
386.429	339.61
386.809	356.56
387.189	336.67
387.568	356.78
387.948	364.02
388.328	350.91
388.707	372.15
389.087	345.26
389.466	381.19
389.846	358.82
390.225	368.31
390.605	375.09
390.984	378.93
391.363	373.73
391.743	371.25
392.122	377.57
392.501	370.34
392.881	373.06
393.26	372.6
393.639	392.72
394.018	367.18
394.397	404.92
394.776	390.68
395.155	383.68
395.534	385.94
395.913	413.73
396.292	404.01
396.671	387.74
397.05	378.03
397.429	383.22
397.808	364.47
398.186	374.64
398.565	395.2
398.944	391.81
399.323	404.01
399.701	402.88
400.08	415.31
400.458	401.53
400.837	411.25
401.215	387.07
401.594	403.79
401.972	416.67
402.351	415.54
402.729	436.1
403.107	416.22
403.486	403.56
403.864	421.87
404.242	416.44
404.62	433.62
404.999	414.64
405.377	409.66
405.755	442.21
406.133	406.73
406.511	426.61
406.889	439.72
407.267	427.97
407.645	428.65
408.023	436.33
408.401	443.11
408.779	470
409.156	445.6
409.534	453.73
409.912	458.93
410.29	467.52
410.667	429.1
411.045	444.24
411.422	482.43
411.8	473.62
412.178	495.76
412.555	474.07
412.933	475.88
413.31	484.69
413.687	481.98
414.065	472.04
414.442	494.86
414.819	491.24
415.197	489.89
415.574	489.66
415.951	477.23
416.328	512.03
416.705	511.58
417.082	522.88
417.46	535.99
417.837	517.01
418.214	515.65
418.591	537.34
418.967	511.58
419.344	517.91
419.721	495.09
420.098	535.99
420.475	527.18
420.852	518.81
421.228	525.82
421.605	532.82
421.982	540.96
422.358	557.68
422.735	540.96
423.111	554.97
423.488	565.82
423.864	583.9
424.241	562.43
424.617	560.62
424.994	593.84
425.37	554.75
425.746	576.89
426.123	563.78
426.499	585.03
426.875	570.56
427.251	598.13
427.627	612.14
428.003	584.35
428.379	608.08
428.756	609.21
429.132	635.87
429.507	603.78
429.883	631.81
430.259	616.66
430.635	619.15
431.011	644.23
431.387	637.91
431.763	660.51
432.138	667.28
432.514	686.49
432.89	662.09
433.265	666.83
433.641	693.95
434.016	701.18
434.392	686.95
434.767	688.98
435.143	701.63
435.518	684.01
435.894	676.32
436.269	693.27
436.644	725.59
437.02	732.14
437.395	732.82
437.77	734.4
438.145	742.31
438.52	766.04
438.895	764.46
439.271	737.57
439.646	782.54
440.021	777.79
440.395	762.65
440.77	770.56
441.145	775.53
441.52	795.19
441.895	795.87
442.27	789.54
442.645	788.19
443.019	784.34
443.394	803.78
443.769	829.77
444.143	830.9
444.518	819.37
444.892	825.47
445.267	816.66
445.641	828.86
446.016	841.07
446.39	840.61
446.764	835.19
447.139	854.62
447.513	841.97
447.887	855.98
448.262	831.57
448.636	892.59
449.01	887.62
449.384	883.32
449.758	900.5
450.132	879.71
450.506	894.62
450.88	925.13
451.254	909.31
451.628	917.9
452.002	893.72
452.376	940.72
452.75	915.19
453.123	931.46
453.497	935.53
453.871	949.31
454.244	961.74
454.618	958.8
454.992	1012.13
455.365	1004
455.739	1000.38
456.112	1028.41
456.486	1034.73
456.859	1044.22
457.232	1021.63
457.606	1054.39
457.979	1073.83
458.352	1097.78
458.725	1094.84
459.099	1075.64
459.472	1122.19
459.845	1155.18
460.218	1136.2
460.591	1166.93
460.964	1153.15
461.337	1175.97
461.71	1204.45
462.083	1203.54
462.456	1208.74
462.829	1223.43
463.201	1231.34
463.574	1241.96
463.947	1253.48
464.32	1267.04
464.692	1300.04
465.065	1286.93
465.438	1331.67
465.81	1330.54
466.183	1360.37
466.555	1365.35
466.928	1386.59
467.3	1394.5
467.672	1384.1
468.045	1453.48
468.417	1446.47
468.789	1465
469.161	1470.65
469.534	1515.62
469.906	1516.53
470.278	1548.39
470.65	1568.28
471.022	1591.1
471.394	1621.61
471.766	1659.58
472.138	1683.08
472.51	1722.17
472.882	1742.28
473.253	1739.8
473.625	1777.31
473.997	1845.33
474.369	1838.55
474.74	1876.97
475.112	1903.41
475.484	1970.08
475.855	1992.67
476.227	2025.44
476.598	2104.99
476.97	2132.56
477.341	2192.67
477.713	2232.89
478.084	2256.85
478.455	2326.45
478.827	2370.06
479.198	2418.2
479.569	2464.3
479.94	2528.03
480.311	2559.44
480.682	2625.88
481.053	2735.03
481.424	2784.52
481.795	2819.54
482.166	2855.25
482.537	2921.91
482.908	3039.88
483.279	3079.65
483.65	3152.19
484.021	3196.48
484.391	3285.97
484.762	3322.81
485.133	3383.37
485.503	3494.78
485.874	3570.26
486.244	3630.82
486.615	3746.53
486.985	3786.98
487.356	3908.33
487.726	3969.8
488.097	4112.39
488.467	4115.1
488.837	4240.3
489.207	4291.14
489.578	4418.6
489.948	4465.38
490.318	4586.73
490.688	4623.79
491.058	4748.76
491.428	4885.25
491.798	4928.64
492.168	5036.21
492.538	5058.36
492.908	5172.25
493.278	5344
493.648	5318.46
494.017	5431.23
494.387	5522.98
494.757	5605.01
495.126	5637.78
495.496	5743.76
495.866	5838.67
496.235	5910.08
496.605	6008.84
496.974	6004.77
497.344	6105.56
497.713	6185.56
498.082	6203.86
498.452	6348.49
498.821	6409.05
499.19	6447.02
499.559	6532.67
499.928	6636.17
500.298	6677.07
500.667	6742.61
501.036	6814.02
501.405	6886.78
501.774	6946.22
502.143	6982.6
502.512	7061.24
502.88	7121.8
503.249	7236.6
503.618	7235.93
503.987	7325.64
504.356	7399.09
504.724	7399.09
505.093	7492.64
505.462	7574.45
505.83	7624.84
506.199	7708.68
506.567	7781.9
506.936	7852.86
507.304	7933.99
507.672	7925.17
508.041	7963.14
508.409	8104.38
508.777	8132.17
509.145	8217.14
509.514	8207.88
509.882	8315.67
510.25	8352.96
510.618	8366.07
510.986	8437.7
511.354	8573.52
511.722	8597.7
512.09	8714.53
512.458	8662.33
512.826	8730.35
513.193	8803.79
513.561	8895.32
513.929	8907.29
514.297	8953.17
514.664	9031.36
515.032	9079.94
515.4	9126.95
515.767	9177.8
516.135	9271.8
516.502	9150.23
516.869	9356.32
517.237	9336.89
517.604	9419.6
517.972	9497.34
518.339	9551.8
518.706	9585.02
519.073	9608.97
519.44	9690.78
519.808	9763.77
520.175	9742.53
520.542	9846.93
520.909	9901.17
521.276	9910.66
521.643	9960.37
522.009	10122.18
522.376	10128.5
522.743	10135.96
523.11	10312.23
523.477	10363.98
523.843	10337.54
524.21	10510.42
524.577	10606.23
524.943	10629.51
525.31	10672.45
525.676	10757.87
526.043	10777.3
526.409	10744.53
526.776	10922.83
527.142	10943.62
527.508	11107.91
527.874	11145.88
528.241	11136.39
528.607	11208.7
528.973	11355.82
529.339	11329.15
529.705	11386.55
530.071	11452.09
530.437	11526.21
530.803	11647.11
531.169	11684.62
531.535	11684.85
531.901	11684.85
532.267	11736.15
532.632	11864.28
532.998	11863.83
533.364	11969.36
533.73	12042.13
534.095	12118.74
534.461	12204.38
534.826	12238.96
535.192	12213.65
535.557	12375
535.923	12281.67
536.288	12430.82
536.653	12454.55
537.019	12490.93
537.384	12538.39
537.749	12569.12
538.114	12537.71
538.479	12638.5
538.845	12724.59
539.21	12794.65
539.575	12773.18
539.94	12861.54
540.305	12949
540.67	12972.05
541.034	13040.74
541.399	13086.85
541.764	13084.36
542.129	13116.22
542.494	13281.19
542.858	13231.25
543.223	13255.88
543.587	13333.39
543.952	13408.42
544.316	13447.74
544.681	13414.52
545.045	13559.15
545.41	13709.2
545.774	13784.91
546.138	13642.54
546.503	13807.96
546.867	13764.79
547.231	13945.35
547.595	13918.91
547.959	13963.66
548.324	13984.22
548.688	13993.94
549.052	14099.93
549.416	14110.1
549.779	14135.18
550.143	14202.3
550.507	14281.39
550.871	14368.17
551.235	14368.17
551.599	14492.23
551.962	14461.72
552.326	14581.72
552.689	14593.47
553.053	14513.47
553.417	14565.9
553.78	14823.97
554.143	14682.51
554.507	14810.87
554.87	14850.64
555.234	14932.22
555.597	14962.28
555.96	14893.8
556.323	14986
556.686	15125.21
557.05	15171.99
557.413	15187.81
557.776	15198.2
558.139	15294.02
558.502	15344.41
558.865	15336.96
559.228	15469.16
559.59	15586.89
559.953	15580.34
560.316	15698.08
560.679	15630.51
561.041	15707.57
561.404	15875.47
561.767	15938.3
562.129	15940.56
562.492	16089.7
562.854	16085.64
563.217	16052.87
563.579	16129.93
563.941	16269.36
564.304	16198.18
564.666	16333.54
565.028	16388.23
565.39	16371.96
565.753	16497.6
566.115	16638.84
566.477	16622.35
566.839	16690.82
567.201	16793.64
567.563	16834.77
567.925	16920.64
568.287	16960.87
568.648	16943.69
569.01	17017.82
569.372	17203.57
569.734	17274.76
570.095	17423.68
570.457	17360.18
570.819	17415.32
571.18	17488.76
571.542	17588.42
571.903	17594.98
572.265	17712.94
572.626	17688.08
572.987	17742.09
573.349	17903.22
573.71	18076.54
574.071	18065.02
574.432	18152.02
574.794	18243.09
575.155	18428.4
575.516	18350.44
575.877	18502.97
576.238	18675.4
576.599	18819.12
576.96	18825.9
577.32	18942.06
577.681	19128.04
578.042	19224.08
578.403	19367.58
578.763	19435.15
579.124	19603.28
579.485	19755.6
579.845	19912.2
580.206	19980.68
580.566	20163.95
580.927	20316.71
581.287	20519.87
581.648	20571.17
582.008	20805.29
582.368	20917.37
582.728	21141.1
583.089	21246.63
583.449	21416.57
583.809	21618.15
584.169	21880.06
584.529	21982.43
584.889	22465.36
585.249	22475.07
585.609	22532.25
585.969	22993.93
586.329	23071.89
586.688	23378.33
587.048	23472.56
587.408	23700.58
587.768	23872.32
588.127	24079.55
588.487	24352.31
588.846	24693.32
589.206	24896.25
589.565	25135.79
589.925	25419.18
590.284	25619.17
590.643	25827.75
591.003	26188.2
591.362	26537.11
591.721	26618.01
592.08	26863.43
592.44	27173.25
592.799	27423.87
593.158	27652.56
593.517	27971.65
593.876	28142.49
594.235	28320.12
594.593	28629.49
594.952	28900.21
595.311	29071.96
595.67	29382.91
596.029	29813.64
596.387	29941.09
596.746	30218.82
597.104	30417.46
597.463	30541.53
597.822	30956.21
598.18	31068.97
598.538	31423.99
598.897	31693.14
599.255	31681.16
599.613	32348.94
599.972	32285.44
600.33	32574.02
600.688	32759.1
601.046	33131.97
601.404	33373.09
601.762	33528.34
602.12	33879.07
602.478	34040.19
602.836	34145.5
603.194	34211.94
603.552	34505.04
603.91	34542.1
604.268	34846.72
604.625	35067.51
604.983	35331.68
605.341	35246.49
605.698	35704.78
606.056	35952.01
606.413	35996.3
606.771	36304.09
607.128	36430.19
607.485	36554.48
607.843	36692.33
608.2	37143.84
608.557	37207.11
608.914	37078.98
609.272	37557.16
609.629	37799.87
609.986	38048
610.343	37899.75
610.7	38274.66
611.057	38363.69
611.414	38417.48
611.771	38556.23
612.127	38829.67
612.484	38950.35
612.841	39120.51
613.198	39109.44
613.554	39270.11
613.911	39574.96
614.267	39632.14
614.624	39742.87
614.98	40006.36
615.337	40180.82
615.693	40174.95
616.05	40323.19
616.406	40488.61
616.762	40434.6
617.118	40669.62
617.475	40709.85
617.831	40927.92
618.187	40996.62
618.543	41092.21
618.899	41342.6
619.255	41367.91
619.611	41367.68
619.967	41539.43
620.323	41685.42
620.678	41571.75
621.034	41530.39
621.39	41639.54
621.746	41689.26
622.101	42231.62
622.457	41868.46
622.812	41955.46
623.168	42085.86
623.523	42147.78
623.879	42355.23
624.234	42132.41
624.589	42439.52
624.945	42402.46
625.3	42554.77
625.655	42631.15
626.01	42669.12
626.365	42813.97
626.72	42612.17
627.075	42839.06
627.43	42668.67
627.785	42729.23
628.14	42771.26
628.495	43023.46
628.85	42947.75
629.205	42740.08
629.559	43211.25
629.914	42850.36
630.269	42981.43
630.623	42865.95
630.978	42768.55
631.332	43036.34
631.687	43145.94
632.041	43066.17
632.396	43041.99
632.75	42923.57
633.104	43004.93
633.459	42918.38
633.813	42912.5
634.167	42950.69
634.521	42821.2
634.875	43086.06
635.229	42864.82
635.583	42869.56
635.937	42856.46
636.291	42883.12
636.645	42831.83
636.999	42874.54
637.352	43118.82
637.706	42739.17
638.06	42904.82
638.413	42877.25
638.767	42699.63
639.121	42785.27
639.474	42633.41
639.828	42809.68
640.181	42774.43
640.534	42785.95
640.888	42637.48
641.241	42537.14
641.594	42463.02
641.947	42646.29
642.301	42667.08
642.654	42676.12
643.007	42570.36
643.36	42577.14
643.713	42319.52
644.066	42698.04
644.419	42493.3
644.771	42130.6
645.124	41781.46
645.477	41759.09
645.83	41549.83
646.182	41490.39
646.535	41341.7
646.888	41431.18
647.24	41243.62
647.593	41574.46
647.945	41220.34
648.298	41069.16
648.65	41087.92
649.002	40934.25
649.355	41284.75
649.707	41348.47
650.059	41468.7
650.411	41889.03
650.763	41751.4
651.115	42131.96
651.467	42007.21
651.819	42108.68
652.171	41984.84
652.523	41930.83
652.875	41965.18
653.227	41802.25
653.578	42042.47
653.93	41900.1
654.282	41779.65
654.633	41761.12
654.985	41834.11
655.337	41827.33
655.688	41838.41
656.039	42049.25
656.391	41708.69
656.742	41723.38
657.094	41793.43
657.445	41956.37
657.796	41799.08
658.147	41689.03
658.498	41603.38
658.849	41803.6
659.2	41554.12
659.551	41536.04
659.902	41659.88
660.253	41620.33
660.604	41695.58
660.955	41502.82
661.306	41656.49
661.656	41515.93
662.007	41626.21
662.358	41546.89
662.708	41668.69
663.059	41686.09
663.409	41407.46
663.76	41636.6
664.11	41597.96
664.461	41575.81
664.811	41630.28
665.161	41545.76
665.511	41535.59
665.862	41496.95
666.212	41536.72
666.562	41630.28
666.912	41508.47
667.262	41448.13
667.612	41514.12
667.962	41355.71
668.312	41524.52
668.662	41565.87
669.011	41507.34
669.361	41424.41
669.711	41413.33
670.06	41399.55
670.41	41200
670.76	41212.43
671.109	41477.74
671.459	41366.78
671.808	41317.97
672.157	41440.22
672.507	41068.03
672.856	41181.7
673.205	41158.88
673.554	41272.32
673.904	41178.31
674.253	41326.78
674.602	41276.16
674.951	40637.76
675.3	40402.29
675.649	41081.59
675.998	41069.39
676.346	41119.33
676.695	41214.69
677.044	40896.96
677.393	41023.96
677.741	40952.55
678.09	40922.72
678.438	40893.8
678.787	40966.79
679.135	40823.07
679.484	40610.87
679.832	40710.07
680.181	40533.36
680.529	40717.98
680.877	40606.35
681.225	40631.88
681.573	40886.11
681.922	40603.64
682.27	40329.74
682.618	40399.12
682.966	40211.78
683.314	40401.16
683.661	40390.99
684.009	40151.67
684.357	39998.91
684.705	40100.15
685.053	40133.82
685.4	40103.99
685.748	39832.36
686.095	39748.29
686.443	39629.65
686.79	39685.69
687.138	39863.09
687.485	39854.5
687.832	39510.56
688.18	39473.04
688.527	39446.6
688.874	39514.62
689.221	39303.1
689.568	39135.43
689.915	39049.33
690.262	39113.96
690.609	38979.05
690.956	38885.49
691.303	38805.94
691.65	38644.59
691.997	38637.81
692.344	38433.75
692.69	38329.8
693.037	38330.25
693.383	38043.7
693.73	38128.9
694.077	37872.41
694.423	37919.41
694.769	37794.9
695.116	37639.19
695.462	37760.32
695.808	37635.35
696.155	37612.08
696.501	37422.48
696.847	37464.51
697.193	37254.12
697.539	37252.31
697.885	36999.21
698.231	37054.58
698.577	36938.65
698.923	37054.35
699.269	36683.96
699.614	36593.57
699.96	36540.01
700.306	36659.33
700.651	36408.04
700.997	36213.02
701.342	36257.08
701.688	36158.33
702.033	36038.11
702.379	35961.72
702.724	35794.95
703.069	35881.73
703.415	35562.64
703.76	35477.67
704.105	35609.87
704.45	35537.78
704.795	35341.18
705.14	35162.42
705.485	35228.86
705.83	35026.83
706.175	35079.04
706.52	34973.73
706.865	34993.16
707.209	34814.86
707.554	34754.07
707.899	34792.26
708.243	34597.92
708.588	34578.48
708.932	34301.65
709.277	34383.23
709.621	34310.69
709.966	34164.03
710.31	34279.96
710.654	33905.73
710.998	33921.1
711.342	33983.47
711.687	33812.4
712.031	33631.39
712.375	33686.98
712.719	33531.96
713.063	33684.04
713.407	33520.88
713.75	33467.55
714.094	33331.06
714.438	33246.99
714.782	33383.49
715.125	33139.2
715.469	33317.05
715.812	32982.82
716.156	32785.99
716.499	32931.07
716.843	32943.95
717.186	32870.51
717.53	32935.59
717.873	32835.7
718.216	32689.49
718.559	32606.11
718.902	32325.21
719.246	32434.81
719.589	32487.01
719.932	32321.14
720.275	32312.78
720.617	32352.55
720.96	32279.33
721.303	32226
721.646	32196.85
721.989	31968.61
722.331	31978.55
722.674	31972.9
723.016	31916.18
723.359	32052.9
723.701	31824.66
724.044	31725.45
724.386	31566.36
724.729	31565.91
725.071	31625.57
725.413	31620.82
725.755	31716.64
726.097	31421.73
726.439	31266.48
726.782	31332.92
727.124	31476.19
727.465	31294.73
727.807	31238.23
728.149	31246.14
728.491	31094.73
728.833	31201.17
729.175	30939.71
729.516	30992.59
729.858	30952.36
730.199	30875.98
730.541	30906.04
730.882	30862.42
731.224	30898.81
731.565	30719.83
731.906	30692.48
732.248	30706.49
732.589	30544.47
732.93	30525.71
733.271	30439.38
733.612	30504.69
733.953	30508.76
734.294	30375.43
734.635	30249.56
734.976	30367.52
735.317	30152.39
735.658	30172.95
735.999	30187.64
736.339	30038.26
736.68	30170.24
737.021	30040.98
737.361	29900.19
737.702	30060.86
738.042	29826.07
738.383	29872.39
738.723	29968.89
739.063	29806.86
739.404	29853.86
739.744	29675.56
740.084	29575
740.424	29690.7
740.764	29571.38
741.104	29687.09
741.444	29364.61
741.784	29448.67
742.124	29434.21
742.464	29500.2
742.804	29306.31
743.143	29334.33
743.483	29231.05
743.823	29108.8
744.162	29179.98
744.502	29258.4
744.841	29068.12
745.181	29083.71
745.52	29048.23
745.86	29138.17
746.199	29056.82
746.538	28937.95
746.877	29009.14
747.216	28948.12
747.556	28842.82
747.895	28850.5
748.234	28760.78
748.573	28726.66
748.911	28598.08
749.25	28722.82
749.589	28542.94
749.928	28627.23
750.267	28514.24
750.605	28359.21
750.944	28349.49
751.283	28344.3
751.621	28398.31
751.96	28226.11
752.298	28187.01
752.636	28149.95
752.975	28052.33
753.313	27914.48
753.651	28165.54
753.989	27923.07
754.327	27907.02
754.666	27785.89
755.004	27849.62
755.342	27687.59
755.679	27690.53
756.017	27542.51
756.355	27701.38
756.693	27486.92
757.031	27610.53
757.368	27356.07
757.706	27283.76
758.044	27287.38
758.381	27273.82
758.719	27109.08
759.056	27306.36
759.394	27031.79
759.731	26852.36
760.068	26858.46
760.405	26780.72
760.743	26685.13
761.08	26746.37
761.417	26598.81
761.754	26467.96
762.091	26408.08
762.428	26436.78
762.765	26267.29
763.102	26382.31
763.438	26240.62
763.775	26073.85
764.112	26004.25
764.449	26153.39
764.785	25927.64
765.122	25757.02
765.458	25760.86
765.795	25542.11
766.131	25597.02
766.467	25541.66
766.804	25410.36
767.14	25355.45
767.476	25298.5
767.812	25179.86
768.148	25202.23
768.485	25028.68
768.821	24900.55
769.157	24929.02
769.492	24832.75
769.828	24792.98
770.164	24610.61
770.5	24628.24
770.836	24573.1
771.171	24436.15
771.507	24351.41
771.842	24197.97
772.178	24212.65
772.513	24020.34
772.849	24033.22
773.184	23917.75
773.519	23933.11
773.855	23710.75
774.19	23606.57
774.525	23618.77
774.86	23733.34
775.195	23492.45
775.53	23294.03
775.865	23223.98
776.2	23129.52
776.535	22936.76
776.87	23011.78
777.205	22809.98
777.539	22836.87
777.874	22813.37
778.209	22637.55
778.543	22619.7
778.878	22473.04
779.212	22478.24
779.547	22255.64
779.881	22431.01
780.215	22223.1
780.55	22233.95
780.884	22038.93
781.218	22046.84
781.552	21944.24
781.886	21860.63
782.22	21743.34
782.554	21799.16
782.888	21426.29
783.222	21455.89
783.556	21355.55
783.889	21215.67
784.223	21255.44
784.557	21013.42
784.89	21091.15
785.224	20998.5
785.557	20881.22
785.891	20919.18
786.224	20743.59
786.558	20849.58
786.891	20526.42
787.224	20612.07
787.557	20476.71
787.891	20442.58
788.224	20386.77
788.557	20439.42
788.89	20297.95
789.223	20302.7
789.556	20063.61
789.888	19990.62
790.221	19980.22
790.554	19872.2
790.887	19875.14
791.219	19762.38
791.552	19638.76
791.884	19516.96
792.217	19562.83
792.549	19556.51
792.882	19342.27
793.214	19347.7
793.546	19317.64
793.879	19159
794.211	19072.22
794.543	19198.77
794.875	19093.47
795.207	19086.01
795.539	18847.37
795.871	18903.42
796.203	18664.55
796.535	18650.09
796.867	18701.84
797.198	18639.24
797.53	18633.14
797.862	18348.85
798.193	18428.85
798.525	18309.31
798.856	18427.95
799.188	18151.8
799.519	18033.83
799.85	17937.34
800.182	18091.69
800.513	18007.85
800.844	17900.96
801.175	18054.62
801.506	17958.81
801.837	17744.35
802.168	17891.24
802.499	17679.49
802.83	17678.59
803.161	17558.37
803.491	17530.8
803.822	17493.28
804.153	17457.35
804.483	17255.78
804.814	17302.55
805.145	17303.23
805.475	17287.64
805.805	17169.22
806.136	17145.5
806.466	17163.57
806.796	16997.48
807.126	16877.71
807.457	16850.36
807.787	16896.24
808.117	16854.66
808.447	16767.65
808.777	16821.21
809.107	16734.43
809.436	16717.71
809.766	16656.02
810.096	16520.2
810.426	16552.74
810.755	16539.41
811.085	16465.29
811.414	16357.95
811.744	16312.75
812.073	16247.44
812.403	16265.97
812.732	16165.41
813.061	16165.63
813.39	16095.13
813.719	16069.59
814.049	16124.51
814.378	16018.07
814.707	15959.09
815.036	15850.61
815.365	15849.26
815.693	15740.79
816.022	15790.95
816.351	15640.45
816.68	15679.55
817.008	15644.29
817.337	15551.41
817.665	15516.61
817.994	15586.67
818.322	15543.5
818.651	15465.09
818.979	15277.75
819.307	15435.71
819.636	15280.46
819.964	15184.87
820.292	15287.47
820.62	15244.98
820.948	15224.19
821.276	15337.63
821.604	15155.72
821.932	15276.39
822.259	15196.62
822.587	15214.02
822.915	15148.71
823.243	15255.38
823.57	15028.94
823.898	15111.88
824.225	15087.02
824.553	15165.43
824.88	15034.59
825.207	15154.36
825.535	15103.29
825.862	15172.21
826.189	15038.21
826.516	15192.33
826.843	15143.51
827.17	15139.45
827.497	15187.13
827.824	15173.8
828.151	15232.33
828.478	15118.88
828.805	15143.51
829.131	15072.1
829.458	15029.84
829.785	15000.02
830.111	15077.53
830.438	15171.76
830.764	15175.15
831.09	15056.74
831.417	14987.59
831.743	15065.55
832.069	15082.27
832.395	15027.13
832.722	15004.76
833.048	14971.32
833.374	15049.28
833.7	14859.45
834.026	14999.34
834.351	14981.03
834.677	14944.65
835.003	15006.34
835.329	14917.08
835.654	14857.65
835.98	14829.62
836.306	14883.18
836.631	14787.14
836.956	14800.92
837.282	14806.12
837.607	14724.32
837.932	14717.76
838.258	14747.37
838.583	14637.31
838.908	14507.6
839.233	14587.6
839.558	14611.1
839.883	14502.63
840.208	14524.32
840.533	14545.34
840.858	14492.68
841.182	14470.31
841.507	14483.42
841.832	14287.49
842.156	14292.92
842.481	14414.04
842.805	14297.43
843.13	14223.99
843.454	14222.63
843.778	14187.83
844.103	14138.34
844.427	14103.09
844.751	14175.18
845.075	14125.46
845.399	13991.68
845.723	13985.13
846.047	14007.95
846.371	13831.46
846.695	13800.5
847.019	13701.07
847.343	13701.07
847.666	13670.11
847.99	13574.52
848.313	13599.15
848.637	13539.26
848.96	13456.55
849.284	13506.95
849.607	13327.97
849.931	13336.33
850.254	13228.99
850.577	13173.85
850.9	13098.82
851.223	13095.21
851.546	12991.25
851.869	12972.05
852.192	13001.65
852.515	12829.9
852.838	12748.55
853.161	12765.95
853.483	12693.41
853.806	12680.3
854.129	12609.57
854.451	12638.72
854.774	12515.79
855.096	12495.22
855.419	12403.7
855.741	12404.15
856.063	12272.86
856.385	12243.03
856.708	12329.12
857.03	12227.66
857.352	12279.18
857.674	12160.32
857.996	12209.35
858.318	12181.56
858.64	12121.45
858.961	12112.18
859.283	12013.88
859.605	11956.93
859.926	11985.18
860.248	11979.76
860.57	11819.53
860.891	11857.5
861.212	11865.18
861.534	11700.21
861.855	11782.47
862.176	11798.29
862.498	11834.9
862.819	11755.81
863.14	11694.79
863.461	11684.62
863.782	11632.87
864.103	11736.82
864.424	11631.52
864.745	11617.28
865.065	11497.96
865.386	11510.84
865.707	11520.78
866.027	11514.01
866.348	11494.12
866.668	11439.88
866.989	11401.47
867.309	11321.69
867.63	11426.32
867.95	11396.27
868.27	11276.5
868.59	11275.82
868.91	11301.13
869.23	11298.42
869.55	11142.04
869.87	11248.7
870.19	11286.67
870.51	11237.18
870.83	11245.09
871.15	11196.73
871.469	11122.83
871.789	11173
872.109	11099.33
872.428	11091.87
872.748	11099.33
873.067	11085.32
873.386	11054.36
873.706	11007.35
874.025	10998.31
874.344	10893.68
874.663	10950.4
874.982	10906.79
875.301	10954.92
875.62	10902.5
875.939	10928.48
876.258	10874.7
876.577	10853.68
876.896	10844.64
877.214	10814.36
877.533	10771.2
877.852	10802.16
878.17	10782.72
878.489	10776.85
878.807	10754.48
879.125	10779.34
879.444	10682.61
879.762	10651.65
880.08	10679.68
880.398	10601.94
880.716	10650.98
881.034	10533.47
881.352	10634.25
881.67	10615.95
881.988	10589.51
882.306	10467.48
882.624	10479
882.941	10489.4
883.259	10382.96
883.577	10433.36
883.894	10364.88
884.212	10307.94
884.529	10274.49
884.846	10298.67
885.164	10299.12
885.481	10156.07
885.798	10293.02
886.115	10170.99
886.432	10235.62
886.75	10102.74
887.067	10128.96
887.383	10100.48
887.7	10101.84
888.017	10048.51
888.334	10109.07
888.651	9985.23
888.967	10020.26
889.284	9948.85
889.6	9857.55
889.917	9955.85
890.233	9840.83
890.55	9795.63
890.866	9827.5
891.182	9796.99
891.498	9729.42
891.815	9744.33
892.131	9708.63
892.447	9676.77
892.763	9685.58
893.079	9667.05
893.395	9614.39
893.71	9543.89
894.026	9546.15
894.342	9522.19
894.657	9408.3
894.973	9472.48
895.289	9521.29
895.604	9350.45
895.92	9360.62
896.235	9291.01
896.55	9288.3
896.865	9260.28
897.181	9249.66
897.496	9226.16
897.811	9119.04
898.126	9152.49
898.441	9116.1
898.756	9054.41
899.071	9045.6
899.386	9097.57
899.7	8929.67
900.015	8944.13
900.33	8865.49
900.644	8836.79
900.959	8877.46
901.273	8807.64
901.588	8774.19
901.902	8751.14
902.216	8820.29
902.531	8698.26
902.845	8698.94
903.159	8604.93
903.473	8596.79
903.787	8535.1
904.101	8521.77
904.415	8512.73
904.729	8451.71
905.042	8410.81
905.356	8409.68
905.67	8441.09
905.984	8343.69
906.297	8289.23
906.611	8305.05
906.924	8293.98
907.237	8284.03
907.551	8185.96
907.864	8139.86
908.177	8157.71
908.491	8112.74
908.804	8044.49
909.117	8025.28
909.43	7941.22
909.743	7960.88
910.056	7950.48
910.368	7961.78
910.681	7951.39
910.994	7892.86
911.307	7862.12
911.619	7733.99
911.932	7805.85
912.244	7685.41
912.557	7713.65
912.869	7627.78
913.181	7721.34
913.494	7629.81
913.806	7584.16
914.118	7566.76
914.43	7487.67
914.742	7480.21
915.054	7439.76
915.366	7381.68
915.678	7336.94
915.99	7337.39
916.302	7319.54
916.613	7261.91
916.925	7272.08
917.236	7235.47
917.548	7143.5
917.859	7221.91
918.171	7118.87
918.482	7092.88
918.794	7056.95
919.105	7096.49
919.416	6944.18
919.727	7021.02
920.038	6992.77
920.349	6956.16
920.66	6890.17
920.971	6892.66
921.282	6871.19
921.593	6808.59
921.903	6790.97
922.214	6738.31
922.525	6725.43
922.835	6674.58
923.146	6636.17
923.456	6663.06
923.767	6610.41
924.077	6602.95
924.387	6564.98
924.697	6521.14
925.008	6479.11
925.318	6474.59
925.628	6503.06
925.938	6391.65
926.248	6374.25
926.558	6329.73
926.867	6321.6
927.177	6306.68
927.487	6226.23
927.796	6200.02
928.106	6171.32
928.416	6162.06
928.725	6176.29
929.034	6136.52
929.344	6146.91
929.653	6118.67
929.962	6047.93
930.271	6028.95
930.581	6012.68
930.89	6009.74
931.199	5953.93
931.508	5964.09
931.817	5969.74
932.125	5875.74
932.434	5851.33
932.743	5762.52
933.051	5788.51
933.36	5806.36
933.669	5756.42
933.977	5749.86
934.286	5757.32
934.594	5740.15
934.902	5664.89
935.21	5604.56
935.519	5615.18
935.827	5588.29
936.135	5526.14
936.443	5533.37
936.751	5469.42
937.059	5501.96
937.367	5477.33
937.674	5476.42
937.982	5458.57
938.29	5416.31
938.597	5376.99
938.905	5318.46
939.213	5342.19
939.52	5287.05
939.827	5315.3
940.135	5253.15
940.442	5252.7
940.749	5276.66
941.056	5235.53
941.363	5160.73
941.67	5131.35
941.977	5139.03
942.284	5100.39
942.591	5101.74
942.898	5085.02
943.205	5078.47
943.511	5021.97
943.818	5027.62
944.125	4976.32
944.431	4951.24
944.738	4928.87
945.044	4943.78
945.35	4883.67
945.657	4836.67
945.963	4867.85
946.269	4838.47
946.575	4806.38
946.881	4785.59
947.187	4775.2
947.493	4736.1
947.799	4762.54
948.105	4701.75
948.41	4652.04
948.716	4693.17
949.022	4678.25
949.327	4614.53
949.633	4588.31
949.938	4561.65
950.244	4555.32
950.549	4528.43
950.854	4580.85
951.16	4534.98
951.465	4464.47
951.77	4464.7
952.075	4458.15
952.38	4434.42
952.685	4432.16
952.99	4382.89
953.294	4352.16
953.599	4386.51
953.904	4342.22
954.209	4287.3
954.513	4267.64
954.818	4239.39
955.122	4232.39
955.426	4215.44
955.731	4213.41
956.035	4170.47
956.339	4210.69
956.643	4171.37
956.948	4120.75
957.252	4133.18
957.556	4152.16
957.86	4099.96
958.163	4097.03
958.467	4091.83
958.771	4054.31
959.075	4042.79
959.378	3988.33
959.682	3989.46
959.985	3968.44
960.289	3969.34
960.592	3929.12
960.896	3920.31
961.199	3920.08
961.502	3904.94
961.805	3865.62
962.108	3874.21
962.411	3838.05
962.714	3811.16
963.017	3759.41
963.32	3825.62
963.623	3779.97
963.926	3738.16
964.228	3748.11
964.531	3726.19
964.833	3700.88
965.136	3711.05
965.438	3648.9
965.741	3676.02
966.043	3638.51
966.345	3581.78
966.648	3638.28
966.95	3616.81
967.252	3583.59
967.554	3562.8
967.856	3558.51
968.158	3548.34
968.46	3499.75
968.761	3511.28
969.063	3488.91
969.365	3470.15
969.666	3464.95
969.968	3440.77
970.269	3413.88
970.571	3398.96
970.872	3410.49
971.174	3374.56
971.475	3351.28
971.776	3304.05
972.077	3341.11
972.378	3331.62
972.679	3333.66
972.98	3302.02
973.281	3242.36
973.582	3280.1
973.883	3223.15
974.183	3194.22
974.484	3209.59
974.785	3199.2
975.085	3184.96
975.386	3204.39
975.686	3183.15
975.986	3184.05
976.287	3095.02
976.587	3111.29
976.887	3123.04
977.187	3101.57
977.487	3121.91
977.787	3058.18
978.087	3071.06
978.387	3053.89
978.687	3038.75
978.987	3018.18
979.286	2986.09
979.586	2954
979.885	2971.18
980.185	2952.2
980.484	2957.62
980.784	2918.75
981.083	2906.32
981.382	2908.13
981.682	2936.38
981.981	2886.66
982.28	2830.17
982.579	2851.18
982.878	2858.41
983.177	2851.18
983.475	2848.92
983.774	2792.65
984.073	2768.25
984.372	2803.05
984.67	2792.65
984.969	2756.95
985.267	2741.35
985.566	2724.63
985.864	2737.29
986.162	2732.09
986.461	2703.39
986.759	2676.72
987.057	2648.7
987.355	2652.32
987.653	2642.6
987.951	2640.34
988.249	2613.45
988.547	2600.12
988.844	2566.67
989.142	2582.49
989.44	2596.95
989.737	2566.22
990.035	2572.32
990.332	2524.19
990.63	2515.15
990.927	2535.03
991.224	2524.41
991.521	2518.08
991.819	2451.42
992.116	2447.8
992.413	2447.35
992.71	2434.24
993.006	2400.12
993.303	2448.93
993.6	2445.09
993.897	2395.6
994.193	2400.35
994.49	2382.72
994.787	2361.7
995.083	2347.24
995.379	2343.62
995.676	2337.07
995.972	2343.62
996.268	2327.81
996.565	2292.33
996.861	2262.72
997.157	2279.9
997.453	2288.71
997.749	2247.58
998.044	2241.25
998.34	2203.52
998.636	2183.86
998.932	2229.5
999.227	2208.49
999.523	2195.61
999.818	2196.06
1000.114	2123.97
1000.409	2137.98
1000.704	2116.51
1001	2112.22
1001.295	2128.04
1001.59	2103.41
1001.885	2083.97
1002.18	2097.53
1002.475	2049.85
1002.77	2057.98
1003.065	2071.09
1003.359	2048.94
1003.654	2058.89
1003.949	2007.36
1004.243	2001.26
1004.538	1997.65
1004.832	1976.4
1005.127	1986.57
1005.421	1977.53
1005.715	1961.71
1006.009	1975.27
1006.304	1940.47
1006.598	1939.12
1006.892	1843.52
1007.186	1861.83
1007.48	1885.78
1007.773	1881.26
1008.067	1858.67
1008.361	1857.99
1008.655	1867.93
1008.948	1843.98
1009.242	1819.57
1009.535	1816.86
1009.829	1791.32
1010.122	1807.14
1010.415	1800.81
1010.708	1778.44
1011.001	1791.55
1011.295	1776.63
1011.588	1750.42
1011.881	1738.67
1012.173	1717.88
1012.466	1695.05
1012.759	1697.77
1013.052	1733.47
1013.344	1685.34
1013.637	1681.95
1013.93	1661.61
1014.222	1672.23
1014.514	1657.54
1014.807	1618.9
1015.099	1635.17
1015.391	1593.14
1015.683	1618.22
1015.976	1609.63
1016.268	1551.1
1016.56	1576.41
1016.851	1561.95
1017.143	1567.37
1017.435	1570.09
1017.727	1539.8
1018.018	1537.32
1018.31	1540.48
1018.602	1530.99
1018.893	1528.05
1019.185	1487.83
1019.476	1487.38
1019.767	1472.91
1020.058	1466.36
1020.35	1455.06
1020.641	1442.41
1020.932	1439.69
1021.223	1427.72
1021.514	1400.37
1021.804	1402.86
1022.095	1397.89
1022.386	1397.44
1022.677	1394.95
1022.967	1387.94
1023.258	1396.08
1023.548	1375.51
1023.839	1383.65
1024.129	1352.46
1024.419	1338.23
1024.709	1312.47
1025	1349.98
1025.29	1297.1
1025.58	1337.32
1025.87	1312.01
1026.16	1272.01
1026.449	1279.92
1026.739	1281.28
1027.029	1257.33
1027.319	1232.69
1027.608	1242.86
1027.898	1227.27
1028.187	1231.56
1028.477	1233.15
1028.766	1221.17
1029.055	1182.75
1029.344	1195.63
1029.634	1187.95
1029.923	1179.36
1030.212	1158.35
1030.501	1152.92
1030.79	1161.06
1031.078	1133.94
1031.367	1132.58
1031.656	1143.66
1031.945	1134.17
1032.233	1112.92
1032.522	1105.92
1032.81	1071.79
1033.099	1093.49
1033.387	1085.13
1033.675	1109.08
1033.963	1071.34
1034.251	1059.36
1034.54	1039.03
1034.828	1046.71
1035.116	1053.04
1035.403	1020.27
1035.691	1028.41
1035.979	1016.88
1036.267	1009.65
1036.554	990.21
1036.842	1015.07
1037.129	1000.61
1037.417	985.02
1037.704	986.82
1037.992	958.58
1038.279	981.63
1038.566	985.69
1038.853	985.69
1039.14	985.69
