Data from hue_350_FLMS001491_88.txt Node
Date: Mon Feb 06 15:38:39 GMT 2017
User: dcchb
Spectrometer: FLMS00149
Trigger mode: 0
Integration Time (sec): 2.000000E-2
Scans to average: 10
Electric dark correction enabled: true
Nonlinearity correction enabled: false
Boxcar width: 0
XAxis mode: Wavelengths
Number of Pixels in Spectrum: 2048
>>>>>Begin Spectral Data<<<<<
341.393	-25.61
341.776	-25.61
342.16	-25.61
342.543	-66.51
342.927	-54.31
343.31	-73.74
343.693	-73.74
344.077	-59.5
344.46	-72.16
344.843	-58.15
345.226	-31.48
345.61	-52.05
345.993	-18.15
346.376	-10.24
346.759	8.29
347.142	25.69
347.525	58.23
347.908	78.35
348.291	79.48
348.674	89.42
349.057	109.76
349.44	120.83
349.823	152.69
350.206	178
350.588	203.99
350.971	198.57
351.354	225.69
351.737	237.66
352.119	262.52
352.502	263.65
352.884	261.39
353.267	275.85
353.65	282.41
354.032	296.64
354.414	293.03
354.797	317.66
355.179	326.47
355.562	336.64
355.944	337.77
356.326	315.4
356.709	332.58
357.091	332.12
357.473	326.47
357.855	341.39
358.238	346.59
358.62	342.07
359.002	371.9
359.384	344.1
359.766	331.45
360.148	335.51
360.53	329.19
360.912	342.97
361.294	331.9
361.676	318.34
362.057	345.91
362.439	322.63
362.821	344.33
363.203	331.67
363.584	325.34
363.966	323.76
364.348	320.15
364.729	319.24
365.111	333.93
365.493	333.25
365.874	314.27
366.256	298.45
366.637	307.72
367.019	322.86
367.4	306.14
367.781	305.68
368.163	297.55
368.544	310.2
368.925	325.8
369.306	328.73
369.688	305.91
370.069	308.17
370.45	300.71
370.831	293.93
371.212	299.81
371.593	312.01
371.974	300.03
372.355	313.82
372.736	321.95
373.117	297.1
373.498	300.26
373.879	311.79
374.26	297.77
374.641	298.9
375.021	309.3
375.402	304.1
375.783	320.37
376.163	320.6
376.544	332.12
376.925	319.47
377.305	300.71
377.686	309.53
378.066	340.94
378.447	324.44
378.827	333.48
379.208	329.19
379.588	329.64
379.968	353.37
380.349	356.76
380.729	330.77
381.109	321.73
381.489	333.25
381.87	322.63
382.25	344.1
382.63	329.64
383.01	347.49
383.39	362.18
383.77	327.6
384.15	345.46
384.53	347.49
384.91	341.62
385.29	345.68
385.67	351.11
386.049	341.62
386.429	347.72
386.809	349.07
387.189	345.68
387.568	374.61
387.948	345.46
388.328	364.67
388.707	368.28
389.087	352.69
389.466	342.52
389.846	360.6
390.225	363.31
390.605	360.82
390.984	363.31
391.363	355.63
391.743	351.56
392.122	379.81
392.501	361.73
392.881	367.6
393.26	351.56
393.639	353.14
394.018	338.45
394.397	373.25
394.776	370.32
395.155	368.51
395.534	362.86
395.913	384.78
396.292	360.6
396.671	375.51
397.05	380.48
397.429	396.76
397.808	367.38
398.186	375.51
398.565	363.08
398.944	358.11
399.323	393.59
399.701	388.62
400.08	389.3
400.458	382.52
400.837	386.13
401.215	407.38
401.594	395.63
401.972	392.24
402.351	410.54
402.729	407.6
403.107	395.85
403.486	407.83
403.864	414.83
404.242	419.81
404.62	399.24
404.999	385.91
405.377	405.57
405.755	409.41
406.133	429.3
406.511	424.78
406.889	420.48
407.267	415.06
407.645	436.53
408.023	429.07
408.401	428.84
408.779	421.84
409.156	429.97
409.534	441.95
409.912	428.39
410.29	439.92
410.667	446.47
411.045	445.34
411.422	446.92
411.8	486.7
412.178	439.24
412.555	441.5
412.933	435.62
413.31	465
413.687	459.35
414.065	472.91
414.442	489.86
414.819	473.82
415.197	472.91
415.574	494.15
415.951	481.72
416.328	485.34
416.705	516.75
417.082	490.54
417.46	502.97
417.837	501.61
418.214	508.62
418.591	507.94
418.967	508.39
419.344	510.42
419.721	531.67
420.098	521.95
420.475	520.82
420.852	505.23
421.228	533.25
421.605	522.85
421.982	523.98
422.358	541.16
422.735	554.04
423.111	554.04
423.488	562.17
423.864	561.95
424.241	561.5
424.617	563.76
424.994	558.11
425.37	552.01
425.746	552.68
426.123	558.33
426.499	576.64
426.875	608.27
427.251	554.94
427.627	584.32
428.003	597.65
428.379	582.96
428.756	579.8
429.132	595.85
429.507	607.37
429.883	631.55
430.259	630.65
430.635	628.84
431.011	628.16
431.387	656.86
431.763	629.74
432.138	658.22
432.514	680.36
432.89	645.56
433.265	666.8
433.641	664.32
434.016	667.71
434.392	693.47
434.767	676.3
435.143	687.37
435.518	683.98
435.894	692.34
436.269	688.95
436.644	719.91
437.02	739.34
437.395	722.17
437.77	731.21
438.145	737.31
438.52	740.7
438.895	731.89
439.271	745.45
439.646	761.04
440.021	750.64
440.395	754.94
440.77	744.77
441.145	768.27
441.52	756.07
441.895	765.78
442.27	778.21
442.645	802.62
443.019	796.07
443.394	780.7
443.769	789.97
444.143	786.58
444.518	796.07
444.892	834.48
445.267	806.69
445.641	829.51
446.016	806.24
446.39	834.94
446.764	817.08
447.139	814.6
447.513	847.82
447.887	816.18
448.262	857.53
448.636	826.57
449.01	837.42
449.384	858.66
449.758	852.56
450.132	868.83
450.506	877.65
450.88	872.22
451.254	864.54
451.628	884.2
452.002	912
452.376	882.17
452.75	897.98
453.123	904.99
453.497	914.48
453.871	922.84
454.244	942.5
454.618	934.37
454.992	935.27
455.365	972.79
455.739	994.03
456.112	980.24
456.486	975.72
456.859	1004.65
457.232	984.76
457.606	984.99
457.979	990.41
458.352	1027.02
458.725	1012.78
459.099	1048.72
459.472	1027.02
459.845	1066.34
460.218	1044.87
460.591	1050.3
460.964	1060.47
461.337	1078.09
461.71	1090.3
462.083	1097.3
462.456	1119.45
462.829	1095.04
463.201	1133.68
463.574	1127.13
463.947	1124.42
464.32	1174.36
464.692	1191.99
465.065	1195.6
465.438	1182.72
465.81	1205.1
466.183	1236.28
466.555	1230.41
466.928	1277.41
467.3	1265.43
467.672	1281.25
468.045	1289.16
468.417	1292.78
468.789	1304.08
469.161	1312.44
469.534	1328.48
469.906	1361.02
470.278	1360.57
470.65	1408.48
471.022	1403.51
471.394	1425.2
471.766	1451.64
472.138	1424.07
472.51	1487.8
472.882	1536.84
473.253	1529.61
473.625	1545.88
473.997	1594.01
474.369	1582.71
474.74	1597.4
475.112	1644.18
475.484	1656.61
475.855	1676.04
476.227	1705.65
476.598	1726.21
476.97	1757.4
477.341	1779.09
477.713	1810.96
478.084	1836.27
478.455	1871.29
478.827	1890.05
479.198	1955.13
479.569	1926.21
479.94	1945.41
480.311	2010.05
480.682	2044.85
481.053	2081.91
481.424	2127.56
481.795	2138.86
482.166	2191.74
482.537	2194.9
482.908	2233.99
483.279	2251.62
483.65	2316.93
484.021	2355.57
484.391	2375.01
484.762	2417.94
485.133	2404.39
485.503	2469.69
485.874	2510.82
486.244	2541.56
486.615	2582.01
486.985	2657.94
487.356	2651.61
487.726	2683.47
488.097	2702.46
488.467	2757.15
488.837	2830.82
489.207	2861.78
489.578	2940.42
489.948	2878.95
490.318	2925.95
490.688	2993.3
491.058	3001.66
491.428	3062.22
491.798	3086.4
492.168	3115.33
492.538	3131.15
492.908	3188.32
493.278	3232.84
493.648	3242.1
494.017	3280.52
494.387	3303.57
494.757	3332.95
495.126	3347.41
495.496	3397.13
495.866	3417.92
496.235	3433.74
496.605	3452.72
496.974	3447.52
497.344	3547.18
497.713	3594.19
498.082	3576.56
498.452	3645.48
498.821	3647.74
499.19	3659.72
499.559	3661.53
499.928	3756.67
500.298	3708.53
500.667	3790.79
501.036	3738.36
501.405	3793.28
501.774	3774.97
502.143	3829.43
502.512	3818.36
502.88	3865.14
503.249	3863.78
503.618	3921.63
503.987	3904.01
504.356	3901.75
504.724	4035.98
505.093	3977.45
505.462	3986.27
505.83	4040.05
506.199	4041.63
506.567	4078.69
506.936	4061.52
507.304	4122.76
507.672	4115.3
508.041	4089.77
508.409	4185.13
508.777	4228.52
509.145	4212.47
509.514	4201.63
509.882	4243.89
510.25	4250.44
510.618	4260.38
510.986	4276.2
511.354	4339.7
511.722	4321.4
512.09	4383.09
512.458	4360.04
512.826	4388.51
513.193	4408.18
513.561	4408.4
513.929	4412.92
514.297	4468.96
514.664	4503.54
515.032	4497.66
515.4	4541.05
515.767	4496.99
516.135	4536.53
516.502	4479.81
516.869	4645.91
517.237	4595.29
517.604	4615.18
517.972	4634.84
518.339	4653.37
518.706	4613.59
519.073	4612.01
519.44	4679.35
519.808	4703.08
520.175	4686.59
520.542	4732.01
520.909	4768.39
521.276	4728.62
521.643	4829.63
522.009	4817.43
522.376	4887.71
522.743	4895.39
523.11	4899.91
523.477	4911.21
523.843	4917.54
524.21	4983.75
524.577	5018.33
524.943	4983.08
525.31	5050.64
525.676	5082.96
526.043	5127.25
526.409	5068.5
526.776	5186.91
527.142	5159.34
527.508	5237.53
527.874	5173.58
528.241	5279.34
528.607	5263.75
528.973	5284.99
529.339	5309.62
529.705	5380.58
530.071	5415.15
530.437	5405.89
530.803	5485.66
531.169	5482.05
531.535	5466.9
531.901	5495.38
532.267	5554.81
532.632	5564.98
532.998	5565.43
533.364	5561.37
533.73	5607.47
534.095	5636.84
534.461	5617.63
534.826	5682.04
535.192	5697.41
535.557	5757.07
535.923	5769.5
536.288	5790.74
536.653	5781.92
537.019	5799.32
537.384	5817.18
537.749	5879.32
538.114	5919.32
538.479	5861.02
538.845	5932.2
539.21	5905.76
539.575	5991.64
539.94	5985.08
540.305	6034.57
540.67	6065.31
541.034	6057.17
541.399	6041.13
541.764	6108.24
542.129	6143.04
542.494	6162.71
542.858	6176.94
543.223	6215.36
543.587	6263.95
543.952	6232.31
544.316	6249.48
544.681	6257.39
545.045	6380.78
545.41	6316.37
545.774	6421.23
546.138	6405.86
546.503	6410.16
546.867	6428.23
547.231	6472.98
547.595	6531.28
547.959	6501.91
548.324	6475.69
548.688	6521.79
549.052	6573.99
549.416	6589.36
549.779	6654.22
550.143	6623.48
550.507	6689.02
550.871	6691.28
551.235	6704.39
551.599	6760.43
551.962	6757.49
552.326	6799.98
552.689	6829.35
553.053	6799.07
553.417	6835.91
553.78	6855.57
554.143	6881.78
554.507	6936.02
554.87	6927.88
555.234	6962.68
555.597	6916.81
555.96	6962.01
556.323	6995.9
556.686	7046.98
557.05	7017.37
557.413	7116.35
557.776	7063.25
558.139	7158.39
558.502	7148.89
558.865	7146.86
559.228	7218.27
559.59	7200.64
559.953	7221.66
560.316	7286.74
560.679	7327.87
561.041	7333.07
561.404	7366.29
561.767	7404.48
562.129	7359.28
562.492	7426.85
562.854	7464.59
563.217	7427.53
563.579	7500.52
563.941	7521.31
564.304	7501.88
564.666	7569.45
565.028	7672.27
565.39	7630.24
565.753	7654.42
566.115	7725.83
566.477	7721.31
566.839	7751.14
567.201	7815.54
567.563	7812.83
567.925	7844.02
568.287	7910.46
568.648	7876.11
569.01	7896.44
569.372	7983.45
569.734	7983.67
570.095	8002.43
570.457	8015.54
570.819	8072.94
571.18	8064.8
571.542	8124.46
571.903	8163.56
572.265	8231.8
572.626	8235.42
572.987	8302.08
573.349	8295.76
573.71	8434.06
574.071	8447.84
574.432	8450.1
574.794	8575.07
575.155	8570.78
575.516	8591.12
575.877	8729.42
576.238	8703.88
576.599	8845.8
576.96	8886.48
577.32	8841.05
577.681	9028.84
578.042	9047.15
578.403	9122.85
578.763	9181.83
579.124	9312.23
579.485	9405.33
579.845	9523.07
580.206	9578.66
580.566	9730.97
580.927	9784.76
581.287	9914.02
581.648	10008.48
582.008	10128.7
582.368	10241.69
582.728	10403.72
583.089	10529.82
583.449	10661.34
583.809	10803.94
584.169	11012.75
584.529	11100.43
584.889	11313.76
585.249	11426.3
585.609	11623.13
585.969	11906.73
586.329	11929.79
586.688	12229.89
587.048	12310.79
587.408	12594.85
587.768	12756.66
588.127	12958.01
588.487	13223.31
588.846	13523.64
589.206	13599.57
589.565	13868.94
589.925	14147.35
590.284	14400
590.643	14637.96
591.003	14894.68
591.362	15192.52
591.721	15382.8
592.08	15778.27
592.44	15960.87
592.799	16305.94
593.158	16556.33
593.517	16719.26
593.876	17114.51
594.235	17325.12
594.593	17590.2
594.952	17910.87
595.311	18221.6
595.67	18549.72
596.029	18844.18
596.387	19059.54
596.746	19503.15
597.104	19642.58
597.463	20022.68
597.822	20346.06
598.18	20573.85
598.538	20837.12
598.897	21277.34
599.255	21335.64
599.613	21879.13
599.972	22038.22
600.33	22316.18
600.688	22444.31
601.046	22865.99
601.404	23217.4
601.762	23462.36
602.12	23867.32
602.478	24080.2
602.836	24360.42
603.194	24469.57
603.552	24707.53
603.91	24898.71
604.268	25402.2
604.625	25516.32
604.983	25901.85
605.341	25987.95
605.698	26329.18
606.056	26729.85
606.413	26830.86
606.771	27217.07
607.128	27372.54
607.485	27445.76
607.843	27655.02
608.2	28106.08
608.557	28398.5
608.914	28500.65
609.272	28821.77
609.629	29095.89
609.986	29385.15
610.343	29464.01
610.7	29898.35
611.057	29982.19
611.414	30083.21
611.771	30259.02
612.127	30685
612.484	30611.78
612.841	30987.36
613.198	31074.82
613.554	31326.79
613.911	31659.21
614.267	31797.06
614.624	31937.85
614.98	32024.4
615.337	32339.19
615.693	32359.3
616.05	32584.84
616.406	32881.78
616.762	32880.87
617.118	33065.05
617.475	33298.94
617.831	33470.24
618.187	33633.85
618.543	33681.53
618.899	33948.42
619.255	34109.32
619.611	34150.9
619.967	34500.27
620.323	34505.01
620.678	34558.79
621.034	34636.98
621.39	34733.03
621.746	34786.59
622.101	35190.42
622.457	35018.22
622.812	35262.28
623.168	35505.21
623.523	35467.25
623.879	35701.14
624.234	35454.14
624.589	35749.05
624.945	35869.95
625.3	35926.67
625.655	35996.72
626.01	36093.22
626.365	36152.88
626.72	36262.48
627.075	36271.52
627.43	36313.32
627.785	36281.46
628.14	36496.37
628.495	36509.48
628.85	36645.52
629.205	36441.23
629.559	36712.18
629.914	36694.78
630.269	36737.04
630.623	36761.67
630.978	36748.12
631.332	36946.53
631.687	37039.41
632.041	36957.6
632.396	36968.67
632.75	36893.2
633.104	37009.35
633.459	36783.59
633.813	36905.63
634.167	36923.93
634.521	37105.39
634.875	37075.79
635.229	37007.77
635.583	36987.43
635.937	37043.25
636.291	36963.03
636.645	37046.86
636.999	36930.03
637.352	37023.81
637.706	36789.92
638.06	37020.2
638.413	37047.32
638.767	36930.94
639.121	37113.3
639.474	36867.43
639.828	36966.42
640.181	36980.65
640.534	37005.28
640.888	36932.97
641.241	36787.44
641.594	36947.43
641.947	37053.42
642.301	37005.06
642.654	36961.9
643.007	36885.97
643.36	36847.32
643.713	36953.08
644.066	36949.92
644.419	36986.3
644.771	36512.19
645.124	36265.42
645.477	36350.39
645.83	35917.4
646.182	35831.76
646.535	35922.15
646.888	35962.83
647.24	35703.4
647.593	35953.11
647.945	35840.12
648.298	35771.64
648.65	35622.95
649.002	35622.27
649.355	35846.22
649.707	35701.36
650.059	35833.79
650.411	36226.32
650.763	36236.49
651.115	36686.42
651.467	36555.13
651.819	36555.58
652.171	36588.57
652.523	36481.91
652.875	36398.29
653.227	36432.42
653.578	36627.21
653.93	36464.28
654.282	36330.5
654.633	36310.61
654.985	36387.67
655.337	36470.16
655.688	36380.22
656.039	36439.65
656.391	36134.35
656.742	36132.76
657.094	36192.42
657.445	36457.95
657.796	36386.32
658.147	36206.89
658.498	36259.77
658.849	36216.6
659.2	36208.92
659.551	36067.68
659.902	36277.62
660.253	36240.78
660.604	36295.92
660.955	36140.22
661.306	36303.38
661.656	36219.54
662.007	36174.12
662.358	36189.03
662.708	36127.12
663.059	36129.6
663.409	35984.52
663.76	36088.47
664.11	36125.99
664.461	36206.66
664.811	36254.8
665.161	36158.07
665.511	36078.53
665.862	36093.9
666.212	36200.33
666.562	36280.33
666.912	36123.95
667.262	36093.9
667.612	36122.82
667.962	36141.58
668.312	36021.58
668.662	36150.84
669.011	36058.87
669.361	36006.21
669.711	35976.38
670.06	36110.17
670.41	35886.22
670.76	36031.75
671.109	36029.94
671.459	35911.98
671.808	35922.15
672.157	35943.62
672.507	35696.17
672.856	35761.25
673.205	35828.37
673.554	35958.31
673.904	35854.58
674.253	36033.11
674.602	35976.61
674.951	35477.19
675.3	35194.26
675.649	35763.96
675.998	35729.61
676.346	35738.2
676.695	35912.21
677.044	35666.79
677.393	35634.7
677.741	35820.68
678.09	35657.52
678.438	35569.84
678.787	35707.69
679.135	35638.31
679.484	35297.76
679.832	35509.05
680.181	35320.81
680.529	35367.14
680.877	35440.35
681.225	35396.06
681.573	35488.49
681.922	35203.07
682.27	35217.76
682.618	35228.38
682.966	35087.82
683.314	35212.34
683.661	34919.01
684.009	34911.78
684.357	34766.02
684.705	34692.35
685.053	34745.23
685.4	34741.39
685.748	34650.09
686.095	34573.71
686.443	34399.48
686.79	34416.43
687.138	34560.83
687.485	34531.68
687.832	34253.27
688.18	34332.36
688.527	34201.97
688.874	34302.08
689.221	34087.39
689.568	33919.94
689.915	33976.66
690.262	33917
690.609	33785.26
690.956	33589.1
691.303	33756.1
691.65	33382.33
691.997	33654.41
692.344	33335.78
692.69	33301.43
693.037	33321.31
693.383	33101.66
693.73	33216.01
694.077	33085.39
694.423	33124.48
694.769	33015.33
695.116	32957.03
695.462	32789.58
695.808	32755
696.155	32779.41
696.501	32590.26
696.847	32557.27
697.193	32383.71
697.539	32503.48
697.885	32245.86
698.231	32201.12
698.577	32077.05
698.923	32047.45
699.269	31880.45
699.614	31775.14
699.96	31764.97
700.306	31841.35
700.651	31553.45
700.997	31506.9
701.342	31440.01
701.688	31398.43
702.033	31307.35
702.379	31196.85
702.724	31162.5
703.069	31200.46
703.415	30839.34
703.76	30892.68
704.105	30971.32
704.45	30779.46
704.795	30625.79
705.14	30503.08
705.485	30551.89
705.83	30430.32
706.175	30451.78
706.52	30284.33
706.865	30171.11
707.209	30299.25
707.554	30124.79
707.899	30215.41
708.243	30040.04
708.588	29950.33
708.932	29780.39
709.277	29836.88
709.621	29838.92
709.966	29518.7
710.31	29746.04
710.654	29394.64
710.998	29566.16
711.342	29473.5
711.687	29479.38
712.031	29322.32
712.375	29217.01
712.719	29145.83
713.063	29161.42
713.407	29139.28
713.75	29050.69
714.094	29053.18
714.438	28871.26
714.782	28894.31
715.125	28814.54
715.469	28769.79
715.812	28734.32
716.156	28591.72
716.499	28506.07
716.843	28542.23
717.186	28346.53
717.53	28422.23
717.873	28415
718.216	28345.85
718.559	28242.8
718.902	28099.08
719.246	28054.56
719.589	28118.29
719.932	27977.27
720.275	27988.35
720.617	27863.15
720.96	27783.61
721.303	27900.44
721.646	27919.42
721.989	27637.62
722.331	27764.17
722.674	27627.23
723.016	27706.55
723.359	27567.57
723.701	27600.11
724.044	27424.52
724.386	27238.99
724.729	27395.59
725.071	27348.14
725.413	27369.83
725.755	27338.19
726.097	27392.2
726.439	27127.8
726.782	27218.42
727.124	27199.44
727.465	27070.18
727.807	27123.06
728.149	26983.85
728.491	26907.02
728.833	26922.39
729.175	26792.22
729.516	26766.23
729.858	26760.13
730.199	26784.99
730.541	26644.88
730.882	26725.55
731.224	26633.35
731.565	26546.58
731.906	26599.91
732.248	26653.01
732.589	26429.97
732.93	26394.04
733.271	26426.35
733.612	26347.49
733.953	26393.13
734.294	26164.67
734.635	26263.87
734.976	26149.98
735.317	26138
735.658	26176.87
735.999	26076.98
736.339	26135.29
736.68	26192.69
737.021	26076.31
737.361	25900.27
737.702	26039.47
738.042	26010.77
738.383	25829.08
738.723	25905.91
739.063	25862.53
739.404	25924.22
739.744	25649.2
740.084	25700.95
740.424	25665.47
740.764	25599.03
741.104	25623.89
741.444	25501.18
741.784	25516.55
742.124	25504.8
742.464	25427.51
742.804	25523.33
743.143	25291.24
743.483	25431.35
743.823	25229.1
744.162	25252.15
744.502	25176.89
744.841	25140.51
745.181	25219.15
745.52	25097.57
745.86	25199.94
746.199	25128.08
746.538	25039.27
746.877	25105.48
747.216	25024.81
747.556	24945.49
747.895	25039.5
748.234	24823.68
748.573	24780.07
748.911	24785.04
749.25	24841.99
749.589	24752.5
749.928	24738.26
750.267	24768.54
750.605	24602.9
750.944	24650.35
751.283	24455.33
751.621	24577.14
751.96	24429.57
752.298	24491.49
752.636	24352.28
752.975	24234.55
753.313	24121.56
753.651	24346.63
753.989	24148.45
754.327	24149.35
754.666	24003.14
755.004	24076.81
755.342	24055.34
755.679	23975.8
756.017	23832.98
756.355	23965.4
756.693	23813.77
757.031	23743.49
757.368	23559.31
757.706	23609.48
758.044	23471.85
758.381	23488.35
758.719	23526.09
759.056	23510.27
759.394	23371.74
759.731	23302.82
760.068	23183.27
760.405	23092.88
760.743	23078.42
761.08	23093.33
761.417	23026.89
761.754	22964.07
762.091	22920
762.428	22832.1
762.765	22697.19
763.102	22705.55
763.438	22662.16
763.775	22442.28
764.112	22563.63
764.449	22560.24
764.785	22501.71
765.122	22322.96
765.458	22276.41
765.795	22173.81
766.131	22073.7
766.467	22064.89
766.804	21995.74
767.14	21975.4
767.476	21862.63
767.812	21719.58
768.148	21751.9
768.485	21553.26
768.821	21582.19
769.157	21494.51
769.492	21429.65
769.828	21351.68
770.164	21235.76
770.5	21110.11
770.836	21228.75
771.171	21041.64
771.507	20976.1
771.842	20910.34
772.178	20909.44
772.513	20791.02
772.849	20703.57
773.184	20560.52
773.519	20690.23
773.855	20515.55
774.19	20502.89
774.525	20408.21
774.86	20332.28
775.195	20273.29
775.53	20218.38
775.865	20114.43
776.2	19965.51
776.535	19856.81
776.87	19850.93
777.205	19744.04
777.539	19766.42
777.874	19742.24
778.209	19506.31
778.543	19469.02
778.878	19339.76
779.212	19384.96
779.547	19189.26
779.881	19323.94
780.215	19109.26
780.55	19148.35
780.884	19047.56
781.218	18903.39
781.552	18992.2
781.886	18936.38
782.22	18884.63
782.554	18690.51
782.888	18502.04
783.222	18428.37
783.556	18421.14
783.889	18403.97
784.223	18235.83
784.557	18182.5
784.89	18210.98
785.224	18105.89
785.557	17984.54
785.891	18001.26
786.224	17986.12
786.558	17920.14
786.891	17810.53
787.224	17716.07
787.557	17619.81
787.891	17618.22
788.224	17551.78
788.557	17578.9
788.89	17479.47
789.223	17439.92
789.556	17342.07
789.888	17321.28
790.221	17265.92
790.554	17105.69
790.887	17172.36
791.219	16952.7
791.552	16982.08
791.884	16850.56
792.217	16913.38
792.549	16848.07
792.882	16625.48
793.214	16726.72
793.546	16669.32
793.879	16557.91
794.211	16446.5
794.543	16476.11
794.875	16415.99
795.207	16455.32
795.539	16380.74
795.871	16385.26
796.203	16136.91
796.535	16090.13
796.867	16058.26
797.198	16070.02
797.53	16046.97
797.862	15937.14
798.193	15931.94
798.525	15845.84
798.856	15841.55
799.188	15696.24
799.519	15658.73
799.85	15613.76
800.182	15529.46
800.513	15627.09
800.844	15451.95
801.175	15507.54
801.506	15416.93
801.837	15376.93
802.168	15450.37
802.499	15304.16
802.83	15136.25
803.161	15234.33
803.491	15181.68
803.822	15237.49
804.153	15006.77
804.483	14944.17
804.814	14885.64
805.145	14825.3
805.475	14886.54
805.805	14829.82
806.136	14886.09
806.466	14789.37
806.796	14635.93
807.126	14612.43
807.457	14529.72
807.787	14611.52
808.117	14519.77
808.447	14476.61
808.777	14487.68
809.107	14451.07
809.436	14357.74
809.766	14296.28
810.096	14320.23
810.426	14297.86
810.755	14326.33
811.085	14203.85
811.414	14187.35
811.744	14014.25
812.073	14043.18
812.403	14033.23
812.732	13912.11
813.061	13884.99
813.39	13870.98
813.719	13768.61
814.049	13918.66
814.378	13819.45
814.707	13791.88
815.036	13750.08
815.365	13726.57
815.693	13557.76
816.022	13658.78
816.351	13571.1
816.68	13419.24
817.008	13475.06
817.337	13281.16
817.665	13316.42
817.994	13388.73
818.322	13425.79
818.651	13353.02
818.979	13239.13
819.307	13321.39
819.636	13195.97
819.964	13122.75
820.292	13177.44
820.62	13230.77
820.948	13179.02
821.276	13186.25
821.604	13124.56
821.932	13143.31
822.259	13059.02
822.587	13075.97
822.915	13128.62
823.243	13152.58
823.57	13059.02
823.898	13079.59
824.225	13089.53
824.553	13113.93
824.88	13033.03
825.207	13180.6
825.535	13088.4
825.862	13166.59
826.189	13109.19
826.516	13073.48
826.843	13092.24
827.17	13193.93
827.497	13108.96
827.824	13063.09
828.151	13151.9
828.478	13100.38
828.805	13151.22
829.131	13048.63
829.458	13020.83
829.785	13035.74
830.111	13099.02
830.438	13096.08
830.764	13047.5
831.09	13056.54
831.417	13037.1
831.743	13056.99
832.069	13078.46
832.395	12924.56
832.722	13022.64
833.048	12869.42
833.374	12989.42
833.7	12847.5
834.026	12893.38
834.351	12910.55
834.677	12912.81
835.003	12979.25
835.329	12913.04
835.654	12847.95
835.98	12728.18
836.306	12931.79
836.631	12786.94
836.956	12801.63
837.282	12746.94
837.607	12763.21
837.932	12663.1
838.258	12695.19
838.583	12703.1
838.908	12628.75
839.233	12684.12
839.558	12644.12
839.883	12488.64
840.208	12566.6
840.533	12610.45
840.858	12558.02
841.182	12504.46
841.507	12501.52
841.832	12413.84
842.156	12371.58
842.481	12450.9
842.805	12413.39
843.13	12339.27
843.454	12372.26
843.778	12250.91
844.103	12259.72
844.427	12287.06
844.751	12245.26
845.075	12171.13
845.399	12176.11
845.723	12055.21
846.047	12078.26
846.371	12019.73
846.695	12053.62
847.019	11877.13
847.343	11888.43
847.666	11763.91
847.99	11776.57
848.313	11704.71
848.637	11663.8
848.96	11670.58
849.284	11619.06
849.607	11480.76
849.931	11486.63
850.254	11441.21
850.577	11353.76
850.9	11252.29
851.223	11276.02
851.546	11177.71
851.869	11110.82
852.192	11204.61
852.515	11095
852.838	11039.87
853.161	11080.54
853.483	10961.45
853.806	10932.75
854.129	10912.64
854.451	10874.9
854.774	10771.17
855.096	10786.31
855.419	10787.22
855.741	10754.22
856.063	10672.42
856.385	10681.46
856.708	10601.68
857.03	10624.73
857.352	10599.2
857.674	10524.4
857.996	10425.64
858.318	10471.74
858.64	10500.22
858.961	10371.63
859.283	10395.14
859.605	10335.48
859.926	10338.19
860.248	10270.17
860.57	10262.03
860.891	10245.99
861.212	10205.54
861.534	10208.7
861.855	10187.91
862.176	10161.24
862.498	10184.52
862.819	10185.2
863.14	10087.8
863.461	10076.05
863.782	9998.99
864.103	10063.62
864.424	10036.73
864.745	10038.54
865.065	9913.12
865.386	9992.89
865.707	10000.34
866.027	9913.12
866.348	9930.29
866.668	9860.69
866.989	9866.34
867.309	9856.17
867.63	9853.46
867.95	9874.47
868.27	9728.94
868.59	9763.74
868.91	9773.91
869.23	9739.33
869.55	9674.03
869.87	9713.57
870.19	9727.81
870.51	9714.93
870.83	9687.81
871.15	9591.32
871.469	9560.81
871.789	9690.3
872.109	9662.5
872.428	9581.6
872.748	9661.82
873.067	9596.97
873.386	9578.66
873.706	9568.94
874.025	9483.3
874.344	9464.09
874.663	9555.84
874.982	9473.13
875.301	9420.92
875.62	9463.86
875.939	9431.32
876.258	9425.22
876.577	9354.94
876.896	9352.23
877.214	9373.92
877.533	9359.91
877.852	9310.87
878.17	9351.55
878.489	9326.69
878.807	9344.54
879.125	9329.63
879.444	9308.16
879.762	9215.96
880.08	9172.12
880.398	9204.89
880.716	9231.1
881.034	9275.39
881.352	9142.06
881.67	9143.64
881.988	9109.07
882.306	9127.15
882.624	9081.05
882.941	9074.27
883.259	9035.4
883.577	8982.29
883.894	8946.59
884.212	8911.11
884.529	8889.64
884.846	8949.52
885.164	8879.92
885.481	8832.01
885.798	8883.54
886.115	8836.53
886.432	8834.05
886.75	8774.16
887.067	8759.7
887.383	8761.51
887.7	8725.8
888.017	8670.21
888.334	8645.58
888.651	8660.72
888.967	8630.66
889.284	8613.04
889.6	8570.33
889.917	8538.91
890.233	8479.25
890.55	8541.4
890.866	8567.16
891.182	8521.74
891.498	8499.59
891.815	8415.75
892.131	8327.39
892.447	8384.12
892.763	8379.82
893.079	8251.01
893.395	8288.3
893.71	8251.01
894.026	8318.35
894.342	8184.35
894.657	8190.45
894.973	8166.04
895.289	8147.74
895.604	8178.7
895.92	8119.26
896.235	8067.97
896.55	8107.29
896.865	8046.27
897.181	7954.52
897.496	7959.04
897.811	7883.79
898.126	7924.69
898.441	7905.94
898.756	7890.8
899.071	7839.27
899.386	7828.65
899.7	7754.53
900.015	7756.56
900.33	7690.57
900.644	7685.6
900.959	7702.78
901.273	7633.18
901.588	7576.23
901.902	7584.81
902.216	7529.67
902.531	7514.76
902.845	7463.01
903.159	7468.89
903.473	7440.64
903.787	7393.41
904.101	7376.46
904.415	7359.28
904.729	7366.29
905.042	7259.4
905.356	7267.76
905.67	7212.17
905.984	7247.65
906.297	7211.49
906.611	7166.97
906.924	7135.11
907.237	7073.87
907.551	7095.56
907.864	7062.79
908.177	7002.23
908.491	7016.69
908.804	6958.84
909.117	6958.84
909.43	6882.46
909.743	6898.96
910.056	6870.48
910.368	6851.27
910.681	6808.34
910.994	6794.1
911.307	6715.23
911.619	6729.7
911.932	6778.06
912.244	6699.64
912.557	6659.64
912.869	6657.83
913.181	6630.49
913.494	6573.32
913.806	6530.83
914.118	6512.07
914.43	6502.36
914.742	6467.1
915.054	6470.95
915.366	6437.05
915.678	6397.5
915.99	6382.59
916.302	6336.49
916.613	6317.73
916.925	6291.52
917.236	6328.35
917.548	6266.21
917.859	6281.8
918.171	6184.63
918.482	6172.87
918.794	6190.28
919.105	6128.36
919.416	6104.18
919.727	6063.5
920.038	6014.69
920.349	5983.5
920.66	5967.68
920.971	6015.14
921.282	5915.25
921.593	5917.06
921.903	5852.88
922.214	5910.96
922.525	5912.99
922.835	5834.13
923.146	5719.78
923.456	5784.41
923.767	5748.7
924.077	5719.1
924.387	5748.48
924.697	5649.72
925.008	5625.09
925.318	5631.19
925.628	5591.42
925.938	5565.66
926.248	5548.26
926.558	5546.68
926.867	5508.71
927.177	5482.72
927.487	5458.77
927.796	5401.82
928.106	5404.99
928.416	5365.66
928.725	5359.34
929.034	5329.28
929.344	5303.29
929.653	5355.04
929.962	5239.57
930.271	5209.96
930.581	5262.16
930.89	5216.74
931.199	5173.35
931.508	5171.32
931.817	5184.88
932.125	5115.95
932.434	5118.89
932.743	5085.22
933.051	5072.11
933.36	5067.37
933.669	4980.14
933.977	4989.18
934.286	4970.87
934.594	4930.2
934.902	4935.39
935.21	4944.43
935.519	4918.67
935.827	4901.72
936.135	4833.7
936.443	4800.48
936.751	4823.98
937.059	4814.94
937.367	4768.39
937.674	4758
937.982	4757.32
938.29	4732.46
938.597	4730.43
938.905	4650.2
939.213	4638.45
939.52	4628.28
939.827	4667.83
940.135	4596.42
940.442	4558.23
940.749	4563.65
941.056	4528.85
941.363	4503.09
941.67	4503.31
941.977	4488.62
942.284	4409.53
942.591	4431.68
942.898	4422.41
943.205	4437.1
943.511	4379.02
943.818	4364.33
944.125	4344.22
944.431	4344.67
944.738	4274.39
945.044	4311.45
945.35	4269.65
945.657	4241.17
945.963	4216.32
946.269	4211.8
946.575	4227.16
946.881	4201.85
947.187	4226.26
947.493	4127.05
947.799	4114.85
948.105	4115.08
948.41	4113.04
948.716	4067.62
949.022	4067.62
949.327	4073.72
949.633	4009.09
949.938	3987.62
950.244	3999.6
950.549	3987.85
950.854	3999.6
951.16	3959.6
951.465	3912.14
951.77	3879.38
952.075	3867.85
952.38	3856.33
952.685	3928.64
952.99	3834.4
953.294	3823.11
953.599	3814.97
953.904	3793.73
954.209	3803.9
954.513	3760.51
954.818	3751.7
955.122	3721.41
955.426	3715.76
955.731	3642.77
956.035	3675.76
956.339	3649.78
956.643	3668.53
956.948	3616.11
957.252	3646.84
957.556	3626.73
957.86	3586.95
958.163	3581.98
958.467	3541.08
958.771	3576.33
959.075	3570.23
959.378	3523.9
959.682	3532.49
959.985	3485.71
960.289	3478.48
960.592	3477.8
960.896	3462.66
961.199	3421.08
961.502	3414.08
961.805	3370.91
962.108	3341.31
962.411	3331.37
962.714	3343.57
963.017	3348.99
963.32	3330.01
963.623	3283.01
963.926	3287.75
964.228	3302.67
964.531	3245.27
964.833	3291.37
965.136	3233.06
965.438	3243.91
965.741	3231.48
966.043	3178.15
966.345	3206.62
966.648	3181.77
966.95	3180.64
967.252	3131.15
967.554	3113.97
967.856	3094.09
968.158	3073.29
968.46	3106.74
968.761	3095.67
969.063	3089.11
969.365	3031.94
969.666	3005.95
969.968	3018.16
970.269	3015.44
970.571	2993.07
970.872	2991.72
971.174	2982.68
971.475	2949.46
971.776	2982
972.077	2944.48
972.378	2899.51
972.679	2947.87
972.98	2923.47
973.281	2878.05
973.582	2876.92
973.883	2852.28
974.183	2850.93
974.484	2821.32
974.785	2840.53
975.085	2782.23
975.386	2805.51
975.686	2755.56
975.986	2778.84
976.287	2773.87
976.587	2745.62
976.887	2765.28
977.187	2696.13
977.487	2697.94
977.787	2694.77
978.087	2696.13
978.387	2671.27
978.687	2673.53
978.987	2673.08
979.286	2651.39
979.586	2651.84
979.885	2640.99
980.185	2591.95
980.484	2569.58
980.784	2571.16
981.083	2561.22
981.382	2511.05
981.682	2570.71
981.981	2551.27
982.28	2535.46
982.579	2519.41
982.878	2500.65
983.177	2484.38
983.475	2496.13
983.774	2461.79
984.073	2464.72
984.372	2470.82
984.67	2443.71
984.969	2441.45
985.267	2443.25
985.566	2422.92
985.864	2395.35
986.162	2390.83
986.461	2391.73
986.759	2373.88
987.057	2329.36
987.355	2337.27
987.653	2346.08
987.951	2315.12
988.249	2342.92
988.547	2299.98
988.844	2314.44
989.142	2308.34
989.44	2277.84
989.737	2281.9
990.035	2268.12
990.332	2278.74
990.63	2233.32
990.927	2225.86
991.224	2238.06
991.521	2235.58
991.819	2217.72
992.116	2194.22
992.413	2207.33
992.71	2178.86
993.006	2165.3
993.303	2170.95
993.6	2128.24
993.897	2127.11
994.193	2142.02
994.49	2122.13
994.787	2120.78
995.083	2093.43
995.379	2082.36
995.676	2044.85
995.972	2070.84
996.268	2060.44
996.565	2050.5
996.861	2009.82
997.157	1994.68
997.453	2021.35
997.749	2010.27
998.044	1974.11
998.34	1977.73
998.636	1966.88
998.932	1972.98
999.227	1968.24
999.523	1952.87
999.818	1931.86
1000.114	1911.74
1000.409	1891.18
1000.704	1913.55
1001	1893.89
1001.295	1877.85
1001.59	1895.25
1001.885	1859.32
1002.18	1859.32
1002.475	1813.22
1002.77	1836.04
1003.065	1817.51
1003.359	1819.54
1003.654	1829.26
1003.949	1817.06
1004.243	1809.15
1004.538	1812.54
1004.832	1765.98
1005.127	1760.79
1005.421	1744.29
1005.715	1749.04
1006.009	1730.05
1006.304	1704.29
1006.598	1717.85
1006.892	1657.51
1007.186	1694.57
1007.48	1679.66
1007.773	1648.47
1008.067	1622.71
1008.361	1645.76
1008.655	1650.51
1008.948	1638.98
1009.242	1652.54
1009.535	1600.57
1009.829	1610.73
1010.122	1580.45
1010.415	1578.64
1010.708	1594.92
1011.001	1601.7
1011.295	1538.42
1011.588	1543.84
1011.881	1553.33
1012.173	1568.02
1012.466	1544.3
1012.759	1535.93
1013.052	1513.56
1013.344	1495.71
1013.637	1497.52
1013.93	1487.12
1014.222	1477.4
1014.514	1481.02
1014.807	1481.02
1015.099	1476.27
1015.391	1449.38
1015.683	1445.32
1015.976	1434.24
1016.268	1403.51
1016.56	1418.88
1016.851	1399.89
1017.143	1382.04
1017.435	1389.72
1017.727	1380.68
1018.018	1385.2
1018.31	1344.07
1018.602	1333.91
1018.893	1357.18
1019.185	1347.92
1019.476	1322.61
1019.767	1330.29
1020.058	1301.59
1020.35	1330.29
1020.641	1309.95
1020.932	1309.05
1021.223	1291.87
1021.514	1290.06
1021.804	1268.6
1022.095	1248.26
1022.386	1278.09
1022.677	1224.08
1022.967	1230.41
1023.258	1246
1023.548	1240.8
1023.839	1208.71
1024.129	1230.41
1024.419	1188.15
1024.709	1200.8
1025	1212.78
1025.29	1159.67
1025.58	1181.14
1025.87	1153.35
1026.16	1145.89
1026.449	1152.22
1026.739	1142.05
1027.029	1142.5
1027.319	1137.3
1027.608	1125.78
1027.898	1111.31
1028.187	1098.43
1028.477	1100.69
1028.766	1112.89
1029.055	1072.22
1029.344	1084.42
1029.634	1075.16
1029.923	1077.87
1030.212	1046.68
1030.501	1066.79
1030.79	1052.33
1031.078	1047.81
1031.367	1051.65
1031.656	1038.55
1031.945	1012.56
1032.233	973.69
1032.522	1005.33
1032.81	1005.1
1033.099	1002.84
1033.387	978.66
1033.675	982.95
1033.963	991.09
1034.251	1000.13
1034.54	959.45
1034.828	985.44
1035.116	931.2
1035.403	938.66
1035.691	978.89
1035.979	934.37
1036.267	915.84
1036.554	940.24
1036.842	933.46
1037.129	909.51
1037.417	918.1
1037.704	919.45
1037.992	898.66
1038.279	908.38
1038.566	885.1
1038.853	885.1
1039.14	885.1
