Data from hue_210_FLMS001491_00056.txt Node
Date: Tue Feb 07 16:41:24 GMT 2017
User: dcchb
Spectrometer: FLMS00149
Trigger mode: 0
Integration Time (sec): 2.000000E-2
Scans to average: 10
Electric dark correction enabled: true
Nonlinearity correction enabled: false
Boxcar width: 0
XAxis mode: Wavelengths
Number of Pixels in Spectrum: 2048
>>>>>Begin Spectral Data<<<<<
341.393	-15.85
341.776	-15.85
342.16	-15.85
342.543	-56.75
342.927	-84.77
343.31	-77.31
343.693	-79.8
344.077	-59.01
344.46	-50.87
344.843	-51.33
345.226	-42.51
345.61	-42.51
345.993	-25.56
346.376	-27.15
346.759	25.28
347.142	35.23
347.525	34.32
347.908	63.92
348.291	86.75
348.674	90.14
349.057	120.42
349.44	122.23
349.823	152.06
350.206	154.54
350.588	176.46
350.971	200.42
351.354	217.14
351.737	222.79
352.119	250.36
352.502	258.04
352.884	261.43
353.267	284.71
353.65	265.5
354.032	285.84
354.414	300.08
354.797	315.9
355.179	319.06
355.562	312.96
355.944	324.93
356.326	308.44
356.709	326.29
357.091	331.49
357.473	345.27
357.855	334.2
358.238	307.76
358.62	336.01
359.002	313.64
359.384	341.66
359.766	334.65
360.148	332.39
360.53	337.82
360.912	316.12
361.294	305.73
361.676	316.35
362.057	314.31
362.439	334.88
362.821	310.02
363.203	315.22
363.584	323.35
363.966	311.15
364.348	313.64
364.729	307.53
365.111	335.56
365.493	311.6
365.874	314.31
366.256	302.56
366.637	304.37
367.019	312.51
367.4	306.18
367.781	290.59
368.163	301.88
368.544	307.08
368.925	295.78
369.306	294.2
369.688	300.53
370.069	311.6
370.45	303.69
370.831	307.99
371.212	305.5
371.593	291.94
371.974	298.49
372.355	302.56
372.736	295.78
373.117	294.2
373.498	277.93
373.879	319.74
374.26	282
374.641	310.47
375.021	316.35
375.402	310.02
375.783	322.22
376.163	315.22
376.544	317.48
376.925	300.53
377.305	322
377.686	307.31
378.066	323.35
378.447	314.54
378.827	318.61
379.208	303.47
379.588	302.11
379.968	310.02
380.349	321.77
380.729	333.75
381.109	317.93
381.489	328.32
381.87	321.09
382.25	314.99
382.63	334.43
383.01	318.61
383.39	337.82
383.77	314.09
384.15	339.4
384.53	342.34
384.91	322.45
385.29	338.49
385.67	339.85
386.049	340.98
386.429	357.7
386.809	332.39
387.189	346.18
387.568	337.59
387.948	347.76
388.328	345.27
388.707	348.21
389.087	356.57
389.466	343.69
389.846	352.73
390.225	360.19
390.605	354.99
390.984	368.55
391.363	364.93
391.743	351.37
392.122	333.52
392.501	352.05
392.881	366.06
393.26	356.8
393.639	362.9
394.018	362.22
394.397	387.31
394.776	372.17
395.155	380.3
395.534	369
395.913	359.51
396.292	374.65
396.671	391.37
397.05	374.43
397.429	384.37
397.808	364.48
398.186	405.38
398.565	388.21
398.944	390.92
399.323	366.06
399.701	386.18
400.08	389.11
400.458	392.96
400.837	397.93
401.215	368.1
401.594	392.05
401.972	395.44
402.351	411.94
402.729	414.65
403.107	411.49
403.486	403.12
403.864	426.4
404.242	421.2
404.62	422.79
404.999	406.97
405.377	430.69
405.755	438.15
406.133	411.03
406.511	454.42
406.889	436.8
407.267	462.56
407.645	460.98
408.023	473.41
408.401	467.3
408.779	464.37
409.156	484.93
409.534	493.29
409.912	492.16
410.29	502.33
410.667	507.98
411.045	517.47
411.422	496.91
411.8	510.47
412.178	534.19
412.555	544.82
412.933	535.32
413.31	560.41
413.687	557.7
414.065	590.69
414.442	567.64
414.819	583.69
415.197	596.57
415.574	606.51
415.951	623.01
416.328	610.13
416.705	630.69
417.082	629.79
417.46	665.04
417.837	667.3
418.214	687.64
418.591	673.17
418.967	693.06
419.344	702.78
419.721	686.96
420.098	719.73
420.475	727.64
420.852	743.91
421.228	736.68
421.605	734.87
421.982	769.9
422.358	778.03
422.735	797.24
423.111	808.31
423.488	824.81
423.864	845.6
424.241	840.18
424.617	849.21
424.994	863.45
425.37	863.68
425.746	869.33
426.123	930.57
426.499	915.65
426.875	934.18
427.251	936.44
427.627	964.69
428.003	967.4
428.379	986.61
428.756	1014.18
429.132	1027.29
429.507	1039.72
429.883	1051.24
430.259	1018.93
430.635	1047.85
431.011	1078.36
431.387	1075.65
431.763	1106.16
432.138	1092.37
432.514	1116.55
432.89	1144.8
433.265	1176.21
433.641	1194.06
434.016	1205.59
434.392	1218.7
434.767	1250.11
435.143	1278.36
435.518	1269.09
435.894	1321.74
436.269	1333.5
436.644	1358.13
437.02	1365.59
437.395	1399.93
437.77	1420.27
438.145	1462.08
438.52	1453.27
438.895	1508.18
439.271	1502.31
439.646	1524.23
440.021	1556.99
440.395	1561.96
440.77	1585.24
441.145	1621.4
441.52	1663.43
441.895	1658.46
442.27	1677.44
442.645	1680.83
443.019	1710.21
443.394	1749.98
443.769	1728.51
444.143	1735.75
444.518	1764.45
444.892	1793.82
445.267	1787.95
445.641	1826.36
446.016	1800.83
446.39	1835.63
446.764	1881.5
447.139	1826.59
447.513	1900.94
447.887	1875.18
448.262	1899.13
448.636	1908.17
449.01	1941.62
449.384	1940.94
449.758	1963.08
450.132	1996.76
450.506	1980.94
450.88	2021.39
451.254	2038.11
451.628	2046.7
452.002	2039.47
452.376	2081.05
452.75	2107.03
453.123	2154.27
453.497	2161.5
453.871	2158.56
454.244	2189.97
454.618	2211.67
454.992	2229.97
455.365	2281.95
455.739	2274.94
456.112	2320.81
456.486	2348.16
456.859	2349.74
457.232	2430.19
457.606	2368.05
457.979	2376.18
458.352	2488.04
458.725	2491.43
459.099	2513.8
459.472	2544.31
459.845	2568.72
460.218	2602.84
460.591	2614.59
460.964	2653.69
461.337	2689.17
461.71	2722.16
462.083	2774.14
462.456	2770.07
462.829	2757.41
463.201	2787.7
463.574	2800.12
463.947	2871.76
464.32	2940.91
464.692	2961.02
465.065	2965.09
465.438	3038.54
465.81	3068.37
466.183	3107.91
466.555	3136.16
466.928	3151.53
467.3	3166.67
467.672	3180.23
468.045	3274.46
468.417	3280.79
468.789	3317.17
469.161	3348.13
469.534	3424.97
469.906	3453.89
470.278	3487.11
470.65	3507.22
471.022	3574.12
471.394	3604.4
471.766	3652.98
472.138	3696.15
472.51	3782.92
472.882	3827.67
473.253	3846.88
473.625	3901.34
473.997	3997.38
474.369	4040.54
474.74	4027.89
475.112	4097.94
475.484	4178.84
475.855	4227.43
476.227	4248
476.598	4332.29
476.97	4380.87
477.341	4455
477.713	4555.78
478.084	4536.58
478.455	4691.6
478.827	4707.19
479.198	4838.26
479.569	4844.36
479.94	4937.92
480.311	4940.86
480.682	5087.75
481.053	5194.64
481.424	5215.88
481.795	5254.52
482.166	5361.41
482.537	5389.43
482.908	5520.73
483.279	5532.71
483.65	5652.25
484.021	5731.12
484.391	5802.31
484.762	5787.16
485.133	5886.6
485.503	5918.01
485.874	6049.3
486.244	6121.62
486.615	6164.1
486.985	6209.07
487.356	6358
487.726	6329.3
488.097	6481.84
488.467	6550.31
488.837	6636.41
489.207	6658.33
489.578	6739
489.948	6801.15
490.318	6869.4
490.688	6886.57
491.058	6993.23
491.428	7076.85
491.798	7137.19
492.168	7240.23
492.538	7277.75
492.908	7264.64
493.278	7331.76
493.648	7344.86
494.017	7481.81
494.387	7529.27
494.757	7577.85
495.126	7640.67
495.496	7690.62
495.866	7731.52
496.235	7787.11
496.605	7869.82
496.974	7868.47
497.344	7902.36
497.713	7968.35
498.082	7981.91
498.452	8047.67
498.821	8075.01
499.19	8041.34
499.559	8153.43
499.928	8188.46
500.298	8233.65
500.667	8265.74
501.036	8245.18
501.405	8250.38
501.774	8239.53
502.143	8328.11
502.512	8367.66
502.88	8368.34
503.249	8417.6
503.618	8431.39
503.987	8410.6
504.356	8478.39
504.724	8507.09
505.093	8515.45
505.462	8580.54
505.83	8583.25
506.199	8645.62
506.567	8670.7
506.936	8615.34
507.304	8670.25
507.672	8665.96
508.041	8795.22
508.409	8722.68
508.777	8777.37
509.145	8836.12
509.514	8837.71
509.882	8811.04
510.25	8903.01
510.618	8845.61
510.986	8901.88
511.354	8955.67
511.722	8988.21
512.09	8937.82
512.458	9059.85
512.826	8963.58
513.193	9028.43
513.561	9037.93
513.929	9082.44
514.297	9093.97
514.664	9124.03
515.032	9041.54
515.4	9170.58
515.767	9087.87
516.135	9159.05
516.502	9088.09
516.869	9115.44
517.237	9147.08
517.604	9090.58
517.972	9181.88
518.339	9225.49
518.706	9163.8
519.073	9169.45
519.44	9135.32
519.808	9148.88
520.175	9241.99
520.542	9268.2
520.909	9220.29
521.276	9160.63
521.643	9270.91
522.009	9246.28
522.376	9252.16
522.743	9268.65
523.11	9322.89
523.477	9374.41
523.843	9327.18
524.21	9334.42
524.577	9384.36
524.943	9372.83
525.31	9337.81
525.676	9377.13
526.043	9460.97
526.409	9387.52
526.776	9509.33
527.142	9349.56
527.508	9412.38
527.874	9433.85
528.241	9421.87
528.607	9354.75
528.973	9408.09
529.339	9358.37
529.705	9458.25
530.071	9448.99
530.437	9417.8
530.803	9401.76
531.169	9396.56
531.535	9374.87
531.901	9331.93
532.267	9265.94
532.632	9288.32
532.998	9276.56
533.364	9301.65
533.73	9240.86
534.095	9346.17
534.461	9290.57
534.826	9295.77
535.192	9258.71
535.557	9264.81
535.923	9164.48
536.288	9159.05
536.653	9140.75
537.019	8999.06
537.384	9065.27
537.749	9096.68
538.114	9020.98
538.479	8931.04
538.845	8998.15
539.21	8933.97
539.575	8918.61
539.94	8828.44
540.305	8864.37
540.67	8849.23
541.034	8787.31
541.399	8749.12
541.764	8769.46
542.129	8688.1
542.494	8618.73
542.858	8610.59
543.223	8646.75
543.587	8648.78
543.952	8528.34
544.316	8432.97
544.681	8487.66
545.045	8439.98
545.41	8446.53
545.774	8395.91
546.138	8369.24
546.503	8402.01
546.867	8356.81
547.231	8289.7
547.595	8235.46
547.959	8273.88
548.324	8202.69
548.688	8142.81
549.052	8107.33
549.416	8129.02
549.779	8048.35
550.143	8014
550.507	8053.32
550.871	8082.25
551.235	7951.18
551.599	7951.18
551.962	7904.85
552.326	7917.5
552.689	7920.44
553.053	7861.23
553.417	7756.6
553.78	7836.15
554.143	7804.74
554.507	7763.16
554.87	7670.5
555.234	7799.09
555.597	7734.23
555.96	7718.86
556.323	7616.27
556.686	7576.72
557.05	7642.03
557.413	7578.53
557.776	7474.13
558.139	7571.52
558.502	7535.37
558.865	7533.78
559.228	7556.84
559.59	7507.12
559.953	7451.75
560.316	7515.03
560.679	7518.42
561.041	7549.38
561.404	7441.58
561.767	7453.11
562.129	7465.54
562.492	7482.94
562.854	7408.82
563.217	7416.95
563.579	7435.26
563.941	7418.99
564.304	7435.93
564.666	7434.58
565.028	7442.49
565.39	7422.83
565.753	7415.82
566.115	7468.25
566.477	7452.21
566.839	7433
567.201	7472.09
567.563	7476.61
567.925	7540.79
568.287	7408.36
568.648	7456.95
569.01	7467.8
569.372	7495.14
569.734	7437.74
570.095	7433.22
570.457	7448.14
570.819	7503.96
571.18	7432.77
571.542	7502.37
571.903	7474.35
572.265	7472.32
572.626	7480.23
572.987	7490.85
573.349	7526.55
573.71	7549.83
574.071	7501.7
574.432	7586.66
574.794	7608.81
575.155	7571.07
575.516	7472.77
575.877	7566.55
576.238	7545.08
576.599	7594.12
576.96	7527.23
577.32	7604.74
577.681	7579.66
578.042	7593.22
578.403	7650.84
578.763	7609.94
579.124	7617.4
579.485	7624.18
579.845	7619.43
580.206	7651.97
580.566	7661.69
580.927	7654.69
581.287	7687.91
581.648	7633.22
582.008	7723.61
582.368	7737.62
582.728	7697.62
583.089	7654.69
583.449	7660.79
583.809	7739.66
584.169	7722.03
584.529	7730.16
584.889	7742.14
585.249	7744.85
585.609	7705.98
585.969	7776.94
586.329	7751.63
586.688	7751.18
587.048	7776.72
587.408	7791.86
587.768	7751.18
588.127	7739.66
588.487	7721.8
588.846	7771.52
589.206	7706.66
589.565	7749.37
589.925	7824.17
590.284	7744.85
590.643	7802.93
591.003	7861.23
591.362	7745.3
591.721	7864.17
592.08	7815.81
592.44	7826.88
592.799	7811.97
593.158	7801.57
593.517	7830.5
593.876	7794.57
594.235	7828.01
594.593	7853.32
594.952	7829.6
595.311	7804.51
595.67	7854.68
596.029	7935.58
596.387	7870.95
596.746	7857.84
597.104	7796.38
597.463	7805.42
597.822	7818.75
598.18	7848.13
598.538	7817.39
598.897	7863.27
599.255	7857.84
599.613	7839.99
599.972	7916.37
600.33	7908.24
600.688	7868.01
601.046	7847.68
601.404	7942.36
601.762	7835.92
602.12	7877.96
602.478	7930.38
602.836	7898.75
603.194	7864.62
603.552	7914.79
603.91	7843.16
604.268	7840.67
604.625	7826.66
604.983	7852.42
605.341	7823.49
605.698	7881.57
606.056	7892.87
606.413	7896.04
606.771	7876.15
607.128	7916.37
607.485	7906.66
607.843	7909.14
608.2	7983.26
608.557	7961.8
608.914	7896.71
609.272	7911.4
609.629	7983.04
609.986	7945.07
610.343	7919.54
610.7	7999.76
611.057	7973.32
611.414	7948.01
611.771	8008.35
612.127	7965.41
612.484	8011.06
612.841	7954.34
613.198	7980.33
613.554	7917.28
613.911	7983.72
614.267	8013.55
614.624	7960.44
614.98	8026.43
615.337	8089.02
615.693	7951.85
616.05	8053.55
616.406	8072.08
616.762	8014
617.118	7987.11
617.475	8036.82
617.831	8070.27
618.187	8041.79
618.543	8053.55
618.899	8155.46
619.255	8078.4
619.611	8109.59
619.967	8115.24
620.323	8119.76
620.678	8073.21
621.034	8134.45
621.39	8098.97
621.746	8100.1
622.101	8171.28
622.457	8183.49
622.812	8150.94
623.168	8106.43
623.523	8180.1
623.879	8194.11
624.234	8125.63
624.589	8102.58
624.945	8094.67
625.3	8103.26
625.655	8108.01
626.01	8101
626.365	8139.87
626.72	8041.12
627.075	8181.9
627.43	8063.04
627.785	8065.75
628.14	8109.36
628.495	8125.18
628.85	8062.36
629.205	8035.01
629.559	8105.3
629.914	8063.26
630.269	8061.68
630.623	8059.19
630.978	7990.95
631.332	7957.5
631.687	8024.85
632.041	8003.15
632.396	8018.07
632.75	8015.58
633.104	8040.21
633.459	7960.44
633.813	8004.28
634.167	7975.81
634.521	7955.02
634.875	7992.08
635.229	8008.8
635.583	7892.42
635.937	7900.55
636.291	7880.22
636.645	7948.01
636.999	7831.4
637.352	7886.32
637.706	7862.36
638.06	7911.63
638.413	7797.73
638.767	7847
639.121	7870.27
639.474	7836.6
639.828	7826.21
640.181	7795.92
640.534	7856.71
640.888	7801.35
641.241	7804.74
641.594	7828.01
641.947	7844.51
642.301	7790.05
642.654	7722.71
643.007	7812.65
643.36	7783.5
643.713	7798.41
644.066	7841.35
644.419	7722.25
644.771	7719.99
645.124	7611.3
645.477	7623.5
645.83	7514.12
646.182	7529.72
646.535	7544.18
646.888	7530.85
647.24	7487.68
647.593	7522.49
647.945	7495.59
648.298	7484.29
648.65	7485.88
649.002	7501.02
649.355	7501.92
649.707	7491.98
650.059	7475.71
650.411	7611.97
650.763	7646.55
651.115	7661.47
651.467	7672.76
651.819	7640.22
652.171	7645.19
652.523	7687.23
652.875	7639.09
653.227	7615.82
653.578	7704.85
653.93	7632.54
654.282	7649.71
654.633	7595.25
654.985	7661.24
655.337	7667.57
655.688	7667.11
656.039	7684.97
656.391	7672.54
656.742	7669.37
657.094	7658.08
657.445	7681.8
657.796	7709.6
658.147	7648.36
658.498	7649.49
658.849	7680.67
659.2	7694.91
659.551	7708.24
659.902	7752.99
660.253	7717.73
660.604	7660.11
660.955	7708.7
661.306	7677.51
661.656	7737.4
662.007	7707.79
662.358	7707.11
662.708	7731.07
663.059	7755.93
663.409	7664.4
663.76	7788.47
664.11	7740.33
664.461	7759.32
664.811	7753.21
665.161	7731.52
665.511	7742.14
665.862	7731.97
666.212	7776.72
666.562	7810.39
666.912	7739.88
667.262	7775.59
667.612	7734.91
667.962	7787.56
668.312	7728.81
668.662	7840.67
669.011	7798.18
669.361	7772.87
669.711	7800.44
670.06	7703.5
670.41	7736.27
670.76	7767.23
671.109	7746.89
671.459	7719.09
671.808	7694.46
672.157	7802.7
672.507	7674.8
672.856	7750.95
673.205	7719.54
673.554	7774.23
673.904	7675.25
674.253	7785.08
674.602	7684.52
674.951	7606.78
675.3	7522.94
675.649	7693.1
675.998	7634.35
676.346	7662.6
676.695	7618.98
677.044	7627.57
677.393	7637.29
677.741	7653.78
678.09	7614.69
678.438	7583.28
678.787	7578.53
679.135	7616.49
679.484	7555.48
679.832	7576.04
680.181	7511.64
680.529	7519.77
680.877	7468.7
681.225	7479.1
681.573	7554.8
681.922	7440.23
682.27	7427.8
682.618	7505.09
682.966	7404.97
683.314	7414.01
683.661	7461.92
684.009	7395.48
684.357	7324.98
684.705	7336.73
685.053	7408.59
685.4	7373.34
685.748	7324.3
686.095	7272.77
686.443	7269.16
686.79	7235.04
687.138	7259.22
687.485	7267.35
687.832	7249.5
688.18	7246.79
688.527	7171.99
688.874	7162.27
689.221	7153
689.568	7042.5
689.915	7118.65
690.262	7098.09
690.609	7067.36
690.956	7054.48
691.303	7038.66
691.65	6981.94
691.997	6950.75
692.344	6976.51
692.69	6913.24
693.037	6939
693.383	6820.36
693.73	6894.93
694.077	6841.15
694.423	6779.68
694.769	6762.73
695.116	6759.57
695.462	6732
695.808	6702.39
696.155	6753.69
696.501	6659.68
696.847	6646.8
697.193	6613.81
697.539	6649.97
697.885	6603.41
698.231	6543.08
698.577	6541.72
698.923	6485.45
699.269	6502.85
699.614	6472.8
699.96	6402.29
700.306	6390.76
700.651	6407.03
700.997	6368.84
701.342	6344.89
701.688	6318.68
702.033	6302.63
702.379	6246.36
702.724	6281.61
703.069	6292.46
703.415	6168.17
703.76	6189.64
704.105	6224.44
704.45	6205.46
704.795	6102.18
705.14	6109.87
705.485	6054.05
705.83	6069.19
706.175	6077.78
706.52	6030.1
706.865	5973.6
707.209	5984.67
707.554	5946.48
707.899	5942.87
708.243	5942.64
708.588	5887.73
708.932	5873.94
709.277	5892.47
709.621	5857.22
709.966	5840.72
710.31	5807.73
710.654	5770.44
710.998	5765.7
711.342	5817.9
711.687	5774.06
712.031	5751.91
712.375	5724.34
712.719	5770.89
713.063	5768.41
713.407	5739.48
713.75	5653.16
714.094	5641.41
714.438	5676.43
714.782	5689.31
715.125	5681.18
715.469	5676.66
715.812	5639.6
716.156	5616.1
716.499	5638.47
716.843	5644.57
717.186	5584.23
717.53	5564.8
717.873	5608.19
718.216	5588.07
718.559	5564.57
718.902	5576.1
719.246	5561.86
719.589	5474.4
719.932	5480.96
720.275	5532.93
720.617	5517.79
720.96	5517.79
721.303	5510.56
721.646	5482.31
721.989	5492.03
722.331	5454.74
722.674	5485.48
723.016	5463.1
723.359	5484.57
723.701	5525.25
724.044	5421.52
724.386	5433.5
724.729	5439.6
725.071	5487.74
725.413	5430.11
725.755	5438.25
726.097	5467.62
726.439	5410
726.782	5408.64
727.124	5400.28
727.465	5428.3
727.807	5385.59
728.149	5409.55
728.491	5405.71
728.833	5409.77
729.175	5405.25
729.516	5355.76
729.858	5410.68
730.199	5428.08
730.541	5390.11
730.882	5456.1
731.224	5424.01
731.565	5365.71
731.906	5394.63
732.248	5383.11
732.589	5421.52
732.93	5390.79
733.271	5401.86
733.612	5366.38
733.953	5421.98
734.294	5382.2
734.635	5394.63
734.976	5427.85
735.317	5430.79
735.658	5372.71
735.999	5438.02
736.339	5423.33
736.68	5491.58
737.021	5461.75
737.361	5436.21
737.702	5449.09
738.042	5426.72
738.383	5477.57
738.723	5474.63
739.063	5500.39
739.404	5440.73
739.744	5479.83
740.084	5474.86
740.424	5495.19
740.764	5555.31
741.104	5578.58
741.444	5537.45
741.784	5533.16
742.124	5559.37
742.464	5609.32
742.804	5600.95
743.143	5584.23
743.483	5668.75
743.823	5612.71
744.162	5663.1
744.502	5713.04
744.841	5684.12
745.181	5784.23
745.52	5696.32
745.86	5864
746.199	5831.91
746.538	5847.5
746.877	5943.54
747.216	6012.7
747.556	6012.24
747.895	6089.98
748.234	6068.06
748.573	6127.04
748.911	6193.93
749.25	6262.86
749.589	6316.42
749.928	6410.2
750.267	6427.83
750.605	6484.32
750.944	6560.48
751.283	6515.05
751.621	6698.33
751.96	6797.08
752.298	6831.43
752.636	6964.76
752.975	6996.4
753.313	7175.38
753.651	7259.22
753.989	7257.86
754.327	7350.29
754.666	7543.28
755.004	7610.39
755.342	7799.54
755.679	7876.6
756.017	7955.92
756.355	8193.65
756.693	8261
757.031	8412.41
757.368	8510.71
757.706	8722.45
758.044	8801.77
758.381	8986.18
758.719	9076.8
759.056	9294.42
759.394	9399.27
759.731	9598.82
760.068	9719.26
760.405	9860.5
760.743	10020.05
761.08	10156.31
761.417	10323.09
761.754	10509.53
762.091	10709.07
762.428	10840.82
762.765	11002.62
763.102	11140.7
763.438	11251.43
763.775	11559.44
764.112	11662.72
764.449	11855.48
764.785	11913.56
765.122	12060.22
765.458	12289.14
765.795	12407.78
766.131	12528.91
766.467	12720.54
766.804	12798.28
767.14	13007.54
767.476	13128.21
767.812	13245.05
768.148	13471.26
768.485	13540.41
768.821	13681.65
769.157	13823.79
769.492	13945.82
769.828	14177.45
770.164	14094.52
770.5	14281.18
770.836	14396.2
771.171	14522.53
771.507	14650.89
771.842	14618.12
772.178	14732.47
772.513	14871.67
772.849	14924.1
773.184	15056.53
773.519	15109.18
773.855	15163.19
774.19	15168.84
774.525	15316.18
774.86	15403.86
775.195	15524.31
775.53	15467.59
775.865	15548.94
776.2	15566.57
776.535	15588.71
776.87	15662.84
777.205	15737.86
777.539	15819.67
777.874	15834.13
778.209	15815.6
778.543	15900.12
778.878	15816.05
779.212	15967.01
779.547	15902.6
779.881	16005.2
780.215	15986.44
780.55	16088.14
780.884	15995.71
781.218	16155.93
781.552	16128.59
781.886	16155.93
782.22	16076.61
782.554	16174.24
782.888	16099.44
783.222	16075.93
783.556	16061.24
783.889	16119.77
784.223	16058.31
784.557	16058.31
784.89	16141.47
785.224	16098.08
785.557	15996.84
785.891	16092.66
786.224	16065.54
786.558	16094.92
786.891	15967.24
787.224	15885.43
787.557	15982.38
787.891	15946.9
788.224	16041.58
788.557	16009.04
788.89	16024.18
789.223	16017.4
789.556	15919.78
789.888	15876.62
790.221	15836.39
790.554	15790.97
790.887	15882.94
791.219	15744.64
791.552	15828.26
791.884	15699.67
792.217	15700.8
792.549	15681.82
792.882	15578.32
793.214	15612.22
793.546	15739.22
793.879	15605.89
794.211	15478.66
794.543	15546
794.875	15519.56
795.207	15573.35
795.539	15496.74
795.871	15533.12
796.203	15405.22
796.535	15292.9
796.867	15311.43
797.198	15269.4
797.53	15314.6
797.862	15211.32
798.193	15246.12
798.525	15152.12
798.856	15318.21
799.188	14996.41
799.519	14929.3
799.85	14968.62
800.182	15018.56
800.513	14943.31
800.844	14911.22
801.175	14949.64
801.506	14930.43
801.837	14859.92
802.168	14811.33
802.499	14826.02
802.83	14772.92
803.161	14649.98
803.491	14709.64
803.822	14772.92
804.153	14680.49
804.483	14553.49
804.814	14542.41
805.145	14550.32
805.475	14594.16
805.805	14470.78
806.136	14457.22
806.466	14542.64
806.796	14398.24
807.126	14324.34
807.457	14272.14
807.787	14329.54
808.117	14320.5
808.447	14198.24
808.777	14178.81
809.107	14180.62
809.436	14111.24
809.766	14130.67
810.096	14174.74
810.426	14107.17
810.755	14129.54
811.085	14079.6
811.414	14030.56
811.744	13956.44
812.073	13888.42
812.403	13991.47
812.732	13861.3
813.061	13921.64
813.39	13836.44
813.719	13727.97
814.049	13899.95
814.378	13786.28
814.707	13707.86
815.036	13704.02
815.365	13730.01
815.693	13523.46
816.022	13619.73
816.351	13630.12
816.68	13486.85
817.008	13525.72
817.337	13429.22
817.665	13398.49
817.994	13419.51
818.322	13457.47
818.651	13363.91
818.979	13340.64
819.307	13401.2
819.636	13461.54
819.964	13314.2
820.292	13297.02
820.62	13270.13
820.948	13309.45
821.276	13349.23
821.604	13222.22
821.932	13300.64
822.259	13221.55
822.587	13266.74
822.915	13229.91
823.243	13325.95
823.57	13258.38
823.898	13209.12
824.225	13168.44
824.553	13229.23
824.88	13245.05
825.207	13351.94
825.535	13314.2
825.862	13310.58
826.189	13213.86
826.516	13296.57
826.843	13272.39
827.17	13245.05
827.497	13326.85
827.824	13313.29
828.151	13284.82
828.478	13247.76
828.805	13365.04
829.131	13303.35
829.458	13221.09
829.785	13248.66
830.111	13265.84
830.438	13321.2
830.764	13321.43
831.09	13355.55
831.417	13242.34
831.743	13267.19
832.069	13283.46
832.395	13115.11
832.722	13231.26
833.048	13210.47
833.374	13259.06
833.7	13119.17
834.026	13130.25
834.351	13204.6
834.677	13200.98
835.003	13184.03
835.329	13166.63
835.654	13123.24
835.98	13115.79
836.306	13190.13
836.631	13066.75
836.956	13089.12
837.282	13069.91
837.607	12991.49
837.932	12967.77
838.258	13027.2
838.583	13072.85
838.908	12974.55
839.233	13029.46
839.558	12951.72
839.883	12931.84
840.208	12830.59
840.533	12826.53
840.858	12863.81
841.182	12841.44
841.507	12802.57
841.832	12726.42
842.156	12727.77
842.481	12766.19
842.805	12736.81
843.13	12660.43
843.454	12582.69
843.778	12603.48
844.103	12526.65
844.427	12487.33
844.751	12582.92
845.075	12541.79
845.399	12421.57
845.723	12349.03
846.047	12405.07
846.371	12260.44
846.695	12292.08
847.019	12209.14
847.343	12223.83
847.666	12062.48
847.99	12090.73
848.313	12094.12
848.637	11930.05
848.96	11935.03
849.284	11938.87
849.607	11786.1
849.931	11824.29
850.254	11648.93
850.577	11694.58
850.9	11671.53
851.223	11626.78
851.546	11518.31
851.869	11392.89
852.192	11521.7
852.515	11401.03
852.838	11411.88
853.161	11349.05
853.483	11273.12
853.806	11300.01
854.129	11305.21
854.451	11208.26
854.774	11190.64
855.096	11066.8
855.419	11217.76
855.741	11088.95
856.063	10993.36
856.385	10935.05
856.708	10944.09
857.03	10926.69
857.352	10971.66
857.674	10960.81
857.996	10860.25
858.318	10787.03
858.64	10762.63
858.961	10731.22
859.283	10690.09
859.605	10656.64
859.926	10693.48
860.248	10643.31
860.57	10622.52
860.891	10628.17
861.212	10591.33
861.534	10533.71
861.855	10473.82
862.176	10490.77
862.498	10481.05
862.819	10419.13
863.14	10374.16
863.461	10348.85
863.782	10354.73
864.103	10385.91
864.424	10357.67
864.745	10331.45
865.065	10339.59
865.386	10266.14
865.707	10250.78
866.027	10235.41
866.348	10230.89
866.668	10227.73
866.989	10180.72
867.309	10116.09
867.63	10234.05
867.95	10135.52
868.27	10074.74
868.59	10130.55
868.91	10074.51
869.23	10067.28
869.55	10046.49
869.87	10051.23
870.19	9996.55
870.51	10099.37
870.83	9998.13
871.15	9965.81
871.469	9905.02
871.789	9991.8
872.109	9949.31
872.428	9904.12
872.748	9919.48
873.067	9869.32
873.386	9955.87
873.706	9879.03
874.025	9847.4
874.344	9841.07
874.663	9791.8
874.982	9755.2
875.301	9855.31
875.62	9805.82
875.939	9774.63
876.258	9766.72
876.577	9731.69
876.896	9693.05
877.214	9728.3
877.533	9627.74
877.852	9678.14
878.17	9650.34
878.489	9627.74
878.807	9648.98
879.125	9626.16
879.444	9599.72
879.762	9563.11
880.08	9579.38
880.398	9542.55
880.716	9448.54
881.034	9471.14
881.352	9543.68
881.67	9501.64
881.988	9444.24
882.306	9453.06
882.624	9444.7
882.941	9356.11
883.259	9321.31
883.577	9333.06
883.894	9289.9
884.212	9261.2
884.529	9294.64
884.846	9249.9
885.164	9188.2
885.481	9172.16
885.798	9162.89
886.115	9060.3
886.432	9169.45
886.75	9118.38
887.067	9144.36
887.383	9027.31
887.7	9086.51
888.017	9011.94
888.334	8998.38
888.651	9003.8
888.967	8980.75
889.284	8959.51
889.6	8912.73
889.917	8906.4
890.233	8881.32
890.55	8861.66
890.866	8819.85
891.182	8758.61
891.498	8717.48
891.815	8674.77
892.131	8691.04
892.447	8713.41
892.763	8645.39
893.079	8601.33
893.395	8591.84
893.71	8582.12
894.026	8573.31
894.342	8500.77
894.657	8484.04
894.973	8489.69
895.289	8432.29
895.604	8415.12
895.92	8351.39
896.235	8355.91
896.55	8325.85
896.865	8322.69
897.181	8265.52
897.496	8304.84
897.811	8176.25
898.126	8206.54
898.441	8205.86
898.756	8140.32
899.071	8060.1
899.386	8065.3
899.7	8073.43
900.015	8028.01
900.33	7855.13
900.644	7873.21
900.959	7929.71
901.273	7889.26
901.588	7848.35
901.902	7867.34
902.216	7833.21
902.531	7730.62
902.845	7765.64
903.159	7751.63
903.473	7683.16
903.787	7672.76
904.101	7613.78
904.415	7629.83
904.729	7593.9
905.042	7552.54
905.356	7535.14
905.67	7468.48
905.984	7498.08
906.297	7447.46
906.611	7465.99
906.924	7408.14
907.237	7411.3
907.551	7327.69
907.864	7272.77
908.177	7245.2
908.491	7231.87
908.804	7191.65
909.117	7156.39
909.43	7132.67
909.743	7091.76
910.056	7062.16
910.368	7046.11
910.681	7039.11
910.994	7022.61
911.307	6996.85
911.619	6892.67
911.932	6957.75
912.244	6850.19
912.557	6829.4
912.869	6790.98
913.181	6829.62
913.494	6780.58
913.806	6688.16
914.118	6705.78
914.43	6625.33
914.742	6697.87
915.054	6637.76
915.366	6594.15
915.678	6540.59
915.99	6552.79
916.302	6496.3
916.613	6490.2
916.925	6477.32
917.236	6456.98
917.548	6392.35
917.859	6439.8
918.171	6435.51
918.482	6360.93
918.794	6346.7
919.105	6323.65
919.416	6265.57
919.727	6221.28
920.038	6252.69
920.349	6151.22
920.66	6159.58
920.971	6194.16
921.282	6104.44
921.593	6052.47
921.903	6104.44
922.214	6069.87
922.525	6006.14
922.835	5981.28
923.146	5974.73
923.456	5921.85
923.767	5920.72
924.077	5932.02
924.387	5909.19
924.697	5867.84
925.008	5795.75
925.318	5771.35
925.628	5779.71
925.938	5762.76
926.248	5761.18
926.558	5737.9
926.867	5687.96
927.177	5642.31
927.487	5641.63
927.796	5610.45
928.106	5617.23
928.416	5577.23
928.725	5569.32
929.034	5454.97
929.344	5540.39
929.653	5500.17
929.962	5446.83
930.271	5402.99
930.581	5424.91
930.89	5403.9
931.199	5365.71
931.508	5325.93
931.817	5426.95
932.125	5334.07
932.434	5271.25
932.743	5262.21
933.051	5224.92
933.36	5195.99
933.669	5199.61
933.977	5190.34
934.286	5158.25
934.594	5098.82
934.902	5090.69
935.21	5074.87
935.519	5062.44
935.827	5031.7
936.135	5031.93
936.443	5001.87
936.751	4945.38
937.059	5039.39
937.367	4974.98
937.674	4958.94
937.982	4973.63
938.29	4895.21
938.597	4879.39
938.905	4878.94
939.213	4829.68
939.52	4845.72
939.827	4796.46
940.135	4768.43
940.442	4758.94
940.749	4778.38
941.056	4740.86
941.363	4682.79
941.67	4637.36
941.977	4649.12
942.284	4643.69
942.591	4599.85
942.898	4597.36
943.205	4595.11
943.511	4567.99
943.818	4563.69
944.125	4487.76
944.431	4518.72
944.738	4443.47
945.044	4451.15
945.35	4473.53
945.657	4413.19
945.963	4379.97
946.269	4384.72
946.575	4379.29
946.881	4353.98
947.187	4330.25
947.493	4310.37
947.799	4271.05
948.105	4274.89
948.41	4287.32
948.716	4242.57
949.022	4202.12
949.327	4214.1
949.633	4178.17
949.938	4166.42
950.244	4144.27
950.549	4141.56
950.854	4104.5
951.16	4085.29
951.465	4040.09
951.77	4056.36
952.075	4031.5
952.38	4047.77
952.685	4010.94
952.99	3988.34
953.294	3969.58
953.599	3940.43
953.904	3910.6
954.209	3922.81
954.513	3928.68
954.818	3866.76
955.122	3919.42
955.426	3870.15
955.731	3834.9
956.035	3820.44
956.339	3785.86
956.643	3801
956.948	3789.48
957.252	3768.91
957.556	3767.56
957.86	3719.87
958.163	3698.63
958.467	3702.7
958.771	3651.85
959.075	3668.12
959.378	3664.73
959.682	3652.08
959.985	3631.51
960.289	3636.03
960.592	3589.93
960.896	3608.69
961.199	3543.83
961.502	3545.19
961.805	3529.6
962.108	3488.92
962.411	3530.5
962.714	3478.75
963.017	3461.35
963.32	3456.6
963.623	3442.37
963.926	3453.67
964.228	3401.01
964.531	3411.41
964.833	3357.85
965.136	3351.97
965.438	3341.58
965.741	3328.02
966.043	3287.57
966.345	3284.63
966.648	3279.43
966.95	3285.54
967.252	3279.21
967.554	3254.8
967.856	3247.8
968.158	3202.6
968.46	3214.35
968.761	3177.52
969.063	3166.22
969.365	3149.49
969.666	3147.91
969.968	3118.76
970.269	3103.84
970.571	3134.35
970.872	3086.9
971.174	3083.05
971.475	3113.56
971.776	3060.91
972.077	3078.53
972.378	2999.21
972.679	3007.12
972.98	3006.9
973.281	2999.44
973.582	2966
973.883	2996.96
974.183	2961.48
974.484	2940.69
974.785	2944.3
975.085	2923.96
975.386	2930.29
975.686	2908.6
975.986	2873.34
976.287	2835.83
976.587	2842.38
976.887	2833.8
977.187	2846.45
977.487	2788.37
977.787	2790.86
978.087	2810.29
978.387	2785.21
978.687	2739.33
978.987	2770.97
979.286	2739.79
979.586	2723.74
979.885	2690.3
980.185	2712.67
980.484	2680.58
980.784	2673.35
981.083	2668.38
981.382	2653.24
981.682	2612.33
981.981	2620.47
982.28	2667.02
982.579	2595.16
982.878	2589.73
983.177	2608.04
983.475	2591.77
983.774	2590.41
984.073	2523.07
984.372	2532.79
984.67	2529.17
984.969	2510.64
985.267	2527.36
985.566	2529.17
985.864	2503.18
986.162	2459.34
986.461	2462.05
986.759	2473.13
987.057	2435.84
987.355	2434.94
987.653	2399.91
987.951	2427.7
988.249	2393.58
988.547	2414.37
988.844	2369.4
989.142	2382.73
989.44	2356.97
989.737	2336.86
990.035	2309.29
990.332	2347.25
990.63	2323.53
990.927	2299.8
991.224	2292.57
991.521	2289.86
991.819	2288.27
992.116	2263.87
992.413	2267.26
992.71	2216.18
993.006	2265.45
993.303	2207.15
993.6	2220.03
993.897	2225.9
994.193	2166.24
994.49	2182.97
994.787	2157.43
995.083	2154.04
995.379	2137.32
995.676	2138.22
995.972	2137.32
996.268	2112.01
996.565	2111.33
996.861	2093.7
997.157	2079.69
997.453	2054.61
997.749	2093.02
998.044	2045.34
998.34	2028.17
998.636	2041.73
998.932	1984.1
999.227	1991.11
999.523	2005.12
999.818	1994.04
1000.114	1987.49
1000.409	1959.92
1000.704	1963.54
1001	1941.62
1001.295	1958.56
1001.59	1940.71
1001.885	1935.74
1002.18	1922.41
1002.475	1875.63
1002.77	1896.87
1003.065	1859.58
1003.359	1854.16
1003.654	1861.39
1003.949	1865.46
1004.243	1845.57
1004.538	1825.46
1004.832	1825.69
1005.127	1815.29
1005.421	1798.12
1005.715	1755.86
1006.009	1801.51
1006.304	1769.42
1006.598	1742.3
1006.892	1752.69
1007.186	1708.63
1007.48	1736.65
1007.773	1744.11
1008.067	1721.73
1008.361	1690.32
1008.655	1695.29
1008.948	1692.13
1009.242	1671.79
1009.535	1635.18
1009.829	1650.32
1010.122	1651.68
1010.415	1612.58
1010.708	1644.22
1011.001	1598.35
1011.295	1602.19
1011.588	1595.41
1011.881	1581.63
1012.173	1567.16
1012.466	1578.46
1012.759	1524.23
1013.052	1525.81
1013.344	1557.44
1013.637	1524.23
1013.93	1528.29
1014.222	1538.01
1014.514	1497.33
1014.807	1501.18
1015.099	1492.36
1015.391	1478.58
1015.683	1462.98
1015.976	1455.3
1016.268	1479.93
1016.56	1447.84
1016.851	1448.07
1017.143	1433.83
1017.435	1438.58
1017.727	1420.05
1018.018	1419.6
1018.31	1392.03
1018.602	1395.42
1018.893	1378.24
1019.185	1375.3
1019.476	1362.42
1019.767	1340.73
1020.058	1373.04
1020.35	1353.38
1020.641	1354.06
1020.932	1322.65
1021.223	1294.85
1021.514	1292.14
1021.804	1293.72
1022.095	1319.49
1022.386	1291.24
1022.677	1256.89
1022.967	1276.1
1023.258	1250.56
1023.548	1244.23
1023.839	1248.98
1024.129	1215.76
1024.419	1256.66
1024.709	1240.17
1025	1205.14
1025.29	1226.38
1025.58	1187.74
1025.87	1178.7
1026.16	1183.22
1026.449	1157.91
1026.739	1151.58
1027.029	1127.85
1027.319	1135.08
1027.608	1160.85
1027.898	1142.09
1028.187	1130.34
1028.477	1133.73
1028.766	1125.82
1029.055	1117
1029.344	1124.46
1029.634	1093.73
1029.923	1086.95
1030.212	1080.17
1030.501	1062.09
1030.79	1066.84
1031.078	1042.88
1031.367	1037.01
1031.656	1052.6
1031.945	1061.64
1032.233	1053.28
1032.522	985.48
1032.81	1013.73
1033.099	1037.68
1033.387	1013.05
1033.675	1000.85
1033.963	1035.2
1034.251	981.87
1034.54	983.22
1034.828	964.47
1035.116	975.77
1035.403	958.82
1035.691	949.33
1035.979	962.21
1036.267	952.49
1036.554	944.58
1036.842	931.47
1037.129	938.93
1037.417	924.02
1037.704	928.08
1037.992	898.71
1038.279	907.74
1038.566	886.73
1038.853	886.73
1039.14	886.73
