Data from hue_170_FLMS001491_00098.txt Node
Date: Tue Feb 07 16:49:32 GMT 2017
User: dcchb
Spectrometer: FLMS00149
Trigger mode: 0
Integration Time (sec): 2.000000E-2
Scans to average: 10
Electric dark correction enabled: true
Nonlinearity correction enabled: false
Boxcar width: 0
XAxis mode: Wavelengths
Number of Pixels in Spectrum: 2048
>>>>>Begin Spectral Data<<<<<
341.393	-13.76
341.776	-13.76
342.16	-13.76
342.543	-48.56
342.927	-76.35
343.31	-66.18
343.693	-68.22
344.077	-77.94
344.46	-60.31
344.843	-40.65
345.226	-41.1
345.61	-27.32
345.993	-19.41
346.376	2.97
346.759	-25.73
347.142	28.05
347.525	33.25
347.908	57.2
348.291	85.68
348.674	79.35
349.057	140.36
349.44	115.96
349.823	146.69
350.206	158.89
350.588	184.2
350.971	178.1
351.354	215.84
351.737	236.86
352.119	248.38
352.502	239.34
352.884	264.43
353.267	281.6
353.65	283.64
354.032	301.04
354.414	282.05
354.797	320.7
355.179	316.18
355.562	318.66
355.944	310.98
356.326	329.74
356.709	325.67
357.091	336.74
357.473	344.43
357.855	330.87
358.238	333.13
358.62	338.55
359.002	323.18
359.384	322.05
359.766	343.52
360.148	347.36
360.53	345.1
360.912	330.42
361.294	325.44
361.676	328.83
362.057	333.13
362.439	320.47
362.821	293.81
363.203	334.03
363.584	310.75
363.966	358.44
364.348	337.42
364.729	334.48
365.111	284.99
365.493	299.68
365.874	310.3
366.256	319.34
366.637	303.3
367.019	317.76
367.4	321.38
367.781	316.18
368.163	297.42
368.544	303.98
368.925	312.79
369.306	320.47
369.688	289.96
370.069	289.29
370.45	310.08
370.831	308.72
371.212	296.74
371.593	308.72
371.974	320.7
372.355	310.53
372.736	317.08
373.117	314.82
373.498	319.79
373.879	326.57
374.26	310.3
374.641	324.54
375.021	320.02
375.402	294.03
375.783	306.69
376.163	328.83
376.544	311.43
376.925	316.63
377.305	313.92
377.686	335.84
378.066	320.47
378.447	328.61
378.827	317.76
379.208	310.75
379.588	338.32
379.968	297.87
380.349	324.31
380.729	320.25
381.109	352.34
381.489	346.69
381.87	348.27
382.25	310.98
382.63	313.69
383.01	321.6
383.39	346.91
383.77	327.25
384.15	342.39
384.53	346.01
384.91	354.14
385.29	322.73
385.67	339.45
386.049	357.53
386.429	334.71
386.809	349.62
387.189	350.3
387.568	346.46
387.948	346.46
388.328	340.81
388.707	348.04
389.087	347.59
389.466	338.78
389.846	357.31
390.225	355.73
390.605	375.84
390.984	339
391.363	352.11
391.743	354.6
392.122	364.31
392.501	373.35
392.881	374.26
393.26	375.39
393.639	360.02
394.018	369.51
394.397	367.25
394.776	366.8
395.155	364.99
395.534	363.86
395.913	388.72
396.292	385.1
396.671	372
397.05	374.03
397.429	382.62
397.808	395.27
398.186	381.71
398.565	403.63
398.944	403.18
399.323	386.23
399.701	399.11
400.08	371.54
400.458	413.58
400.837	378.78
401.215	404.76
401.594	384.42
401.972	409.73
402.351	391.66
402.729	407.25
403.107	425.78
403.486	403.63
403.864	404.76
404.242	430.07
404.62	421.94
404.999	421.26
405.377	420.13
405.755	402.5
406.133	422.84
406.511	435.27
406.889	435.5
407.267	415.16
407.645	442.95
408.023	453.8
408.401	442.95
408.779	421.03
409.156	446.12
409.534	451.32
409.912	440.47
410.29	441.82
410.667	475.04
411.045	496.96
411.422	491.09
411.8	477.08
412.178	481.6
412.555	497.87
412.933	470.3
413.31	502.39
413.687	491.77
414.065	507.59
414.442	526.79
414.819	522.27
415.197	516.17
415.574	507.59
415.951	543.74
416.328	546.23
416.705	525.89
417.082	557.08
417.46	524.76
417.837	557.53
418.214	567.24
418.591	547.58
418.967	567.02
419.344	573.12
419.721	586.68
420.098	577.87
420.475	591.2
420.852	619.67
421.228	608.37
421.605	616.96
421.982	605.89
422.358	621.25
422.735	640.92
423.111	623.51
423.488	624.19
423.864	640.69
424.241	657.41
424.617	651.08
424.994	680.91
425.37	669.62
425.746	672.78
426.123	678.88
426.499	698.09
426.875	696.73
427.251	713.23
427.627	711.42
428.003	718.43
428.379	724.08
428.756	732.66
429.132	726.79
429.507	765.88
429.883	757.52
430.259	767.24
430.635	750.07
431.011	803.17
431.387	785.54
431.763	789.39
432.138	793.45
432.514	805.43
432.89	811.98
433.265	846.56
433.641	858.76
434.016	860.57
434.392	851.31
434.767	884.52
435.143	882.26
435.518	885.43
435.894	938.08
436.269	906.67
436.644	939.66
437.02	913.9
437.395	940.34
437.77	968.36
438.145	963.62
438.52	976.05
438.895	1007.01
439.271	1009.27
439.646	1004.07
440.021	1016.95
440.395	1043.84
440.77	1046.78
441.145	1043.16
441.52	1092.65
441.895	1070.28
442.27	1084.97
442.645	1089.94
443.019	1093.78
443.394	1101.47
443.769	1129.72
444.143	1120.68
444.518	1117.29
444.892	1115.03
445.267	1159.09
445.641	1151.86
446.016	1151.41
446.39	1165.65
446.764	1168.36
447.139	1175.36
447.513	1215.82
447.887	1182.82
448.262	1196.83
448.636	1213.78
449.01	1244.52
449.384	1227.57
449.758	1240.67
450.132	1266.89
450.506	1246.32
450.88	1309.37
451.254	1298.53
451.628	1299.2
452.002	1302.59
452.376	1333.1
452.75	1367.22
453.123	1361.57
453.497	1380.33
453.871	1406.32
454.244	1434.34
454.618	1417.17
454.992	1442.02
455.365	1438.63
455.739	1486.99
456.112	1510.95
456.486	1497.16
456.859	1523.38
457.232	1529.71
457.606	1537.61
457.979	1571.74
458.352	1591.62
458.725	1608.8
459.099	1607.67
459.472	1641.12
459.845	1690.38
460.218	1691.74
460.591	1663.49
460.964	1705.07
461.337	1752.52
461.71	1790.49
462.083	1816.25
462.456	1831.39
462.829	1825.74
463.201	1868
463.574	1890.37
463.947	1911.16
464.32	1979.41
464.692	1971.28
465.065	1992.97
465.438	2015.12
465.81	2046.3
466.183	2054.21
466.555	2136.47
466.928	2124.04
467.3	2145.28
467.672	2217.15
468.045	2254.66
468.417	2277.93
468.789	2279.52
469.161	2312.06
469.534	2339.63
469.906	2419.85
470.278	2455.56
470.65	2473.41
471.022	2560.86
471.394	2568.32
471.766	2645.61
472.138	2671.14
472.51	2759.5
472.882	2797.24
473.253	2797.24
473.625	2884.47
473.997	2931.02
474.369	2991.36
474.74	3020.29
475.112	3133.05
475.484	3173.5
475.855	3291.02
476.227	3271.81
476.598	3386.83
476.97	3453.5
477.341	3566.94
477.713	3654.85
478.084	3636.77
478.455	3802.64
478.827	3822.75
479.198	3948.4
479.569	4037.21
479.94	4126.47
480.311	4226.81
480.682	4332.12
481.053	4492.79
481.424	4571.66
481.795	4615.27
482.166	4722.62
482.537	4802.39
482.908	4948.37
483.279	5028.6
483.65	5150.18
484.021	5298.42
484.391	5343.16
484.762	5431.3
485.133	5537.28
485.503	5653.21
485.874	5847.56
486.244	5895.24
486.615	6074.22
486.985	6169.13
487.356	6281.22
487.726	6482.57
488.097	6608.67
488.467	6615.45
488.837	6797.36
489.207	6916.23
489.578	7015.89
489.948	7146.73
490.318	7235.77
490.688	7370
491.058	7556.44
491.428	7659.94
491.798	7755.98
492.168	7981.06
492.538	8062.19
492.908	8091.11
493.278	8289.3
493.648	8259.7
494.017	8498.34
494.387	8592.8
494.757	8718.67
495.126	8810.87
495.496	8896.52
495.866	8935.16
496.235	9104.2
496.605	9145.78
496.974	9196.4
497.344	9364.08
497.713	9440.23
498.082	9569.49
498.452	9616.5
498.821	9678.19
499.19	9761.81
499.559	9856.72
499.928	9961.35
500.298	10037.05
500.667	10142.59
501.036	10192.53
501.405	10258.74
501.774	10307.1
502.143	10372.18
502.512	10454.67
502.88	10553.65
503.249	10482.69
503.618	10623.48
503.987	10625.29
504.356	10696.7
504.724	10898.95
505.093	10863.02
505.462	10874.32
505.83	10979.4
506.199	11075.67
506.567	11140.75
506.936	11146.63
507.304	11221.2
507.672	11265.49
508.041	11307.98
508.409	11413.51
508.777	11425.94
509.145	11624.81
509.514	11504.58
509.882	11592.49
510.25	11602.66
510.618	11712.04
510.986	11736.44
511.354	11794.75
511.722	11810.11
512.09	11874.74
512.458	11907.29
512.826	11920.39
513.193	12013.27
513.561	11879.04
513.929	11957.68
514.297	12107.51
514.664	12126.04
515.032	12143.89
515.4	12195.41
515.767	12256.88
516.135	12254.17
516.502	12178.47
516.869	12337.78
517.237	12408.29
517.604	12340.72
517.972	12446.48
518.339	12468.4
518.706	12410.55
519.073	12469.53
519.44	12541.62
519.808	12599.02
520.175	12547.04
520.542	12635.63
520.909	12673.14
521.276	12598.34
521.643	12669.3
522.009	12683.76
522.376	12771.9
522.743	12827.49
523.11	12769.86
523.477	12897.54
523.843	12872.23
524.21	12960.14
524.577	12949.52
524.943	12913.59
525.31	12975.96
525.676	13026.58
526.043	13030.87
526.409	13060.02
526.776	13109.51
527.142	13135.95
527.508	13116.52
527.874	13216.4
528.241	13235.16
528.607	13212.34
528.973	13154.94
529.339	13115.39
529.705	13256.4
530.071	13201.72
530.437	13225.9
530.803	13383.63
531.169	13227.93
531.535	13195.61
531.901	13219.12
532.267	13142.28
532.632	13155.84
532.998	13183.64
533.364	13173.92
533.73	13150.19
534.095	13169.63
534.461	13159
534.826	13160.59
535.192	13134.37
535.557	13188.83
535.923	12997.88
536.288	13006.47
536.653	13036.07
537.019	12913.59
537.384	12959.69
537.749	12888.5
538.114	12892.57
538.479	12770.99
538.845	12785
539.21	12760.82
539.575	12820.03
539.94	12730.99
540.305	12789.07
540.67	12763.99
541.034	12647.61
541.399	12688.51
541.764	12629.07
542.129	12583.2
542.494	12459.36
542.858	12467.5
543.223	12482.86
543.587	12416.88
543.952	12329.2
544.316	12351.79
544.681	12236.54
545.045	12260.72
545.41	12280.16
545.774	12276.09
546.138	12175.3
546.503	12077.22
546.867	12095.53
547.231	12060.95
547.595	12093.95
547.959	11978.24
548.324	12006.27
548.688	11980.28
549.052	11924.91
549.416	11881.98
549.779	11811.02
550.143	11841.3
550.507	11835.2
550.871	11786.61
551.235	11712.71
551.599	11672.94
551.962	11699.16
552.326	11684.69
552.689	11689.66
553.053	11560.18
553.417	11495.55
553.78	11610.8
554.143	11557.69
554.507	11515.66
554.87	11506.39
555.234	11556.33
555.597	11423
555.96	11434.98
556.323	11512.04
556.686	11374.42
557.05	11366.51
557.413	11388.66
557.776	11384.36
558.139	11369.22
558.502	11302.1
558.865	11327.64
559.228	11327.87
559.59	11349.33
559.953	11270.92
560.316	11359.73
560.679	11264.36
561.041	11382.1
561.404	11308.43
561.767	11363.57
562.129	11251.48
562.492	11340.97
562.854	11234.08
563.217	11225.5
563.579	11272.95
563.941	11300.97
564.304	11310.92
564.666	11331.03
565.028	11300.3
565.39	11311.82
565.753	11315.44
566.115	11383.23
566.477	11366.74
566.839	11362.67
567.201	11459.84
567.563	11341.42
567.925	11395.66
568.287	11337.36
568.648	11374.64
569.01	11359.73
569.372	11411.93
569.734	11345.94
570.095	11427.98
570.457	11344.36
570.819	11356.79
571.18	11486.51
571.542	11473.4
571.903	11461.42
572.265	11411.71
572.626	11434.53
572.987	11523.57
573.349	11421.2
573.71	11438.15
574.071	11486.05
574.432	11490.12
574.794	11497.81
575.155	11531.25
575.516	11467.3
575.877	11580.29
576.238	11430.24
576.599	11508.2
576.96	11498.26
577.32	11561.31
577.681	11516.79
578.042	11590.23
578.403	11497.35
578.763	11537.8
579.124	11524.47
579.485	11467.52
579.845	11461.2
580.206	11451.25
580.566	11431.59
580.927	11523.57
581.287	11554.98
581.648	11498.48
582.008	11545.49
582.368	11579.61
582.728	11489.44
583.089	11462.33
583.449	11498.26
583.809	11482.44
584.169	11493.29
584.529	11392.5
584.889	11516.79
585.249	11387.75
585.609	11377.81
585.969	11456.22
586.329	11356.34
586.688	11400.63
587.048	11368.54
587.408	11389.11
587.768	11354.08
588.127	11267.08
588.487	11287.19
588.846	11362.89
589.206	11299.39
589.565	11210.58
589.925	11322.44
590.284	11224.82
590.643	11322.67
591.003	11306.4
591.362	11315.44
591.721	11257.81
592.08	11284.48
592.44	11346.62
592.799	11267.53
593.158	11248.77
593.517	11182.79
593.876	11275.21
594.235	11172.39
594.593	11084.26
594.952	11163.58
595.311	11154.76
595.67	11196.57
596.029	11259.17
596.387	11212.61
596.746	11220.3
597.104	11129.91
597.463	11147.98
597.822	11178.27
598.18	11124.71
598.538	11087.19
598.897	11162.9
599.255	11074.77
599.613	11203.58
599.972	11174.65
600.33	11152.28
600.688	11074.31
601.046	11166.74
601.404	11178.72
601.762	11194.76
602.12	11192.95
602.478	11109.79
602.836	11130.58
603.194	11076.35
603.552	11120.87
603.91	11024.15
604.268	11073.18
604.625	11057.14
604.983	11113.86
605.341	11041.09
605.698	11125.16
606.056	11157.02
606.413	11075.67
606.771	11162.22
607.128	11096.91
607.485	11090.13
607.843	11110.7
608.2	11163.8
608.557	11085.84
608.914	11144.37
609.272	11169.23
609.629	11201.32
609.986	11213.74
610.343	11166.06
610.7	11265.27
611.057	11212.39
611.414	11247.87
611.771	11128.1
612.127	11183.01
612.484	11259.39
612.841	11276.34
613.198	11267.08
613.554	11203.12
613.911	11226.63
614.267	11311.6
614.624	11267.98
614.98	11259.39
615.337	11310.01
615.693	11187.53
616.05	11226.85
616.406	11375.32
616.762	11262.78
617.118	11319.05
617.475	11327.87
617.831	11365.83
618.187	11410.35
618.543	11373.97
618.899	11380.07
619.255	11297.81
619.611	11308.43
619.967	11430.69
620.323	11376.23
620.678	11354.76
621.034	11384.59
621.39	11356.79
621.746	11301.43
622.101	11502.78
622.457	11378.49
622.812	11314.31
623.168	11420.97
623.523	11379.16
623.879	11436.56
624.234	11392.05
624.589	11395.66
624.945	11355.21
625.3	11454.64
625.655	11460.52
626.01	11392.27
626.365	11380.52
626.72	11383.01
627.075	11415.32
627.43	11343.46
627.785	11342.55
628.14	11267.3
628.495	11336
628.85	11341.2
629.205	11377.81
629.559	11390.46
629.914	11225.72
630.269	11314.53
630.623	11326.51
630.978	11281.54
631.332	11333.74
631.687	11359.5
632.041	11232.28
632.396	11268.66
632.75	11189.79
633.104	11249.68
633.459	11184.59
633.813	11212.84
634.167	11201.99
634.521	11217.13
634.875	11175.78
635.229	11236.34
635.583	11108.66
635.937	11112.28
636.291	11153.41
636.645	11029.34
636.999	11060.3
637.352	11106.85
637.706	11038.61
638.06	11087.65
638.413	11095.1
638.767	11020.98
639.121	10974.88
639.474	10935.33
639.828	10914.09
640.181	10931.27
640.534	11004.26
640.888	10936.92
641.241	10881.55
641.594	10866.64
641.947	10955.9
642.301	10890.59
642.654	10914.54
643.007	10871.61
643.36	10864.38
643.713	10786.41
644.066	10889.01
644.419	10783.25
644.771	10759.97
645.124	10674.55
645.477	10684.27
645.83	10505.29
646.182	10552.52
646.535	10558.85
646.888	10566.3
647.24	10525.63
647.593	10540.99
647.945	10579.41
648.298	10470.04
648.65	10497.61
649.002	10472.52
649.355	10481.79
649.707	10540.32
650.059	10601.33
650.411	10664.61
650.763	10629.13
651.115	10782.12
651.467	10795.45
651.819	10752.06
652.171	10726.3
652.523	10776.47
652.875	10753.42
653.227	10671.39
653.578	10781.89
653.93	10734.66
654.282	10689.69
654.633	10710.71
654.985	10678.39
655.337	10701.44
655.688	10755.9
656.039	10773.53
656.391	10675
656.742	10702.8
657.094	10724.72
657.445	10762.01
657.796	10838.61
658.147	10762.46
658.498	10766.52
658.849	10819.63
659.2	10847.88
659.551	10778.5
659.902	10835.68
660.253	10854.43
660.604	10916.8
660.955	10723.14
661.306	10799.74
661.656	10795.9
662.007	10798.61
662.358	10836.58
662.708	10832.51
663.059	10879.74
663.409	10756.81
663.76	10844.26
664.11	10817.14
664.461	10833.87
664.811	10816.47
665.161	10861.89
665.511	10832.96
665.862	10817.6
666.212	10893.3
666.562	10915
666.912	10932.62
667.262	10822.57
667.612	10847.88
667.962	10847.88
668.312	10840.42
668.662	10827.77
669.011	10903.24
669.361	10847.88
669.711	10866.64
670.06	10841.1
670.41	10784.83
670.76	10815.34
671.109	10815.79
671.459	10842.68
671.808	10779.63
672.157	10817.6
672.507	10733.08
672.856	10754.55
673.205	10772.63
673.554	10820.31
673.904	10689.69
674.253	10837.48
674.602	10752.97
674.951	10638.62
675.3	10552.29
675.649	10713.19
675.998	10766.07
676.346	10729.92
676.695	10741.21
677.044	10605.17
677.393	10655.12
677.741	10691.5
678.09	10616.47
678.438	10574.44
678.787	10622.12
679.135	10588.68
679.484	10494.22
679.832	10552.52
680.181	10469.13
680.529	10503.48
680.877	10475.46
681.225	10491.5
681.573	10538.73
681.922	10482.69
682.27	10439.53
682.618	10399.75
682.966	10422.81
683.314	10475.23
683.661	10422.81
684.009	10376.25
684.357	10376.25
684.705	10349.13
685.053	10270.72
685.4	10246.54
685.748	10204.05
686.095	10233.66
686.443	10178.07
686.79	10151.4
687.138	10130.61
687.485	10158.86
687.832	10119.31
688.18	10126.54
688.527	9998.64
688.874	10051.52
689.221	9963.16
689.568	9945.08
689.915	9952.31
690.262	9977.84
690.609	9866.21
690.956	9909.82
691.303	9820.79
691.65	9739.89
691.997	9760.22
692.344	9715.48
692.69	9643.39
693.037	9697.85
693.383	9580.34
693.73	9612.43
694.077	9565.65
694.423	9543.51
694.769	9537.4
695.116	9514.13
695.462	9434.81
695.808	9424.41
696.155	9407.46
696.501	9314.59
696.847	9349.16
697.193	9260.12
697.539	9283.63
697.885	9197.3
698.231	9213.12
698.577	9204.76
698.923	9168.83
699.269	9090.18
699.614	9054.25
699.96	9002.28
700.306	8987.59
700.651	9021.71
700.997	8936.74
701.342	8850.64
701.688	8833.92
702.033	8842.51
702.379	8851.77
702.724	8740.59
703.069	8782.4
703.415	8765.9
703.76	8774.49
704.105	8722.96
704.45	8632.8
704.795	8567.94
705.14	8551.44
705.485	8564.32
705.83	8495.17
706.175	8567.26
706.52	8464.44
706.865	8466.25
707.209	8388.96
707.554	8376.98
707.899	8372.24
708.243	8384.44
708.588	8318.91
708.932	8262.41
709.277	8247.27
709.621	8280.71
709.966	8235.52
710.31	8220.15
710.654	8135.41
710.998	8157.1
711.342	8148.97
711.687	8139.7
712.031	8096.31
712.375	8082.08
712.719	8076.88
713.063	8062.42
713.407	8064
713.75	8007.95
714.094	7976.77
714.438	7998.46
714.782	8006.82
715.125	7863.1
715.469	7947.84
715.812	7909.42
716.156	7881.18
716.499	7922.98
716.843	7882.98
717.186	7920.5
717.53	7868.97
717.873	7820.84
718.216	7827.85
718.559	7831.91
718.902	7797.11
719.246	7786.72
719.589	7756.43
719.932	7746.27
720.275	7688.87
720.617	7729.99
720.96	7686.15
721.303	7732.48
721.646	7713.95
721.989	7676.21
722.331	7732.48
722.674	7689.09
723.016	7665.36
723.359	7668.75
723.701	7677.57
724.044	7584.01
724.386	7591.92
724.729	7622.43
725.071	7620.39
725.413	7612.26
725.755	7647.28
726.097	7625.59
726.439	7595.99
726.782	7573.61
727.124	7629.66
727.465	7533.16
727.807	7517.8
728.149	7545.37
728.491	7557.8
728.833	7550.79
729.175	7532.26
729.516	7499.04
729.858	7499.49
730.199	7519.38
730.541	7465.59
730.882	7509.44
731.224	7554.41
731.565	7544.69
731.906	7549.21
732.248	7502.2
732.589	7480.28
732.93	7474.63
733.271	7521.19
733.612	7511.02
733.953	7519.83
734.294	7470.11
734.635	7516.21
734.976	7534.29
735.317	7499.27
735.658	7515.54
735.999	7513.28
736.339	7501.75
736.68	7519.38
737.021	7580.85
737.361	7526.84
737.702	7600.05
738.042	7495.88
738.383	7506.72
738.723	7569.32
739.063	7551.47
739.404	7630.11
739.744	7605.93
740.084	7571.58
740.424	7652.26
740.764	7582.65
741.104	7634.18
741.444	7598.02
741.784	7729.09
742.124	7688.19
742.464	7677.57
742.804	7755.98
743.143	7747.4
743.483	7783.1
743.823	7790.78
744.162	7815.64
744.502	7893.83
744.841	7864.91
745.181	7889.76
745.52	7912.59
745.86	7991
746.199	8035.07
746.538	8007.95
746.877	8073.49
747.216	8191.9
747.556	8172.69
747.895	8273.71
748.234	8229.19
748.573	8264.9
748.911	8365.91
749.25	8440.94
749.589	8435.29
749.928	8602.74
750.267	8634.6
750.605	8694.49
750.944	8775.16
751.283	8812.45
751.621	8923.64
751.96	8989.62
752.298	9069.62
752.636	9174.93
752.975	9243.85
753.313	9328.6
753.651	9449.05
753.989	9514.81
754.327	9637.97
754.666	9743.95
755.004	9866.21
755.342	10014.23
755.679	10131.97
756.017	10174.22
756.355	10378.96
756.693	10503.93
757.031	10688.56
757.368	10773.08
757.706	10862.79
758.044	11039.06
758.381	11189.56
758.719	11342.78
759.056	11524.25
759.394	11633.39
759.731	11728.99
760.068	11935.53
760.405	12022.99
760.743	12255.07
761.08	12447.38
761.417	12523.31
761.754	12749.3
762.091	12804.89
762.428	13061.61
762.765	13083.3
763.102	13376.17
763.438	13492.33
763.775	13514.25
764.112	13839.21
764.449	14048.47
764.785	14073.78
765.122	14205.3
765.458	14354.68
765.795	14534.11
766.131	14795.57
766.467	14794.44
766.804	14996.24
767.14	15062.91
767.476	15309.91
767.812	15371.38
768.148	15544.93
768.485	15584.48
768.821	15683.23
769.157	15811.36
769.492	15894.75
769.828	16048.87
770.164	16058.82
770.5	16230.56
770.836	16385.59
771.171	16419.26
771.507	16514.17
771.842	16490.22
772.178	16668.06
772.513	16779.7
772.849	16825.12
773.184	16898.79
773.519	17027.83
773.855	17047.72
774.19	17133.36
774.525	17136.98
774.86	17252.68
775.195	17361.83
775.53	17391.89
775.865	17318.67
776.2	17347.82
776.535	17412.23
776.87	17430.3
777.205	17503.3
777.539	17535.16
777.874	17559.34
778.209	17618.1
778.543	17599.34
778.878	17585.78
779.212	17735.38
779.547	17605.67
779.881	17764.76
780.215	17698.55
780.55	17875.04
780.884	17791.2
781.218	17709.62
781.552	17878.88
781.886	17793.23
782.22	17746.68
782.554	17809.5
782.888	17711.65
783.222	17600.02
783.556	17705.78
783.889	17646.57
784.223	17600.02
784.557	17644.31
784.89	17677.76
785.224	17649.51
785.557	17494.71
785.891	17506.91
786.224	17622.84
786.558	17622.39
786.891	17420.59
787.224	17464.43
787.557	17511.21
787.891	17468.04
788.224	17488.61
788.557	17462.85
788.89	17519.79
789.223	17479.12
789.556	17409.74
789.888	17367.48
790.221	17429.85
790.554	17227.82
790.887	17274.83
791.219	17229.41
791.552	17085.68
791.884	17185.57
792.217	17141.72
792.549	17173.14
792.882	17035.51
793.214	16983.99
793.546	17016.53
793.879	16937.21
794.211	16876.42
794.543	16905.57
794.875	16828.96
795.207	17008.39
795.539	16859.02
795.871	16756.65
796.203	16707.61
796.535	16556.88
796.867	16680.04
797.198	16658.12
797.53	16605.69
797.862	16526.83
798.193	16561.85
798.525	16440.05
798.856	16493.38
799.188	16443.66
799.519	16314.18
799.85	16235.31
800.182	16209.77
800.513	16352.14
800.844	16112.82
801.175	16295.42
801.506	16191.24
801.837	16078.02
802.168	16020.62
802.499	16026.27
802.83	15947.18
803.161	15879.38
803.491	15899.95
803.822	15896.33
804.153	15865.15
804.483	15723.23
804.814	15680.52
805.145	15700.86
805.475	15763.23
805.805	15603.01
806.136	15575.21
806.466	15632.84
806.796	15593.06
807.126	15485.27
807.457	15414.99
807.787	15484.37
808.117	15412.5
808.447	15298.38
808.777	15413.41
809.107	15386.74
809.436	15238.95
809.766	15215.9
810.096	15124.83
810.426	15231.49
810.755	15229.68
811.085	15144.26
811.414	15149.69
811.744	15003.02
812.073	15025.4
812.403	14958.05
812.732	14887.55
813.061	14897.94
813.39	14832.63
813.719	14844.61
814.049	14897.72
814.378	14729.58
814.707	14790.6
815.036	14752.41
815.365	14631.51
815.693	14641.9
816.022	14643.71
816.351	14612.07
816.68	14529.14
817.008	14627.89
817.337	14383.6
817.665	14398.97
817.994	14424.73
818.322	14382.02
818.651	14372.08
818.979	14359.65
819.307	14405.07
819.636	14319.2
819.964	14302.7
820.292	14342.25
820.62	14312.65
820.948	14267.22
821.276	14286.43
821.604	14210.73
821.932	14273.33
822.259	14273.33
822.587	14203.95
822.915	14200.78
823.243	14240.33
823.57	14240.11
823.898	14250.28
824.225	14236.04
824.553	14215.02
824.88	14210.73
825.207	14323.49
825.535	14251.63
825.862	14287.79
826.189	14248.24
826.516	14260.9
826.843	14344.96
827.17	14305.64
827.497	14297.96
827.824	14225.42
828.151	14224.51
828.478	14298.18
828.805	14284.62
829.131	14268.35
829.458	14278.97
829.785	14191.29
830.111	14118.3
830.438	14347.67
830.764	14271.74
831.09	14315.36
831.417	14210.95
831.743	14248.02
832.069	14283.27
832.395	14197.85
832.722	14183.61
833.048	14038.76
833.374	14185.64
833.7	14161.24
834.026	14183.84
834.351	14176.38
834.677	14145.19
835.003	14125.53
835.329	14118.75
835.654	14143.61
835.98	14024.52
836.306	14058.42
836.631	14020.68
836.956	14034.24
837.282	14036.27
837.607	13956.27
837.932	13925.99
838.258	14010.96
838.583	13956.05
838.908	13872.88
839.233	13907.46
839.558	13925.99
839.883	13815.94
840.208	13814.35
840.533	13760.57
840.858	13777.07
841.182	13727.58
841.507	13752.66
841.832	13675.83
842.156	13669.27
842.481	13688.48
842.805	13596.28
843.13	13646.9
843.454	13595.83
843.778	13469.96
844.103	13517.19
844.427	13431.99
844.751	13514.02
845.075	13406.91
845.399	13358.32
845.723	13260.02
846.047	13317.42
846.371	13159.46
846.695	13181.38
847.019	13090.76
847.343	13093.92
847.666	13105.22
847.99	12921.27
848.313	12924.43
848.637	12863.64
848.96	12797.88
849.284	12804.21
849.607	12732.8
849.931	12693.93
850.254	12595.18
850.577	12544.33
850.9	12449.19
851.223	12479.25
851.546	12354.73
851.869	12323.55
852.192	12356.31
852.515	12239.71
852.838	12182.76
853.161	12171.46
853.483	12086.04
853.806	12080.61
854.129	12095.76
854.451	12045.81
854.774	12029.77
855.096	11944.12
855.419	11831.58
855.741	11850.34
856.063	11791.36
856.385	11822.99
856.708	11746.39
857.03	11698.7
857.352	11653.73
857.674	11683.34
857.996	11617.12
858.318	11539.84
858.64	11516.34
858.961	11478.14
859.283	11495.32
859.605	11370.8
859.926	11430.91
860.248	11367.86
860.57	11332.16
860.891	11380.52
861.212	11244.25
861.534	11195.21
861.855	11150.7
862.176	11238.38
862.498	11166.74
862.819	11143.69
863.14	11190.24
863.461	11058.72
863.782	11100.75
864.103	11064.6
864.424	11076.57
864.745	11140.3
865.065	11006.97
865.386	11032.96
865.707	10954.54
866.027	10971.27
866.348	10938.27
866.668	10985.05
866.989	10891.72
867.309	10857.6
867.63	10887.2
867.95	10842
868.27	10837.94
868.59	10864.83
868.91	10791.83
869.23	10796.58
869.55	10785.28
869.87	10826.64
870.19	10733.53
870.51	10787.54
870.83	10751.38
871.15	10699.41
871.469	10718.16
871.789	10625.96
872.109	10638.62
872.428	10555.46
872.748	10661.89
873.067	10624.83
873.386	10557.72
873.706	10593.42
874.025	10443.14
874.344	10480.88
874.663	10502.12
874.982	10483.37
875.301	10450.15
875.62	10453.31
875.939	10439.08
876.258	10403.14
876.577	10401.56
876.896	10373.99
877.214	10317.27
877.533	10408.79
877.852	10380.09
878.17	10273.88
878.489	10220.55
878.807	10321.34
879.125	10225.52
879.444	10280.44
879.762	10214.67
880.08	10241.34
880.398	10148.91
880.716	10245.41
881.034	10147.56
881.352	10126.32
881.67	10085.64
881.988	10084.73
882.306	10115.02
882.624	10098.29
882.941	10028.24
883.259	10032.76
883.577	9950.73
883.894	9950.95
884.212	9866.89
884.529	9895.81
884.846	9832.31
885.164	9851.52
885.481	9854.01
885.798	9851.07
886.115	9808.13
886.432	9751.86
886.75	9697.4
887.067	9724.52
887.383	9691.52
887.7	9743.95
888.017	9662.83
888.334	9667.12
888.651	9667.34
888.967	9572.66
889.284	9557.29
889.6	9599.32
889.917	9448.82
890.233	9464.64
890.55	9502.38
890.866	9395.94
891.182	9371.99
891.498	9366.79
891.815	9288.6
892.131	9274.36
892.447	9315.26
892.763	9233.91
893.079	9239.56
893.395	9165.44
893.71	9169.05
894.026	9136.51
894.342	9179.22
894.657	9032.56
894.973	8995.27
895.289	9069.62
895.604	8961.37
895.92	8929.74
896.235	8899.23
896.55	8869.63
896.865	8849.06
897.181	8848.61
897.496	8823.98
897.811	8741.95
898.126	8745.56
898.441	8685.9
898.756	8698.78
899.071	8638.9
899.386	8639.35
899.7	8500.6
900.015	8533.59
900.33	8516.64
900.644	8472.8
900.959	8495.62
901.273	8448.39
901.588	8388.51
901.902	8340.37
902.216	8303.76
902.531	8368.4
902.845	8231.68
903.159	8171.11
903.473	8137.22
903.787	8157.78
904.101	8114.62
904.415	8108.74
904.729	8104.67
905.042	8039.14
905.356	8084.56
905.67	7994.17
905.984	8009.31
906.297	7955.53
906.611	7897
906.924	7975.41
907.237	7888.86
907.551	7806.15
907.864	7799.15
908.177	7760.73
908.491	7746.04
908.804	7661.52
909.117	7625.59
909.43	7568.42
909.743	7525.48
910.056	7560.28
910.368	7546.72
910.681	7478.48
910.994	7523.45
911.307	7458.36
911.619	7372.26
911.932	7382.88
912.244	7296.33
912.557	7312.15
912.869	7268.99
913.181	7255.66
913.494	7246.39
913.806	7163.68
914.118	7216.34
914.43	7107.19
914.742	7148.77
915.054	7086.17
915.366	7050.24
915.678	7008.43
915.99	6985.61
916.302	6994.19
916.613	6940.41
916.925	6877.81
917.236	6930.92
917.548	6866.29
917.859	6871.94
918.171	6787.42
918.482	6766.4
918.794	6685.5
919.105	6715.11
919.416	6652.96
919.727	6686.86
920.038	6674.2
920.349	6603.02
920.66	6613.64
920.971	6600.98
921.282	6568.9
921.593	6511.04
921.903	6489.8
922.214	6447.32
922.525	6413.19
922.835	6409.58
923.146	6331.61
923.456	6341.78
923.767	6324.61
924.077	6284.16
924.387	6291.39
924.697	6229.02
925.008	6209.81
925.318	6227.21
925.628	6179.53
925.938	6176.59
926.248	6076.25
926.558	6078.06
926.867	6088.68
927.177	6054.33
927.487	6039.64
927.796	5960.1
928.106	5952.64
928.416	5921.68
928.725	5934.79
929.034	5895.92
929.344	5849.14
929.653	5843.72
929.962	5842.59
930.271	5771.18
930.581	5793.77
930.89	5717.39
931.199	5734.79
931.508	5722.59
931.817	5665.64
932.125	5694.79
932.434	5657.96
932.743	5536.83
933.051	5559.2
933.36	5508.81
933.669	5592.88
933.977	5497.51
934.286	5481.01
934.594	5534.57
934.902	5422.26
935.21	5412.77
935.519	5385.65
935.827	5421.13
936.135	5320.34
936.443	5317.63
936.751	5309.27
937.059	5300.91
937.367	5291.41
937.674	5310.62
937.982	5256.61
938.29	5182.94
938.597	5215.03
938.905	5173.45
939.213	5123.06
939.52	5116.73
939.827	5095.49
940.135	5071.99
940.442	5087.8
940.749	5018.43
941.056	5074.47
941.363	4970.75
941.67	5004.42
941.977	4935.04
942.284	4900.46
942.591	4869.28
942.898	4867.92
943.205	4882.39
943.511	4872.89
943.818	4819.34
944.125	4758.32
944.431	4802.16
944.738	4815.27
945.044	4767.81
945.35	4706.12
945.657	4679.23
945.963	4655.95
946.269	4626.57
946.575	4636.06
946.881	4612.79
947.187	4612.79
947.493	4578.66
947.799	4559.23
948.105	4522.4
948.41	4502.06
948.716	4564.65
949.022	4527.59
949.327	4462.28
949.633	4375.28
949.938	4493.47
950.244	4440.14
950.549	4371.21
950.854	4378.9
951.16	4342.74
951.465	4337.99
951.77	4320.82
952.075	4332.8
952.38	4285.11
952.685	4272.23
952.99	4261.16
953.294	4251.44
953.599	4198.11
953.904	4175.96
954.209	4153.59
954.513	4149.75
954.818	4116.53
955.122	4128.51
955.426	4112.01
955.731	4123.54
956.035	4067.27
956.339	4066.36
956.643	4035.4
956.948	3986.36
957.252	3940.26
957.556	3969.42
957.86	3981.17
958.163	3957.21
958.467	3885.8
958.771	3927.61
959.075	3915.41
959.378	3879.47
959.682	3893.94
959.985	3837.44
960.289	3829.53
960.592	3842.87
960.896	3783.66
961.199	3811.45
961.502	3769.65
961.805	3772.81
962.108	3726.71
962.411	3677.9
962.714	3688.74
963.017	3663.21
963.32	3675.41
963.623	3685.81
963.926	3651.01
964.228	3620.27
964.531	3616.43
964.833	3598.35
965.136	3529.43
965.438	3543.66
965.741	3525.13
966.043	3507.28
966.345	3545.47
966.648	3529.2
966.95	3504.34
967.252	3452.59
967.554	3473.38
967.856	3429.99
968.158	3391.58
968.46	3379.83
968.761	3412.59
969.063	3373.5
969.365	3386.61
969.666	3377.79
969.968	3339.38
970.269	3323.56
970.571	3327.4
970.872	3329.66
971.174	3284.69
971.475	3241.75
971.776	3264.58
972.077	3241.98
972.378	3203.11
972.679	3195.42
972.98	3181.41
973.281	3187.29
973.582	3149.1
973.883	3120.62
974.183	3131.92
974.484	3100.29
974.785	3110.91
975.085	3103.22
975.386	3121.53
975.686	3025.94
975.986	3024.58
976.287	3044.02
976.587	2980.51
976.887	3021.64
977.187	3001.31
977.487	3012.15
977.787	2979.84
978.087	2953.85
978.387	2948.65
978.687	2959.72
978.987	2928.09
979.286	2911.14
979.586	2911.14
979.885	2878.14
980.185	2889.67
980.484	2841.31
980.784	2837.24
981.083	2851.48
981.382	2832.27
981.682	2815.1
981.981	2779.62
982.28	2765.15
982.579	2783.23
982.878	2775.77
983.177	2764.48
983.475	2732.84
983.774	2703.91
984.073	2739.39
984.372	2736
984.67	2677.02
984.969	2704.82
985.267	2645.61
985.566	2659.85
985.864	2625.95
986.162	2621.65
986.461	2590.47
986.759	2587.76
987.057	2592.73
987.355	2595.44
987.653	2553.86
987.951	2571.26
988.249	2546.4
988.547	2541.43
988.844	2506.4
989.142	2552.96
989.44	2507.31
989.737	2453.98
990.035	2477.03
990.332	2489.91
990.63	2474.31
990.927	2455.1
991.224	2427.76
991.521	2425.95
991.819	2405.84
992.116	2406.29
992.413	2371.72
992.71	2374.66
993.006	2371.72
993.303	2341.44
993.6	2361.1
993.897	2307.76
994.193	2333.98
994.49	2328.78
994.787	2303.47
995.083	2251.49
995.379	2281.32
995.676	2261.44
995.972	2267.77
996.268	2268.44
996.565	2244.04
996.861	2239.29
997.157	2230.93
997.453	2185.06
997.749	2192.29
998.044	2193.42
998.34	2167.65
998.636	2186.41
998.932	2146.41
999.227	2112.97
999.523	2115.9
999.818	2093.98
1000.114	2070.03
1000.409	2096.02
1000.704	2074.32
1001	2062.12
1001.295	2035.45
1001.59	2062.57
1001.885	2046.98
1002.18	2032.07
1002.475	2044.27
1002.77	2032.29
1003.065	1986.19
1003.359	1984.61
1003.654	1970.6
1003.949	1949.13
1004.243	1950.26
1004.538	1927.66
1004.832	1926.98
1005.127	1885.18
1005.421	1892.41
1005.715	1871.62
1006.009	1866.19
1006.304	1878.85
1006.598	1852.18
1006.892	1831.84
1007.186	1860.09
1007.48	1825.29
1007.773	1815.57
1008.067	1804.73
1008.361	1799.08
1008.655	1751.62
1008.948	1771.96
1009.242	1773.31
1009.535	1765.63
1009.829	1747.78
1010.122	1724.95
1010.415	1737.38
1010.708	1722.47
1011.001	1706.65
1011.295	1694
1011.588	1704.39
1011.881	1670.49
1012.173	1641.79
1012.466	1656.93
1012.759	1666.88
1013.052	1641.12
1013.344	1630.27
1013.637	1616.48
1013.93	1602.02
1014.222	1595.92
1014.514	1586.2
1014.807	1578.29
1015.099	1578.97
1015.391	1564.51
1015.683	1552.08
1015.976	1563.83
1016.268	1522.02
1016.56	1551.63
1016.851	1548.69
1017.143	1506.43
1017.435	1514.79
1017.727	1486.99
1018.018	1473.89
1018.31	1477.5
1018.602	1469.14
1018.893	1475.7
1019.185	1419.2
1019.476	1447
1019.767	1435.47
1020.058	1397.73
1020.35	1405.42
1020.641	1400.22
1020.932	1403.38
1021.223	1352.99
1021.514	1400.9
1021.804	1343.27
1022.095	1375.81
1022.386	1345.76
1022.677	1299.88
1022.967	1326.1
1023.258	1316.38
1023.548	1345.3
1023.839	1308.69
1024.129	1315.47
1024.419	1303.5
1024.709	1289.26
1025	1286.55
1025.29	1244.29
1025.58	1224.4
1025.87	1245.65
1026.16	1265.08
1026.449	1237.74
1026.739	1228.02
1027.029	1215.36
1027.319	1200.22
1027.608	1205.87
1027.898	1191.64
1028.187	1158.87
1028.477	1177.17
1028.766	1178.75
1029.055	1149.38
1029.344	1140.79
1029.634	1164.29
1029.923	1147.34
1030.212	1143.28
1030.501	1103.73
1030.79	1109.38
1031.078	1104.18
1031.367	1095.14
1031.656	1088.81
1031.945	1075.03
1032.233	1075.93
1032.522	1080.23
1032.81	1057.85
1033.099	1044.97
1033.387	1053.11
1033.675	1030.51
1033.963	1046.33
1034.251	1037.06
1034.54	1040.23
1034.828	1012.21
1035.116	1013.56
1035.403	1001.13
1035.691	1008.59
1035.979	1004.3
1036.267	986.89
1036.554	995.03
1036.842	969.49
1037.129	950.96
1037.417	963.39
1037.704	972.21
1037.992	945.31
1038.279	951.19
1038.566	947.12
1038.853	947.12
1039.14	947.12
