Data from hue_26_FLMS001491_00088.txt Node
Date: Tue Feb 07 17:14:42 GMT 2017
User: dcchb
Spectrometer: FLMS00149
Trigger mode: 0
Integration Time (sec): 2.000000E-2
Scans to average: 10
Electric dark correction enabled: true
Nonlinearity correction enabled: false
Boxcar width: 0
XAxis mode: Wavelengths
Number of Pixels in Spectrum: 2048
>>>>>Begin Spectral Data<<<<<
341.393	3.45
341.776	3.45
342.16	3.45
342.543	-71.81
342.927	-64.35
343.31	-61.86
343.693	-71.58
344.077	-69.09
344.46	-66.61
344.843	-46.04
345.226	-34.74
345.61	-39.49
345.993	-29.32
346.376	-7.85
346.759	16.78
347.142	19.27
347.525	47.74
347.908	53.61
348.291	97
348.674	85.48
349.057	106.72
349.44	135.19
349.823	153.95
350.206	167.51
350.588	212.71
350.971	207.06
351.354	227.4
351.737	250.67
352.119	223.78
352.502	254.51
352.884	287.51
353.267	278.92
353.65	297.68
354.032	291.8
354.414	298.58
354.797	315.08
355.179	339.03
355.562	329.54
355.944	329.31
356.326	316.88
356.709	322.99
357.091	347.62
357.473	344.91
357.855	331.8
358.238	339.93
358.62	347.62
359.002	352.14
359.384	325.92
359.766	339.93
360.148	338.8
360.53	356.88
360.912	323.89
361.294	346.26
361.676	332.48
362.057	320.05
362.439	339.93
362.821	330.9
363.203	319.6
363.584	329.54
363.966	323.66
364.348	334.06
364.729	299.03
365.111	329.54
365.493	322.76
365.874	319.82
366.256	302.87
366.637	324.79
367.019	327.05
367.4	309.88
367.781	286.38
368.163	312.14
368.544	318.69
368.925	306.49
369.306	335.41
369.688	309.2
370.069	327.96
370.45	324.57
370.831	303.55
371.212	320.05
371.593	314.4
371.974	320.73
372.355	338.35
372.736	324.79
373.117	307.39
373.498	321.18
373.879	299.48
374.26	323.89
374.641	314.85
375.021	302.87
375.402	321.63
375.783	312.82
376.163	351.91
376.544	317.11
376.925	328.64
377.305	325.47
377.686	342.19
378.066	301.74
378.447	327.28
378.827	348.3
379.208	322.31
379.588	315.53
379.968	341.74
380.349	341.52
380.729	338.13
381.109	326.15
381.489	335.41
381.87	314.4
382.25	328.86
382.63	329.09
383.01	354.17
383.39	336.77
383.77	340.61
384.15	355.75
384.53	357.56
384.91	359.6
385.29	356.43
385.67	352.14
386.049	363.44
386.429	350.78
386.809	369.54
387.189	354.4
387.568	340.39
387.948	376.77
388.328	358.92
388.707	355.75
389.087	344.68
389.466	351.23
389.846	362.98
390.225	355.75
390.605	348.3
390.984	355.98
391.363	365.47
391.743	360.27
392.122	380.16
392.501	359.82
392.881	382.19
393.26	369.99
393.639	379.26
394.018	376.32
394.397	386.49
394.776	382.87
395.155	356.21
395.534	360.5
395.913	376.77
396.292	393.49
396.671	362.76
397.05	380.84
397.429	375.41
397.808	390.33
398.186	400.72
398.565	395.98
398.944	391.01
399.323	391.01
399.701	414.96
400.08	394.62
400.458	385.58
400.837	379.71
401.215	395.98
401.594	409.09
401.972	391.68
402.351	390.78
402.729	401.4
403.107	400.72
403.486	400.05
403.864	386.94
404.242	403.21
404.62	409.99
404.999	410.22
405.377	407.5
405.755	414.28
406.133	417.45
406.511	405.7
406.889	416.32
407.267	418.58
407.645	420.84
408.023	422.87
408.401	436.43
408.779	418.8
409.156	420.16
409.534	426.94
409.912	448.63
410.29	451.57
410.667	453.38
411.045	461.29
411.422	471.23
411.8	464.23
412.178	464
412.555	466.48
412.933	477.11
413.31	467.84
413.687	487.73
414.065	467.39
414.442	478.01
414.819	472.59
415.197	465.13
415.574	456.99
415.951	462.87
416.328	490.89
416.705	493.15
417.082	488.63
417.46	478.91
417.837	482.98
418.214	511
418.591	495.41
418.967	492.7
419.344	509.65
419.721	525.69
420.098	510.1
420.475	520.49
420.852	511.23
421.228	498.57
421.605	529.31
421.982	519.14
422.358	519.36
422.735	534.73
423.111	532.47
423.488	510.55
423.864	516.65
424.241	551
424.617	558.01
424.994	546.26
425.37	556.65
425.746	539.25
426.123	548.29
426.499	550.1
426.875	560.49
427.251	567.73
427.627	576.54
428.003	563.88
428.379	576.31
428.756	584.67
429.132	585.13
429.507	609.76
429.883	562.75
430.259	604.33
430.635	611.79
431.011	591.45
431.387	618.8
431.763	608.85
432.138	601.85
432.514	589.19
432.89	643.88
433.265	631.9
433.641	633.26
434.016	646.82
434.392	658.12
434.767	639.59
435.143	646.59
435.518	671.45
435.894	675.74
436.269	678
436.644	675.52
437.02	691.34
437.395	682.75
437.77	712.13
438.145	696.54
438.52	682.52
438.895	688.4
439.271	706.03
439.646	733.82
440.021	691.56
440.395	709.42
440.77	732.24
441.145	715.97
441.52	734.5
441.895	725.01
442.27	739.92
442.645	749.19
443.019	731.56
443.394	760.26
443.769	754.39
444.143	760.94
444.518	752.13
444.892	753.26
445.267	786.02
445.641	775.18
446.016	783.99
446.39	775.18
446.764	800.94
447.139	798.68
447.513	778.57
447.887	792.35
448.262	805.69
448.636	793.71
449.01	814.05
449.384	807.94
449.758	821.73
450.132	831.9
450.506	812.46
450.88	857.44
451.254	839.81
451.628	854.05
452.002	832.58
452.376	858.11
452.75	870.32
453.123	878.68
453.497	866.93
453.871	874.38
454.244	895.63
454.618	895.17
454.992	910.54
455.365	900.82
455.739	933.37
456.112	931.33
456.486	946.92
456.859	936.08
457.232	933.59
457.606	954.38
457.979	975.17
458.352	966.36
458.725	1001.39
459.099	995.06
459.472	991.22
459.845	1011.33
460.218	1042.97
460.591	1055.85
460.964	1037.54
461.337	1053.81
461.71	1065.34
462.083	1051.55
462.456	1075.28
462.829	1078.45
463.201	1090.88
463.574	1099.69
463.947	1128.61
464.32	1146.92
464.692	1149.63
465.065	1154.15
465.438	1190.76
465.81	1190.99
466.183	1205
466.555	1216.3
466.928	1217.43
467.3	1240.02
467.672	1232.34
468.045	1281.6
468.417	1230.98
468.789	1277.99
469.161	1263.53
469.534	1339
469.906	1340.36
470.278	1361.15
470.65	1376.74
471.022	1399.12
471.394	1422.62
471.766	1402.28
472.138	1454.26
472.51	1435.72
472.882	1489.28
473.253	1529.96
473.625	1531.54
473.997	1560.69
474.369	1609.51
474.74	1590.98
475.112	1635.27
475.484	1643.86
475.855	1684.08
476.227	1723.63
476.598	1746.23
476.97	1765.66
477.341	1818.09
477.713	1866.9
478.084	1870.97
478.455	1929.27
478.827	1908.71
479.198	2007.91
479.569	1974.02
479.94	2066.89
480.311	2100.57
480.682	2139.89
481.053	2208.36
481.424	2237.74
481.795	2290.39
482.166	2284.52
482.537	2349.6
482.908	2379.2
483.279	2422.37
483.65	2473.44
484.021	2526.32
484.391	2588.01
484.762	2574.45
485.133	2657.16
485.503	2661.91
485.874	2725.18
486.244	2758.63
486.615	2852.18
486.985	2867.33
487.356	2896.93
487.726	2938.96
488.097	2987.77
488.467	3064.61
488.837	3093.99
489.207	3176.7
489.578	3237.94
489.948	3280.2
490.318	3315.22
490.688	3356.8
491.058	3401.55
491.428	3460.08
491.798	3505.28
492.168	3584.14
492.538	3596.35
492.908	3687.19
493.278	3731.94
493.648	3712.5
494.017	3799.73
494.387	3848.09
494.757	3907.07
495.126	3919.05
495.496	3934.64
495.866	3955.43
496.235	4034.75
496.605	4077.46
496.974	4123.11
497.344	4148.42
497.713	4181.64
498.082	4265.93
498.452	4249.89
498.821	4299.83
499.19	4324.01
499.559	4359.72
499.928	4407.17
500.298	4412.37
500.667	4488.53
501.036	4439.71
501.405	4555.19
501.774	4512.25
502.143	4571.91
502.512	4626.6
502.88	4677.45
503.249	4681.29
503.618	4702.76
503.987	4708.41
504.356	4789.31
504.724	4806.03
505.093	4820.95
505.462	4851
505.83	4882.64
506.199	4906.82
506.567	4957.21
506.936	4951.34
507.304	4983.43
507.672	5076.31
508.041	5041.73
508.409	5125.8
508.777	5119.7
509.145	5138.68
509.514	5128.74
509.882	5197.21
510.25	5167.38
510.618	5213.7
510.986	5220.71
511.354	5312.23
511.722	5334.61
512.09	5406.92
512.458	5333.93
512.826	5331.89
513.193	5425.68
513.561	5462.96
513.929	5479.69
514.297	5522.85
514.664	5535.5
515.032	5526.01
515.4	5555.62
515.767	5610.3
516.135	5632.68
516.502	5641.26
516.869	5635.84
517.237	5682.17
517.604	5627.93
517.972	5733.69
518.339	5789.73
518.706	5720.36
519.073	5744.31
519.44	5771.2
519.808	5851.65
520.175	5906.57
520.542	5941.82
520.909	5997.41
521.276	5910.41
521.643	5968.71
522.009	6068.82
522.376	6034.47
522.743	6053.23
523.11	6136.39
523.477	6191.98
523.843	6208.25
524.21	6277.63
524.577	6324.86
524.943	6322.15
525.31	6351.53
525.676	6421.58
526.043	6413
526.409	6436.72
526.776	6459.55
527.142	6520.56
527.508	6518.98
527.874	6593.78
528.241	6598.98
528.607	6632.65
528.973	6661.58
529.339	6712.2
529.705	6699.09
530.071	6817.28
530.437	6747.45
530.803	6914.9
531.169	6911.97
531.535	6904.28
531.901	6899.08
532.267	6946.31
532.632	6952.87
532.998	7038.74
533.364	7029.48
533.73	7064.96
534.095	7110.6
534.461	7132.98
534.826	7202.35
535.192	7181.11
535.557	7243.03
535.923	7247.1
536.288	7260.43
536.653	7317.38
537.019	7292.75
537.384	7346.3
537.749	7337.04
538.114	7382.91
538.479	7388.11
538.845	7532.06
539.21	7437.15
539.575	7515.57
539.94	7510.59
540.305	7614.09
540.67	7586.75
541.034	7625.84
541.399	7704.94
541.764	7720.31
542.129	7764.6
542.494	7760.53
542.858	7745.16
543.223	7813.41
543.587	7863.35
543.952	7858.61
544.316	7953.29
544.681	7897.25
545.045	7956.23
545.41	8026.29
545.774	8009.79
546.138	8035.1
546.503	8078.04
546.867	8186.51
547.231	8151.48
547.595	8207.98
547.959	8189.22
548.324	8212.27
548.688	8210.46
549.052	8329.55
549.416	8347.18
549.779	8320.29
550.143	8359.38
550.507	8418.59
550.871	8395.54
551.235	8433.06
551.599	8508.31
551.962	8514.86
552.326	8545.37
552.689	8599.83
553.053	8561.87
553.417	8584.69
553.78	8692.94
554.143	8613.16
554.507	8719.83
554.87	8719.15
555.234	8799.37
555.597	8751.46
555.96	8801.41
556.323	8768.64
556.686	8831.46
557.05	8947.62
557.413	8935.41
557.776	9012.47
558.139	9022.42
558.502	9098.35
558.865	9060.16
559.228	9153.49
559.59	9202.07
559.953	9129.53
560.316	9281.17
560.679	9249.98
561.041	9290.43
561.404	9342.86
561.767	9296.31
562.129	9315.52
562.492	9358.68
562.854	9431.9
563.217	9373.14
563.579	9432.35
563.941	9477.1
564.304	9568.84
564.666	9587.38
565.028	9571.33
565.39	9611.78
565.753	9741.27
566.115	9732.68
566.477	9785.11
566.839	9721.38
567.201	9832.34
567.563	9843.87
567.925	9932
568.287	9954.6
568.648	9975.61
569.01	10056.52
569.372	10057.65
569.734	10053.58
570.095	10177.42
570.457	10128.83
570.819	10183.07
571.18	10275.94
571.542	10353.46
571.903	10387.35
572.265	10441.14
572.626	10464.19
572.987	10502.83
573.349	10507.12
573.71	10578.76
574.071	10594.35
574.432	10731.07
574.794	10850.17
575.155	10807.46
575.516	10865.53
575.877	11005.19
576.238	11079.99
576.599	11136.03
576.96	11176.71
577.32	11266.43
577.681	11308.23
578.042	11480.88
578.403	11544.16
578.763	11704.61
579.124	11670.48
579.485	11807.88
579.845	12008.55
580.206	12030.02
580.566	12169.45
580.927	12273.18
581.287	12467.75
581.648	12516.79
582.008	12755.43
582.368	12830.45
582.728	12984.57
583.089	13184.34
583.449	13248.97
583.809	13499.59
584.169	13687.15
584.529	13785.46
584.889	14083.75
585.249	14043.08
585.609	14374.59
585.969	14616.4
586.329	14777.07
586.688	14911.98
587.048	15182.03
587.408	15337.05
587.768	15600.55
588.127	15819.75
588.487	16100.2
588.846	16529.34
589.206	16534.76
589.565	16885.04
589.925	17132.94
590.284	17338.36
590.643	17696.99
591.003	17988.51
591.362	18283.64
591.721	18405
592.08	18852.44
592.44	19119.33
592.799	19367.23
593.158	19578.3
593.517	19884.28
593.876	20171.28
594.235	20479.74
594.593	20797.93
594.952	21136.68
595.311	21374.18
595.67	21748.64
596.029	22096.88
596.387	22434.72
596.746	22734.15
597.104	22951.09
597.463	23272.21
597.822	23662.71
598.18	23811.63
598.538	24075.36
598.897	24645.96
599.255	24654.78
599.613	25224.25
599.972	25361.65
600.33	25686.84
600.688	25921.41
601.046	26271.68
601.404	26765.91
601.762	26848.39
602.12	27321.82
602.478	27566.34
602.836	27842.71
603.194	27990.51
603.552	28297.17
603.91	28471.62
604.268	28880.2
604.625	29117.48
604.983	29397.93
605.341	29514.53
605.698	29967.18
606.056	30280.62
606.413	30423.44
606.771	30821.84
607.128	30999.02
607.485	31056.64
607.843	31272.45
608.2	31855.04
608.557	32026.33
608.914	32111.75
609.272	32424.51
609.629	32736.6
609.986	33014.78
610.343	33129.81
610.7	33437.14
611.057	33531.38
611.414	33725.05
611.771	33951.71
612.127	34201.19
612.484	34527.74
612.841	34660.39
613.198	34770.22
613.554	34892.47
613.911	35235.06
614.267	35440.25
614.624	35515.73
614.98	35855.84
615.337	35949.62
615.693	36245.21
616.05	36263.28
616.406	36620.11
616.762	36595.48
617.118	36674.12
617.475	36751.18
617.831	37088.57
618.187	37140.77
618.543	37505.74
618.899	37685.62
619.255	37698.27
619.611	37753.19
619.967	38096
620.323	38263.68
620.678	38125.83
621.034	38237.02
621.39	38257.36
621.746	38485.82
622.101	38936.89
622.457	38714.29
622.812	38846.94
623.168	39039.26
623.523	39208.29
623.879	39219.82
624.234	39156.54
624.589	39367.38
624.945	39469.98
625.3	39572.58
625.655	39739.8
626.01	39810.99
626.365	39866.58
626.72	39935.05
627.075	39867.03
627.43	40027.03
627.785	39848.27
628.14	39990.19
628.495	40110.64
628.85	40169.62
629.205	40114.03
629.559	40308.15
629.914	40215.95
630.269	40486
630.623	40231.54
630.978	40374.14
631.332	40439.9
631.687	40691.64
632.041	40497.52
632.396	40569.61
632.75	40583.85
633.104	40616.39
633.459	40584.98
633.813	40595.6
634.167	40565.32
634.521	40559.67
634.875	40638.76
635.229	40599.89
635.583	40496.84
635.937	40595.6
636.291	40559.22
636.645	40470.63
636.999	40528.03
637.352	40638.31
637.706	40417.98
638.06	40678.99
638.413	40583.4
638.767	40401.48
639.121	40440.8
639.474	40422.27
639.828	40382.5
640.181	40532.1
640.534	40568.03
640.888	40469.73
641.241	40404.19
641.594	40379.79
641.947	40536.62
642.301	40595.37
642.654	40488.03
643.007	40517.86
643.36	40445.77
643.713	40483.96
644.066	40528.48
644.419	40255.04
644.771	40020.25
645.124	39647.6
645.477	39846.69
645.83	39369.64
646.182	39260.49
646.535	39253.71
646.888	39327.16
647.24	39103.66
647.593	39478.57
647.945	39320.83
648.298	39168.74
648.65	39140.04
649.002	38987.28
649.355	39128.07
649.707	39285.13
650.059	39282.87
650.411	39827.26
650.763	39920.36
651.115	40140.7
651.467	40245.1
651.819	40097.08
652.171	40084.65
652.523	39849.63
652.875	39921.49
653.227	39877.43
653.578	40029.29
653.93	40064.09
654.282	39744.77
654.633	39766.92
654.985	39885.34
655.337	39876.97
655.688	39898.89
656.039	40055.27
656.391	39783.64
656.742	39785.45
657.094	39764.66
657.445	39931.44
657.796	39935.96
658.147	39691.89
658.498	39798.33
658.849	39955.39
659.2	39736.41
659.551	39714.49
659.902	39815.73
660.253	39752.01
660.604	39677.21
660.955	39642.4
661.306	39770.31
661.656	39634.72
662.007	39777.54
662.358	39731.44
662.708	39802.4
663.059	39801.04
663.409	39459.13
663.76	39817.99
664.11	39654.16
664.461	39724.44
664.811	39790.42
665.161	39816.18
665.511	39531.45
665.862	39565.34
666.212	39881.49
666.562	39674.72
666.912	39657.77
667.262	39694.83
667.612	39549.98
667.962	39775.73
668.312	39505.01
668.662	39737.77
669.011	39597.21
669.361	39547.27
669.711	39541.84
670.06	39579.81
670.41	39446.93
670.76	39455.97
671.109	39583.65
671.459	39395.63
671.808	39432.47
672.157	39430.21
672.507	39300.94
672.856	39436.76
673.205	39406.25
673.554	39521.05
673.904	39394.27
674.253	39537.32
674.602	39452.13
674.951	38754.52
675.3	38691.69
675.649	39392.69
675.998	39166.26
676.346	39210.78
676.695	39332.13
677.044	39078.8
677.393	39227.05
677.741	39195.41
678.09	38915.42
678.438	38946.6
678.787	39069.31
679.135	39044.45
679.484	38881.07
679.832	39022.31
680.181	38804.46
680.529	38942.76
680.877	38732.37
681.225	38641.07
681.573	38952.48
681.922	38646.95
682.27	38651.24
682.618	38514.3
682.966	38481.98
683.314	38648.98
683.661	38523.56
684.009	38380.52
684.357	38273.17
684.705	38179.84
685.053	38268.2
685.4	38074.08
685.748	38048.77
686.095	38069.56
686.443	37952.28
686.79	37922.68
687.138	38056.23
687.485	37872.28
687.832	37696.01
688.18	37722.45
688.527	37538.96
688.874	37633.87
689.221	37403.82
689.568	37383.25
689.915	37430.94
690.262	37422.35
690.609	37296.93
690.956	37124.28
691.303	36887.67
691.65	36982.59
691.997	36923.83
692.344	36680.67
692.69	36761.58
693.037	36694.68
693.383	36483.39
693.73	36630.05
694.077	36384.64
694.423	36222.61
694.769	36183.06
695.116	36122.27
695.462	36029.39
695.808	35989.62
696.155	36068.26
696.501	35684.09
696.847	35644.09
697.193	35622.62
697.539	35630.08
697.885	35329.52
698.231	35239.58
698.577	35297.66
698.923	35162.3
699.269	34959.14
699.614	34911.23
699.96	34875.75
700.306	34889.31
700.651	34739.26
700.997	34710.56
701.342	34679.6
701.688	34474.86
702.033	34538.58
702.379	34464.46
702.724	34359.83
703.069	34297.46
703.415	34030.57
703.76	34039.39
704.105	34053.62
704.45	34072.83
704.795	33755.78
705.14	33596.46
705.485	33692.05
705.83	33536.35
706.175	33645.73
706.52	33349.46
706.865	33444.6
707.209	33281.67
707.554	33176.36
707.899	33293.64
708.243	33122.35
708.588	32954.67
708.932	32715.81
709.277	32763.26
709.621	32844.84
709.966	32565.75
710.31	32605.75
710.654	32360.34
710.998	32465.87
711.342	32530.05
711.687	32399.2
712.031	32295.7
712.375	32001.02
712.719	32103.62
713.063	32182.26
713.407	32189.94
713.75	31931.65
714.094	31948.82
714.438	31788.37
714.782	31837.86
715.125	31631.54
715.469	31765.77
715.812	31552.22
716.156	31471.32
716.499	31413.92
716.843	31426.57
717.186	31280.36
717.53	31507.7
717.873	31326.24
718.216	31346.8
718.559	31210.31
718.902	31036.08
719.246	31093.7
719.589	30976.42
719.932	30765.35
720.275	30854.16
720.617	30795.86
720.96	30745.69
721.303	30678.12
721.646	30665.46
721.989	30654.17
722.331	30633.83
722.674	30600.61
723.016	30522.87
723.359	30607.39
723.701	30475.64
724.044	30298.92
724.386	30103.9
724.729	30280.39
725.071	30150.22
725.413	30159.49
725.755	30126.95
726.097	30046.05
726.439	29969.66
726.782	29946.16
727.124	29990.23
727.465	29854.86
727.807	29811.02
728.149	29773.28
728.491	29762.44
728.833	29652.16
729.175	29681.99
729.516	29549.56
729.858	29516.79
730.199	29605.15
730.541	29452.39
730.882	29481.77
731.224	29702.78
731.565	29308.21
731.906	29312.05
732.248	29417.36
732.589	29176.46
732.93	29180.98
733.271	29213.75
733.612	29231.38
733.953	29146.18
734.294	29140.31
734.635	28904.16
734.976	29082.91
735.317	28877.26
735.658	28940.09
735.999	28926.3
736.339	28735.57
736.68	28814.44
737.021	28878.17
737.361	28647.89
737.702	28849.24
738.042	28604.73
738.383	28595.91
738.723	28530.15
739.063	28426.2
739.404	28493.32
739.744	28499.65
740.084	28374.9
740.424	28415.35
740.764	28314.79
741.104	28454
741.444	28201.57
741.784	28210.84
742.124	28220.56
742.464	28253.55
742.804	28097.62
743.143	28153.44
743.483	28040.45
743.823	28006.55
744.162	27942.6
744.502	27973.11
744.841	27880.68
745.181	27986.44
745.52	27856.73
745.86	27888.36
746.199	27782.15
746.538	27750.51
746.877	27786.22
747.216	27661.7
747.556	27746.67
747.895	27672.55
748.234	27531.31
748.573	27511.42
748.911	27470.75
749.25	27440.01
749.589	27367.47
749.928	27277.31
750.267	27373.35
750.605	27402.73
750.944	27202.05
751.283	27230.53
751.621	27212.9
751.96	26957.31
752.298	26921.83
752.636	26914.83
752.975	26968.39
753.313	26830.76
753.651	26961.38
753.989	26736.3
754.327	26805.91
754.666	26566.59
755.004	26687.72
755.342	26770.88
755.679	26626.25
756.017	26439.59
756.355	26505.12
756.693	26350.32
757.031	26391.23
757.368	26195.3
757.706	26233.49
758.044	26184
758.381	26077.11
758.719	26034.4
759.056	26165.02
759.394	25954.18
759.731	25735.65
760.068	25886.83
760.405	25737.23
760.743	25685.71
761.08	25704.92
761.417	25460.18
761.754	25438.71
762.091	25433.96
762.428	25443.46
762.765	25171.82
763.102	25283.23
763.438	25072.62
763.775	25050.02
764.112	25106.29
764.449	25033.3
764.785	24935.9
765.122	24785.85
765.458	24659.75
765.795	24678.28
766.131	24650.26
766.467	24605.29
766.804	24430.37
767.14	24317.84
767.476	24283.71
767.812	24160.55
768.148	24229.48
768.485	23980.44
768.821	23953.55
769.157	23904.96
769.492	23826.77
769.828	23802.59
770.164	23520.79
770.5	23431.76
770.836	23615.71
771.171	23441.7
771.507	23362.15
771.842	23156.28
772.178	23125.78
772.513	23052.78
772.849	22979.34
773.184	22942.96
773.519	22919.45
773.855	22790.42
774.19	22686.01
774.525	22665.68
774.86	22594.26
775.195	22607.6
775.53	22502.06
775.865	22380.71
776.2	22307.94
776.535	22063.43
776.87	22033.6
777.205	21937.78
777.539	21851.01
777.874	21912.47
778.209	21709.32
778.543	21613.27
778.878	21501.64
779.212	21613.95
779.547	21454.18
779.881	21498.25
780.215	21284.02
780.55	21369.44
780.884	21149.56
781.218	21140.07
781.552	21063.46
781.886	20951.37
782.22	20877.47
782.554	20769.23
782.888	20713.41
783.222	20641.32
783.556	20370.82
783.889	20494.43
784.223	20225.29
784.557	20298.51
784.89	20270.03
785.224	20137.61
785.557	19951.17
785.891	20008.34
786.224	20008.34
786.558	19932.41
786.891	19742.14
787.224	19593.21
787.557	19650.84
787.891	19730.16
788.224	19570.62
788.557	19464.86
788.89	19632.31
789.223	19372.2
789.556	19275.26
789.888	19311.87
790.221	19250.17
790.554	19009.73
790.887	19101.02
791.219	18979.9
791.552	18866.91
791.884	18811.54
792.217	18751.2
792.549	18808.83
792.882	18544.2
793.214	18536.74
793.546	18543.07
793.879	18468.27
794.211	18287.26
794.543	18396.86
794.875	18308.05
795.207	18306.92
795.539	18218.56
795.871	18180.37
796.203	18046.14
796.535	17913.94
796.867	17835.52
797.198	17920.26
797.53	17915.74
797.862	17735.64
798.193	17662.42
798.525	17650.44
798.856	17629.2
799.188	17466.72
799.519	17383.33
799.85	17329.77
800.182	17328.41
800.513	17299.94
800.844	17188.98
801.175	17221.07
801.506	17198.47
801.837	17125.93
802.168	17050.91
802.499	16965.94
802.83	16846.17
803.161	16843.91
803.491	16884.36
803.822	16848.65
804.153	16774.08
804.483	16590.35
804.814	16575.67
805.145	16516.46
805.475	16446.18
805.805	16542.67
806.136	16457.02
806.466	16470.36
806.796	16351.94
807.126	16299.29
807.457	16177.94
807.787	16269.91
808.117	16165.06
808.447	16115.34
808.777	16099.52
809.107	16036.25
809.436	15903.82
809.766	15957.15
810.096	15868.79
810.426	15844.39
810.755	15844.61
811.085	15836.48
811.414	15789.02
811.744	15579.76
812.073	15675.35
812.403	15683.49
812.732	15506.32
813.061	15535.69
813.39	15438.75
813.719	15328.92
814.049	15462.93
814.378	15283.04
814.707	15273.55
815.036	15314.91
815.365	15176.38
815.693	15050.06
816.022	15111.3
816.351	14987.01
816.68	14921.92
817.008	15086.44
817.337	14915.82
817.665	14854.36
817.994	14913.34
818.322	14787.92
818.651	14823.17
818.979	14756.05
819.307	14874.69
819.636	14753.57
819.964	14681.7
820.292	14727.58
820.62	14680.8
820.948	14585.89
821.276	14681.48
821.604	14631.08
821.932	14614.36
822.259	14631.08
822.587	14654.36
822.915	14592.22
823.243	14711.99
823.57	14517.41
823.898	14540.24
824.225	14473.12
824.553	14487.81
824.88	14530.75
825.207	14581.14
825.535	14531.88
825.862	14489.39
826.189	14408.49
826.516	14525.55
826.843	14626.79
827.17	14552.89
827.497	14552.44
827.824	14552.22
828.151	14623.17
828.478	14470.41
828.805	14511.09
829.131	14579.33
829.458	14455.72
829.785	14420.02
830.111	14455.5
830.438	14552.22
830.764	14520.58
831.09	14505.66
831.417	14331.43
831.743	14528.04
832.069	14432.9
832.395	14364.2
832.722	14394.71
833.048	14366.68
833.374	14380.92
833.7	14326.23
834.026	14305.9
834.351	14326.91
834.677	14331.88
835.003	14326.69
835.329	14304.31
835.654	14257.31
835.98	14289.17
836.306	14251.66
836.631	14200.36
836.956	14264.54
837.282	14198.78
837.607	14147.03
837.932	14085.11
838.258	14146.35
838.583	14078.33
838.908	14069.74
839.233	14018.9
839.558	14018.67
839.883	13953.81
840.208	13932.35
840.533	13922.18
840.858	13930.09
841.182	13973.02
841.507	13837.43
841.832	13812.12
842.156	13847.6
842.481	13812.35
842.805	13784.78
843.13	13753.14
843.454	13678.79
843.778	13545.69
844.103	13686.02
844.427	13638.79
844.751	13597.67
845.075	13525.35
845.399	13512.7
845.723	13382.53
846.047	13382.98
846.371	13245.58
846.695	13328.75
847.019	13185.25
847.343	13197
847.666	13035.65
847.99	12987.29
848.313	13039.94
848.637	12939.83
848.96	12915.65
849.284	12930.34
849.607	12796.1
849.931	12733.28
850.254	12682.43
850.577	12615.32
850.9	12477.69
851.223	12509.56
851.546	12457.58
851.869	12291.94
852.192	12441.76
852.515	12300.98
852.838	12270.69
853.161	12213.29
853.483	12213.29
853.806	12126.07
854.129	12089.68
854.451	12066.63
854.774	12042.23
855.096	11972.4
855.419	12043.13
855.741	11961.1
856.063	11911.16
856.385	11936.47
856.708	11770.37
857.03	11724.49
857.352	11716.36
857.674	11725.62
857.996	11685.17
858.318	11629.58
858.64	11672.74
858.961	11558.4
859.283	11480.66
859.605	11514.78
859.926	11481.56
860.248	11412.64
860.57	11391.17
860.891	11409.7
861.212	11351.17
861.534	11284.73
861.855	11337.16
862.176	11338.52
862.498	11378.97
862.819	11229.14
863.14	11244.96
863.461	11207.22
863.782	11173.32
864.103	11152.53
864.424	11146.2
864.745	11137.62
865.065	11084.28
865.386	11013.33
865.707	11011.97
866.027	11020.33
866.348	10986.89
866.668	11041.57
866.989	10934.68
867.309	10926.77
867.63	10931.75
867.95	10892.65
868.27	10804.07
868.59	10882.93
868.91	10863.5
869.23	10827.57
869.55	10741.92
869.87	10794.12
870.19	10801.35
870.51	10832.09
870.83	10755.93
871.15	10742.82
871.469	10682.94
871.789	10702.83
872.109	10663.96
872.428	10623.73
872.748	10635.94
873.067	10650.17
873.386	10678.65
873.706	10614.47
874.025	10561.59
874.344	10504.41
874.663	10490.4
874.982	10513
875.301	10448.14
875.62	10420.35
875.939	10445.43
876.258	10434.81
876.577	10431.19
876.896	10343.74
877.214	10357.98
877.533	10415.15
877.852	10355.04
878.17	10388.03
878.489	10331.31
878.807	10238.88
879.125	10211.31
879.444	10288.37
879.762	10230.07
880.08	10212.67
880.398	10207.25
880.716	10198.66
881.034	10168.15
881.352	10201.37
881.67	10101.49
881.988	10176.06
882.306	10079.34
882.624	10081.83
882.941	9973.58
883.259	9945.11
883.577	9997.31
883.894	9925.9
884.212	9962.96
884.529	9912.11
884.846	9877.99
885.164	9867.82
885.481	9758.9
885.798	9877.54
886.115	9746.92
886.432	9750.53
886.75	9758.44
887.067	9783.53
887.383	9691.55
887.7	9701.95
888.017	9679.8
888.334	9683.19
888.651	9646.13
888.967	9611.56
889.284	9559.35
889.6	9560.94
889.917	9483.87
890.233	9479.81
890.55	9429.19
890.866	9433.48
891.182	9441.62
891.498	9363.88
891.815	9383.54
892.131	9296.54
892.447	9289.98
892.763	9293.15
893.079	9235.97
893.395	9201.62
893.71	9160.04
894.026	9129.08
894.342	9140.61
894.657	9098.8
894.973	9039.82
895.289	9063.32
895.604	9053.83
895.92	8987.62
896.235	8935.64
896.55	8953.49
896.865	8910.56
897.181	8953.72
897.496	8872.59
897.811	8844.12
898.126	8805.7
898.441	8755.08
898.756	8767.28
899.071	8675.76
899.386	8683.67
899.7	8660.39
900.015	8584.46
900.33	8544.92
900.644	8531.81
900.959	8546.72
901.273	8482.77
901.588	8425.15
901.902	8403.9
902.216	8356.67
902.531	8417.91
902.845	8349.22
903.159	8341.08
903.473	8285.26
903.787	8170.24
904.101	8210.69
904.415	8231.93
904.729	8176.79
905.042	8180.63
905.356	8090.01
905.67	8052.95
905.984	8098.83
906.297	7977.93
906.611	7980.41
906.924	7936.34
907.237	7932.73
907.551	7903.13
907.864	7831.71
908.177	7814.54
908.491	7784.03
908.804	7796.24
909.117	7653.87
909.43	7670.59
909.743	7684.15
910.056	7644.15
910.368	7601.21
910.681	7611.83
910.994	7559.18
911.307	7524.15
911.619	7437.15
911.932	7478.28
912.244	7369.58
912.557	7408.9
912.869	7370.48
913.181	7332.07
913.494	7271.73
913.806	7202.13
914.118	7237.15
914.43	7228.57
914.742	7192.64
915.054	7090.94
915.366	7139.3
915.678	7061.11
915.99	7063.37
916.302	7017.95
916.613	7013.43
916.925	7005.07
917.236	6965.3
917.548	6944.73
917.859	6920.33
918.171	6823.83
918.482	6804.4
918.794	6761.23
919.105	6780.67
919.416	6721.69
919.727	6690.05
920.038	6713.33
920.349	6590.62
920.66	6548.13
920.971	6567.79
921.282	6615.93
921.593	6556.04
921.903	6514.69
922.214	6427.01
922.525	6448.93
922.835	6448.47
923.146	6413
923.456	6368.25
923.767	6351.3
924.077	6323.51
924.387	6303.85
924.697	6235.37
925.008	6239.67
925.318	6218.2
925.628	6223.85
925.938	6232.21
926.248	6065.66
926.558	6115.6
926.867	6118.99
927.177	6075.15
927.487	6049.84
927.796	6027.69
928.106	5991.09
928.416	5925.32
928.725	5933.46
929.034	5893.91
929.344	5923.29
929.653	5889.62
929.962	5832.45
930.271	5810.53
930.581	5772.33
930.89	5751.09
931.199	5749.51
931.508	5684.43
931.817	5762.16
932.125	5688.49
932.434	5652.34
932.743	5617.08
933.051	5584.54
933.36	5552
933.669	5500.48
933.977	5502.06
934.286	5482.4
934.594	5548.16
934.902	5413.47
935.21	5393.36
935.519	5435.39
935.827	5421.61
936.135	5395.17
936.443	5364.66
936.751	5284.66
937.059	5281.27
937.367	5269.52
937.674	5238.11
937.982	5211.9
938.29	5197.66
938.597	5178.23
938.905	5105.23
939.213	5130.54
939.52	5116.98
939.827	5129.19
940.135	5079.02
940.442	5080.83
940.749	5054.84
941.056	5024.78
941.363	4923.32
941.67	4944.79
941.977	4909.08
942.284	4898.01
942.591	4904.56
942.898	4910.44
943.205	4852.36
943.511	4893.71
943.818	4843.54
944.125	4765.13
944.431	4738.24
944.738	4754.28
945.044	4742.76
945.35	4735.3
945.657	4639.71
945.963	4658.92
946.269	4613.27
946.575	4615.75
946.881	4615.3
947.187	4567.85
947.493	4548.19
947.799	4530.78
948.105	4492.14
948.41	4481.75
948.716	4474.74
949.022	4488.3
949.327	4472.48
949.633	4387.06
949.938	4380.73
950.244	4427.74
950.549	4351.35
950.854	4335.99
951.16	4380.28
951.465	4330.34
951.77	4277.46
952.075	4280.62
952.38	4286.5
952.685	4221.87
952.99	4231.58
953.294	4194.07
953.599	4146.39
953.904	4188.42
954.209	4150.46
954.513	4170.12
954.818	4085.82
955.122	4151.13
955.426	4095.54
955.731	4019.39
956.035	4026.17
956.339	4037.24
956.643	4020.97
956.948	3958.6
957.252	3981.65
957.556	3939.61
957.86	3909.33
958.163	3966.96
958.467	3880.18
958.771	3891.93
959.075	3914.3
959.378	3850.12
959.682	3865.72
959.985	3854.42
960.289	3835.21
960.592	3774.87
960.896	3751.37
961.199	3759.05
961.502	3738.04
961.805	3736.91
962.108	3734.42
962.411	3744.82
962.714	3626.18
963.017	3669.79
963.32	3645.16
963.623	3655.1
963.926	3612.39
964.228	3582.56
964.531	3546.86
964.833	3584.6
965.136	3607.19
965.438	3528.55
965.741	3561.09
966.043	3492.39
966.345	3502.56
966.648	3506.4
966.95	3495.78
967.252	3408.1
967.554	3423.92
967.856	3443.13
968.158	3417.82
968.46	3362
968.761	3370.36
969.063	3348.44
969.365	3332.62
969.666	3328.1
969.968	3320.2
970.269	3312.74
970.571	3253.53
970.872	3286.75
971.174	3252.4
971.475	3246.52
971.776	3248.33
972.077	3223.47
972.378	3230.03
972.679	3208.79
972.98	3217.15
973.281	3148.22
973.582	3142.57
973.883	3132.4
974.183	3104.61
974.484	3110.48
974.785	3123.59
975.085	3105.74
975.386	3104.83
975.686	3035.91
975.986	3023.48
976.287	3039.07
976.587	3014.21
976.887	3010.82
977.187	2955.68
977.487	3011.73
977.787	2978.06
978.087	2937.38
978.387	2927.66
978.687	2865.29
978.987	2947.32
979.286	2912.07
979.586	2868.91
979.885	2859.42
980.185	2851.96
980.484	2838.4
980.784	2854.22
981.083	2820.55
981.382	2823.03
981.682	2794.56
981.981	2793.2
982.28	2751.85
982.579	2722.47
982.878	2764.28
983.177	2731.06
983.475	2708.46
983.774	2686.99
984.073	2684.28
984.372	2702.81
984.67	2692.42
984.969	2670.49
985.267	2654
985.566	2640.21
985.864	2628.24
986.162	2597.73
986.461	2623.72
986.759	2590.95
987.057	2573.1
987.355	2558.63
987.653	2575.36
987.951	2543.49
988.249	2524.96
988.547	2515.24
988.844	2516.15
989.142	2529.71
989.44	2502.36
989.737	2478.86
990.035	2469.82
990.332	2480.67
990.63	2418.52
990.927	2396.83
991.224	2412.42
991.521	2418.52
991.819	2406.09
992.116	2374.23
992.413	2370.16
992.71	2368.36
993.006	2328.58
993.303	2333.1
993.6	2323.61
993.897	2325.19
994.193	2335.81
994.49	2314.57
994.787	2308.7
995.083	2294.46
995.379	2283.84
995.676	2248.58
995.972	2263.05
996.268	2229.15
996.565	2188.93
996.861	2218.98
997.157	2213.78
997.453	2150.51
997.749	2156.61
998.044	2186.89
998.34	2142.83
998.636	2151.86
998.932	2119.1
999.227	2108.02
999.523	2140.79
999.818	2110.51
1000.114	2087.01
1000.409	2071.41
1000.704	2077.06
1001	2072.09
1001.295	2049.27
1001.59	2027.12
1001.885	2033.22
1002.18	1992.55
1002.475	2024.41
1002.77	1997.07
1003.065	1985.32
1003.359	1976.95
1003.654	1963.17
1003.949	1950.97
1004.243	1943.28
1004.538	1904.64
1004.832	1941.02
1005.127	1896.96
1005.421	1882.27
1005.715	1873.68
1006.009	1840.91
1006.304	1847.92
1006.598	1847.69
1006.892	1849.5
1007.186	1839.33
1007.48	1833.45
1007.773	1798.65
1008.067	1799.33
1008.361	1797.3
1008.655	1802.04
1008.948	1769.28
1009.242	1769.28
1009.535	1742.61
1009.829	1745.32
1010.122	1699.22
1010.415	1734.02
1010.708	1728.82
1011.001	1685.44
1011.295	1696.06
1011.588	1673.23
1011.881	1682.27
1012.173	1675.72
1012.466	1661.71
1012.759	1636.4
1013.052	1652.44
1013.344	1635.95
1013.637	1637.75
1013.93	1628.49
1014.222	1619.9
1014.514	1596.85
1014.807	1575.38
1015.099	1562.05
1015.391	1583.74
1015.683	1557.76
1015.976	1575.61
1016.268	1555.95
1016.56	1552.78
1016.851	1514.37
1017.143	1491.99
1017.435	1513.69
1017.727	1482.28
1018.018	1488.6
1018.31	1489.51
1018.602	1471.43
1018.893	1464.88
1019.185	1461.71
1019.476	1435.05
1019.767	1431.66
1020.058	1438.89
1020.35	1407.7
1020.641	1431.88
1020.932	1410.64
1021.223	1393.01
1021.514	1349.85
1021.804	1376.97
1022.095	1371.09
1022.386	1357.99
1022.677	1343.75
1022.967	1329.06
1023.258	1319.8
1023.548	1320.7
1023.839	1314.82
1024.129	1315.95
1024.419	1279.57
1024.709	1309.85
1025	1270.76
1025.29	1276.86
1025.58	1274.15
1025.87	1260.14
1026.16	1227.59
1026.449	1221.27
1026.739	1219.46
1027.029	1225.79
1027.319	1236.63
1027.608	1215.39
1027.898	1181.49
1028.187	1161.16
1028.477	1191.44
1028.766	1170.42
1029.055	1170.2
1029.344	1151.44
1029.634	1152.12
1029.923	1140.59
1030.212	1139.91
1030.501	1125.9
1030.79	1133.81
1031.078	1127.03
1031.367	1091.33
1031.656	1117.54
1031.945	1112.57
1032.233	1102.85
1032.522	1079.58
1032.81	1080.48
1033.099	1070.54
1033.387	1065.11
1033.675	1050.65
1033.963	1070.08
1034.251	1064.21
1034.54	1014.95
1034.828	1029.41
1035.116	1012.91
1035.403	1010.88
1035.691	1024.66
1035.979	990.76
1036.267	1010.2
1036.554	992.12
1036.842	992.35
1037.129	962.97
1037.417	937.43
1037.704	973.14
1037.992	957.09
1038.279	948.96
1038.566	945.12
1038.853	945.12
1039.14	945.12
