Data from hue_180_FLMS001491_00004.txt Node
Date: Tue Feb 07 16:46:28 GMT 2017
User: dcchb
Spectrometer: FLMS00149
Trigger mode: 0
Integration Time (sec): 2.000000E-2
Scans to average: 10
Electric dark correction enabled: true
Nonlinearity correction enabled: false
Boxcar width: 0
XAxis mode: Wavelengths
Number of Pixels in Spectrum: 2048
>>>>>Begin Spectral Data<<<<<
341.393	-12.43
341.776	-12.43
342.16	-12.43
342.543	-67.79
342.927	-51.98
343.31	-63.73
343.693	-69.15
344.077	-76.38
344.46	-45.2
344.843	-52.43
345.226	-36.38
345.61	-37.74
345.993	-12.2
346.376	-5.2
346.759	4.75
347.142	37.06
347.525	48.81
347.908	51.98
348.291	54.24
348.674	96.72
349.057	104.86
349.44	114.12
349.823	123.61
350.206	152.31
350.588	199.09
350.971	206.1
351.354	219.66
351.737	242.03
352.119	250.16
352.502	275.92
352.884	272.76
353.267	268.69
353.65	301.01
354.032	306.43
354.414	305.75
354.797	309.37
355.179	331.52
355.562	332.42
355.944	323.61
356.326	334.91
356.709	335.13
357.091	326.55
357.473	327.45
357.855	343.95
358.238	350.73
358.62	343.72
359.002	349.14
359.384	329.93
359.766	325.64
360.148	335.13
360.53	321.35
360.912	327.68
361.294	317.51
361.676	335.58
362.057	308.69
362.439	334.91
362.821	344.62
363.203	321.8
363.584	323.16
363.966	332.87
364.348	345.3
364.729	305.08
365.111	317.51
365.493	310.05
365.874	325.87
366.256	319.99
366.637	297.39
367.019	316.15
367.4	309.6
367.781	305.75
368.163	334.23
368.544	297.62
368.925	297.62
369.306	325.42
369.688	312.99
370.069	310.05
370.45	327
370.831	319.99
371.212	315.7
371.593	314.34
371.974	302.14
372.355	314.34
372.736	309.37
373.117	309.82
373.498	327
373.879	305.3
374.26	307.56
374.641	340.78
375.021	346.43
375.402	329.03
375.783	317.05
376.163	330.84
376.544	341.01
376.925	335.81
377.305	341.46
377.686	340.78
378.066	327
378.447	338.97
378.827	343.49
379.208	337.17
379.588	346.66
379.968	328.35
380.349	339.88
380.729	342.82
381.109	313.89
381.489	338.75
381.87	350.05
382.25	344.62
382.63	332.42
383.01	317.28
383.39	330.61
383.77	348.01
384.15	348.92
384.53	365.64
384.91	350.73
385.29	360.22
385.67	346.21
386.049	364.28
386.429	343.95
386.809	354.79
387.189	355.92
387.568	358.41
387.948	342.82
388.328	345.75
388.707	354.57
389.087	356.15
389.466	376.71
389.846	371.06
390.225	362.7
390.605	380.78
390.984	360.89
391.363	358.41
391.743	356.37
392.122	378.3
392.501	384.85
392.881	387.79
393.26	375.81
393.639	397.5
394.018	373.55
394.397	383.04
394.776	372.65
395.155	384.4
395.534	393.66
395.913	383.04
396.292	387.33
396.671	399.99
397.05	405.87
397.429	386.43
397.808	394.57
398.186	406.32
398.565	399.54
398.944	407.45
399.323	401.8
399.701	418.07
400.08	431.4
400.458	434.79
400.837	421.68
401.215	412.64
401.594	404.96
401.972	412.87
402.351	429.82
402.729	433.66
403.107	422.81
403.486	445.41
403.864	455.13
404.242	450.84
404.62	455.13
404.999	456.26
405.377	466.88
405.755	485.64
406.133	470.72
406.511	464.39
406.889	471.63
407.267	485.86
407.645	504.17
408.023	515.47
408.401	493.32
408.779	486.54
409.156	481.57
409.534	503.94
409.912	536.26
410.29	536.03
410.667	523.6
411.045	547.33
411.422	530.83
411.8	559.53
412.178	568.57
412.555	558.86
412.933	588.01
413.31	586.2
413.687	591.62
414.065	612.87
414.442	600.44
414.819	605.63
415.197	616.71
415.574	603.83
415.951	643.37
416.328	633.88
416.705	658.06
417.082	646.08
417.46	674.11
417.837	693.77
418.214	689.93
418.591	671.17
418.967	703.26
419.344	710.04
419.721	712.75
420.098	736.25
420.475	732.41
420.852	743.71
421.228	770.38
421.605	763.6
421.982	781.9
422.358	778.51
422.735	791.39
423.111	809.7
423.488	858.28
423.864	862.8
424.241	889.02
424.617	878.85
424.994	900.99
425.37	866.64
425.746	898.73
426.123	913.2
426.499	905.51
426.875	939.64
427.251	962.46
427.627	950.94
428.003	993.19
428.379	959.3
428.756	994.32
429.132	1019.18
429.507	1037.26
429.883	1071.84
430.259	1034.1
430.635	1057.83
431.011	1068.45
431.387	1116.81
431.763	1065.28
432.138	1123.81
432.514	1125.85
432.89	1150.25
433.265	1180.53
433.641	1184.15
434.016	1202
434.392	1203.81
434.767	1254.43
435.143	1245.16
435.518	1298.27
435.894	1307.54
436.269	1307.99
436.644	1360.64
437.02	1398.61
437.395	1392.05
437.77	1415.56
438.145	1429.57
438.52	1424.82
438.895	1478.38
439.271	1497.81
439.646	1509.34
440.021	1496.46
440.395	1526.74
440.77	1535.55
441.145	1558.15
441.52	1590.92
441.895	1586.17
442.27	1624.36
442.645	1635.66
443.019	1652.39
443.394	1657.36
443.769	1689.22
444.143	1689
444.518	1718.15
444.892	1714.98
445.267	1717.02
445.641	1775.09
446.016	1788.88
446.39	1767.19
446.764	1816
447.139	1798.6
447.513	1842.44
447.887	1830.69
448.262	1851.02
448.636	1847.41
449.01	1881.76
449.384	1905.49
449.758	1916.56
450.132	1959.5
450.506	1938.03
450.88	1962.66
451.254	1988.65
451.628	2005.15
452.002	2026.61
452.376	2073.39
452.75	2083.11
453.123	2085.14
453.497	2119.94
453.871	2126.72
454.244	2193.84
454.618	2180.06
454.992	2242.2
455.365	2214.18
455.739	2288.75
456.112	2291.92
456.486	2315.19
456.859	2323.78
457.232	2362.65
457.606	2428.41
457.979	2438.58
458.352	2477.9
458.725	2513.61
459.099	2533.94
459.472	2566.26
459.845	2641.29
460.218	2639.03
460.591	2648.52
460.964	2665.69
461.337	2736.2
461.71	2770.32
462.083	2822.07
462.456	2839.25
462.829	2841.28
463.201	2911.56
463.574	2897.78
463.947	2956.76
464.32	3041.05
464.692	3058
465.065	3114.49
465.438	3107.71
465.81	3156.08
466.183	3241.72
466.555	3300.48
466.928	3345.9
467.3	3321.27
467.672	3361.72
468.045	3480.59
468.417	3508.16
468.789	3513.35
469.161	3572.11
469.534	3675.61
469.906	3712.9
470.278	3758.77
470.65	3799.9
471.022	3874.02
471.394	3963.96
471.766	4007.58
472.138	4056.39
472.51	4175.26
472.882	4196.95
473.253	4316.04
473.625	4352.88
473.997	4404.63
474.369	4467.23
474.74	4555.81
475.112	4609.82
475.484	4744.06
475.855	4806.2
476.227	4885.52
476.598	5020.88
476.97	5050.26
477.341	5215.23
477.713	5264.49
478.084	5298.84
478.455	5487.09
478.827	5561.21
479.198	5745.84
479.569	5705.84
479.94	5877.81
480.311	5975.89
480.682	6115.55
481.053	6284.35
481.424	6353.28
481.795	6447.97
482.166	6533.16
482.537	6726.15
482.908	6818.58
483.279	6911.23
483.65	7072.36
484.021	7225.8
484.391	7338.79
484.762	7378.34
485.133	7459.92
485.503	7612.91
485.874	7819.68
486.244	7856.29
486.615	8087.92
486.985	8101.48
487.356	8342.15
487.726	8399.55
488.097	8623.05
488.467	8609.72
488.837	8797.06
489.207	8935.36
489.578	9063.94
489.948	9231.4
490.318	9263.94
490.688	9384.84
491.058	9614.89
491.428	9693.76
491.798	9786.18
492.168	9958.38
492.538	9983.24
492.908	10117.47
493.278	10179.85
493.648	10268.2
494.017	10414.19
494.387	10572.15
494.757	10683.33
495.126	10752.71
495.496	10797.68
495.866	10831.81
496.235	10995.19
496.605	11072.03
496.974	11095.75
497.344	11311.12
497.713	11327.39
498.082	11384.79
498.452	11500.94
498.821	11497.32
499.19	11529.19
499.559	11655.96
499.928	11712.01
500.298	11749.52
500.667	11869.97
501.036	11801.05
501.405	11972.34
501.774	11948.61
502.143	12032.23
502.512	12087.59
502.88	12227.93
503.249	12203.29
503.618	12239.45
503.987	12306.12
504.356	12395.15
504.724	12409.84
505.093	12418.88
505.462	12451.42
505.83	12583.85
506.199	12646
506.567	12684.64
506.936	12733.45
507.304	12784.3
507.672	12846.89
508.041	12878.98
508.409	12987.23
508.777	13020.22
509.145	13085.98
509.514	12995.14
509.882	13081.92
510.25	13100.22
510.618	13119.43
510.986	13131.63
511.354	13263.83
511.722	13296.6
512.09	13347.67
512.458	13255.7
512.826	13364.39
513.193	13356.03
513.561	13394
513.929	13466.99
514.297	13514.22
514.664	13504.5
515.032	13520.32
515.4	13570.49
515.767	13523.94
516.135	13657.72
516.502	13537.05
516.869	13653.43
517.237	13660.43
517.604	13657.04
517.972	13749.69
518.339	13743.37
518.706	13749.92
519.073	13745.85
519.44	13804.16
519.808	13832.18
520.175	13744.5
520.542	13817.26
520.909	13852.52
521.276	13813.42
521.643	13850.26
522.009	13916.7
522.376	13923.02
522.743	13948.56
523.11	13961.89
523.477	14077.82
523.843	13965.96
524.21	14144.49
524.577	14138.16
524.943	14005.96
525.31	14123.24
525.676	14205.73
526.043	14129.57
526.409	14142.45
526.776	14149.23
527.142	14232.39
527.508	14188.55
527.874	14203.69
528.241	14078.95
528.607	14162.57
528.973	14257.48
529.339	14220.64
529.705	14263.81
530.071	14205.05
530.437	14161.44
530.803	14196.24
531.169	14158.95
531.535	14163.24
531.901	13963.47
532.267	14062.68
532.632	14011.83
532.998	14010.93
533.364	13973.64
533.73	13952.63
534.095	13963.93
534.461	13992.85
534.826	13923.48
535.192	13763.71
535.557	13853.87
535.923	13741.11
536.288	13734.78
536.653	13715.8
537.019	13582.69
537.384	13606.42
537.749	13673.09
538.114	13532.53
538.479	13493.66
538.845	13445.07
539.21	13343.15
539.575	13388.8
539.94	13324.17
540.305	13316.49
540.67	13159.2
541.034	13114.01
541.399	13138.86
541.764	13050.28
542.129	13099.99
542.494	13013.44
542.858	12976.83
543.223	12892.99
543.587	12924.41
543.952	12704.75
544.316	12681.02
544.681	12675.82
545.045	12736.84
545.41	12548.6
545.774	12591.76
546.138	12413.01
546.503	12365.78
546.867	12299.79
547.231	12366.45
547.595	12294.14
547.959	12197.65
548.324	12129.17
548.688	12103.41
549.052	12054.15
549.416	12049.17
549.779	11964.21
550.143	11968.27
550.507	11912
550.871	11902.06
551.235	11792.91
551.599	11779.8
551.962	11728.28
552.326	11716.08
552.689	11684.44
553.053	11575.06
553.417	11539.81
553.78	11573.71
554.143	11539.13
554.507	11495.74
554.87	11458.46
555.234	11553.37
555.597	11344.79
555.96	11443.54
556.323	11357.67
556.686	11326.03
557.05	11251.68
557.413	11250.1
557.776	11138.92
558.139	11243.77
558.502	11197.9
558.865	11125.58
559.228	11087.84
559.59	11055.98
559.953	11044.23
560.316	11144.79
560.679	11080.61
561.041	11046.72
561.404	11104.11
561.767	11085.13
562.129	10994.97
562.492	11107.5
562.854	10993.84
563.217	10991.8
563.579	11048.52
563.941	11028.64
564.304	10962.2
564.666	10990.9
565.028	11025.25
565.39	10940.96
565.753	10984.8
566.115	11038.81
566.477	10927.17
566.839	10959.71
567.201	10990.67
567.563	10989.77
567.925	11038.13
568.287	11021.86
568.648	10941.18
569.01	11011.24
569.372	10984.34
569.734	10958.58
570.095	10977.34
570.457	11029.77
570.819	11028.64
571.18	10968.53
571.542	11041.97
571.903	11018.24
572.265	11041.07
572.626	10993.61
572.987	10993.61
573.349	10981.18
573.71	11064.12
574.071	11095.53
574.432	10991.8
574.794	11080.39
575.155	11036.09
575.516	11024.79
575.877	11046.04
576.238	11058.01
576.599	10997.22
576.96	11011.69
577.32	10996.55
577.681	11035.64
578.042	11087.39
578.403	11031.12
578.763	11068.41
579.124	11018.92
579.485	11062.53
579.845	11108.63
580.206	10988.19
580.566	11025.92
580.927	10957.9
581.287	10972.37
581.648	10949.54
582.008	11021.63
582.368	10972.82
582.728	11070.67
583.089	10956.1
583.449	10972.14
583.809	10882.65
584.169	10939.37
584.529	10864.12
584.889	10973.95
585.249	10831.13
585.609	10824.35
585.969	10872.03
586.329	10807.4
586.688	10778.93
587.048	10762.2
587.408	10824.12
587.768	10803.11
588.127	10777.34
588.487	10734.41
588.846	10828.64
589.206	10724.92
589.565	10771.92
589.925	10794.07
590.284	10724.92
590.643	10714.52
591.003	10792.26
591.362	10750
591.721	10733.5
592.08	10757.46
592.44	10743.45
592.799	10720.85
593.158	10725.14
593.517	10702.77
593.876	10717.46
594.235	10627.97
594.593	10643.34
594.952	10638.14
595.311	10548.65
595.67	10570.57
596.029	10659.61
596.387	10574.64
596.746	10667.74
597.104	10543.68
597.463	10587.97
597.822	10563.79
598.18	10537.8
598.538	10545.49
598.897	10572.6
599.255	10427.75
599.613	10652.6
599.972	10598.37
600.33	10538.03
600.688	10548.2
601.046	10577.8
601.404	10568.08
601.762	10574.19
602.12	10525.15
602.478	10547.52
602.836	10544.81
603.194	10493.74
603.552	10501.64
603.91	10430.46
604.268	10542.1
604.625	10523.34
604.983	10548.42
605.341	10468.88
605.698	10511.14
606.056	10455.54
606.413	10449.22
606.771	10536.67
607.128	10557.01
607.485	10458.26
607.843	10515.2
608.2	10584.81
608.557	10584.35
608.914	10483.79
609.272	10543.45
609.629	10577.35
609.986	10567.86
610.343	10581.42
610.7	10667.52
611.057	10623
611.414	10583.68
611.771	10528.76
612.127	10573.51
612.484	10619.61
612.841	10669.32
613.198	10633.62
613.554	10587.52
613.911	10650.12
614.267	10634.75
614.624	10602.66
614.98	10604.92
615.337	10694.63
615.693	10612.6
616.05	10655.99
616.406	10749.77
616.762	10654.18
617.118	10616.67
617.475	10704.35
617.831	10677.01
618.187	10649.44
618.543	10710.68
618.899	10765.14
619.255	10772.82
619.611	10729.44
619.967	10736.44
620.323	10792.48
620.678	10653.96
621.034	10678.82
621.39	10654.41
621.746	10747.74
622.101	10784.8
622.457	10682.66
622.812	10752.94
623.168	10785.25
623.523	10785.93
623.879	10815.31
624.234	10728.08
624.589	10721.3
624.945	10738.47
625.3	10801.98
625.655	10766.27
626.01	10697.12
626.365	10705.93
626.72	10688.76
627.075	10735.76
627.43	10760.85
627.785	10714.75
628.14	10719.72
628.495	10718.59
628.85	10703
629.205	10652.83
629.559	10642.43
629.914	10680.4
630.269	10688.98
630.623	10589.1
630.978	10623.68
631.332	10634.3
631.687	10616.9
632.041	10554.75
632.396	10630
632.75	10528.31
633.104	10591.36
633.459	10551.59
633.813	10520.85
634.167	10520.85
634.521	10510.91
634.875	10568.31
635.229	10498.71
635.583	10479.27
635.937	10408.31
636.291	10410.12
636.645	10450.57
636.999	10367.41
637.352	10430.91
637.706	10376.45
638.06	10421.19
638.413	10397.24
638.767	10361.76
639.121	10325.38
639.474	10284.93
639.828	10330.58
640.181	10324.25
640.534	10392.72
640.888	10309.11
641.241	10228.43
641.594	10288.54
641.947	10316.79
642.301	10247.19
642.654	10263.01
643.007	10280.18
643.36	10275.66
643.713	10203.35
644.066	10277.92
644.419	10186.4
644.771	10165.61
645.124	10080.86
645.477	10013.07
645.83	10002.22
646.182	9897.14
646.535	9922
646.888	9886.52
647.24	9895.78
647.593	9969.68
647.945	9942.34
648.298	9841.1
648.65	9849.23
649.002	9783.02
649.355	9905.28
649.707	9892.4
650.059	9913.41
650.411	10048.1
650.763	10027.53
651.115	10189.79
651.467	10193.4
651.819	10167.19
652.171	10090.13
652.523	10132.61
652.875	10132.84
653.227	10061.2
653.578	10101.88
653.93	10216.68
654.282	10123.58
654.633	10103.01
654.985	10047.87
655.337	10119.51
655.688	10140.75
656.039	10164.93
656.391	10092.84
656.742	10088.77
657.094	10090.36
657.445	10184.59
657.796	10172.39
658.147	10160.86
658.498	10090.81
658.849	10228.88
659.2	10190.01
659.551	10121.54
659.902	10227.98
660.253	10143.01
660.604	10189.34
660.955	10145.5
661.306	10164.03
661.656	10144.82
662.007	10201.99
662.358	10241.09
662.708	10217.13
663.059	10210.58
663.409	10152.95
663.76	10169
664.11	10168.55
664.461	10211.03
664.811	10208.77
665.161	10224.59
665.511	10217.36
665.862	10216.91
666.212	10264.14
666.562	10214.19
666.912	10279.05
667.262	10230.01
667.612	10196.12
667.962	10248.54
668.312	10245.83
668.662	10232.5
669.011	10265.94
669.361	10196.34
669.711	10258.04
670.06	10151.6
670.41	10191.6
670.76	10208.77
671.109	10228.21
671.459	10172.84
671.808	10174.42
672.157	10246.06
672.507	10146.85
672.856	10130.13
673.205	10145.95
673.554	10175.78
673.904	10170.58
674.253	10169.45
674.602	10208.09
674.951	10026.85
675.3	9916.8
675.649	10082.9
675.998	10130.13
676.346	10056.23
676.695	10113.63
677.044	10077.02
677.393	10092.39
677.741	9985.5
678.09	10054.88
678.438	10032.05
678.787	10015.1
679.135	10034.99
679.484	9900.98
679.832	9907.99
680.181	9921.1
680.529	9894.66
680.877	9871.38
681.225	9903.69
681.573	9903.02
681.922	9845.39
682.27	9822.11
682.618	9846.75
682.966	9786.64
683.314	9783.92
683.661	9720.87
684.009	9703.25
684.357	9700.76
684.705	9651.27
685.053	9654.66
685.4	9665.73
685.748	9675.45
686.095	9670.71
686.443	9561.78
686.79	9517.26
687.138	9579.64
687.485	9539.41
687.832	9552.07
688.18	9579.64
688.527	9453.99
688.874	9376.48
689.221	9419.87
689.568	9330.38
689.915	9369.7
690.262	9313.2
690.609	9277.27
690.956	9190.27
691.303	9271.17
691.65	9188.01
691.997	9138.06
692.344	9060.33
692.69	9150.49
693.037	9130.16
693.383	9033.89
693.73	9110.72
694.077	8977.62
694.423	9019.65
694.769	8920.44
695.116	8933.55
695.462	8907.56
695.808	8809.49
696.155	8842.93
696.501	8740.56
696.847	8749.6
697.193	8714.8
697.539	8678.87
697.885	8622.37
698.231	8647.46
698.577	8604.75
698.923	8578.53
699.269	8580.11
699.614	8430.51
699.96	8490.17
700.306	8536.5
700.651	8394.81
700.997	8426.45
701.342	8320.46
701.688	8357.29
702.033	8373.11
702.379	8248.14
702.724	8242.5
703.069	8246.34
703.415	8126.34
703.76	8127.7
704.105	8158.88
704.45	8113.23
704.795	8057.64
705.14	8034.14
705.485	8054.03
705.83	7922.73
706.175	7948.49
706.52	7901.49
706.865	7893.35
707.209	7983.52
707.554	7845.67
707.899	7854.26
708.243	7846.35
708.588	7779.91
708.932	7774.48
709.277	7685.9
709.621	7746.01
709.966	7626.24
710.31	7713.92
710.654	7638.67
710.998	7670.76
711.342	7658.78
711.687	7577.2
712.031	7572.91
712.375	7537.2
712.719	7552.57
713.063	7526.36
713.407	7566.35
713.75	7520.25
714.094	7495.4
714.438	7472.57
714.782	7461.95
715.125	7426.7
715.469	7448.39
715.812	7423.53
716.156	7351.67
716.499	7373.37
716.843	7352.35
717.186	7325.68
717.53	7408.84
717.873	7378.11
718.216	7349.86
718.559	7324.55
718.902	7275.97
719.246	7295.4
719.589	7282.97
719.932	7226.7
720.275	7243.2
720.617	7224.89
720.96	7219.7
721.303	7215.63
721.646	7266.25
721.989	7208.4
722.331	7217.66
722.674	7162.98
723.016	7233.26
723.359	7225.8
723.701	7240.71
724.044	7153.48
724.386	7119.81
724.729	7155.97
725.071	7183.54
725.413	7187.83
725.755	7162.3
726.097	7094.95
726.439	7119.59
726.782	7119.81
727.124	7171.11
727.465	7138.12
727.807	7141.96
728.149	7109.42
728.491	7101.28
728.833	7130.89
729.175	7125.69
729.516	7066.25
729.858	7108.97
730.199	7140.6
730.541	7081.62
730.882	7115.52
731.224	7107.84
731.565	7066.93
731.906	7086.37
732.248	7123.88
732.589	7120.72
732.93	7070.55
733.271	7120.94
733.612	7181.05
733.953	7103.32
734.294	7097.89
734.635	7111.23
734.976	7125.91
735.317	7119.13
735.658	7094.05
735.999	7115.29
736.339	7108.97
736.68	7174.27
737.021	7129.3
737.361	7105.35
737.702	7145.8
738.042	7133.15
738.383	7138.34
738.723	7141.06
739.063	7143.32
739.404	7125.69
739.744	7209.3
740.084	7190.55
740.424	7189.19
740.764	7259.92
741.104	7249.98
741.444	7230.54
741.784	7288.17
742.124	7287.49
742.464	7289.53
742.804	7297.21
743.143	7374.04
743.483	7382.86
743.823	7339.47
744.162	7417.21
744.502	7466.7
744.841	7533.14
745.181	7515.51
745.52	7517.99
745.86	7594.15
746.199	7648.61
746.538	7681.15
746.877	7715.28
747.216	7766.8
747.556	7781.49
747.895	7913.01
748.234	7878.44
748.573	7919.79
748.911	8028.72
749.25	8070.75
749.589	8118.43
749.928	8250.18
750.267	8346.22
750.605	8381.25
750.944	8431.42
751.283	8535.37
751.621	8609.94
751.96	8653.78
752.298	8863.5
752.636	8934.45
752.975	9037.95
753.313	9124.51
753.651	9276.59
753.989	9378.51
754.327	9519.07
754.666	9533.31
755.004	9751.38
755.342	9911.15
755.679	10076.8
756.017	10132.84
756.355	10345.26
756.693	10466.62
757.031	10712.03
757.368	10766.04
757.706	10939.37
758.044	11099.37
758.381	11368.06
758.719	11462.75
759.056	11659.58
759.394	11826.36
759.731	12009.4
760.068	12255.27
760.405	12369.17
760.743	12542.95
761.08	12757.4
761.417	12877.85
761.754	13072.42
762.091	13345.86
762.428	13569.59
762.765	13653.43
763.102	13973.87
763.438	14090.7
763.775	14225.61
764.112	14505.83
764.449	14739.05
764.785	14827.86
765.122	14992.83
765.458	15140.17
765.795	15329.09
766.131	15577.67
766.467	15721.17
766.804	15864.22
767.14	16039.35
767.476	16292.68
767.812	16396.18
768.148	16569.51
768.485	16666.91
768.821	16777.41
769.157	17032.32
769.492	17121.13
769.828	17270.96
770.164	17372.65
770.5	17545.75
770.836	17649.48
771.171	17752.53
771.507	17866.42
771.842	17985.06
772.178	18144.61
772.513	18225.96
772.849	18289.69
773.184	18451.72
773.519	18449.01
773.855	18628.21
774.19	18681.77
774.525	18765.61
774.86	18910.69
775.195	19113.85
775.53	19059.16
775.865	18948.43
776.2	19071.14
776.535	19111.14
776.87	19133.73
777.205	19249.89
777.539	19316.78
777.874	19459.38
778.209	19343.67
778.543	19376.67
778.878	19439.04
779.212	19464.8
779.547	19386.16
779.881	19682.65
780.215	19512.48
780.55	19693.49
780.884	19646.04
781.218	19545.93
781.552	19709.99
781.886	19683.55
782.22	19591.58
782.554	19651.23
782.888	19621.18
783.222	19551.58
783.556	19627.51
783.889	19656.21
784.223	19591.58
784.557	19618.92
784.89	19700.95
785.224	19625.7
785.557	19594.06
785.891	19539.37
786.224	19624.57
786.558	19643.55
786.891	19451.01
787.224	19506.61
787.557	19546.6
787.891	19575.76
788.224	19570.78
788.557	19631.8
788.89	19527.17
789.223	19519.26
789.556	19433.39
789.888	19360.17
790.221	19416.66
790.554	19329.66
790.887	19293.96
791.219	19256.44
791.552	19204.47
791.884	19275.2
792.217	19204.24
792.549	19188.65
792.882	19082.21
793.214	19108.2
793.546	19162.43
793.879	19024.58
794.211	18973.96
794.543	18981.42
794.875	18760.64
795.207	19043.79
795.539	18865.72
795.871	18912.95
796.203	18740.75
796.535	18813.74
796.867	18686.74
797.198	18650.36
797.53	18656.91
797.862	18539.17
798.193	18655.33
798.525	18462.79
798.856	18509.12
799.188	18344.38
799.519	18315.9
799.85	18185.06
800.182	18261.89
800.513	18239.07
800.844	18189.58
801.175	18122.01
801.506	18073.42
801.837	18149.58
802.168	18017.38
802.499	18006.76
802.83	17863.71
803.161	17853.77
803.491	17950.71
803.822	18017.83
804.153	17879.3
804.483	17662.13
804.814	17712.3
805.145	17650.16
805.475	17612.87
805.805	17639.31
806.136	17585.53
806.466	17658.52
806.796	17522.93
807.126	17421.24
807.457	17477.96
807.787	17466.89
808.117	17383.27
808.447	17274.12
808.777	17423.27
809.107	17287.23
809.436	17232.99
809.766	17309.83
810.096	17112.77
810.426	17057.86
810.755	17142.37
811.085	17082.26
811.414	17081.58
811.744	16946.45
812.073	17007.69
812.403	16943.06
812.732	16865.77
813.061	16932.44
813.39	16770.41
813.719	16774.47
814.049	16787.36
814.378	16686.57
814.707	16690.63
815.036	16722.95
815.365	16559.34
815.693	16414.71
816.022	16626
816.351	16507.14
816.68	16375.39
817.008	16431.43
817.337	16274.15
817.665	16281.61
817.994	16340.36
818.322	16320.93
818.651	16186.69
818.979	16214.71
819.307	16335.62
819.636	16161.83
819.964	16110.76
820.292	16255.39
820.62	16234.83
820.948	16063.08
821.276	16142.63
821.604	16108.05
821.932	16201.61
822.259	16241.38
822.587	16176.3
822.915	16110.31
823.243	16133.81
823.57	16095.85
823.898	16106.02
824.225	16113.93
824.553	16009.97
824.88	16178.56
825.207	16229.18
825.535	16090.42
825.862	16265.56
826.189	16078.45
826.516	16212.46
826.843	16171.1
827.17	16170.65
827.497	16147.37
827.824	16110.76
828.151	16148.73
828.478	16146.02
828.805	16191.21
829.131	16111.21
829.458	16070.54
829.785	16030.99
830.111	16115.51
830.438	16233.02
830.764	16137.65
831.09	16220.14
831.417	16078.45
831.743	16107.37
832.069	16166.81
832.395	16006.58
832.722	16050.88
833.048	16085.45
833.374	16062.85
833.7	15977.66
834.026	16076.64
834.351	16034.15
834.677	15995.74
835.003	16027.6
835.329	16014.04
835.654	15947.38
835.98	15909.86
836.306	15894.5
836.631	15814.5
836.956	15851.79
837.282	15873.48
837.607	15857.21
837.932	15720.04
838.258	15833.26
838.583	15714.62
838.908	15678.46
839.233	15749.42
839.558	15652.7
839.883	15641.85
840.208	15537.9
840.533	15645.69
840.858	15612.47
841.182	15596.43
841.507	15619.48
841.832	15513.04
842.156	15410.22
842.481	15451.35
842.805	15470.55
843.13	15418.35
843.454	15377.67
843.778	15394.62
844.103	15237.11
844.427	15162.99
844.751	15295.87
845.075	15146.72
845.399	15142.43
845.723	15041.86
846.047	15052.94
846.371	14940.17
846.695	14919.61
847.019	14797.58
847.343	14764.58
847.666	14612.05
847.99	14623.57
848.313	14623.8
848.637	14623.57
848.96	14593.74
849.284	14447.3
849.607	14365.5
849.931	14417.02
850.254	14262
850.577	14218.61
850.9	14144.49
851.223	14143.58
851.546	14103.81
851.869	13968.45
852.192	14070.36
852.515	13894.32
852.838	13876.47
853.161	13872.18
853.483	13744.72
853.806	13707.66
854.129	13644.61
854.451	13615.91
854.774	13499.76
855.096	13501.34
855.419	13443.71
855.741	13427.44
856.063	13423.6
856.385	13328.92
856.708	13304.73
857.03	13201.69
857.352	13260.89
857.674	13196.72
857.996	13147.9
858.318	13143.84
858.64	13105.42
858.961	13035.59
859.283	12966.66
859.605	12885.54
859.926	12908.14
860.248	12942.94
860.57	12943.16
860.891	12801.02
861.212	12817.29
861.534	12828.36
861.855	12718.99
862.176	12766.44
862.498	12722.6
862.819	12713.56
863.14	12713.56
863.461	12641.7
863.782	12603.51
864.103	12577.07
864.424	12545.21
864.745	12542.72
865.065	12536.39
865.386	12448.71
865.707	12424.31
866.027	12515.38
866.348	12411.2
866.668	12377.53
866.989	12387.7
867.309	12308.83
867.63	12315.61
867.95	12291.43
868.27	12290.52
868.59	12331.65
868.91	12217.08
869.23	12181.83
869.55	12188.38
869.87	12187.48
870.19	12191.54
870.51	12183.86
870.83	12223.86
871.15	12085.33
871.469	12088.72
871.789	12120.81
872.109	12087.14
872.428	11999.23
872.748	11997.65
873.067	11976.63
873.386	11997.2
873.706	11950.87
874.025	11917.88
874.344	11848.73
874.663	11896.86
874.982	11906.81
875.301	11897.09
875.62	11869.07
875.939	11829.75
876.258	11835.62
876.577	11736.41
876.896	11770.09
877.214	11697.77
877.533	11712.01
877.852	11689.64
878.17	11630.2
878.489	11645.8
878.807	11534.84
879.125	11561.96
879.444	11584.55
879.762	11566.7
880.08	11575.74
880.398	11498.91
880.716	11539.58
881.034	11520.83
881.352	11478.12
881.67	11479.92
881.988	11422.52
882.306	11369.87
882.624	11356.09
882.941	11286.03
883.259	11179.14
883.577	11295.07
883.894	11239.25
884.212	11213.04
884.529	11237.44
884.846	11184.11
885.164	11154.51
885.481	11101.63
885.798	11098.47
886.115	11019.6
886.432	11046.04
886.75	10968.75
887.067	11065.92
887.383	10942.99
887.7	10909.32
888.017	10885.59
888.334	10862.77
888.651	10854.63
888.967	10880.17
889.284	10840.84
889.6	10775.54
889.917	10688.76
890.233	10720.4
890.55	10647.18
890.866	10682.66
891.182	10729.44
891.498	10617.57
891.815	10538.71
892.131	10464.36
892.447	10464.81
892.763	10499.61
893.079	10428.65
893.395	10398.14
893.71	10392.72
894.026	10326.96
894.342	10322.67
894.657	10247.41
894.973	10280.63
895.289	10237.02
895.604	10161.31
895.92	10070.02
896.235	10157.02
896.55	10106.63
896.865	10064.37
897.181	10039.51
897.496	10048.78
897.811	9920.19
898.126	9891.94
898.441	9861.89
898.756	9842
899.071	9752.06
899.386	9802.45
899.7	9709.12
900.015	9699.86
900.33	9606.98
900.644	9548.22
900.959	9652.85
901.273	9541.67
901.588	9484.95
901.902	9404.5
902.216	9403.14
902.531	9442.92
902.845	9406.53
903.159	9305.29
903.473	9332.41
903.787	9260.32
904.101	9181.45
904.415	9138.52
904.729	9132.64
905.042	9088.57
905.356	9112.53
905.67	9073.89
905.984	9056.94
906.297	8935.81
906.611	8950.5
906.924	8918.64
907.237	8893.78
907.551	8886.32
907.864	8795.93
908.177	8774.01
908.491	8748.92
908.804	8759.54
909.117	8656.04
909.43	8626.44
909.743	8568.81
910.056	8560.23
910.368	8470.29
910.681	8416.5
910.994	8420.8
911.307	8496.27
911.619	8360.91
911.932	8364.98
912.244	8253.79
912.557	8291.08
912.869	8242.72
913.181	8229.61
913.494	8211.99
913.806	8113.91
914.118	8136.06
914.43	8028.49
914.742	8082.95
915.054	7985.55
915.366	7986.46
915.678	7913.01
915.99	7951.66
916.302	7804.77
916.613	7810.64
916.925	7787.59
917.236	7814.94
917.548	7744.66
917.859	7730.42
918.171	7656.3
918.482	7599.57
918.794	7616.52
919.105	7590.76
919.416	7542.85
919.727	7494.04
920.038	7445.68
920.349	7486.13
920.66	7452.69
920.971	7418.34
921.282	7386.7
921.593	7333.59
921.903	7309.41
922.214	7253.82
922.525	7244.78
922.835	7225.35
923.146	7184.67
923.456	7164.56
923.767	7124.11
924.077	7202.52
924.387	7120.49
924.697	7026.71
925.008	6964.11
925.318	6973.6
925.628	6987.61
925.938	6903.1
926.248	6901.97
926.558	6867.84
926.867	6875.07
927.177	6851.8
927.487	6761.4
927.796	6660.62
928.106	6664.46
928.416	6748.75
928.725	6672.59
929.034	6577.23
929.344	6611.35
929.653	6609.32
929.962	6573.61
930.271	6529.55
930.581	6491.35
930.89	6470.79
931.199	6408.87
931.508	6453.16
931.817	6407.06
932.125	6389.21
932.434	6297.24
932.743	6267.18
933.051	6318.48
933.36	6247.75
933.669	6198.48
933.977	6272.15
934.286	6226.28
934.594	6235.32
934.902	6118.71
935.21	6076.9
935.519	6107.86
935.827	6069.67
936.135	6042.1
936.443	6015.44
936.751	5970.69
937.059	5930.01
937.367	5882.11
937.674	5954.19
937.982	5925.95
938.29	5831.26
938.597	5934.53
938.905	5814.08
939.213	5778.15
939.52	5776.12
939.827	5697.48
940.135	5734.99
940.442	5705.84
940.749	5654.99
941.056	5672.62
941.363	5552.4
941.67	5571.83
941.977	5574.99
942.284	5497.48
942.591	5516.24
942.898	5482.57
943.205	5458.39
943.511	5503.81
943.818	5417.03
944.125	5377.71
944.431	5371.16
944.738	5357.83
945.044	5294.78
945.35	5263.14
945.657	5235.57
945.963	5238.73
946.269	5159.19
946.575	5202.8
946.881	5181.33
947.187	5150.15
947.493	5118.74
947.799	5146.31
948.105	5119.41
948.41	5044.61
948.716	5073.09
949.022	4990.6
949.327	5053.65
949.633	4972.07
949.938	5005.52
950.244	4985.18
950.549	4920.77
950.854	4904.28
951.16	4900.21
951.465	4884.62
951.77	4826.54
952.075	4825.41
952.38	4794
952.685	4785.18
952.99	4753.1
953.294	4751.06
953.599	4731.4
953.904	4715.58
954.209	4687.11
954.513	4668.35
954.818	4639.65
955.122	4643.72
955.426	4583.61
955.731	4599.88
956.035	4495.48
956.339	4558.07
956.643	4514.91
956.948	4506.1
957.252	4446.44
957.556	4466.1
957.86	4420.45
958.163	4419.54
958.467	4433.56
958.771	4421.13
959.075	4354.24
959.378	4376.38
959.682	4411.86
959.985	4309.72
960.289	4269.04
960.592	4283.05
960.896	4238.98
961.199	4188.36
961.502	4237.85
961.805	4222.04
962.108	4173.9
962.411	4172.77
962.714	4150.63
963.017	4136.39
963.32	4171.42
963.623	4092.1
963.926	4085.09
964.228	4074.7
964.531	4060.91
964.833	4061.36
965.136	3990.18
965.438	3944.3
965.741	3935.72
966.043	3980.46
966.345	3926.22
966.648	3939.33
966.95	3904.08
967.252	3869.5
967.554	3859.33
967.856	3883.29
968.158	3832.89
968.46	3876.06
968.761	3841.48
969.063	3761.03
969.365	3740.24
969.666	3742.05
969.968	3681.49
970.269	3742.73
970.571	3722.84
970.872	3701.82
971.174	3661.15
971.475	3655.95
971.776	3627.25
972.077	3612.79
972.378	3615.95
972.679	3570.08
972.98	3591.09
973.281	3599.68
973.582	3536.4
973.883	3500.02
974.183	3522.85
974.484	3487.59
974.785	3502.51
975.085	3465.45
975.386	3479.68
975.686	3441.94
975.986	3441.72
976.287	3402.62
976.587	3415.28
976.887	3395.62
977.187	3350.87
977.487	3366.01
977.787	3331.44
978.087	3309.97
978.387	3292.34
978.687	3314.94
978.987	3271.33
979.286	3267.26
979.586	3231.33
979.885	3215.51
980.185	3235.17
980.484	3186.36
980.784	3166.7
981.083	3209.63
981.382	3153.82
981.682	3167.6
981.981	3125.34
982.28	3120.6
982.579	3131.67
982.878	3100.94
983.177	3049.64
983.475	3045.12
983.774	3025.91
984.073	3019.81
984.372	2966.48
984.67	2995.18
984.969	2998.11
985.267	2966.7
985.566	2963.54
985.864	2935.97
986.162	2925.8
986.461	2908.85
986.759	2911.79
987.057	2890.32
987.355	2852.13
987.653	2863.65
987.951	2847.16
988.249	2846.7
988.547	2802.64
988.844	2843.77
989.142	2808.97
989.44	2799.25
989.737	2773.94
990.035	2764.22
990.332	2757.67
990.63	2729.65
990.927	2717.89
991.224	2716.09
991.521	2685.35
991.819	2667.95
992.116	2689.42
992.413	2687.84
992.71	2658.91
993.006	2625.69
993.303	2615.52
993.6	2598.35
993.897	2605.13
994.193	2597.9
994.49	2583.43
994.787	2564.68
995.083	2534.4
995.379	2540.95
995.676	2508.41
995.972	2484.45
996.268	2482.65
996.565	2503.21
996.861	2503.66
997.157	2458.47
997.453	2443.78
997.749	2449.88
998.044	2415.98
998.34	2430.22
998.636	2384.8
998.932	2381.41
999.227	2375.76
999.523	2370.79
999.818	2337.79
1000.114	2339.6
1000.409	2338.02
1000.704	2280.84
1001	2324.68
1001.295	2287.85
1001.59	2249.88
1001.885	2261.41
1002.18	2234.52
1002.475	2230.9
1002.77	2178.25
1003.065	2201.98
1003.359	2169.89
1003.654	2175.31
1003.949	2163.56
1004.243	2152.49
1004.538	2145.25
1004.832	2119.49
1005.127	2128.53
1005.421	2072.26
1005.715	2078.59
1006.009	2080.62
1006.304	2062.77
1006.598	2022.77
1006.892	2038.82
1007.186	2017.35
1007.48	2027.74
1007.773	2038.14
1008.067	2006.27
1008.361	1974.41
1008.655	2014.18
1008.948	1976.67
1009.242	1977.58
1009.535	1959.5
1009.829	1928.76
1010.122	1916.79
1010.415	1937.35
1010.708	1859.84
1011.001	1891.93
1011.295	1859.84
1011.588	1859.61
1011.881	1863
1012.173	1831.82
1012.466	1818.48
1012.759	1799.95
1013.052	1815.09
1013.344	1823.23
1013.637	1806.96
1013.93	1766.06
1014.222	1748.65
1014.514	1744.59
1014.807	1734.87
1015.099	1737.58
1015.391	1725.6
1015.683	1733.06
1015.976	1724.02
1016.268	1685.15
1016.56	1670.46
1016.851	1691.48
1017.143	1639.28
1017.435	1641.31
1017.727	1641.99
1018.018	1641.99
1018.31	1623.23
1018.602	1597.92
1018.893	1603.8
1019.185	1585.95
1019.476	1574.42
1019.767	1584.14
1020.058	1553.86
1020.35	1567.87
1020.641	1524.25
1020.932	1536
1021.223	1506.18
1021.514	1505.05
1021.804	1510.24
1022.095	1503.92
1022.386	1482.22
1022.677	1452.17
1022.967	1488.32
1023.258	1460.53
1023.548	1435.44
1023.839	1448.55
1024.129	1438.61
1024.419	1416.23
1024.709	1393.64
1025	1400.19
1025.29	1398.38
1025.58	1350.02
1025.87	1354.31
1026.16	1347.31
1026.449	1366.07
1026.739	1360.87
1027.029	1338.72
1027.319	1302.11
1027.608	1312.06
1027.898	1298.5
1028.187	1300.08
1028.477	1272.96
1028.766	1290.81
1029.055	1275.45
1029.344	1249.23
1029.634	1258.5
1029.923	1253.07
1030.212	1241.78
1030.501	1237.48
1030.79	1231.15
1031.078	1211.27
1031.367	1220.98
1031.656	1212.17
1031.945	1180.53
1032.233	1177.82
1032.522	1162.68
1032.81	1159.29
1033.099	1152.96
1033.387	1143.25
1033.675	1166.97
1033.963	1143.7
1034.251	1128.78
1034.54	1131.27
1034.828	1117.26
1035.116	1112.06
1035.403	1108.22
1035.691	1106.41
1035.979	1063.93
1036.267	1075.23
1036.554	1059.41
1036.842	1057.15
1037.129	1071.61
1037.417	1036.36
1037.704	1038.62
1037.992	1027.54
1038.279	1029.8
1038.566	1018.28
1038.853	1018.28
1039.14	1018.28
