Data from hue_120_FLMS001491_00089.txt Node
Date: Tue Feb 07 17:00:09 GMT 2017
User: dcchb
Spectrometer: FLMS00149
Trigger mode: 0
Integration Time (sec): 2.000000E-2
Scans to average: 10
Electric dark correction enabled: true
Nonlinearity correction enabled: false
Boxcar width: 0
XAxis mode: Wavelengths
Number of Pixels in Spectrum: 2048
>>>>>Begin Spectral Data<<<<<
341.393	-11.51
341.776	-11.51
342.16	-11.51
342.543	-61.23
342.927	-73.88
343.31	-57.16
343.693	-75.46
344.077	-63.04
344.46	-56.48
344.843	-56.93
345.226	-49.48
345.61	-29.59
345.993	-12.87
346.376	-2.92
346.759	16.28
347.142	9.73
347.525	54.7
347.908	52.89
348.291	65.32
348.674	86.79
349.057	118.2
349.44	140.35
349.823	143.74
350.206	157.98
350.588	182.16
350.971	200.91
351.354	205.88
351.737	259.89
352.119	254.02
352.502	285.88
352.884	267.58
353.267	275.04
353.65	309.38
354.032	308.25
354.414	288.82
354.797	312.1
355.179	339.89
355.562	320.68
355.944	322.72
356.326	343.73
356.709	346.9
357.091	341.93
357.473	335.37
357.855	325.66
358.238	338.76
358.62	332.89
359.002	349.38
359.384	349.38
359.766	323.4
360.148	362.72
360.53	333.11
360.912	329.27
361.294	327.46
361.676	331.3
362.057	332.89
362.439	341.02
362.821	321.36
363.203	333.34
363.584	316.62
363.966	326.33
364.348	328.14
364.729	324.07
365.111	339.67
365.493	323.62
365.874	318.65
366.256	308.93
366.637	322.49
367.019	315.49
367.4	322.72
367.781	333.56
368.163	318.88
368.544	312.77
368.925	304.86
369.306	321.14
369.688	315.26
370.069	309.84
370.45	318.88
370.831	327.46
371.212	322.94
371.593	319.33
371.974	309.84
372.355	316.16
372.736	333.11
373.117	319.1
373.498	323.17
373.879	320.68
374.26	310.74
374.641	312.55
375.021	304.19
375.402	337.86
375.783	327.69
376.163	334.47
376.544	315.94
376.925	341.47
377.305	329.05
377.686	352.77
378.066	314.13
378.447	352.77
378.827	348.25
379.208	307.12
379.588	357.74
379.968	352.77
380.349	346.9
380.729	343.73
381.109	339.44
381.489	368.82
381.87	347.12
382.25	346.22
382.63	342.15
383.01	355.71
383.39	374.24
383.77	354.13
384.15	349.38
384.53	358.65
384.91	346.67
385.29	354.81
385.67	368.14
386.049	368.37
386.429	355.71
386.809	384.18
387.189	374.92
387.568	376.95
387.948	367.69
388.328	357.29
388.707	369.5
389.087	390.29
389.466	388.25
389.846	389.16
390.225	382.38
390.605	393
390.984	390.29
391.363	386.67
391.743	378.54
392.122	394.58
392.501	360.46
392.881	384.64
393.26	397.29
393.639	382.15
394.018	401.13
394.397	386.22
394.776	398.87
395.155	397.29
395.534	399.55
395.913	408.36
396.292	433.9
396.671	399.78
397.05	426.22
397.429	430.51
397.808	420.34
398.186	409.49
398.565	398.2
398.944	420.79
399.323	422.15
399.701	423.51
400.08	423.73
400.458	409.49
400.837	417.4
401.215	420.79
401.594	425.99
401.972	440.91
402.351	425.77
402.729	456.95
403.107	433.68
403.486	446.1
403.864	439.78
404.242	437.74
404.62	446.78
404.999	440.23
405.377	447.01
405.755	454.24
406.133	464.63
406.511	438.65
406.889	469.61
407.267	499.21
407.645	461.7
408.023	468.02
408.401	450.17
408.779	480.23
409.156	490.4
409.534	507.12
409.912	486.33
410.29	501.02
410.667	455.82
411.045	488.59
411.422	498.76
411.8	532.66
412.178	505.09
412.555	518.64
412.933	518.42
413.31	518.19
413.687	528.36
414.065	540.11
414.442	530.4
414.819	537.85
415.197	537.18
415.574	545.99
415.951	557.06
416.328	563.16
416.705	537.85
417.082	560.23
417.46	560.45
417.837	557.51
418.214	562.26
418.591	564.52
418.967	583.05
419.344	579.66
419.721	585.08
420.098	577.85
420.475	582.6
420.852	604.52
421.228	594.35
421.605	603.16
421.982	613.78
422.358	609.04
422.735	607.23
423.111	618.08
423.488	623.27
423.864	602.48
424.241	644.06
424.617	631.41
424.994	667.79
425.37	636.16
425.746	639.32
426.123	655.82
426.499	660.34
426.875	675.48
427.251	657.62
427.627	691.97
428.003	670.28
428.379	683.84
428.756	668.47
429.132	687.23
429.507	708.24
429.883	722.26
430.259	680.67
430.635	724.51
431.011	734.68
431.387	728.13
431.763	734.91
432.138	719.09
432.514	739.88
432.89	752.76
433.265	771.07
433.641	760.22
434.016	756.15
434.392	767.9
434.767	809.94
435.143	781.69
435.518	807.45
435.894	814.23
436.269	831.63
436.644	853.55
437.02	843.61
437.395	827.11
437.77	835.47
438.145	858.07
438.52	881.8
438.895	875.25
439.271	869.6
439.646	885.64
440.021	902.82
440.395	893.1
440.77	898.75
441.145	895.36
441.52	900.1
441.895	926.32
442.27	953.21
442.645	911.4
443.019	942.59
443.394	923.38
443.769	951.4
444.143	928.35
444.518	968.58
444.892	978.75
445.267	989.14
445.641	971.51
446.016	989.59
446.39	990.95
446.764	1018.97
447.139	969.71
447.513	996.6
447.887	1012.87
448.262	1038.86
448.636	1011.74
449.01	1036.15
449.384	1066.2
449.758	1060.33
450.132	1044.73
450.506	1079.53
450.88	1058.29
451.254	1101.68
451.628	1092.64
452.002	1117.72
452.376	1116.82
452.75	1116.59
453.123	1157.5
453.497	1155.24
453.871	1129.02
454.244	1197.04
454.618	1188.91
454.992	1192.53
455.365	1191.62
455.739	1216.71
456.112	1247.89
456.486	1225.97
456.859	1235.69
457.232	1292.18
457.606	1284.05
457.979	1315.69
458.352	1360.2
458.725	1346.87
459.099	1380.77
459.472	1378.73
459.845	1368.34
460.218	1411.95
460.591	1420.54
460.964	1418.96
461.337	1454.67
461.71	1463.7
462.083	1482.46
462.456	1495.57
462.829	1526.3
463.201	1542.57
463.574	1519.3
463.947	1577.37
464.32	1608.56
464.692	1611.5
465.065	1636.36
465.438	1680.2
465.81	1686.75
466.183	1692.85
466.555	1749.12
466.928	1758.39
467.3	1778.27
467.672	1771.04
468.045	1814.66
468.417	1829.34
468.789	1894.65
469.161	1921.09
469.534	1952.96
469.906	1967.42
470.278	1997.7
470.65	2057.36
471.022	2115.21
471.394	2118.6
471.766	2140.07
472.138	2180.07
472.51	2239.73
472.882	2318.82
473.253	2338.94
473.625	2380.06
473.997	2409.44
474.369	2457.12
474.74	2523.34
475.112	2584.8
475.484	2585.48
475.855	2687.4
476.227	2712.26
476.598	2778.02
476.97	2864.57
477.341	2962.2
477.713	3058.92
478.084	3048.75
478.455	3180.5
478.827	3233.6
479.198	3338.46
479.569	3337.78
479.94	3512.92
480.311	3583.2
480.682	3670.2
481.053	3757.2
481.424	3888.73
481.795	3965.11
482.166	4041.49
482.537	4132.79
482.908	4288.94
483.279	4345.89
483.65	4490.97
484.021	4634.69
484.391	4710.62
484.762	4856.16
485.133	4933.9
485.503	5032.42
485.874	5175.47
486.244	5279.42
486.615	5447.78
486.985	5577.72
487.356	5743.82
487.726	5803.48
488.097	6044.37
488.467	6072.17
488.837	6254.31
489.207	6403.01
489.578	6528.43
489.948	6680.06
490.318	6843.45
490.688	6908.53
491.058	7108.98
491.428	7280.27
491.798	7404.11
492.168	7653.37
492.538	7714.39
492.908	7878
493.278	8033.93
493.648	8137.88
494.017	8321.6
494.387	8462.62
494.757	8633.69
495.126	8751.2
495.496	8846.79
495.866	9000.68
496.235	9129.72
496.605	9219.66
496.974	9271.18
497.344	9509.37
497.713	9635.92
498.082	9729.25
498.452	9917.95
498.821	9985.97
499.19	10041.56
499.559	10287.2
499.928	10416.46
500.298	10447.2
500.667	10594.54
501.036	10646.97
501.405	10875.89
501.774	10802.67
502.143	11055.54
502.512	11051.47
502.88	11253.28
503.249	11234.07
503.618	11377.12
503.987	11520.39
504.356	11534.63
504.724	11611.23
505.093	11734.85
505.462	11790.21
505.83	11909.98
506.199	12046.7
506.567	12251.67
506.936	12205.79
507.304	12364.21
507.672	12352.91
508.041	12513.13
508.409	12606.69
508.777	12699.12
509.145	12758.32
509.514	12802.39
509.882	12969.62
510.25	12965.77
510.618	13001.71
510.986	13108.14
511.354	13232.89
511.722	13245.77
512.09	13359.89
512.458	13281.7
512.826	13468.36
513.193	13546.32
513.561	13651.63
513.929	13670.84
514.297	13631.07
514.664	13780.22
515.032	13885.75
515.4	13878.52
515.767	14010.27
516.135	13921.68
516.502	13878.97
516.869	14060.89
517.237	14200.32
517.604	14061.34
517.972	14260.43
518.339	14298.17
518.706	14186.53
519.073	14368.9
519.44	14390.82
519.808	14375.46
520.175	14431.5
520.542	14629.91
520.909	14668.55
521.276	14594.43
521.643	14723.24
522.009	14761.89
522.376	14814.54
522.743	14830.36
523.11	15013.4
523.477	14970.92
523.843	14991.48
524.21	15180.18
524.577	15266.73
524.943	15158.26
525.31	15233.06
525.676	15346.96
526.043	15389.44
526.409	15344.7
526.776	15475.99
527.142	15450.23
527.508	15546.05
527.874	15553.28
528.241	15527.29
528.607	15584.92
528.973	15657
529.339	15588.3
529.705	15686.38
530.071	15653.39
530.437	15755.76
530.803	15739.49
531.169	15825.13
531.535	15845.7
531.901	15592.82
532.267	15668.98
532.632	15674.63
532.998	15777.45
533.364	15788.75
533.73	15806.6
534.095	15879.37
534.461	15866.04
534.826	15869.43
535.192	15894.29
535.557	15948.07
535.923	15828.52
536.288	15812.48
536.653	15823.55
537.019	15770.9
537.384	15776.55
537.749	15804.8
538.114	15697
538.479	15713.5
538.845	15713.5
539.21	15594.41
539.575	15668.08
539.94	15577.91
540.305	15726.15
540.67	15586.95
541.034	15577.91
541.399	15610.68
541.764	15509.44
542.129	15487.97
542.494	15489.1
542.858	15475.99
543.223	15471.02
543.587	15563.9
543.952	15344.7
544.316	15418.59
544.681	15409.78
545.045	15348.31
545.41	15382.21
545.774	15353.73
546.138	15281.87
546.503	15282.78
546.867	15164.59
547.231	15252.27
547.595	15281.42
547.959	15205.72
548.324	15148.54
548.688	15115.1
549.052	15124.36
549.416	15154.42
549.779	15100.18
550.143	15052.95
550.507	15121.65
550.871	15122.1
551.235	14999.85
551.599	15018.38
551.962	14953.29
552.326	14958.94
552.689	14974.31
553.053	14857.7
553.417	14883.69
553.78	14944.03
554.143	14911.49
554.507	14845.95
554.87	14880.53
555.234	15018.38
555.597	14845.05
555.96	14798.95
556.323	14869.68
556.686	14831.94
557.05	14953.07
557.413	14890.24
557.776	14807.99
558.139	14914.2
558.502	14919.4
558.865	14829.91
559.228	14876.01
559.59	14888.21
559.953	14785.61
560.316	14856.57
560.679	14913.97
561.041	14876.91
561.404	14958.26
561.767	14919.17
562.129	14885.72
562.492	15011.14
562.854	15013.4
563.217	14954.2
563.579	15000.52
563.941	15006.17
564.304	15049.34
564.666	15160.07
565.028	15144.7
565.39	15006.63
565.753	15207.98
566.115	15153.74
566.477	15175.21
566.839	15173.4
567.201	15160.75
567.563	15274.87
567.925	15314.19
568.287	15233.74
568.648	15299.27
569.01	15318.71
569.372	15351.7
569.734	15291.36
570.095	15438.7
570.457	15373.4
570.819	15440.96
571.18	15483.9
571.542	15407.97
571.903	15524.35
572.265	15431.47
572.626	15481.41
572.987	15558.48
573.349	15497.46
573.71	15636.89
574.071	15525.26
574.432	15581.3
574.794	15665.59
575.155	15732.93
575.516	15620.39
575.877	15696.78
576.238	15704.91
576.599	15705.59
576.96	15639.6
577.32	15718.24
577.681	15756.44
578.042	15729.32
578.403	15751.69
578.763	15724.12
579.124	15711.47
579.485	15772.71
579.845	15798.47
580.206	15883.21
580.566	15747.4
580.927	15725.25
581.287	15808.64
581.648	15785.14
582.008	15862.2
582.368	15765.02
582.728	15796.21
583.089	15772.25
583.449	15694.06
583.809	15741.75
584.169	15834.85
584.529	15741.52
584.889	15840.95
585.249	15699.04
585.609	15696.32
585.969	15768.64
586.329	15697
586.688	15684.12
587.048	15633.95
587.408	15587.4
587.768	15678.7
588.127	15617.91
588.487	15571.36
588.846	15666.72
589.206	15581.75
589.565	15581.98
589.925	15647.29
590.284	15601.86
590.643	15648.87
591.003	15616.1
591.362	15611.58
591.721	15561.64
592.08	15584.69
592.44	15656.33
592.799	15730.22
593.158	15619.04
593.517	15586.27
593.876	15659.04
594.235	15596.44
594.593	15581.75
594.952	15641.86
595.311	15590.56
595.67	15561.41
596.029	15722.54
596.387	15594.63
596.746	15603.67
597.104	15612.03
597.463	15482.09
597.822	15624.69
598.18	15509.66
598.538	15602.99
598.897	15584.92
599.255	15412.49
599.613	15662.65
599.972	15563.45
600.33	15571.36
600.688	15507.18
601.046	15614.74
601.404	15613.84
601.762	15527.74
602.12	15583.56
602.478	15623.33
602.836	15611.13
603.194	15453.39
603.552	15584.92
603.91	15420.63
604.268	15587.17
604.625	15498.36
604.983	15635.31
605.341	15590.79
605.698	15585.59
606.056	15655.2
606.413	15575.2
606.771	15602.99
607.128	15615.65
607.485	15534.75
607.843	15547.18
608.2	15629.89
608.557	15770.67
608.914	15663.33
609.272	15700.17
609.629	15741.07
609.986	15801.41
610.343	15746.27
610.7	15785.36
611.057	15801.41
611.414	15787.85
611.771	15729.77
612.127	15957.33
612.484	15869.43
612.841	15920.73
613.198	15755.76
613.554	15822.65
613.911	15886.38
614.267	15849.99
614.624	15851.35
614.98	15878.47
615.337	15919.6
615.693	15836.89
616.05	15910.1
616.406	16112.36
616.762	15950.1
617.118	15958.01
617.475	15961.63
617.831	16025.81
618.187	15973.61
618.543	16012.93
618.899	16025.13
619.255	16084.79
619.611	16027.84
619.967	16103.77
620.323	16129.31
620.678	15986.49
621.034	16026.03
621.39	16053.38
621.746	16061.74
622.101	16161.85
622.457	16075.07
622.812	16098.57
623.168	16098.8
623.523	16062.64
623.879	16135.86
624.234	16083.21
624.589	16079.14
624.945	16091.57
625.3	16196.2
625.655	16044.34
626.01	16184.9
626.365	16174.96
626.72	16124.79
627.075	16093.38
627.43	15984.9
627.785	16012.93
628.14	16090.89
628.495	16031.68
628.85	15984
629.205	16031.01
629.559	16126.14
629.914	16086.82
630.269	16041.85
630.623	15970.22
630.978	16039.82
631.332	16100.38
631.687	15987.39
632.041	15964.34
632.396	16024.9
632.75	15919.82
633.104	15963.21
633.459	15808.19
633.813	15870.33
634.167	15849.31
634.521	15761.63
634.875	15856.77
635.229	15856.77
635.583	15812.93
635.937	15745.14
636.291	15670.11
636.645	15731.35
636.999	15708.53
637.352	15744.01
637.706	15654.29
638.06	15688.87
638.413	15584.01
638.767	15616.1
639.121	15682.31
639.474	15449.33
639.828	15529.78
640.181	15546.95
640.534	15585.59
640.888	15541.3
641.241	15501.98
641.594	15497.46
641.947	15597.12
642.301	15521.19
642.654	15482.32
643.007	15531.81
643.36	15453.62
643.713	15418.14
644.066	15463.79
644.419	15388.99
644.771	15338.14
645.124	15159.39
645.477	15250.23
645.83	15084.36
646.182	15029
646.535	14859.74
646.888	14967.76
647.24	14895.22
647.593	14999.62
647.945	14915.33
648.298	14863.8
648.65	14844.37
649.002	14777.93
649.355	14972.95
649.707	14932.95
650.059	14941.54
650.411	15129.11
650.763	15135.44
651.115	15391.7
651.467	15202.55
651.819	15175.66
652.171	15205.26
652.523	15187.64
652.875	15126.85
653.227	15080.52
653.578	15183.8
653.93	15203.23
654.282	15110.8
654.633	15010.92
654.985	15128.88
655.337	15143.12
655.688	15242.78
656.039	15297.24
656.391	15102.89
656.742	15171.37
657.094	15182.44
657.445	15273.06
657.796	15203
658.147	15133.63
658.498	15203.91
658.849	15195.32
659.2	15166.17
659.551	15136.11
659.902	15217.69
660.253	15218.37
660.604	15131.59
660.955	15138.37
661.306	15149.9
661.656	15139.28
662.007	15211.14
662.358	15184.7
662.708	15189.67
663.059	15174.3
663.409	15036.68
663.76	15200.07
664.11	15248.65
664.461	15271.25
664.811	15274.41
665.161	15120.52
665.511	15127.53
665.862	15148.32
666.212	15233.74
666.562	15200.74
666.912	15157.36
667.262	15199.39
667.612	15163.01
667.962	15181.08
668.312	15213.85
668.662	15194.19
669.011	15156.23
669.361	15203.91
669.711	15128.88
670.06	15194.42
670.41	15110.13
670.76	15105.15
671.109	15196
671.459	15073.29
671.808	15109.67
672.157	15132.95
672.507	15038.71
672.856	15053.63
673.205	15073.74
673.554	15074.19
673.904	15037.36
674.253	15096.79
674.602	15024.93
674.951	14817.48
675.3	14777.03
675.649	14973.63
675.998	14968.43
676.346	14930.02
676.695	14943.12
677.044	14851.38
677.393	14933.41
677.741	14946.06
678.09	14971.37
678.438	14863.35
678.787	14919.4
679.135	14951.03
679.484	14831.94
679.832	14802.34
680.181	14724.6
680.529	14709.01
680.877	14707.2
681.225	14716.92
681.573	14780.42
681.922	14607.31
682.27	14620.42
682.618	14650.02
682.966	14540.2
683.314	14495.45
683.661	14467.2
684.009	14473.76
684.357	14406.41
684.705	14407.09
685.053	14388.79
685.4	14418.62
685.748	14352.18
686.095	14309.02
686.443	14299.53
686.79	14235.35
687.138	14313.76
687.485	14292.29
687.832	14243.48
688.18	14273.31
688.527	14124.84
688.874	14120.09
689.221	14087.1
689.568	14031.51
689.915	14042.58
690.262	13953.09
690.609	14015.01
690.956	13842.81
691.303	13829.26
691.65	13813.66
691.997	13776.6
692.344	13668.13
692.69	13625.64
693.037	13733.66
693.383	13493.9
693.73	13609.15
694.077	13446.89
694.423	13402.6
694.769	13428.36
695.116	13337.74
695.462	13310.62
695.808	13298.65
696.155	13269.27
696.501	13254.58
696.847	13195.83
697.193	13045.09
697.539	13109.73
697.885	12987.24
698.231	13029.28
698.577	12904.76
698.923	12982.05
699.269	12827.25
699.614	12783.86
699.96	12712.45
700.306	12689.62
700.651	12704.99
700.997	12616.63
701.342	12678.1
701.688	12562.4
702.033	12451.44
702.379	12507.03
702.724	12445.34
703.069	12424.09
703.415	12349.75
703.76	12330.54
704.105	12358.33
704.45	12309.75
704.795	12211.44
705.14	12161.5
705.485	12073.82
705.83	12042.41
706.175	12082.41
706.52	12044.44
706.865	11947.04
707.209	11961.73
707.554	11921.96
707.899	11924.22
708.243	11825.24
708.588	11803.32
708.932	11781.4
709.277	11730.78
709.621	11723.55
709.966	11676.09
710.31	11650.1
710.654	11536.89
710.998	11634.28
711.342	11613.95
711.687	11486.72
712.031	11521.97
712.375	11464.57
712.719	11475.42
713.063	11510.9
713.407	11488.3
713.75	11408.75
714.094	11415.99
714.438	11364.46
714.782	11379.38
715.125	11261.86
715.469	11288.76
715.812	11267.29
716.156	11224.58
716.499	11264.58
716.843	11174.18
717.186	11129.66
717.53	11179.16
717.873	11144.58
718.216	11144.35
718.559	11130.57
718.902	11036.33
719.246	11016
719.589	11012.15
719.932	10921.76
720.275	10975.32
720.617	10863.91
720.96	10924.02
721.303	10894.19
721.646	10964.92
721.989	10904.36
722.331	10921.08
722.674	10862.33
723.016	10862.55
723.359	10894.87
723.701	10919.05
724.044	10841.31
724.386	10803.57
724.729	10827.07
725.071	10756.57
725.413	10779.84
725.755	10777.58
726.097	10794.76
726.439	10721.99
726.782	10752.5
727.124	10768.32
727.465	10691.71
727.807	10691.94
728.149	10627.31
728.491	10678.38
728.833	10656.91
729.175	10679.96
729.516	10636.12
729.858	10714.76
730.199	10618.72
730.541	10711.6
730.882	10585.72
731.224	10716.57
731.565	10586.18
731.906	10603.35
732.248	10569.68
732.589	10540.3
732.93	10545.27
733.271	10589.11
733.612	10562.45
733.953	10638.6
734.294	10526.74
734.635	10539.4
734.976	10611.94
735.317	10559.06
735.658	10591.6
735.999	10560.19
736.339	10572.39
736.68	10621.66
737.021	10529.91
737.361	10523.81
737.702	10610.81
738.042	10608.32
738.383	10534.43
738.723	10611.26
739.063	10594.54
739.404	10595.22
739.744	10610.13
740.084	10611.71
740.424	10597.7
740.764	10573.07
741.104	10660.3
741.444	10546.63
741.784	10578.49
742.124	10697.36
742.464	10738.49
742.804	10661.43
743.143	10664.59
743.483	10736.91
743.823	10669.56
744.162	10724.7
744.502	10764.25
744.841	10721.09
745.181	10780.97
745.52	10749.11
745.86	10881.08
746.199	10931.03
746.538	10926.28
746.877	11008.99
747.216	11072.72
747.556	11064.81
747.895	11060.06
748.234	11137.12
748.573	11142.77
748.911	11209.89
749.25	11251.92
749.589	11294.86
749.928	11397.23
750.267	11504.34
750.605	11504.8
750.944	11646.71
751.283	11674.06
751.621	11807.84
751.96	11842.41
752.298	11925.8
752.636	12026.36
752.975	12145.23
753.313	12111.11
753.651	12290.54
753.989	12357.88
754.327	12454.15
754.666	12576.41
755.004	12707.93
755.342	12893.01
755.679	12997.64
756.017	13019.78
756.355	13198.31
756.693	13261.36
757.031	13498.87
757.368	13522.37
757.706	13616.38
758.044	13807.11
758.381	13987.67
758.719	14229.24
759.056	14390.14
759.394	14478.96
759.731	14577.03
760.068	14751.26
760.405	14878.49
760.743	14998.72
761.08	15304.02
761.417	15411.13
761.754	15441.64
762.091	15629.89
762.428	15863.1
762.765	16002.53
763.102	16120.49
763.438	16315.74
763.775	16356.65
764.112	16572.23
764.449	16693.59
764.785	16863.98
765.122	16897.65
765.458	17091.32
765.795	17280.92
766.131	17429.39
766.467	17553.68
766.804	17634.13
767.14	17769.49
767.476	17964.06
767.812	17977.62
768.148	18223.49
768.485	18232.53
768.821	18327.22
769.157	18496.02
769.492	18534.89
769.828	18631.61
770.164	18710.71
770.5	18776.47
770.836	18952.28
771.171	19025.95
771.507	19105.95
771.842	19086.74
772.178	19322.9
772.513	19357.92
772.849	19353.86
773.184	19459.84
773.519	19611.25
773.855	19595.21
774.19	19560.18
774.525	19703.45
774.86	19758.36
775.195	19806.72
775.53	19872.03
775.865	19859.15
776.2	19949.77
776.535	19776.9
776.87	19926.04
777.205	19924.01
777.539	19916.1
777.874	19985.48
778.209	20002.2
778.543	20007.17
778.878	19951.81
779.212	20070.9
779.547	20051.69
779.881	20157.22
780.215	20073.38
780.55	20216.21
780.884	20157.22
781.218	20098.24
781.552	20139.82
781.886	20052.14
782.22	20068.41
782.554	20094.85
782.888	19916.55
783.222	19962.2
783.556	19997.68
783.889	19943.44
784.223	19787.74
784.557	19822.54
784.89	20022.76
785.224	19881.07
785.557	19887.63
785.891	19838.14
786.224	19815.09
786.558	19827.52
786.891	19649.67
787.224	19679.95
787.557	19703.45
787.891	19750.68
788.224	19637.24
788.557	19772.83
788.89	19608.31
789.223	19679.5
789.556	19545.04
789.888	19511.37
790.221	19528.31
790.554	19324.93
790.887	19465.94
791.219	19342.33
791.552	19249
791.884	19211.71
792.217	19282.67
792.549	19224.82
792.882	19095.78
793.214	19032.28
793.546	18990.02
793.879	19023.02
794.211	18881.1
794.543	19005.84
794.875	18925.62
795.207	19010.59
795.539	18867.77
795.871	18832.97
796.203	18813.76
796.535	18683.82
796.867	18590.03
797.198	18599.75
797.53	18562.24
797.862	18453.99
798.193	18527.89
798.525	18374.22
798.856	18499.64
799.188	18264.84
799.519	18236.6
799.85	18132.87
800.182	18169.93
800.513	18179.2
800.844	18042.48
801.175	18111.85
801.506	18080.44
801.837	18053.1
802.168	17948.47
802.499	17930.84
802.83	17844.97
803.161	17815.82
803.491	17936.72
803.822	17852.43
804.153	17751.86
804.483	17594.58
804.814	17478.65
805.145	17562.26
805.475	17507.58
805.805	17412.21
806.136	17433.45
806.466	17478.2
806.796	17435.49
807.126	17357.3
807.457	17315.04
807.787	17294.7
808.117	17150.98
808.447	17111.43
808.777	17177.42
809.107	17026.46
809.436	17018.32
809.766	17104.42
810.096	16995.27
810.426	16811.78
810.755	16858.55
811.085	16838.89
811.414	16906.24
811.744	16716.64
812.073	16743.3
812.403	16749.86
812.732	16639.58
813.061	16656.98
813.39	16613.14
813.719	16533.14
814.049	16523.87
814.378	16562.74
814.707	16429.19
815.036	16499.47
815.365	16384.67
815.693	16286.59
816.022	16287.04
816.351	16252.24
816.68	16013.38
817.008	16190.77
817.337	16115.07
817.665	15996.2
817.994	16069.87
818.322	16026.03
818.651	15934.74
818.979	15877.34
819.307	15972.93
819.636	15988.52
819.964	15912.82
820.292	15969.09
820.62	15963.89
820.948	15842.31
821.276	15869.43
821.604	15888.41
821.932	15871.46
822.259	15877.79
822.587	15880.5
822.915	15803.89
823.243	15919.82
823.57	15832.14
823.898	15789.88
824.225	15769.32
824.553	15812.93
824.88	15760.28
825.207	15880.27
825.535	15794.63
825.862	15819.03
826.189	15853.38
826.516	15856.32
826.843	15950.1
827.17	15879.82
827.497	15855.42
827.824	15970.67
828.151	15837.11
828.478	15882.08
828.805	15948.3
829.131	15940.39
829.458	15793.05
829.785	15790.79
830.111	15838.24
830.438	15866.94
830.764	15849.77
831.09	15806.83
831.417	15770.22
831.743	15878.01
832.069	15827.39
832.395	15807.06
832.722	15762.76
833.048	15763.89
833.374	15751.01
833.7	15762.76
834.026	15740.84
834.351	15784.46
834.677	15719.6
835.003	15733.39
835.329	15716.66
835.654	15659.94
835.98	15605.93
836.306	15685.93
836.631	15649.55
836.956	15658.81
837.282	15643.67
837.607	15570.23
837.932	15566.61
838.258	15550.79
838.583	15554.18
838.908	15391.25
839.233	15435.54
839.558	15410.23
839.883	15359.38
840.208	15282.78
840.533	15298.37
840.858	15253.62
841.182	15301.98
841.507	15337.69
841.832	15217.24
842.156	15261.53
842.481	15153.74
842.805	15091.37
843.13	15093.18
843.454	15095.44
843.778	14990.13
844.103	14993.29
844.427	14911.26
844.751	14867.87
845.075	14939.06
845.399	14809.57
845.723	14713.3
846.047	14652.96
846.371	14611.83
846.695	14687.09
847.019	14579.97
847.343	14454.1
847.666	14348.11
847.99	14366.42
848.313	14312.86
848.637	14178.4
848.96	14272.18
849.284	14195.35
849.607	14070.38
849.931	14024.5
850.254	13948.12
850.577	13879.65
850.9	13787.45
851.223	13845.75
851.546	13728.47
851.869	13555.82
852.192	13709.26
852.515	13586.78
852.838	13469.26
853.161	13542.93
853.483	13446.89
853.806	13456.61
854.129	13369.61
854.451	13281.25
854.774	13243.73
855.096	13170.29
855.419	13182.04
855.741	13168.03
856.063	13112.44
856.385	13020.01
856.708	13052.1
857.03	12944.53
857.352	13078.77
857.674	12901.14
857.996	12901.82
858.318	12909.05
858.64	12746.35
858.961	12762.62
859.283	12665.22
859.605	12638.33
859.926	12679
860.248	12657.99
860.57	12696.63
860.891	12694.6
861.212	12551.1
861.534	12541.61
861.855	12507.48
862.176	12544.09
862.498	12510.87
862.819	12430.42
863.14	12437.88
863.461	12392.46
863.782	12270.88
864.103	12302.06
864.424	12312.68
864.745	12281.05
865.065	12208.05
865.386	12124.89
865.707	12265
866.027	12184.78
866.348	12162.86
866.668	12209.64
866.989	12082.63
867.309	11987.72
867.63	12089.87
867.95	11975.29
868.27	11965.35
868.59	12065.01
868.91	12054.16
869.23	12006.93
869.55	11926.71
869.87	11986.14
870.19	11960.6
870.51	11917.67
870.83	11853.94
871.15	11880.38
871.469	11775.98
871.789	11911.11
872.109	11782.08
872.428	11742.98
872.748	11750.21
873.067	11658.01
873.386	11764.9
873.706	11736.2
874.025	11610.78
874.344	11611.91
874.663	11688.07
874.982	11575.75
875.301	11631.35
875.62	11600.84
875.939	11587.05
876.258	11491.46
876.577	11526.26
876.896	11459.6
877.214	11444.23
877.533	11444.01
877.852	11450.11
878.17	11456.44
878.489	11405.36
878.807	11410.79
879.125	11394.52
879.444	11365.82
879.762	11317.46
880.08	11374.63
880.398	11197.91
880.716	11293.5
881.034	11297.34
881.352	11205.14
881.67	11246.27
881.988	11211.92
882.306	11125.37
882.624	11116.78
882.941	11058.93
883.259	10996.34
883.577	11022.32
883.894	11049.44
884.212	11052.38
884.529	10950.91
884.846	11016.9
885.164	10951.82
885.481	10887.41
885.798	10977.58
886.115	10879.95
886.432	10839.5
886.75	10791.59
887.067	10784.14
887.383	10758.6
887.7	10787.3
888.017	10688.32
888.334	10740.75
888.651	10703.91
888.967	10677.47
889.284	10557.48
889.6	10540.75
889.917	10397.48
890.233	10522.22
890.55	10427.99
890.866	10416.24
891.182	10428.89
891.498	10391.38
891.815	10356.13
892.131	10340.53
892.447	10292.62
892.763	10185.74
893.079	10194.32
893.395	10197.03
893.71	10164.72
894.026	10111.16
894.342	10184.83
894.657	10001.11
894.973	9997.72
895.289	9968.11
895.604	9992.97
895.92	9866.65
896.235	9818.96
896.55	9848.12
896.865	9829.81
897.181	9802.47
897.496	9789.14
897.811	9823.48
898.126	9731.28
898.441	9679.08
898.756	9672.75
899.071	9558.18
899.386	9592.98
899.7	9488.8
900.015	9479.09
900.33	9475.47
900.644	9436.15
900.959	9465.3
901.273	9349.15
901.588	9319.32
901.902	9275.93
902.216	9223.73
902.531	9160.23
902.845	9181.92
903.159	9114.58
903.473	9078.19
903.787	9089.49
904.101	9080.45
904.415	9043.84
904.729	8971.3
905.042	8865.77
905.356	8937.63
905.67	8886.11
905.984	8867.35
906.297	8806.56
906.611	8743.51
906.924	8799.56
907.237	8715.04
907.551	8689.05
907.864	8657.87
908.177	8595.49
908.491	8580.13
908.804	8514.37
909.117	8496.51
909.43	8367.03
909.743	8352.11
910.056	8365.44
910.368	8386.69
910.681	8322.96
910.994	8280.47
911.307	8307.82
911.619	8204.09
911.932	8272.56
912.244	8162.29
912.557	8125.45
912.869	8073.47
913.181	8073.7
913.494	8037.77
913.806	7972.01
914.118	7979.47
914.43	7950.09
914.742	7910.77
915.054	7871.9
915.366	7874.84
915.678	7758.45
915.99	7698.12
916.302	7618.8
916.613	7664.22
916.925	7640.27
917.236	7646.82
917.548	7614.28
917.859	7643.43
918.171	7519.82
918.482	7441.4
918.794	7482.3
919.105	7399.37
919.416	7401.18
919.727	7373.83
920.038	7382.64
920.349	7346.94
920.66	7282.53
920.971	7262.65
921.282	7235.76
921.593	7179.94
921.903	7169.77
922.214	7196.21
922.525	7106.49
922.835	7120.73
923.146	7014.52
923.456	7022.65
923.767	7045.03
924.077	6944.24
924.387	6970.23
924.697	6911.24
925.008	6866.5
925.318	6898.82
925.628	6799.38
925.938	6837.35
926.248	6724.58
926.558	6756.22
926.867	6805.03
927.177	6735.43
927.487	6628.77
927.796	6620.86
928.106	6570.46
928.416	6665.38
928.725	6547.64
929.034	6519.62
929.344	6464.02
929.653	6511.48
929.962	6465.15
930.271	6398.49
930.581	6392.61
930.89	6360.07
931.199	6338.15
931.508	6318.72
931.817	6291.6
932.125	6258.15
932.434	6271.94
932.743	6191.04
933.051	6190.13
933.36	6192.39
933.669	6136.8
933.977	6133.41
934.286	6105.39
934.594	6091.15
934.902	5959.86
935.21	5930.48
935.519	6010.93
935.827	5971.38
936.135	5944.72
936.443	5894.32
936.751	5903.14
937.059	5810.26
937.367	5820.65
937.674	5811.84
937.982	5821.78
938.29	5769.81
938.597	5736.36
938.905	5699.98
939.213	5637.38
939.52	5588.12
939.827	5644.16
940.135	5597.38
940.442	5571.62
940.749	5553.77
941.056	5541.11
941.363	5487.1
941.67	5439.19
941.977	5436.48
942.284	5426.31
942.591	5428.57
942.898	5347.67
943.205	5336.6
943.511	5332.08
943.818	5363.04
944.125	5299.54
944.431	5299.54
944.738	5278.07
945.044	5249.14
945.35	5188.35
945.657	5212.53
945.963	5133.66
946.269	5109.71
946.575	5139.77
946.881	5072.42
947.187	5053.44
947.493	4996.27
947.799	5016.83
948.105	5012.99
948.41	4945.87
948.716	4966.66
949.022	4953.56
949.327	4929.6
949.633	4870.39
949.938	4923.27
950.244	4846.89
950.549	4834.46
950.854	4830.85
951.16	4831.75
951.465	4763.5
951.77	4775.03
952.075	4752.66
952.38	4686.67
952.685	4731.19
952.99	4659.1
953.294	4648.25
953.599	4613.68
953.904	4608.71
954.209	4579.33
954.513	4563.28
954.818	4565.32
955.122	4509.73
955.426	4522.16
955.731	4465.89
956.035	4481.48
956.339	4475.15
956.643	4405.55
956.948	4403.29
957.252	4364.19
957.556	4401.71
957.86	4368.26
958.163	4358.09
958.467	4340.24
958.771	4320.13
959.075	4283.07
959.378	4280.81
959.682	4275.83
959.985	4244.65
960.289	4218.43
960.592	4213.69
960.896	4165.78
961.199	4191.99
961.502	4175.95
961.805	4172.33
962.108	4137.98
962.411	4107.25
962.714	4122.39
963.017	4051.66
963.32	4021.6
963.623	4019.57
963.926	3994.49
964.228	3993.13
964.531	3924.88
964.833	3939.8
965.136	3909.29
965.438	3928.95
965.741	3886.24
966.043	3882.4
966.345	3865
966.648	3831.1
966.95	3869.97
967.252	3828.16
967.554	3815.96
967.856	3802.85
968.158	3773.47
968.46	3750.88
968.761	3735.51
969.063	3729.86
969.365	3736.87
969.666	3727.6
969.968	3672.23
970.269	3686.24
970.571	3667.26
970.872	3623.65
971.174	3624.78
971.475	3570.32
971.776	3538.9
972.077	3535.06
972.378	3551.11
972.679	3549.3
972.98	3498.23
973.281	3504.33
973.582	3506.81
973.883	3416.87
974.183	3457.55
974.484	3466.14
974.785	3423.43
975.085	3433.82
975.386	3376.87
975.686	3383.88
975.986	3369.64
976.287	3352.24
976.587	3348.17
976.887	3305.92
977.187	3322.41
977.487	3298.01
977.787	3279.7
978.087	3208.07
978.387	3227.5
978.687	3221.17
978.987	3199.93
979.286	3211.91
979.586	3191.79
979.885	3185.47
980.185	3167.16
980.484	3104.79
980.784	3118.12
981.083	3142.3
981.382	3107.73
981.682	3102.31
981.981	3077.9
982.28	3052.14
982.579	3020.73
982.878	3047.17
983.177	3056.43
983.475	3025.7
983.774	3022.53
984.073	2946.15
984.372	2971.91
984.67	2937.11
984.969	2959.26
985.267	2917
985.566	2932.59
985.864	2902.99
986.162	2899.6
986.461	2895.53
986.759	2836.78
987.057	2801.75
987.355	2813.73
987.653	2839.49
987.951	2780.51
988.249	2834.52
988.547	2751.13
988.844	2756.78
989.142	2774.63
989.44	2734.63
989.737	2729.89
990.035	2698.93
990.332	2696.44
990.63	2702.99
990.927	2671.81
991.224	2667.74
991.521	2637.91
991.819	2624.13
992.116	2631.13
992.413	2612.83
992.71	2624.58
993.006	2590.45
993.303	2553.62
993.6	2578.93
993.897	2538.03
994.193	2551.13
994.49	2549.33
994.787	2551.13
995.083	2498.48
995.379	2520.63
995.676	2484.02
995.972	2429.33
996.268	2429.33
996.565	2449.22
996.861	2435.66
997.157	2425.71
997.453	2389.78
997.749	2396.79
998.044	2370.8
998.34	2354.3
998.636	2376.67
998.932	2329.9
999.227	2317.02
999.523	2333.29
999.818	2315.66
1000.114	2283.12
1000.409	2281.31
1000.704	2268.43
1001	2250.8
1001.295	2236.11
1001.59	2233.18
1001.885	2238.6
1002.18	2216.9
1002.475	2176.45
1002.77	2210.35
1003.065	2179.17
1003.359	2148.88
1003.654	2143.46
1003.949	2141.88
1004.243	2108.21
1004.538	2111.6
1004.832	2107.53
1005.127	2119.28
1005.421	2085.83
1005.715	2064.14
1006.009	2080.64
1006.304	2039.28
1006.598	2029.57
1006.892	2033.63
1007.186	1990.47
1007.48	2021.2
1007.773	1995.67
1008.067	1998.83
1008.361	1954.09
1008.655	1945.73
1008.948	1928.1
1009.242	1933.97
1009.535	1898.72
1009.829	1895.33
1010.122	1896.69
1010.415	1900.53
1010.708	1889.91
1011.001	1878.38
1011.295	1875.45
1011.588	1829.12
1011.881	1832.96
1012.173	1813.07
1012.466	1828.67
1012.759	1823.02
1013.052	1799.29
1013.344	1800.42
1013.637	1801.32
1013.93	1754.54
1014.222	1744.38
1014.514	1756.35
1014.807	1762.23
1015.099	1703.92
1015.391	1699.86
1015.683	1697.6
1015.976	1710.93
1016.268	1679.07
1016.56	1653.76
1016.851	1667.54
1017.143	1649.01
1017.435	1623.93
1017.727	1632.97
1018.018	1615.79
1018.31	1627.09
1018.602	1591.16
1018.893	1580.76
1019.185	1574.89
1019.476	1571.05
1019.767	1548.9
1020.058	1528.34
1020.35	1529.69
1020.641	1520.2
1020.932	1523.14
1021.223	1501.22
1021.514	1474.33
1021.804	1478.62
1022.095	1480.88
1022.386	1452.18
1022.677	1468.68
1022.967	1445.17
1023.258	1425.29
1023.548	1425.97
1023.839	1404.05
1024.129	1417.83
1024.419	1384.38
1024.709	1350.71
1025	1369.47
1025.29	1361.79
1025.58	1353.65
1025.87	1374.44
1026.16	1355.01
1026.449	1367.44
1026.739	1323.82
1027.029	1310.26
1027.319	1288.12
1027.608	1320.88
1027.898	1303.48
1028.187	1278.62
1028.477	1276.14
1028.766	1264.84
1029.055	1244.95
1029.344	1235.01
1029.634	1250.15
1029.923	1238.85
1030.212	1225.07
1030.501	1237.5
1030.79	1202.47
1031.078	1199.76
1031.367	1146.42
1031.656	1187.55
1031.945	1195.46
1032.233	1150.04
1032.522	1160.89
1032.81	1147.55
1033.099	1150.04
1033.387	1142.81
1033.675	1138.97
1033.963	1129.48
1034.251	1151.4
1034.54	1114.34
1034.828	1086.77
1035.116	1104.62
1035.403	1089.7
1035.691	1083.6
1035.979	1080.66
1036.267	1066.65
1036.554	1051.06
1036.842	1042.47
1037.129	1030.95
1037.417	1031.17
1037.704	1041.34
1037.992	1035.24
1038.279	1025.07
1038.566	999.08
1038.853	999.08
1039.14	999.08
