Data from hue_270_FLMS001491_00037.txt Node
Date: Tue Feb 07 15:57:07 GMT 2017
User: dcchb
Spectrometer: FLMS00149
Trigger mode: 0
Integration Time (sec): 2.000000E-2
Scans to average: 10
Electric dark correction enabled: true
Nonlinearity correction enabled: false
Boxcar width: 0
XAxis mode: Wavelengths
Number of Pixels in Spectrum: 2048
>>>>>Begin Spectral Data<<<<<
341.393	-23.97
341.776	-23.97
342.16	-23.97
342.543	-63.52
342.927	-73.91
343.31	-55.83
343.693	-81.14
344.077	-86.11
344.46	-64.42
344.843	-33.46
345.226	-40.92
345.61	-25.55
345.993	-23.29
346.376	1.12
346.759	9.93
347.142	25.75
347.525	30.72
347.908	38.18
348.291	100.32
348.674	92.19
349.057	112.53
349.44	104.39
349.823	134.45
350.206	150.72
350.588	186.2
350.971	209.47
351.354	209.92
351.737	223.93
352.119	264.39
352.502	273.43
352.884	271.17
353.267	261.45
353.65	277.94
354.032	279.75
354.414	303.93
354.797	299.19
355.179	300.32
355.562	335.57
355.944	326.53
356.326	315.23
356.709	369.24
357.091	332.18
357.473	330.6
357.855	314.55
358.238	317.04
358.62	325.63
359.002	313.2
359.384	327.66
359.766	333.99
360.148	324.27
360.53	338.73
360.912	322.01
361.294	325.63
361.676	312.07
362.057	333.08
362.439	320.43
362.821	319.07
363.203	320.43
363.584	324.27
363.966	322.69
364.348	321.11
364.729	308.23
365.111	312.07
365.493	312.07
365.874	308.23
366.256	310.49
366.637	306.64
367.019	317.27
367.4	310.03
367.781	301.67
368.163	317.49
368.544	298.51
368.925	292.63
369.306	322.01
369.688	303.71
370.069	315.01
370.45	286.31
370.831	306.19
371.212	309.36
371.593	283.37
371.974	316.59
372.355	297.38
372.736	308
373.117	312.52
373.498	308.9
373.879	296.48
374.26	295.12
374.641	309.36
375.021	298.74
375.402	296.48
375.783	336.7
376.163	325.4
376.544	320.2
376.925	313.42
377.305	327.66
377.686	315.91
378.066	303.93
378.447	317.94
378.827	329.02
379.208	317.94
379.588	322.01
379.968	315.23
380.349	337.15
380.729	326.08
381.109	325.18
381.489	320.43
381.87	316.14
382.25	345.06
382.63	350.03
383.01	330.82
383.39	329.02
383.77	326.3
384.15	340.09
384.53	329.92
384.91	353.65
385.29	343.25
385.67	337.6
386.049	335.12
386.429	330.82
386.809	364.95
387.189	330.82
387.568	354.33
387.948	356.13
388.328	343.71
388.707	352.29
389.087	355.68
389.466	350.26
389.846	331.28
390.225	376.47
390.605	383.25
390.984	361.33
391.363	368.11
391.743	373.54
392.122	369.47
392.501	363.14
392.881	385.51
393.26	361.33
393.639	380.99
394.018	385.96
394.397	358.85
394.776	375.8
395.155	380.31
395.534	404.27
395.913	370.6
396.292	397.49
396.671	384.83
397.05	392.97
397.429	378.73
397.808	400.2
398.186	398.39
398.565	380.09
398.944	401.33
399.323	392.97
399.701	409.24
400.08	397.04
400.458	417.15
400.837	408.56
401.215	391.16
401.594	394.55
401.972	412.86
402.351	410.37
402.729	426.42
403.107	416.92
403.486	428.68
403.864	429.13
404.242	436.36
404.62	432.52
404.999	451.95
405.377	427.32
405.755	446.3
406.133	427.09
406.511	442.01
406.889	450.6
407.267	458.05
407.645	489.01
408.023	448.56
408.401	446.75
408.779	458.05
409.156	477.49
409.534	470.03
409.912	509.8
410.29	500.99
410.667	503.25
411.045	501.44
411.422	490.37
411.8	518.16
412.178	529.69
412.555	548.67
412.933	538.5
413.31	547.99
413.687	541.89
414.065	566.07
414.442	544.6
414.819	548.9
415.197	553.87
415.574	558.39
415.951	578.05
416.328	597.71
416.705	578.5
417.082	620.76
417.46	597.48
417.837	604.04
418.214	597.71
418.591	623.25
418.967	643.36
419.344	650.59
419.721	646.52
420.098	658.5
420.475	659.63
420.852	679.29
421.228	663.92
421.605	680.87
421.982	694.2
422.358	719.97
422.735	736.46
423.111	710.25
423.488	726.29
423.864	749.57
424.241	744.6
424.617	760.64
424.994	766.29
425.37	783.92
425.746	798.38
426.123	797.93
426.499	791.83
426.875	810.36
427.251	836.12
427.627	857.36
428.003	841.32
428.379	867.08
428.756	860.98
429.132	868.89
429.507	865.5
429.883	884.93
430.259	905.27
430.635	924.26
431.011	918.83
431.387	936.23
431.763	958.6
432.138	951.37
432.514	959.96
432.89	968.1
433.265	991.15
433.641	1020.07
434.016	1036.12
434.392	1049.45
434.767	1066.85
435.143	1065.95
435.518	1100.3
435.894	1114.08
436.269	1106.62
436.644	1110.24
437.02	1156.57
437.395	1163.8
437.77	1168.99
438.145	1195.43
438.52	1205.6
438.895	1206.73
439.271	1226.17
439.646	1269.33
440.021	1260.52
440.395	1293.96
440.77	1269.78
441.145	1278.6
441.52	1323.34
441.895	1321.99
442.27	1348.88
442.645	1331.48
443.019	1337.58
443.394	1373.51
443.769	1384.13
444.143	1400.4
444.518	1405.6
444.892	1397.46
445.267	1425.94
445.641	1448.31
446.016	1449.44
446.39	1477.46
446.764	1469.1
447.139	1444.69
447.513	1463
447.887	1480.62
448.262	1496.44
448.636	1524.92
449.01	1525.82
449.384	1521.75
449.758	1513.17
450.132	1561.75
450.506	1543.22
450.88	1586.84
451.254	1570.79
451.628	1590.23
452.002	1573.05
452.376	1605.37
452.75	1626.16
453.123	1639.94
453.497	1635.42
453.871	1634.52
454.244	1692.14
454.618	1718.36
454.992	1701.18
455.365	1730.79
455.739	1765.82
456.112	1758.36
456.486	1811.69
456.859	1780.28
457.232	1815.98
457.606	1822.76
457.979	1838.58
458.352	1883.55
458.725	1880.39
459.099	1868.41
459.472	1938.47
459.845	1957.45
460.218	1969.43
460.591	1968.97
460.964	1985.24
461.337	2049.2
461.71	2030.44
462.083	2043.1
462.456	2048.52
462.829	2060.72
463.201	2076.99
463.574	2109.53
463.947	2101.17
464.32	2153.83
464.692	2184.34
465.065	2192.02
465.438	2218.01
465.81	2190.44
466.183	2261.17
466.555	2285.35
466.928	2310.66
467.3	2274.73
467.672	2328.29
468.045	2346.82
468.417	2402.41
468.789	2418.23
469.161	2427.27
469.534	2467.04
469.906	2517.89
470.278	2499.36
470.65	2538
471.022	2592.01
471.394	2603.31
471.766	2643.98
472.138	2698.45
472.51	2721.27
472.882	2734.15
473.253	2751.1
473.625	2753.81
473.997	2833.58
474.369	2849.63
474.74	2899.34
475.112	2908.38
475.484	2975.27
475.855	2993.35
476.227	3048.49
476.598	3072.22
476.97	3088.27
477.341	3161.94
477.713	3193.12
478.084	3224.99
478.455	3261.6
478.827	3294.81
479.198	3373.91
479.569	3379.78
479.94	3470.4
480.311	3472.21
480.682	3504.98
481.053	3595.6
481.424	3674.69
481.795	3629.72
482.166	3710.17
482.537	3746.33
482.908	3837.63
483.279	3835.59
483.65	3911.3
484.021	3920.33
484.391	3981.35
484.762	3990.16
485.133	4033.33
485.503	4078.97
485.874	4177.28
486.244	4216.15
486.615	4242.36
486.985	4292.75
487.356	4340.44
487.726	4338.18
488.097	4401.45
488.467	4438.06
488.837	4526.87
489.207	4578.4
489.578	4643.48
489.948	4642.12
490.318	4688.9
490.688	4713.76
491.058	4757.83
491.428	4845.73
491.798	4883.93
492.168	4904.72
492.538	4956.92
492.908	4949.23
493.278	4990.59
493.648	5019.06
494.017	5090.93
494.387	5141.77
494.757	5125.05
495.126	5239.4
495.496	5147.42
495.866	5243.69
496.235	5282.78
496.605	5272.16
496.974	5309.9
497.344	5391.71
497.713	5349.68
498.082	5395.1
498.452	5420.63
498.821	5431.93
499.19	5464.7
499.559	5540.18
499.928	5531.82
500.298	5563.68
500.667	5612.04
501.036	5591.48
501.405	5647.75
501.774	5649.33
502.143	5749.21
502.512	5699.5
502.88	5740.63
503.249	5723
503.618	5780.4
503.987	5788.08
504.356	5803.22
504.724	5802.77
505.093	5819.27
505.462	5845.71
505.83	5831.47
506.199	5923.22
506.567	5945.59
506.936	5911.69
507.304	5934.29
507.672	5973.84
508.041	5940.62
508.409	6003.44
508.777	6038.25
509.145	6055.87
509.514	6083.44
509.882	6066.04
510.25	6106.04
510.618	6124.8
510.986	6102.42
511.354	6173.83
511.722	6196.43
512.09	6242.99
512.458	6165.47
512.826	6224.23
513.193	6219.94
513.561	6237.56
513.929	6273.49
514.297	6312.14
514.664	6324.34
515.032	6324.11
515.4	6345.36
515.767	6316.88
516.135	6365.02
516.502	6264.68
516.869	6425.81
517.237	6378.58
517.604	6327.96
517.972	6396.43
518.339	6447.27
518.706	6419.03
519.073	6398.24
519.44	6422.42
519.808	6455.64
520.175	6397.56
520.542	6535.18
520.909	6490.89
521.276	6552.13
521.643	6566.82
522.009	6540.38
522.376	6550.77
522.743	6592.81
523.11	6650.21
523.477	6667.16
523.843	6675.74
524.21	6742.63
524.577	6732.69
524.943	6719.36
525.31	6746.48
525.676	6802.97
526.043	6729.3
526.409	6739.7
526.776	6842.52
527.142	6798.45
527.508	6769.53
527.874	6886.13
528.241	6926.13
528.607	6969.52
528.973	6914.61
529.339	6901.95
529.705	6963.42
530.071	7006.13
530.437	6979.24
530.803	7037.77
531.169	7088.16
531.535	6975.4
531.901	7007.03
532.267	7081.16
532.632	7019.01
532.998	7042.29
533.364	7105.56
533.73	7096.52
534.095	7066.47
534.461	7093.58
534.826	7124.54
535.192	7133.36
535.557	7132
535.923	7146.24
536.288	7111.44
536.653	7079.8
537.019	7096.75
537.384	7158.44
537.749	7155.28
538.114	7126.35
538.479	7172.68
538.845	7230.3
539.21	7133.58
539.575	7153.02
539.94	7129.29
540.305	7200.93
540.67	7256.97
541.034	7207.93
541.399	7201.6
541.764	7174.71
542.129	7175.16
542.494	7185.11
542.858	7251.77
543.223	7210.64
543.587	7235.95
543.952	7214.26
544.316	7256.07
544.681	7249.29
545.045	7216.29
545.41	7258.1
545.774	7268.04
546.138	7233.47
546.503	7287.7
546.867	7314.14
547.231	7293.35
547.595	7307.59
547.959	7284.09
548.324	7292
548.688	7292
549.052	7334.03
549.416	7292.68
549.779	7294.26
550.143	7318.44
550.507	7341.49
550.871	7322.05
551.235	7286.35
551.599	7311.21
551.962	7335.84
552.326	7347.36
552.689	7390.75
553.053	7321.15
553.417	7362.73
553.78	7457.19
554.143	7338.55
554.507	7415.61
554.87	7386.91
555.234	7389.4
555.597	7363.86
555.96	7456.74
556.323	7481.82
556.686	7424.2
557.05	7454.48
557.413	7491.09
557.776	7493.57
558.139	7561.14
558.502	7530.18
558.865	7543.52
559.228	7600.24
559.59	7569.5
559.953	7602.72
560.316	7628.71
560.679	7592.1
561.041	7641.14
561.404	7667.13
561.767	7727.69
562.129	7731.99
562.492	7801.36
562.854	7804.75
563.217	7764.08
563.579	7796.62
563.941	7834.58
564.304	7793.45
564.666	7849.5
565.028	7874.13
565.39	7939.44
565.753	7991.41
566.115	7926.11
566.477	8012.66
566.839	7967.91
567.201	8033.45
567.563	8055.37
567.925	8088.81
568.287	8121.81
568.648	8136.72
569.01	8123.16
569.372	8181.92
569.734	8168.36
570.095	8244.74
570.457	8267.79
570.819	8253.55
571.18	8286.77
571.542	8281.12
571.903	8356.38
572.265	8312.54
572.626	8355.47
572.987	8462.36
573.349	8368.13
573.71	8453.55
574.071	8451.74
574.432	8504.17
574.794	8544.85
575.155	8603.38
575.516	8536.48
575.877	8629.59
576.238	8550.95
576.599	8671.85
576.96	8648.35
577.32	8701.68
577.681	8750.04
578.042	8783.48
578.403	8762.24
578.763	8770.6
579.124	8854.89
579.485	8834.33
579.845	8951.39
580.206	8886.08
580.566	8924.72
580.927	8917.49
581.287	9041.56
581.648	9013.99
582.008	9110.93
582.368	9042.46
582.728	9099.86
583.089	9079.3
583.449	9157.49
583.809	9181.44
584.169	9156.81
584.529	9188.67
584.889	9287.2
585.249	9274.09
585.609	9254.43
585.969	9362
586.329	9324.94
586.688	9354.99
587.048	9447.42
587.408	9379.85
587.768	9426.18
588.127	9437.03
588.487	9444.71
588.846	9527.42
589.206	9541.88
589.565	9479.74
589.925	9547.76
590.284	9601.09
590.643	9598.38
591.003	9591.15
591.362	9665.49
591.721	9658.26
592.08	9748.2
592.44	9744.81
592.799	9716.79
593.158	9780.29
593.517	9809.22
593.876	9842.21
594.235	9765.83
594.593	9801.99
594.952	9871.36
595.311	9847.18
595.67	9917.24
596.029	9920.63
596.387	9975.99
596.746	9978.03
597.104	9952.27
597.463	9923.11
597.822	9952.72
598.18	10000.17
598.538	9967.86
598.897	10055.77
599.255	9942.1
599.613	10132.83
599.972	10057.35
600.33	10092.15
600.688	10083.56
601.046	10088.31
601.404	10148.65
601.762	10162.66
602.12	10137.12
602.478	10172.37
602.836	10271.58
603.194	10188.64
603.552	10194.97
603.91	10206.72
604.268	10241.52
604.625	10226.38
604.983	10269.55
605.341	10260.96
605.698	10249.66
606.056	10290.79
606.413	10307.96
606.771	10341.86
607.128	10354.74
607.485	10245.14
607.843	10296.89
608.2	10390.67
608.557	10423.67
608.914	10380.96
609.272	10449.88
609.629	10386.61
609.986	10425.47
610.343	10358.81
610.7	10484.23
611.057	10467.51
611.414	10468.86
611.771	10487.17
612.127	10542.99
612.484	10587.96
612.841	10552.48
613.198	10531.23
613.554	10485.36
613.911	10615.3
614.267	10565.13
614.624	10561.06
614.98	10635.41
615.337	10623.89
615.693	10599.26
616.05	10596.09
616.406	10719.25
616.762	10597.67
617.118	10608.97
617.475	10625.7
617.831	10703.21
618.187	10708.63
618.543	10729.65
618.899	10847.61
619.255	10771.45
619.611	10716.31
619.967	10679.48
620.323	10804.45
620.678	10695.98
621.034	10732.81
621.39	10669.54
621.746	10688.52
622.101	10844.45
622.457	10741.62
622.812	10746.6
623.168	10788.85
623.523	10797.22
623.879	10834.96
624.234	10759.03
624.589	10799.93
624.945	10781.85
625.3	10829.98
625.655	10756.09
626.01	10716.77
626.365	10861.62
626.72	10757.44
627.075	10765.35
627.43	10760.61
627.785	10714.28
628.14	10738.69
628.495	10786.14
628.85	10803.32
629.205	10653.49
629.559	10828.85
629.914	10697.11
630.269	10712.25
630.623	10706.37
630.978	10662.76
631.332	10764
631.687	10738.91
632.041	10625.7
632.396	10729.2
632.75	10721.29
633.104	10707.5
633.459	10656.88
633.813	10557.9
634.167	10594.06
634.521	10594.06
634.875	10607.39
635.229	10530.56
635.583	10658.46
635.937	10539.82
636.291	10558.13
636.645	10566.04
636.999	10521.97
637.352	10543.21
637.706	10440.84
638.06	10509.54
638.413	10462.08
638.767	10388.41
639.121	10473.61
639.474	10429.09
639.828	10406.49
640.181	10388.41
640.534	10415.98
640.888	10332.82
641.241	10345.93
641.594	10358.81
641.947	10347.28
642.301	10298.92
642.654	10463.21
643.007	10375.98
643.36	10281.98
643.713	10267.51
644.066	10397
644.419	10267.96
644.771	10220.51
645.124	10173.73
645.477	10208.98
645.83	10037.91
646.182	9957.92
646.535	10025.48
646.888	10020.74
647.24	9964.02
647.593	9962.66
647.945	9978.71
648.298	9919.73
648.65	9961.31
649.002	9902.55
649.355	9945.71
649.707	9970.35
650.059	9997.01
650.411	10097.8
650.763	10144.13
651.115	10230.9
651.467	10192.71
651.819	10247.63
652.171	10165.59
652.523	10193.62
652.875	10133.5
653.227	10123.79
653.578	10176.89
653.93	10151.36
654.282	10142.54
654.633	10131.7
654.985	10175.31
655.337	10196.33
655.688	10220.28
656.039	10191.36
656.391	10136.67
656.742	10147.74
657.094	10142.77
657.445	10173.28
657.796	10126.27
658.147	10133.73
658.498	10155.88
658.849	10152.71
659.2	10142.54
659.551	10138.48
659.902	10190.23
660.253	10123.11
660.604	10137.35
660.955	10132.37
661.306	10179.15
661.656	10140.06
662.007	10093.96
662.358	10173.28
662.708	10133.96
663.059	10187.74
663.409	10066.61
663.76	10173.05
664.11	10132.6
664.461	10163.11
664.811	10169.89
665.161	10208.98
665.511	10197.46
665.862	10136.67
666.212	10179.83
666.562	10207.4
666.912	10241.3
667.262	10200.62
667.612	10212.15
667.962	10218.02
668.312	10150
668.662	10205.82
669.011	10161.07
669.361	10084.69
669.711	10125.37
670.06	10071.59
670.41	10117.91
670.76	10051.47
671.109	10182.32
671.459	10121.53
671.808	10091.02
672.157	10127.4
672.507	10005.6
672.856	10089.66
673.205	10043.56
673.554	10089.89
673.904	10064.58
674.253	10044.92
674.602	10047.41
674.951	9888.54
675.3	9927.18
675.649	10033.85
675.998	9933.28
676.346	10021.42
676.695	10043.11
677.044	9943
677.393	10002.43
677.741	9994.75
678.09	9992.27
678.438	9915.43
678.787	9992.49
679.135	9947.29
679.484	9868.43
679.832	9931.25
680.181	9878.82
680.529	9907.07
680.877	9889.67
681.225	9910.01
681.573	9871.14
681.922	9786.4
682.27	9777.81
682.618	9778.94
682.966	9725.61
683.314	9744.81
683.661	9782.33
684.009	9646.96
684.357	9705.72
684.705	9641.54
685.053	9665.72
685.4	9668.43
685.748	9624.59
686.095	9589.56
686.443	9550.02
686.79	9539.4
687.138	9582.11
687.485	9609.9
687.832	9483.35
688.18	9490.13
688.527	9426.18
688.874	9504.37
689.221	9363.13
689.568	9272.28
689.915	9340.53
690.262	9283.81
690.609	9207.65
690.956	9200.2
691.303	9263.7
691.65	9112.97
691.997	9171.95
692.344	9136.69
692.69	9113.19
693.037	9095.11
693.383	9044.49
693.73	9044.95
694.077	8907.32
694.423	8931.95
694.769	8939.64
695.116	8932.41
695.462	8895.57
695.808	8843.37
696.155	8839.75
696.501	8856.48
696.847	8817.38
697.193	8765.63
697.539	8745.29
697.885	8656.71
698.231	8639.76
698.577	8722.24
698.923	8638.63
699.269	8631.4
699.614	8576.26
699.96	8516.37
700.306	8452.87
700.651	8419.65
700.997	8408.35
701.342	8360.9
701.688	8390.95
702.033	8393.44
702.379	8304.85
702.724	8329.94
703.069	8297.39
703.415	8248.81
703.76	8237.06
704.105	8300.56
704.45	8207.45
704.795	8196.83
705.14	8191.41
705.485	8187.57
705.83	8128.81
706.175	8100.56
706.52	8081.58
706.865	8038.87
707.209	7978.99
707.554	8019.89
707.899	8024.18
708.243	7967.91
708.588	7915.71
708.932	7825.09
709.277	7899.21
709.621	7832.1
709.966	7816.73
710.31	7769.27
710.654	7757.75
710.998	7713.23
711.342	7697.18
711.687	7788.71
712.031	7749.16
712.375	7630.97
712.719	7714.36
713.063	7681.14
713.407	7657.41
713.75	7629.16
714.094	7712.55
714.438	7639.56
714.782	7596.62
715.125	7590.07
715.469	7621.25
715.812	7515.49
716.156	7529.51
716.499	7536.28
716.843	7527.02
717.186	7507.59
717.53	7488.38
717.873	7467.59
718.216	7455.84
718.559	7418.1
718.902	7411.54
719.246	7451.32
719.589	7386.68
719.932	7360.92
720.275	7346.46
720.617	7360.92
720.96	7355.95
721.303	7372.22
721.646	7369.51
721.989	7346.01
722.331	7329.51
722.674	7325.44
723.016	7319.79
723.359	7320.7
723.701	7287.48
724.044	7244.99
724.386	7205.45
724.729	7306.69
725.071	7238.67
725.413	7252
725.755	7261.04
726.097	7225.78
726.439	7165.9
726.782	7182.62
727.124	7249.74
727.465	7200.25
727.807	7192.57
728.149	7203.86
728.491	7218.78
728.833	7194.37
729.175	7186.24
729.516	7176.75
729.858	7112.34
730.199	7147.14
730.541	7147.82
730.882	7111.44
731.224	7159.12
731.565	7162.96
731.906	7150.98
732.248	7179.68
732.589	7088.16
732.93	7134.26
733.271	7121.61
733.612	7112.79
733.953	7121.83
734.294	7094.26
734.635	7160.02
734.976	7164.09
735.317	7103.08
735.658	7143.98
735.999	7113.02
736.339	7091.32
736.68	7146.01
737.021	7094.49
737.361	7102.85
737.702	7191.44
738.042	7103.53
738.383	7174.94
738.723	7203.19
739.063	7107.37
739.404	7179.23
739.744	7186.92
740.084	7156.18
740.424	7205.67
740.764	7174.26
741.104	7274.6
741.444	7198.21
741.784	7096.07
742.124	7257.87
742.464	7215.84
742.804	7207.71
743.143	7251.09
743.483	7329.06
743.823	7268.04
744.162	7319.79
744.502	7347.14
744.841	7338.78
745.181	7435.5
745.52	7365.67
745.86	7393.46
746.199	7427.14
746.538	7482.95
746.877	7541.71
747.216	7563.18
747.556	7544.19
747.895	7609.05
748.234	7698.31
748.573	7698.77
748.911	7769.5
749.25	7808.14
749.589	7871.42
749.928	7863.73
750.267	7941.47
750.605	7959.55
750.944	8109.38
751.283	8098.53
751.621	8195.93
751.96	8255.59
752.298	8329.03
752.636	8384.85
752.975	8437.28
753.313	8544.85
753.651	8656.26
753.989	8709.59
754.327	8798.4
754.666	8840.43
755.004	8984.38
755.342	9124.72
755.679	9206.98
756.017	9399.06
756.355	9460.53
756.693	9544.59
757.031	9733.52
757.368	9798.37
757.706	9903.91
758.044	10039.5
758.381	10237.68
758.719	10296.44
759.056	10393.84
759.394	10623.21
759.731	10710.66
760.068	10795.18
760.405	11022.97
760.743	11088.28
761.08	11278.56
761.417	11435.39
761.754	11534.6
762.091	11813.23
762.428	11860.92
762.765	12005.09
763.102	12177.29
763.438	12320.34
763.775	12431.3
764.112	12612.08
764.449	12796.03
764.785	12930.04
765.122	13015.24
765.458	13117.83
765.795	13296.81
766.131	13462.91
766.467	13515.11
766.804	13729.79
767.14	13795.56
767.476	13985.61
767.812	14000.75
768.148	14271.93
768.485	14359.16
768.821	14402.55
769.157	14566.16
769.492	14784.68
769.828	14875.3
770.164	14873.27
770.5	15025.35
770.836	15123.88
771.171	15214.95
771.507	15271
771.842	15292.01
772.178	15447.49
772.513	15526.81
772.849	15573.81
773.184	15767.48
773.519	15842.06
773.855	15839.12
774.19	15910.98
774.525	15974.71
774.86	16150.52
775.195	16177.41
775.53	16197.07
775.865	16216.28
776.2	16244.98
776.535	16307.81
776.87	16385.77
777.205	16339.44
777.539	16344.64
777.874	16515.03
778.209	16430.29
778.543	16564.97
778.878	16451.76
779.212	16503.51
779.547	16480.68
779.881	16665.31
780.215	16650.62
780.55	16700.56
780.884	16749.6
781.218	16710.05
781.552	16731.07
781.886	16724.74
782.22	16773.78
782.554	16702.6
782.888	16638.64
783.222	16644.75
783.556	16673.67
783.889	16664.41
784.223	16570.85
784.557	16651.3
784.89	16690.39
785.224	16692.88
785.557	16654.46
785.891	16672.77
786.224	16562.71
786.558	16600.23
786.891	16569.27
787.224	16497.41
787.557	16480.68
787.891	16548.93
788.224	16575.6
788.557	16580.57
788.89	16553
789.223	16555.93
789.556	16415.37
789.888	16420.8
790.221	16393.91
790.554	16280.91
790.887	16334.92
791.219	16355.26
791.552	16268.71
791.884	16248.37
792.217	16252.89
792.549	16195.72
792.882	16118.88
793.214	16021.71
793.546	16090.41
793.879	16034.82
794.211	15959.34
794.543	16072.56
794.875	16039.56
795.207	16179.9
795.539	16032.11
795.871	16082.27
796.203	15843.19
796.535	15780.14
796.867	15784.2
797.198	15846.57
797.53	15833.02
797.862	15864.2
798.193	15753.24
798.525	15673.92
798.856	15696.3
799.188	15506.24
799.519	15553.25
799.85	15505.79
800.182	15513.93
800.513	15452.91
800.844	15331.11
801.175	15545.79
801.506	15487.04
801.837	15415.85
802.168	15400.03
802.499	15335.18
802.83	15270.77
803.161	15184.45
803.491	15231.22
803.822	15284.78
804.153	15099.02
804.483	14990.1
804.814	14930.67
805.145	15013.38
805.475	14972.93
805.805	14833.95
806.136	14971.12
806.466	14936.77
806.796	14841.63
807.126	14707.17
807.457	14729.09
807.787	14763.89
808.117	14767.28
808.447	14625.82
808.777	14653.84
809.107	14677.79
809.436	14586.04
809.766	14668.07
810.096	14521.64
810.426	14502.66
810.755	14492.26
811.085	14532.94
811.414	14533.84
811.744	14381.3
812.073	14376.33
812.403	14318.48
812.732	14227.86
813.061	14279.38
813.39	14151.25
813.719	14199.84
814.049	14273.51
814.378	14124.36
814.707	14127.3
815.036	14137.47
815.365	13997.81
815.693	13867.42
816.022	13992.61
816.351	13910.58
816.68	13915.55
817.008	13949.68
817.337	13819.51
817.665	13818.15
817.994	13846.85
818.322	13772.28
818.651	13700.42
818.979	13702.45
819.307	13800.07
819.636	13752.17
819.964	13666.29
820.292	13711.94
820.62	13697.7
820.948	13607.76
821.276	13638.05
821.604	13683.02
821.932	13570.48
822.259	13675.11
822.587	13686.41
822.915	13564.37
823.243	13641.44
823.57	13626.29
823.898	13636.92
824.225	13628.1
824.553	13647.76
824.88	13555.11
825.207	13722.79
825.535	13596.69
825.862	13729.57
826.189	13607.99
826.516	13728.66
826.843	13697.03
827.17	13761.88
827.497	13773.64
827.824	13701.55
828.151	13744.03
828.478	13816.35
828.805	13730.92
829.131	13668.55
829.458	13788.55
829.785	13575.45
830.111	13635.11
830.438	13744.48
830.764	13715.78
831.09	13760.3
831.417	13633.75
831.743	13795.1
832.069	13703.13
832.395	13575
832.722	13685.5
833.048	13619.06
833.374	13582.91
833.7	13612.28
834.026	13588.33
834.351	13628.78
834.677	13516.24
835.003	13534.09
835.329	13611.61
835.654	13546.52
835.98	13509.24
836.306	13454.1
836.631	13468.33
836.956	13497.03
837.282	13485.28
837.607	13389.24
837.932	13267.66
838.258	13394.89
838.583	13295.91
838.908	13248.23
839.233	13236.93
839.558	13220.88
839.883	13229.24
840.208	13175.68
840.533	13214.78
840.858	13235.34
841.182	13213.65
841.507	13209.81
841.832	13093.2
842.156	13092.97
842.481	13172.07
842.805	13073.09
843.13	13008.91
843.454	13002.81
843.778	12990.83
844.103	12909.02
844.427	12928.46
844.751	12829.48
845.075	12812.98
845.399	12859.31
845.723	12778.63
846.047	12770.27
846.371	12694.12
846.695	12684.85
847.019	12582.71
847.343	12522.82
847.666	12414.8
847.99	12456.83
848.313	12340
848.637	12343.62
848.96	12242.15
849.284	12255.48
849.607	12254.35
849.931	12200.12
850.254	12026.34
850.577	12017.52
850.9	12005.09
851.223	11913.8
851.546	11807.81
851.869	11779.11
852.192	11829.51
852.515	11759.68
852.838	11770.3
853.161	11679.9
853.483	11611.21
853.806	11535.28
854.129	11495.28
854.451	11551.32
854.774	11456.63
855.096	11425
855.419	11382.06
855.741	11357.65
856.063	11254.38
856.385	11328.05
856.708	11279.46
857.03	11256.19
857.352	11185.23
857.674	11173.93
857.996	11144.33
858.318	11063.65
858.64	11099.81
858.961	11010.77
859.283	10929.64
859.605	10946.82
859.926	11036.31
860.248	10939.81
860.57	10879.93
860.891	10934.84
861.212	10827.5
861.534	10899.81
861.855	10782.53
862.176	10822.98
862.498	10815.29
862.819	10751.34
863.14	10703.66
863.461	10757.44
863.782	10651.01
864.103	10654.62
864.424	10623.44
864.745	10628.63
865.065	10606.49
865.386	10544.34
865.707	10522.65
866.027	10594.74
866.348	10566.26
866.668	10502.99
866.989	10490.78
867.309	10355.65
867.63	10427.28
867.95	10441.97
868.27	10393.16
868.59	10403.33
868.91	10371.24
869.23	10337.34
869.55	10295.31
869.87	10360.84
870.19	10351.35
870.51	10347.74
870.83	10275.87
871.15	10235.87
871.469	10252.6
871.789	10267.06
872.109	10249.43
872.428	10149.78
872.748	10197.01
873.067	10185.03
873.386	10155.43
873.706	10175.31
874.025	10040.4
874.344	10065.71
874.663	10105.71
874.982	10116.78
875.301	10134.86
875.62	9982.55
875.939	9987.75
876.258	10037.91
876.577	9978.48
876.896	9998.82
877.214	9937.8
877.533	10004.24
877.852	9918.37
878.17	9887.86
878.489	9943.91
878.807	9914.53
879.125	9856.9
879.444	9829.56
879.762	9891.25
880.08	9820.52
880.398	9797.47
880.716	9872.27
881.034	9772.38
881.352	9818.71
881.67	9652.61
881.988	9729.45
882.306	9727.19
882.624	9637.92
882.941	9661.88
883.259	9599.51
883.577	9556.8
883.894	9636.12
884.212	9605.83
884.529	9540.07
884.846	9456.46
885.164	9544.82
885.481	9402.45
885.798	9480.19
886.115	9387.08
886.432	9389.57
886.75	9437.25
887.067	9411.49
887.383	9253.08
887.7	9311.38
888.017	9240.65
888.334	9288.33
888.651	9263.02
888.967	9222.34
889.284	9181.89
889.6	9150.71
889.917	9095.11
890.233	9109.12
890.55	9044.49
890.866	9010.82
891.182	8986.42
891.498	8993.65
891.815	8911.62
892.131	8932.18
892.447	8907.55
892.763	8865.97
893.079	8834.1
893.395	8847.44
893.71	8841.34
894.026	8804.27
894.342	8714.78
894.657	8708.68
894.973	8691.73
895.289	8723.37
895.604	8679.53
895.92	8569.93
896.235	8579.42
896.55	8598.86
896.865	8509.82
897.181	8543.04
897.496	8504.17
897.811	8423.95
898.126	8366.09
898.441	8333.55
898.756	8413.55
899.071	8283.16
899.386	8288.81
899.7	8213.56
900.015	8170.62
900.33	8202.71
900.644	8130.62
900.959	8163.39
901.273	8123.39
901.588	8047.46
901.902	7988.02
902.216	7995.71
902.531	8018.08
902.845	7947.12
903.159	7880.23
903.473	7921.36
903.787	7810.85
904.101	7802.94
904.415	7743.74
904.729	7692.44
905.042	7673.68
905.356	7685.89
905.67	7737.18
905.984	7650.18
906.297	7586.68
906.611	7491.54
906.924	7624.19
907.237	7539
907.551	7523.63
907.864	7452.45
908.177	7436.4
908.491	7454.25
908.804	7373.35
909.117	7284.99
909.43	7321.38
909.743	7248.38
910.056	7276.4
910.368	7210.19
910.681	7226.69
910.994	7222.85
911.307	7124.77
911.619	7172.23
911.932	7065.11
912.244	7046.13
912.557	7021.72
912.869	7023.53
913.181	6969.97
913.494	6908.96
913.806	6941.5
914.118	6899.47
914.43	6868.51
914.742	6802.07
915.054	6789.86
915.366	6797.32
915.678	6789.41
915.99	6696.76
916.302	6664.22
916.613	6665.8
916.925	6637.55
917.236	6640.26
917.548	6520.49
917.859	6573.15
918.171	6487.5
918.482	6494.96
918.794	6452.25
919.105	6478.46
919.416	6449.99
919.727	6381.29
920.038	6371.12
920.349	6409.53
920.66	6321.4
920.971	6285.02
921.282	6290.67
921.593	6221.52
921.903	6209.31
922.214	6163.67
922.525	6150.78
922.835	6158.47
923.146	6149.2
923.456	6123.89
923.767	6110.56
924.077	6063.56
924.387	6024.91
924.697	5986.95
925.008	5993.5
925.318	5975.65
925.628	5939.04
925.938	5947.4
926.248	5850.91
926.558	5847.52
926.867	5855.43
927.177	5812.94
927.487	5798.48
927.796	5756.44
928.106	5762.55
928.416	5697.01
928.725	5742.43
929.034	5620.63
929.344	5685.03
929.653	5645.26
929.962	5571.36
930.271	5535.43
930.581	5541.99
930.89	5535.89
931.199	5512.61
931.508	5515.1
931.817	5488.2
932.125	5437.58
932.434	5406.85
932.743	5393.29
933.051	5324.59
933.36	5375.89
933.669	5318.94
933.977	5283.01
934.286	5261.54
934.594	5268.55
934.902	5212.28
935.21	5179.74
935.519	5169.57
935.827	5207.08
936.135	5149
936.443	5137.03
936.751	5137.93
937.059	5097.7
937.367	5080.76
937.674	5039.63
937.982	5028.33
938.29	5040.98
938.597	4999.4
938.905	4952.62
939.213	4937.48
939.52	4903.81
939.827	4948.56
940.135	4875.11
940.442	4864.72
940.749	4818.39
941.056	4844.15
941.363	4815
941.67	4784.27
941.977	4756.47
942.284	4723.03
942.591	4735.45
942.898	4713.53
943.205	4671.5
943.511	4688.22
943.818	4661.33
944.125	4601.67
944.431	4593.99
944.738	4546.08
945.044	4512.41
945.35	4530.04
945.657	4521.67
945.963	4465.86
946.269	4428.12
946.575	4442.81
946.881	4465.41
947.187	4418.63
947.493	4398.06
947.799	4331.4
948.105	4370.04
948.41	4320.55
948.716	4363.71
949.022	4332.75
949.327	4318.06
949.633	4256.6
949.938	4270.61
950.244	4271.74
950.549	4196.71
950.854	4178.63
951.16	4193.1
951.465	4147.22
951.77	4121.23
952.075	4114
952.38	4082.14
952.685	4097.05
952.99	4009.6
953.294	4051.18
953.599	4026.09
953.904	4009.37
954.209	4022.03
954.513	3965.76
954.818	3933.22
955.122	3973.44
955.426	3944.06
955.731	3910.62
956.035	3878.08
956.339	3874.23
956.643	3868.58
956.948	3808.93
957.252	3860
957.556	3833.78
957.86	3804.18
958.163	3793.56
958.467	3770.28
958.771	3753.11
959.075	3777.06
959.378	3729.38
959.682	3698.42
959.985	3712.66
960.289	3691.64
960.592	3681.02
960.896	3659.32
961.199	3637.18
961.502	3591.98
961.805	3603.28
962.108	3588.14
962.411	3559.21
962.714	3576.39
963.017	3527.35
963.32	3539.33
963.623	3523.96
963.926	3506.11
964.228	3467.47
964.531	3519.22
964.833	3491.87
965.136	3430.63
965.438	3418.2
965.741	3413.91
966.043	3396.73
966.345	3379.33
966.648	3375.04
966.95	3320.35
967.252	3339.33
967.554	3315.15
967.856	3320.8
968.158	3272.22
968.46	3291.2
968.761	3271.54
969.063	3218.66
969.365	3237.19
969.666	3243.97
969.968	3201.71
970.269	3175.04
970.571	3156.06
970.872	3173.69
971.174	3132.78
971.475	3154.93
971.776	3173.01
972.077	3093.92
972.378	3110.64
972.679	3085.1
972.98	3068.83
973.281	3066.12
973.582	3057.08
973.883	3021.15
974.183	3028.38
974.484	3031.32
974.785	2981.38
975.085	2977.99
975.386	2970.3
975.686	2978.21
975.986	2934.82
976.287	2902.06
976.587	2893.24
976.887	2922.17
977.187	2892.79
977.487	2900.25
977.787	2868.84
978.087	2864.32
978.387	2849.85
978.687	2813.92
978.987	2795.84
979.286	2776.64
979.586	2778.44
979.885	2799.69
980.185	2771.44
980.484	2734.6
980.784	2737.77
981.083	2722.17
981.382	2711.78
981.682	2696.19
981.981	2723.08
982.28	2669.75
982.579	2663.19
982.878	2663.87
983.177	2653.93
983.475	2646.24
983.774	2602.18
984.073	2624.78
984.372	2602.86
984.67	2592.46
984.969	2567.83
985.267	2566.92
985.566	2570.99
985.864	2560.37
986.162	2506.36
986.461	2514.5
986.759	2495.97
987.057	2477.66
987.355	2498
987.653	2457.77
987.951	2481.05
988.249	2450.99
988.547	2454.61
988.844	2393.14
989.142	2422.07
989.44	2405.8
989.737	2408.06
990.035	2373.03
990.332	2396.53
990.63	2322.41
990.927	2341.17
991.224	2316.54
991.521	2302.3
991.819	2332.81
992.116	2297.55
992.413	2283.54
992.71	2268.4
993.006	2282.41
993.303	2282.19
993.6	2259.14
993.897	2246.48
994.193	2255.07
994.49	2227.5
994.787	2222.3
995.083	2210.1
995.379	2200.83
995.676	2170.32
995.972	2142.75
996.268	2164.9
996.565	2155.64
996.861	2117.22
997.157	2105.02
997.453	2104.56
997.749	2065.92
998.044	2087.84
998.34	2082.42
998.636	2086.26
998.932	2048.07
999.227	2015.53
999.523	2045.81
999.818	2010.33
1000.114	2005.13
1000.409	1981.18
1000.704	1999.93
1001	1974.62
1001.295	1946.38
1001.59	1974.4
1001.885	1970.1
1002.18	1966.49
1002.475	1944.79
1002.77	1927.84
1003.065	1924.23
1003.359	1899.82
1003.654	1915.19
1003.949	1857.56
1004.243	1880.39
1004.538	1875.19
1004.832	1864.34
1005.127	1851.69
1005.421	1821.86
1005.715	1814.18
1006.009	1819.83
1006.304	1812.14
1006.598	1798.36
1006.892	1761.75
1007.186	1759.94
1007.48	1768.75
1007.773	1739.6
1008.067	1738.92
1008.361	1743.22
1008.655	1733.05
1008.948	1704.57
1009.242	1709.55
1009.535	1665.7
1009.829	1645.37
1010.122	1682.65
1010.415	1641.3
1010.708	1660.06
1011.001	1653.95
1011.295	1660.96
1011.588	1610.56
1011.881	1641.07
1012.173	1609.89
1012.466	1579.83
1012.759	1601.98
1013.052	1598.59
1013.344	1542.32
1013.637	1571.7
1013.93	1546.84
1014.222	1555.2
1014.514	1512.94
1014.807	1529.21
1015.099	1540.06
1015.391	1495.54
1015.683	1501.64
1015.976	1499.61
1016.268	1458.93
1016.56	1452.83
1016.851	1464.35
1017.143	1445.6
1017.435	1460.51
1017.727	1433.85
1018.018	1438.82
1018.31	1417.58
1018.602	1360.85
1018.893	1399.72
1019.185	1374.19
1019.476	1391.14
1019.767	1404.24
1020.058	1343.23
1020.35	1336.22
1020.641	1333.51
1020.932	1354.07
1021.223	1308.43
1021.514	1286.05
1021.804	1299.61
1022.095	1302.55
1022.386	1318.14
1022.677	1298.48
1022.967	1254.19
1023.258	1277.24
1023.548	1281.08
1023.839	1262.33
1024.129	1262.55
1024.419	1237.02
1024.709	1239.28
1025	1225.49
1025.29	1234.53
1025.58	1189.56
1025.87	1210.8
1026.16	1196.79
1026.449	1195.21
1026.739	1174.42
1027.029	1209.67
1027.319	1153.85
1027.608	1152.72
1027.898	1160.18
1028.187	1125.15
1028.477	1110.92
1028.766	1116.34
1029.055	1132.84
1029.344	1147.98
1029.634	1083.57
1029.923	1099.39
1030.212	1098.71
1030.501	1069.11
1030.79	1065.49
1031.078	1077.47
1031.367	1075.21
1031.656	1065.04
1031.945	1054.87
1032.233	1047.87
1032.522	1033.41
1032.81	1011.71
1033.099	1033.41
1033.387	1019.85
1033.675	1020.75
1033.963	1009.68
1034.251	993.63
1034.54	1009.9
1034.828	985.5
1035.116	978.94
1035.403	974.88
1035.691	978.49
1035.979	953.41
1036.267	949.11
1036.554	958.6
1036.842	968.1
1037.129	944.14
1037.417	930.13
1037.704	914.09
1037.992	906.63
1038.279	947.31
1038.566	898.72
1038.853	898.72
1039.14	898.72
