Data from hue_32_FLMS001491_00030.txt Node
Date: Tue Feb 07 17:23:07 GMT 2017
User: dcchb
Spectrometer: FLMS00149
Trigger mode: 0
Integration Time (sec): 2.000000E-2
Scans to average: 10
Electric dark correction enabled: true
Nonlinearity correction enabled: false
Boxcar width: 0
XAxis mode: Wavelengths
Number of Pixels in Spectrum: 2048
>>>>>Begin Spectral Data<<<<<
341.393	-13.8
341.776	-13.8
342.16	-13.8
342.543	-61.93
342.927	-65.78
343.31	-63.97
343.693	-67.13
344.077	-56.96
344.46	-65.55
344.843	-56.06
345.226	-42.27
345.61	-33.23
345.993	-42.72
346.376	-1.6
346.759	4.51
347.142	47.44
347.525	50.83
347.908	43.6
348.291	63.49
348.674	107.55
349.057	112.07
349.44	104.84
349.823	146.2
350.206	164.28
350.588	187.55
350.971	225.97
351.354	231.84
351.737	265.06
352.119	242.69
352.502	249.92
352.884	287.89
353.267	285.18
353.65	297.83
354.032	293.31
354.414	309.13
354.797	312.07
355.179	321.33
355.562	324.05
355.944	334.21
356.326	331.73
356.709	322.69
357.091	339.86
357.473	345.74
357.855	353.87
358.238	328.11
358.62	350.26
359.002	345.51
359.384	343.93
359.766	327.66
360.148	319.07
360.53	347.32
360.912	350.49
361.294	335.34
361.676	341.45
362.057	326.08
362.439	331.5
362.821	302.12
363.203	332.18
363.584	335.57
363.966	333.31
364.348	324.72
364.729	322.92
365.111	340.09
365.493	327.66
365.874	300.77
366.256	319.3
366.637	298.96
367.019	325.63
367.4	300.09
367.781	331.5
368.163	309.81
368.544	339.86
368.925	319.98
369.306	318.17
369.688	328.34
370.069	305.29
370.45	305.29
370.831	329.47
371.212	296.7
371.593	340.77
371.974	312.52
372.355	331.95
372.736	311.39
373.117	315.23
373.498	336.47
373.879	304.16
374.26	310.26
374.641	322.01
375.021	305.51
375.402	305.74
375.783	329.02
376.163	330.6
376.544	337.38
376.925	321.56
377.305	337.6
377.686	328.11
378.066	322.24
378.447	343.03
378.827	340.32
379.208	344.38
379.588	314.33
379.968	319.98
380.349	314.55
380.729	316.14
381.109	333.31
381.489	337.38
381.87	334.67
382.25	340.54
382.63	342.8
383.01	360.88
383.39	339.64
383.77	348.68
384.15	330.37
384.53	356.13
384.91	345.51
385.29	358.39
385.67	359.3
386.049	346.19
386.429	338.51
386.809	351.39
387.189	368.11
387.568	368.11
387.948	364.72
388.328	370.37
388.707	365.4
389.087	373.08
389.466	376.47
389.846	371.05
390.225	381.22
390.605	364.95
390.984	372.63
391.363	354.1
391.743	362.69
392.122	381.67
392.501	373.76
392.881	368.79
393.26	378.96
393.639	387.55
394.018	375.34
394.397	379.64
394.776	371.28
395.155	377.83
395.534	371.95
395.913	379.18
396.292	380.99
396.671	395.68
397.05	397.49
397.429	382.8
397.808	407.21
398.186	392.74
398.565	408.34
398.944	385.96
399.323	398.17
399.701	418.28
400.08	394.33
400.458	401.11
400.837	413.08
401.215	414.89
401.594	411.05
401.972	396.36
402.351	387.77
402.729	402.24
403.107	415.57
403.486	406.3
403.864	411.05
404.242	410.82
404.62	419.64
404.999	420.31
405.377	433.87
405.755	435.45
406.133	430.26
406.511	439.75
406.889	445.62
407.267	440.88
407.645	426.42
408.023	458.05
408.401	455.57
408.779	453.76
409.156	460.99
409.534	429.81
409.912	451.27
410.29	447.66
410.667	466.64
411.045	465.96
411.422	490.82
411.8	459.86
412.178	472.29
412.555	488.11
412.933	469.58
413.31	482.23
413.687	495.11
414.065	479.75
414.442	465.74
414.819	507.77
415.197	490.37
415.574	512.97
415.951	489.46
416.328	516.13
416.705	501.22
417.082	502.57
417.46	534.21
417.837	505.06
418.214	532.4
418.591	512.97
418.967	522.46
419.344	534.21
419.721	537.82
420.098	519.52
420.475	522.23
420.852	521.33
421.228	541.44
421.605	538.95
421.982	550.03
422.358	556.36
422.735	538.28
423.111	553.87
423.488	559.52
423.864	565.85
424.241	560.88
424.617	561.1
424.994	596.81
425.37	570.59
425.746	595.9
426.123	585.73
426.499	578.73
426.875	599.07
427.251	584.83
427.627	590.48
428.003	599.97
428.379	605.62
428.756	613.76
429.132	640.87
429.507	636.81
429.883	614.43
430.259	646.3
430.635	635.22
431.011	664.83
431.387	649.46
431.763	648.33
432.138	663.25
432.514	652.17
432.89	685.62
433.265	697.82
433.641	689.23
434.016	684.04
434.392	715.9
434.767	695.33
435.143	711.61
435.518	692.62
435.894	724.26
436.269	735.56
436.644	734.66
437.02	735.33
437.395	758.84
437.77	754.54
438.145	741.21
438.52	765.39
438.895	775.11
439.271	758.84
439.646	770.36
440.021	751.38
440.395	798.61
440.77	780.3
441.145	774.65
441.52	792.73
441.895	805.16
442.27	811.26
442.645	816.01
443.019	826.63
443.394	791.6
443.769	822.56
444.143	812.85
444.518	823.69
444.892	815.56
445.267	829.79
445.641	858.27
446.016	863.92
446.39	876.57
446.764	863.24
447.139	866.86
447.513	831.38
447.887	889.68
448.262	856.46
448.636	882.45
449.01	885.61
449.384	894.43
449.758	919.06
450.132	904.59
450.506	909.57
450.88	904.37
451.254	912.5
451.628	936.46
452.002	911.6
452.376	912.5
452.75	923.13
453.123	975.33
453.497	960.86
453.871	970.81
454.244	993.18
454.618	995.67
454.992	1016.23
455.365	990.69
455.739	1039.28
456.112	1030.47
456.486	1054.65
456.859	1060.07
457.232	1049.22
457.606	1059.62
457.979	1071.37
458.352	1075.44
458.725	1107.3
459.099	1128.54
459.472	1144.36
459.845	1138.04
460.218	1130.58
460.591	1169.9
460.964	1173.74
461.337	1185.72
461.71	1215.55
462.083	1205.83
462.456	1242.89
462.829	1221.87
463.201	1249.22
463.574	1265.04
463.947	1293.96
464.32	1296.67
464.692	1306.17
465.065	1315.88
465.438	1330.57
465.81	1327.63
466.183	1375.99
466.555	1429.33
466.928	1420.06
467.3	1402.43
467.672	1443.11
468.045	1471.81
468.417	1451.7
468.789	1466.61
469.161	1495.31
469.534	1522.88
469.906	1577.57
470.278	1538.25
470.65	1588.19
471.022	1638.13
471.394	1646.72
471.766	1676.1
472.138	1704.8
472.51	1728.98
472.882	1785.48
473.253	1778.92
473.625	1795.87
473.997	1877
474.369	1881.74
474.74	1906.38
475.112	1966.94
475.484	1968.3
475.855	2045.13
476.227	2050.55
476.598	2095.07
476.97	2175.97
477.341	2211.68
477.713	2254.84
478.084	2245.35
478.455	2368.06
478.827	2421.62
479.198	2416.87
479.569	2486.47
479.94	2596.08
480.311	2578.9
480.682	2666.81
481.053	2722.85
481.424	2790.65
481.795	2847.59
482.166	2920.59
482.537	2938.21
482.908	3051.66
483.279	3097.53
483.65	3179.11
484.021	3299.11
484.391	3290.07
484.762	3380.24
485.133	3448.03
485.503	3522.61
485.874	3569.61
486.244	3677.18
486.615	3747.91
486.985	3843.27
487.356	3886.44
487.726	4026.77
488.097	4054.79
488.467	4102.02
488.837	4266.31
489.207	4342.92
489.578	4441.45
489.948	4480.09
490.318	4592.41
490.688	4638.51
491.058	4737.04
491.428	4852.29
491.798	4900.87
492.168	5090.93
492.538	5094.77
492.908	5183.8
493.278	5301.09
493.648	5320.98
494.017	5395.78
494.387	5514.19
494.757	5588.99
495.126	5636.9
495.496	5729.33
495.866	5773.17
496.235	5878.93
496.605	5953.05
496.974	6025.82
497.344	6060.84
497.713	6156.89
498.082	6200.27
498.452	6322.31
498.821	6332.7
499.19	6409.76
499.559	6536.99
499.928	6576.08
500.298	6579.93
500.667	6735.18
501.036	6762.52
501.405	6796.42
501.774	6884.32
502.143	6954.61
502.512	6964.32
502.88	7074.83
503.249	7066.92
503.618	7155.73
503.987	7242.28
504.356	7270.76
504.724	7270.08
505.093	7364.99
505.462	7417.64
505.83	7547.58
506.199	7567.47
506.567	7726.34
506.936	7649.28
507.304	7755.71
507.672	7820.12
508.041	7923.39
508.409	7930.17
508.777	8032.77
509.145	8046.78
509.514	8089.04
509.882	8140.56
510.25	8133.78
510.618	8229.83
510.986	8287.68
511.354	8354.12
511.722	8449.48
512.09	8479.76
512.458	8556.37
512.826	8593.43
513.193	8590.04
513.561	8652.64
513.929	8723.6
514.297	8826.19
514.664	8859.64
515.032	8847.89
515.4	8995.46
515.767	8914.1
516.135	9075
516.502	8975.34
516.869	9173.98
517.237	9120.88
517.604	9169.46
517.972	9260.76
518.339	9265.73
518.706	9321.77
519.073	9308.67
519.44	9410.36
519.808	9525.39
520.175	9495.56
520.542	9640.86
520.909	9620.52
521.276	9604.03
521.643	9801.08
522.009	9749.11
522.376	9874.53
522.743	9864.81
523.11	9974.64
523.477	10091.92
523.843	10119.95
524.21	10149.32
524.577	10277.23
524.943	10344.8
525.31	10402.42
525.676	10456.66
526.043	10495.76
526.409	10448.07
526.776	10660.72
527.142	10633.15
527.508	10756.09
527.874	10821.4
528.241	10768.52
528.607	11015.52
528.973	11002.18
529.339	10976.65
529.705	11135.06
530.071	11189.75
530.437	11199.69
530.803	11352.68
531.169	11310.2
531.535	11372.12
531.901	11392.23
532.267	11468.16
532.632	11510.42
532.998	11582.05
533.364	11680.36
533.73	11636.97
534.095	11765.33
534.461	11779.79
534.826	11877.19
535.192	11946.56
535.557	12021.36
535.923	11948.15
536.288	12114.02
536.653	12129.61
537.019	12087.13
537.384	12120.35
537.749	12223.39
538.114	12213.68
538.479	12269.04
538.845	12385.65
539.21	12402.37
539.575	12375.71
539.94	12446.21
540.305	12502.71
540.67	12544.06
541.034	12657.96
541.399	12638.3
541.764	12693.21
542.129	12750.39
542.494	12785.86
542.858	12880.1
543.223	12887.1
543.587	12936.59
543.952	13006.88
544.316	13080.77
544.681	13077.16
545.045	13181.56
545.41	13208
545.774	13280.54
546.138	13416.36
546.503	13348.56
546.867	13361.22
547.231	13518.27
547.595	13535.68
547.959	13502.23
548.324	13528.44
548.688	13624.49
549.052	13706.74
549.416	13686.63
549.779	13722.34
550.143	13732.96
550.507	13790.81
550.871	13913.74
551.235	13901.54
551.599	14044.81
551.962	14124.36
552.326	14138.82
552.689	14126.39
553.053	14077.81
553.417	14178.6
553.78	14309.44
554.143	14273.96
554.507	14366.84
554.87	14491.81
555.234	14596.21
555.597	14501.07
555.96	14545.37
556.323	14635.08
556.686	14678.92
557.05	14738.13
557.413	14751.46
557.776	14771.12
558.139	14834.17
558.502	14899.48
558.865	14896.77
559.228	15110.77
559.59	15080.95
559.953	15123.43
560.316	15220.6
560.679	15254.27
561.041	15307.38
561.404	15333.14
561.767	15480.48
562.129	15402.29
562.492	15581.5
562.854	15500.14
563.217	15595.28
563.579	15696.52
563.941	15695.84
564.304	15835.73
564.666	15869.4
565.028	15883.41
565.39	15962.96
565.753	15950.53
566.115	16097.64
566.477	16180.8
566.839	16171.09
567.201	16289.5
567.563	16386.9
567.925	16413.57
568.287	16391.19
568.648	16500.79
569.01	16576.05
569.372	16633.9
569.734	16642.71
570.095	16684.52
570.457	16776.95
570.819	16883.16
571.18	16958.86
571.542	16968.58
571.903	17126.99
572.265	17164.51
572.626	17280.44
572.987	17240.44
573.349	17371.28
573.71	17507.77
574.071	17583.03
574.432	17676.58
574.794	17831.61
575.155	17862.57
575.516	17842.45
575.877	17970.13
576.238	17980.76
576.599	18211.26
576.96	18305.49
577.32	18447.18
577.681	18508.2
578.042	18693.51
578.403	18803.56
578.763	18942.99
579.124	18961.97
579.485	19164.91
579.845	19409.65
580.206	19481.28
580.566	19559.92
580.927	19771.44
581.287	19993.13
581.648	20064.32
582.008	20315.61
582.368	20394.48
582.728	20592.89
583.089	20756.5
583.449	20846.22
583.809	21240.56
584.169	21363.94
584.529	21547.22
584.889	21944.49
585.249	21882.12
585.609	22094.09
585.969	22403.46
586.329	22693.63
586.688	22880.51
587.048	23125.48
587.408	23240.5
587.768	23511.68
588.127	23675.97
588.487	23860.83
588.846	24348.72
589.206	24335.17
589.565	24709.62
589.925	25056.28
590.284	25260.11
590.643	25378.75
591.003	25719.99
591.362	26052.63
591.721	26219.18
592.08	26559.51
592.44	26827.08
592.799	27118.82
593.158	27351.58
593.517	27505.48
593.876	28051.23
594.235	28187.27
594.593	28338
594.952	28672.23
595.311	28907.47
595.67	29127.81
596.029	29635.59
596.387	29758.75
596.746	30040.55
597.104	30228.34
597.463	30479.86
597.822	30812.74
598.18	30908.1
598.538	31085.27
598.897	31610.91
599.255	31516.45
599.613	32202.53
599.972	32278.01
600.33	32471
600.688	32721.84
601.046	33009.29
601.404	33349.84
601.762	33354.36
602.12	33856.95
602.478	33910.73
602.836	34228.01
603.194	34176.26
603.552	34437.5
603.91	34492.64
604.268	34900.31
604.625	34896.24
604.983	35293.07
605.341	35269.57
605.698	35676.34
606.056	36064.8
606.413	36044.69
606.771	36390.22
607.128	36559.7
607.485	36620.27
607.843	36864.33
608.2	37120.14
608.557	37177.54
608.914	37318.55
609.272	37688.94
609.629	37951.08
609.986	38149.04
610.343	38108.14
610.7	38464.29
611.057	38639.42
611.414	38597.84
611.771	38805.75
612.127	38957.38
612.484	39225.85
612.841	39327.99
613.198	39363.24
613.554	39440.53
613.911	39732.73
614.267	39836
614.624	39916.22
614.98	40235.54
615.337	40296.78
615.693	40376.1
616.05	40458.81
616.406	40756.2
616.762	40746.71
617.118	40791.23
617.475	40923.2
617.831	41096.76
618.187	41095.85
618.543	41379.69
618.899	41627.14
619.255	41618.33
619.611	41641.38
619.967	41854.7
620.323	42209.95
620.678	41961.37
621.034	41908.26
621.39	42245.43
621.746	42031.88
622.101	42575.36
622.457	42320.68
622.812	42546.21
623.168	42581.92
623.523	42702.59
623.879	42925.18
624.234	42719.31
624.589	42837.96
624.945	42804.74
625.3	43038.85
625.655	42987.78
626.01	43125.41
626.365	43039.53
626.72	42976.48
627.075	43086.54
627.43	43095.58
627.785	43077.27
628.14	43210.83
628.495	43318.39
628.85	43386.42
629.205	42995.92
629.559	43341.45
629.914	43284.95
630.269	43360.2
630.623	43454.44
630.978	43221.9
631.332	43643.81
631.687	43543.25
632.041	43506.86
632.396	43489.01
632.75	43327.66
633.104	43598.16
633.459	43329.47
633.813	43386.42
634.167	43527.88
634.521	43406.98
634.875	43519.97
635.229	43590.03
635.583	43365.85
635.937	43507.32
636.291	43372.18
636.645	43505.06
636.999	43410.37
637.352	43430.93
637.706	43314.55
638.06	43475.23
638.413	43436.81
638.767	43328.56
639.121	43460.54
639.474	43282.46
639.828	43193.88
640.181	43239.98
640.534	43197.27
640.888	43194.1
641.241	43064.84
641.594	43119.08
641.947	43280.2
642.301	43228.68
642.654	43156.37
643.007	43229.58
643.36	43175.12
643.713	43035.01
644.066	43196.36
644.419	42987.56
644.771	42830.95
645.124	42396.84
645.477	42349.15
645.83	42073
646.182	42005.89
646.535	41913.23
646.888	42068.48
647.24	41734.93
647.593	41895.16
647.945	41857.64
648.298	41782.84
648.65	41659
649.002	41643.64
649.355	41733.8
649.707	41764.31
650.059	41931.09
650.411	42350.96
650.763	42363.39
651.115	42770.39
651.467	42634.35
651.819	42665.53
652.171	42555.03
652.523	42630.73
652.875	42578.53
653.227	42444.97
653.578	42644.51
653.93	42637.28
654.282	42321.13
654.633	42325.88
654.985	42355.48
655.337	42369.72
655.688	42375.82
656.039	42574.01
656.391	42319.78
656.742	42424.18
657.094	42506.89
657.445	42505.76
657.796	42441.13
658.147	42274.13
658.498	42289.95
658.849	42442.94
659.2	42227.35
659.551	42230.29
659.902	42336.95
660.253	42089.5
660.604	42364.52
660.955	42138.99
661.306	42269.61
661.656	42308.7
662.007	42288.82
662.358	42139.22
662.708	42154.81
663.059	42274.58
663.409	41907.58
663.76	42122.72
664.11	42142.61
664.461	42258.54
664.811	42187.8
665.161	42134.02
665.511	42074.81
665.862	42032.1
666.212	42291.3
666.562	42298.31
666.912	42016.06
667.262	42021.25
667.612	41980.8
667.962	42102.16
668.312	42127.47
668.662	42254.92
669.011	42064.42
669.361	41991.2
669.711	42147.58
670.06	41952.33
670.41	41967.24
670.76	41937.41
671.109	42073.91
671.459	42053.34
671.808	41947.58
672.157	41977.64
672.507	41702.62
672.856	41739.68
673.205	41913.46
673.554	41800.47
673.904	41786.68
674.253	41985.77
674.602	41840.69
674.951	41278
675.3	41001.85
675.649	41785.55
675.998	41666.91
676.346	41682.05
676.695	41869.17
677.044	41554.6
677.393	41560.02
677.741	41637.08
678.09	41506.01
678.438	41488.39
678.787	41485.22
679.135	41604.77
679.484	41190.32
679.832	41381.72
680.181	41233.48
680.529	41313.48
680.877	41142.63
681.225	41226.02
681.573	41408.84
681.922	41022.86
682.27	40974.95
682.618	40944.45
682.966	40817.22
683.314	41005.69
683.661	40925.01
684.009	40734.96
684.357	40617
684.705	40671.91
685.053	40714.17
685.4	40710.33
685.748	40350.11
686.095	40459.94
686.443	40213.84
686.79	40268.31
687.138	40268.76
687.485	40300.17
687.832	40009.78
688.18	40113.28
688.527	39896.56
688.874	40043.68
689.221	39961.2
689.568	39664.71
689.915	39823.57
690.262	39590.81
690.609	39548.1
690.956	39336.13
691.303	39361.89
691.65	39171.61
691.997	39170.71
692.344	39078.96
692.69	38946.53
693.037	39037.15
693.383	38601.23
693.73	38945.4
694.077	38658.86
694.423	38580.44
694.769	38490.95
695.116	38318.75
695.462	38445.3
695.808	38202.15
696.155	38309.71
696.501	38115.82
696.847	38168.93
697.193	37832.89
697.539	38015.48
697.885	37690.29
698.231	37635.83
698.577	37632.44
698.923	37542.5
699.269	37373.69
699.614	37132.34
699.96	37366.46
700.306	37290.53
700.651	37075.17
700.997	36934.38
701.342	36736.65
701.688	36740.49
702.033	36617.1
702.379	36549.99
702.724	36498.91
703.069	36552.92
703.415	36162.88
703.76	36188.19
704.105	36242.87
704.45	36114.29
704.795	35864.13
705.14	35880.85
705.485	35755.66
705.83	35603.8
706.175	35662.33
706.52	35542.33
706.865	35547.3
707.209	35477.47
707.554	35376.23
707.899	35461.88
708.243	35110.93
708.588	35114.32
708.932	34922.91
709.277	34938.28
709.621	35033.41
709.966	34729.24
710.31	34903.47
710.654	34425.97
710.998	34522.02
711.342	34468.23
711.687	34412.87
712.031	34357.95
712.375	34329.7
712.719	34416.03
713.063	34164.06
713.407	34264.62
713.75	34066.43
714.094	34027.34
714.438	33773.34
714.782	33909.38
715.125	33749.15
715.469	33773.79
715.812	33616.5
716.156	33568.82
716.499	33579.67
716.843	33451.99
717.186	33339.9
717.53	33436.85
717.873	33418.54
718.216	33388.26
718.559	33208.15
718.902	32952.57
719.246	33014.49
719.589	32943.98
719.932	32917.99
720.275	32939.46
720.617	32886.58
720.96	32793.93
721.303	32711.89
721.646	32706.92
721.989	32390.77
722.331	32702.4
722.674	32604.33
723.016	32567.04
723.359	32468.51
723.701	32559.81
724.044	32323.66
724.386	32144.45
724.729	32267.61
725.071	32234.39
725.413	32093.83
725.755	32204.11
726.097	32125.92
726.439	31766.16
726.782	31848.41
727.124	31944.46
727.465	31721.64
727.807	31825.36
728.149	31711.02
728.491	31540.85
728.833	31724.35
729.175	31564.81
729.516	31460.18
729.858	31530.23
730.199	31416.33
730.541	31333.63
730.882	31489.33
731.224	31592.38
731.565	31212.72
731.906	31245.04
732.248	31334.76
732.589	31009.34
732.93	31140.18
733.271	30999.4
733.612	31027.19
733.953	31094.08
734.294	30912.85
734.635	30851.15
734.976	30797.82
735.317	30787.65
735.658	30818.16
735.999	30814.77
736.339	30594.44
736.68	30672.63
737.021	30669.01
737.361	30458.85
737.702	30672.63
738.042	30475.34
738.383	30427.21
738.723	30511.27
739.063	30332.3
739.404	30571.84
739.744	30406.64
740.084	30097.5
740.424	30319.87
740.764	30251.17
741.104	30294.33
741.444	30097.95
741.784	29996.03
742.124	30017.73
742.464	29968.46
742.804	29984.51
743.143	29840.33
743.483	29855.02
743.823	29706.78
744.162	29716.94
744.502	29747.9
744.841	29603.95
745.181	29816.83
745.52	29515.59
745.86	29577.74
746.199	29573.67
746.538	29577.97
746.877	29597.17
747.216	29489.38
747.556	29484.86
747.895	29402.15
748.234	29297.97
748.573	29332.55
748.911	29147.92
749.25	29201.93
749.589	28941.37
749.928	29053.23
750.267	29202.38
750.605	29046
750.944	28981.14
751.283	28828.61
751.621	29011.88
751.96	28721.72
752.298	28807.36
752.636	28708.61
752.975	28580.7
753.313	28447.83
753.651	28569.4
753.989	28379.58
754.327	28342.97
754.666	28196.31
755.004	28332.12
755.342	28284.44
755.679	28318.34
756.017	28130.09
756.355	28184.1
756.693	28137.55
757.031	28108.63
757.368	27888.97
757.706	27892.36
758.044	27769.2
758.381	27804
758.719	27598.13
759.056	27647.62
759.394	27717
759.731	27520.84
760.068	27404.69
760.405	27321.08
760.743	27275.2
761.08	27252.83
761.417	27229.78
761.754	27265.03
762.091	26976
762.428	26999.73
762.765	26810.13
763.102	26905.27
763.438	26773.29
763.775	26643.58
764.112	26694.2
764.449	26628.44
764.785	26416.69
765.122	26340.08
765.458	26150.94
765.795	26155
766.131	26167.21
766.467	25990.49
766.804	25956.82
767.14	25814.22
767.476	25934.67
767.812	25743.26
768.148	25701.91
768.485	25601.8
768.821	25501.91
769.157	25315.03
769.492	25374.69
769.828	25326.55
770.164	25131.08
770.5	25031.64
770.836	24991.19
771.171	24881.59
771.507	24904.87
771.842	24537.65
772.178	24731.31
772.513	24525.44
772.849	24562.5
773.184	24436.63
773.519	24339.23
773.855	24223.3
774.19	24260.59
774.525	24102.63
774.86	24124.55
775.195	23895.4
775.53	23887.27
775.865	23680.27
776.2	23574.73
776.535	23494.28
776.87	23479.59
777.205	23341.07
777.539	23225.82
777.874	23342.87
778.209	23127.29
778.543	22991.25
778.878	23001.87
779.212	22969.78
779.547	22781.76
779.881	22833.28
780.215	22758.03
780.55	22824.02
780.884	22585.38
781.218	22441.43
781.552	22422.9
781.886	22288.67
782.22	22180.19
782.554	22287.54
782.888	21984.04
783.222	21894.78
783.556	21814.55
783.889	21740.88
784.223	21661.56
784.557	21664.73
784.89	21668.79
785.224	21457.95
785.557	21356.94
785.891	21303.15
786.224	21213.44
786.558	21131.18
786.891	21114.01
787.224	21006.21
787.557	20865.88
787.891	20865.43
788.224	20860
788.557	20896.16
788.89	20722.6
789.223	20684.19
789.556	20492.33
789.888	20405.78
790.221	20369.39
790.554	20253.01
790.887	20257.98
791.219	20130.76
791.552	20039.46
791.884	20035.62
792.217	19990.42
792.549	19861.16
792.882	19783.65
793.214	19657.55
793.546	19785.45
793.879	19596.76
794.211	19388.4
794.543	19468.4
794.875	19432.02
795.207	19461.4
795.539	19345.01
795.871	19328.07
796.203	19135.53
796.535	19023.44
796.867	19013.72
797.198	18991.35
797.53	19025.47
797.862	18805.37
798.193	18902.77
798.525	18718.36
798.856	18782.32
799.188	18585.03
799.519	18545.49
799.85	18473.17
800.182	18430.69
800.513	18432.5
800.844	18243.12
801.175	18409.9
801.506	18170.36
801.837	18171.71
802.168	18196.57
802.499	18038.83
802.83	17968.55
803.161	17977.14
803.491	17926.52
803.822	17922.23
804.153	17724.27
804.483	17675.68
804.814	17605.4
805.145	17699.18
805.475	17525.17
805.805	17509.58
806.136	17525.17
806.466	17536.47
806.796	17496.02
807.126	17315.91
807.457	17292.19
807.787	17280.66
808.117	17272.07
808.447	17154.56
808.777	17141
809.107	17021.23
809.436	16948.92
809.766	16960.22
810.096	16896.26
810.426	16831.63
810.755	16847.45
811.085	16747.12
811.414	16765.19
811.744	16603.62
812.073	16647.91
812.403	16568.59
812.732	16494.69
813.061	16522.26
813.39	16377.18
813.719	16407.01
814.049	16445.43
814.378	16377.18
814.707	16206.57
815.036	16203.85
815.365	16117.3
815.693	16105.78
816.022	16056.74
816.351	16047.7
816.68	15926.57
817.008	15885.44
817.337	15840.93
817.665	15792.56
817.994	15882.05
818.322	15832.11
818.651	15695.17
818.979	15704.43
819.307	15708.5
819.636	15690.19
819.964	15556.86
820.292	15631.44
820.62	15586.02
820.948	15543.31
821.276	15616.98
821.604	15500.37
821.932	15644.32
822.259	15539.46
822.587	15520.71
822.915	15463.31
823.243	15508.73
823.57	15359.81
823.898	15475.74
824.225	15448.85
824.553	15390.32
824.88	15438.68
825.207	15496.98
825.535	15429.64
825.862	15518.67
826.189	15394.61
826.516	15412.46
826.843	15557.77
827.17	15478.45
827.497	15507.37
827.824	15438.68
828.151	15477.77
828.478	15449.75
828.805	15578.33
829.131	15371.33
829.458	15417.89
829.785	15296.53
830.111	15365.46
830.438	15547.83
830.764	15478.67
831.09	15343.31
831.417	15325.23
831.743	15418.79
832.069	15315.06
832.395	15345.57
832.722	15360.71
833.048	15308.28
833.374	15394.84
833.7	15262.18
834.026	15251.11
834.351	15312.58
834.677	15287.49
835.003	15309.41
835.329	15315.74
835.654	15217.21
835.98	15146.93
836.306	15242.07
836.631	15143.99
836.956	15176.54
837.282	15184.9
837.607	15106.93
837.932	15118.01
838.258	15083.21
838.583	15080.72
838.908	14889.09
839.233	14959.59
839.558	14915.98
839.883	14903.55
840.208	14782.2
840.533	14823.32
840.858	14793.95
841.182	14855.19
841.507	14769.54
841.832	14640.28
842.156	14648.41
842.481	14678.24
842.805	14650.9
843.13	14609.32
843.454	14596.89
843.778	14527.74
844.103	14536.1
844.427	14388.31
844.751	14384.01
845.075	14370.23
845.399	14378.59
845.723	14299.5
846.047	14212.95
846.371	14178.14
846.695	14110.35
847.019	14072.16
847.343	13972.05
847.666	13913.97
847.99	13914.65
848.313	13892.95
848.637	13834.42
848.96	13658.61
849.284	13675.56
849.607	13659.51
849.931	13558.5
850.254	13481.21
850.577	13469.69
850.9	13315.79
851.223	13312.4
851.546	13270.6
851.869	13213.88
852.192	13264.04
852.515	13031.96
852.838	13056.59
853.161	13057.5
853.483	13083.94
853.806	12936.59
854.129	12921.68
854.451	12768.24
854.774	12817.73
855.096	12751.74
855.419	12699.54
855.741	12645.76
856.063	12601.69
856.385	12559.88
856.708	12627.68
857.03	12531.18
857.352	12477.17
857.674	12441.92
857.996	12450.51
858.318	12418.19
858.64	12363.5
858.961	12298.87
859.283	12329.38
859.605	12193.79
859.926	12294.58
860.248	12246.67
860.57	12077.63
860.891	12186.33
861.212	12086
861.534	12002.83
861.855	12042.38
862.176	12053.23
862.498	12022.04
862.819	12001.03
863.14	11964.19
863.461	11980.91
863.782	11841.26
864.103	11796.51
864.424	11854.82
864.745	11797.87
865.065	11745.21
865.386	11724.42
865.707	11731.65
866.027	11734.82
866.348	11737.53
866.668	11714.03
866.989	11582.96
867.309	11576.4
867.63	11601.71
867.95	11525.11
868.27	11438.78
868.59	11519.23
868.91	11550.87
869.23	11471.77
869.55	11404.88
869.87	11513.81
870.19	11448.95
870.51	11526.69
870.83	11446.01
871.15	11398.78
871.469	11402.85
871.789	11442.17
872.109	11375.96
872.428	11347.03
872.748	11288.28
873.067	11297.99
873.386	11284.89
873.706	11265.9
874.025	11170.99
874.344	11197.88
874.663	11227.71
874.982	11187.71
875.301	11163.53
875.62	11119.69
875.939	11067.94
876.258	11136.64
876.577	11065.68
876.896	11057.55
877.214	10984.56
877.533	11013.48
877.852	10994.73
878.17	11000.15
878.489	11004.67
878.807	11006.25
879.125	10943.88
879.444	10919.92
879.762	10947.49
880.08	10868.85
880.398	10825.46
880.716	10853.94
881.034	10747.95
881.352	10783.88
881.67	10734.62
881.988	10751.12
882.306	10751.12
882.624	10681.51
882.941	10619.14
883.259	10548.86
883.577	10608.52
883.894	10545.92
884.212	10578.24
884.529	10578.69
884.846	10525.58
885.164	10501.86
885.481	10476.09
885.798	10471.12
886.115	10359.04
886.432	10343.22
886.75	10412.59
887.067	10404.01
887.383	10308.19
887.7	10255.31
888.017	10237.91
888.334	10304.12
888.651	10230
888.967	10239.49
889.284	10235.2
889.6	10166.05
889.917	10079.49
890.233	10132.15
890.55	10046.73
890.866	10077.24
891.182	10062.32
891.498	10046.05
891.815	9967.41
892.131	9964.7
892.447	9887.86
892.763	9864.13
893.079	9844.02
893.395	9811.93
893.71	9775.55
894.026	9710.01
894.342	9716.79
894.657	9658.71
894.973	9696
895.289	9615.78
895.604	9607.19
895.92	9525.61
896.235	9533.75
896.55	9456.01
896.865	9505.05
897.181	9493.75
897.496	9440.87
897.811	9374.88
898.126	9354.77
898.441	9352.51
898.756	9251.95
899.071	9234.77
899.386	9232.96
899.7	9216.92
900.015	9083.81
900.33	9042.69
900.644	9060.76
900.959	9118.84
901.273	9036.13
901.588	8999.07
901.902	8955
902.216	8894.22
902.531	8892.18
902.845	8856.93
903.159	8797.95
903.473	8752.75
903.787	8715.24
904.101	8707.1
904.415	8734.22
904.729	8676.59
905.042	8649.7
905.356	8588.69
905.67	8578.97
905.984	8501.01
906.297	8549.37
906.611	8528.12
906.924	8483.6
907.237	8418.97
907.551	8390.27
907.864	8322.03
908.177	8290.39
908.491	8304.85
908.804	8222.14
909.117	8188.92
909.43	8193.67
909.743	8105.76
910.056	8116.61
910.368	8071.19
910.681	8068.47
910.994	7958.87
911.307	7968.82
911.619	7950.51
911.932	7975.6
912.244	7800.68
912.557	7884.75
912.869	7778.09
913.181	7814.24
913.494	7725.88
913.806	7691.99
914.118	7590.29
914.43	7660.12
914.742	7660.8
915.054	7582.16
915.366	7566.57
915.678	7517.3
915.99	7453.35
916.302	7449.96
916.613	7381.49
916.925	7426.91
917.236	7364.54
917.548	7305.1
917.859	7378.1
918.171	7321.38
918.482	7259.68
918.794	7181.94
919.105	7258.78
919.416	7127.93
919.727	7150.31
920.038	7140.82
920.349	7075.96
920.66	7021.27
920.971	7067.37
921.282	6996.41
921.593	6941.95
921.903	6879.13
922.214	6861.95
922.525	6892.01
922.835	6885
923.146	6848.85
923.456	6798
923.767	6803.87
924.077	6753.03
924.387	6677.1
924.697	6633.26
925.008	6607.27
925.318	6582.41
925.628	6612.92
925.938	6528.18
926.248	6482.98
926.558	6476.43
926.867	6456.54
927.177	6439.36
927.487	6384
927.796	6352.36
928.106	6333.15
928.416	6307.16
928.725	6316.2
929.034	6243.89
929.344	6275.08
929.653	6297
929.962	6172.7
930.271	6137
930.581	6064.46
930.89	6158.24
931.199	6070.79
931.508	6062.2
931.817	5997.12
932.125	6033.73
932.434	5997.34
932.743	5960.28
933.051	5948.08
933.36	5887.97
933.669	5829.44
933.977	5844.35
934.286	5883.22
934.594	5851.13
934.902	5751.47
935.21	5748.76
935.519	5729.78
935.827	5738.14
936.135	5616.79
936.443	5597.13
936.751	5643.68
937.059	5588.09
937.367	5571.82
937.674	5581.53
937.982	5552.83
938.29	5543.12
938.597	5511.25
938.905	5457.7
939.213	5456.57
939.52	5358.94
939.827	5440.29
940.135	5350.13
940.442	5324.14
940.749	5344.93
941.056	5370.69
941.363	5295.89
941.67	5239.17
941.977	5222.45
942.284	5196.69
942.591	5200.3
942.898	5161.66
943.205	5197.59
943.511	5124.14
943.818	5108.1
944.125	5048.21
944.431	5029.46
944.738	5027.88
945.044	4981.1
945.35	4962.12
945.657	4938.16
945.963	4899.74
946.269	4901.33
946.575	4882.57
946.881	4848.22
947.187	4843.47
947.493	4843.02
947.799	4787.66
948.105	4761.44
948.41	4774.78
948.716	4791.5
949.022	4729.81
949.327	4739.07
949.633	4659.75
949.938	4663.14
950.244	4679.64
950.549	4615.01
950.854	4591.05
951.16	4662.01
951.465	4581.11
951.77	4563.93
952.075	4569.13
952.38	4501.11
952.685	4473.77
952.99	4456.37
953.294	4467.44
953.599	4431.73
953.904	4461.11
954.209	4361
954.513	4386.54
954.818	4347.89
955.122	4349.02
955.426	4318.06
955.731	4275.81
956.035	4273.55
956.339	4218.63
956.643	4259.31
956.948	4234.45
957.252	4164.62
957.556	4230.84
957.86	4149.71
958.163	4123.49
958.467	4106.32
958.771	4097.51
959.075	4100.44
959.378	4088.01
959.682	4075.81
959.985	4014.34
960.289	4029.03
960.592	3982.71
960.896	4024.29
961.199	3983.38
961.502	3952.88
961.805	3922.59
962.108	3936.15
962.411	3937.96
962.714	3919.2
963.017	3884.86
963.32	3876.04
963.623	3855.25
963.926	3844.86
964.228	3798.53
964.531	3796.04
964.833	3760.56
965.136	3756.72
965.438	3728.7
965.741	3731.64
966.043	3688.93
966.345	3666.56
966.648	3715.59
966.95	3651.42
967.252	3651.64
967.554	3615.94
967.856	3604.64
968.158	3574.81
968.46	3561.7
968.761	3507.24
969.063	3515.15
969.365	3550.18
969.666	3541.14
969.968	3457.75
970.269	3468.37
970.571	3469.73
970.872	3438.09
971.174	3408.48
971.475	3436.73
971.776	3439.9
972.077	3358.32
972.378	3371.87
972.679	3353.34
972.98	3388.37
973.281	3359.9
973.582	3338.43
973.883	3284.65
974.183	3316.51
974.484	3336.4
974.785	3273.35
975.085	3277.87
975.386	3286.23
975.686	3257.53
975.986	3222.05
976.287	3185.21
976.587	3146.34
976.887	3175.72
977.187	3134.14
977.487	3160.13
977.787	3113.58
978.087	3134.14
978.387	3093.01
978.687	3105.21
978.987	3107.25
979.286	3073.35
979.586	3030.87
979.885	3066.57
980.185	3012.11
980.484	3004.65
980.784	2970.53
981.083	2984.31
981.382	2937.99
981.682	2956.74
981.981	2940.7
982.28	2900.47
982.579	2905.67
982.878	2911.55
983.177	2864.77
983.475	2813.02
983.774	2845.33
984.073	2841.49
984.372	2831.55
984.67	2816.86
984.969	2828.39
985.267	2773.7
985.566	2791.78
985.864	2785
986.162	2746.58
986.461	2741.83
986.759	2714.49
987.057	2709.29
987.355	2675.17
987.653	2683.31
987.951	2674.72
988.249	2669.29
988.547	2678.79
988.844	2668.62
989.142	2683.08
989.44	2630.43
989.737	2614.38
990.035	2603.99
990.332	2576.64
990.63	2594.27
990.927	2549.75
991.224	2568.73
991.521	2555.62
991.819	2523.08
992.116	2511.11
992.413	2544.33
992.71	2489.19
993.006	2484.89
993.303	2488.28
993.6	2441.5
993.897	2424.33
994.193	2459.36
994.49	2429.75
994.787	2383.43
995.083	2399.7
995.379	2404.44
995.676	2373.71
995.972	2355.4
996.268	2347.27
996.565	2330.55
996.861	2307.04
997.157	2313.15
997.453	2284.45
997.749	2316.31
998.044	2259.36
998.34	2269.08
998.636	2262.07
998.932	2265.46
999.227	2226.14
999.523	2217.55
999.818	2202.64
1000.114	2184.34
1000.409	2204
1000.704	2203.09
1001	2154.73
1001.295	2173.94
1001.59	2129.42
1001.885	2171.45
1002.18	2142.75
1002.475	2100.04
1002.77	2116.09
1003.065	2083.55
1003.359	2083.32
1003.654	2060.04
1003.949	2055.3
1004.243	2039.71
1004.538	2005.58
1004.832	2007.39
1005.127	2025.02
1005.421	1989.99
1005.715	1953.61
1006.009	1975.53
1006.304	1977.56
1006.598	1941.18
1006.892	1941.4
1007.186	1919.71
1007.48	1929.43
1007.773	1924
1008.067	1896.21
1008.361	1895.3
1008.655	1922.87
1008.948	1844.68
1009.242	1838.13
1009.535	1825.7
1009.829	1826.6
1010.122	1814.4
1010.415	1822.76
1010.708	1784.35
1011.001	1775.31
1011.295	1780.05
1011.588	1767.17
1011.881	1789.32
1012.173	1756.55
1012.466	1750
1012.759	1761.75
1013.052	1726.04
1013.344	1717.45
1013.637	1672.94
1013.93	1682.43
1014.222	1664.57
1014.514	1689.21
1014.807	1651.02
1015.099	1651.02
1015.391	1633.62
1015.683	1635.65
1015.976	1608.31
1016.268	1654.86
1016.56	1608.98
1016.851	1590.45
1017.143	1572.83
1017.435	1575.54
1017.727	1581.41
1018.018	1565.82
1018.31	1547.29
1018.602	1539.61
1018.893	1516.56
1019.185	1511.13
1019.476	1497.35
1019.767	1481.3
1020.058	1477.46
1020.35	1492.38
1020.641	1478.59
1020.932	1446.05
1021.223	1453.06
1021.514	1457.8
1021.804	1419.84
1022.095	1402.66
1022.386	1415.99
1022.677	1400.85
1022.967	1400.85
1023.258	1387.97
1023.548	1387.07
1023.839	1374.19
1024.129	1359.72
1024.419	1360.4
1024.709	1318.37
1025	1320.63
1025.29	1304.58
1025.58	1314.53
1025.87	1298.03
1026.16	1298.26
1026.449	1260.07
1026.739	1267.07
1027.029	1295.09
1027.319	1242.44
1027.608	1258.94
1027.898	1231.82
1028.187	1242.21
1028.477	1254.19
1028.766	1245.15
1029.055	1199.28
1029.344	1187.07
1029.634	1208.32
1029.923	1180.97
1030.212	1174.87
1030.501	1170.58
1030.79	1148.66
1031.078	1148.88
1031.367	1144.81
1031.656	1157.47
1031.945	1118.6
1032.233	1147.75
1032.522	1098.49
1032.81	1089.22
1033.099	1116.79
1033.387	1084.48
1033.675	1065.95
1033.963	1079.51
1034.251	1097.13
1034.54	1091.48
1034.828	1081.99
1035.116	1048.09
1035.403	1044.25
1035.691	1039.51
1035.979	1043.12
1036.267	1015.1
1036.554	1047.42
1036.842	1036.34
1037.129	1036.79
1037.417	971.26
1037.704	990.92
1037.992	982.11
1038.279	976.46
1038.566	984.37
1038.853	984.37
1039.14	984.37
