Data from hue_260_FLMS001491_00001.txt Node
Date: Tue Feb 07 15:58:28 GMT 2017
User: dcchb
Spectrometer: FLMS00149
Trigger mode: 0
Integration Time (sec): 2.000000E-2
Scans to average: 10
Electric dark correction enabled: true
Nonlinearity correction enabled: false
Boxcar width: 0
XAxis mode: Wavelengths
Number of Pixels in Spectrum: 2048
>>>>>Begin Spectral Data<<<<<
341.393	0.62
341.776	0.62
342.16	0.62
342.543	-68.53
342.927	-67.4
343.31	-84.8
343.693	-64.69
344.077	-83.22
344.46	-50.68
344.843	-39.6
345.226	-47.96
345.61	-31.02
345.993	-17.68
346.376	-5.03
346.759	0.17
347.142	28.42
347.525	39.94
347.908	74.52
348.291	78.13
348.674	97.34
349.057	106.16
349.44	131.69
349.823	139.37
350.206	145.7
350.588	197.23
350.971	199.71
351.354	236.32
351.737	219.6
352.119	237
352.502	250.33
352.884	245.13
353.267	251.01
353.65	265.7
354.032	302.53
354.414	308.41
354.797	290.56
355.179	302.76
355.562	295.08
355.944	300.27
356.326	335.53
356.709	323.55
357.091	303.66
357.473	347.05
357.855	314.29
358.238	323.55
358.62	345.02
359.002	331.23
359.384	344.57
359.766	335.53
360.148	333.72
360.53	337.34
360.912	322.65
361.294	326.04
361.676	324
362.057	325.81
362.439	340.73
362.821	314.51
363.203	320.39
363.584	322.42
363.966	312.48
364.348	318.81
364.729	323.32
365.111	310.9
365.493	295.3
365.874	310.67
366.256	308.86
366.637	308.64
367.019	304.34
367.4	314.74
367.781	326.04
368.163	285.59
368.544	303.44
368.925	311.35
369.306	304.34
369.688	321.74
370.069	287.17
370.45	290.56
370.831	305.7
371.212	300.5
371.593	320.39
371.974	304.79
372.355	312.48
372.736	326.94
373.117	300.95
373.498	338.24
373.879	314.06
374.26	328.52
374.641	299.82
375.021	305.25
375.402	317.68
375.783	313.16
376.163	345.02
376.544	315.64
376.925	326.71
377.305	333.27
377.686	321.07
378.066	294.85
378.447	317
378.827	312.93
379.208	302.99
379.588	321.97
379.968	311.35
380.349	320.84
380.729	338.69
381.109	333.72
381.489	326.49
381.87	338.47
382.25	347.73
382.63	335.3
383.01	341.63
383.39	319.26
383.77	354.74
384.15	341.4
384.53	341.63
384.91	356.77
385.29	354.28
385.67	328.52
386.049	333.04
386.429	349.54
386.809	347.5
387.189	356.54
387.568	348.41
387.948	362.87
388.328	360.39
388.707	331.91
389.087	361.06
389.466	360.39
389.846	352.25
390.225	366.71
390.605	365.13
390.984	380.72
391.363	365.58
391.743	351.57
392.122	379.59
392.501	374.85
392.881	372.59
393.26	393.38
393.639	376.2
394.018	359.26
394.397	374.4
394.776	363.55
395.155	385.92
395.534	406.71
395.913	374.4
396.292	360.61
396.671	387.96
397.05	386.6
397.429	396.77
397.808	387.73
398.186	400.38
398.565	390.22
398.944	391.57
399.323	405.81
399.701	412.81
400.08	427.5
400.458	422.31
400.837	425.47
401.215	419.59
401.594	429.54
401.972	420.72
402.351	413.72
402.729	437.9
403.107	440.16
403.486	458.69
403.864	452.59
404.242	429.31
404.62	441.97
404.999	462.98
405.377	459.14
405.755	471.8
406.133	489.2
406.511	464.79
406.889	473.83
407.267	488.29
407.645	474.96
408.023	490.33
408.401	499.59
408.779	491
409.156	507.5
409.534	509.99
409.912	520.61
410.29	521.74
410.667	526.48
411.045	536.65
411.422	534.17
411.8	533.49
412.178	524.9
412.555	568.97
412.933	568.52
413.31	593.37
413.687	587.05
414.065	607.39
414.442	578.01
414.819	602.64
415.197	607.16
415.574	615.97
415.951	618.91
416.328	638.8
416.705	632.24
417.082	648.29
417.46	656.2
417.837	654.39
418.214	661.85
418.591	685.8
418.967	661.85
419.344	690.32
419.721	686.25
420.098	686.25
420.475	718.57
420.852	719.02
421.228	752.24
421.605	725.57
421.982	755.63
422.358	743.43
422.735	764.67
423.111	773.48
423.488	792.92
423.864	813.93
424.241	822.07
424.617	798.11
424.994	830.66
425.37	840.6
425.746	836.31
426.123	860.49
426.499	874.5
426.875	863.42
427.251	876.53
427.627	933.7
428.003	909.75
428.379	927.38
428.756	947.94
429.132	942.07
429.507	967.6
429.883	975.96
430.259	975.74
430.635	996.3
431.011	1010.31
431.387	1028.84
431.763	1042.85
432.138	1041.72
432.514	1053.25
432.89	1100.71
433.265	1117.2
433.641	1114.49
434.016	1111.55
434.392	1166.47
434.767	1171.44
435.143	1170.99
435.518	1223.19
435.894	1234.26
436.269	1231.78
436.644	1238.1
437.02	1282.4
437.395	1279.68
437.77	1284.88
438.145	1308.38
438.52	1363.75
438.895	1323.98
439.271	1375.27
439.646	1367.82
440.021	1391.55
440.395	1421.6
440.77	1406.91
441.145	1439
441.52	1436.74
441.895	1472.22
442.27	1487.36
442.645	1501.82
443.019	1524.42
443.394	1525.55
443.769	1528.26
444.143	1534.82
444.518	1559.9
444.892	1589.05
445.267	1583.86
445.641	1585.44
446.016	1614.14
446.39	1610.97
446.764	1615.27
447.139	1633.57
447.513	1650.97
447.887	1612.56
448.262	1644.42
448.636	1666.11
449.01	1723.51
449.384	1715.6
449.758	1721.25
450.132	1735.27
450.506	1754.47
450.88	1749.95
451.254	1750.63
451.628	1803.51
452.002	1811.65
452.376	1848.03
452.75	1846.67
453.123	1850.52
453.497	1851.42
453.871	1888.48
454.244	1935.94
454.618	1971.87
454.992	1942.49
455.365	1976.39
455.739	1978.87
456.112	2003.51
456.486	2031.53
456.859	2047.12
457.232	2062.04
457.606	2084.18
457.979	2093
458.352	2155.37
458.725	2148.14
459.099	2143.39
459.472	2194.24
459.845	2247.34
460.218	2260.9
460.591	2273.1
460.964	2263.16
461.337	2331.63
461.71	2358.07
462.083	2359.43
462.456	2358.75
462.829	2381.58
463.201	2412.31
463.574	2450.73
463.947	2473.32
464.32	2502.93
464.692	2548.58
465.065	2506.09
465.438	2629.25
465.81	2627.9
466.183	2615.24
466.555	2674
466.928	2721.91
467.3	2711.96
467.672	2699.99
468.045	2779.76
468.417	2810.27
468.789	2826.31
469.161	2823.82
469.534	2918.06
469.906	2943.59
470.278	2978.85
470.65	3001.45
471.022	3067.89
471.394	3102.69
471.766	3129.13
472.138	3163.25
472.51	3197.83
472.882	3262
473.253	3309.46
473.625	3333.42
473.997	3380.87
474.369	3410.7
474.74	3395.56
475.112	3495.44
475.484	3554.65
475.855	3602.33
476.227	3620.19
476.598	3698.15
476.97	3679.62
477.341	3720.75
477.713	3845.49
478.084	3875.77
478.455	3918.94
478.827	3952.61
479.198	4115.09
479.569	4120.97
479.94	4198.48
480.311	4222.21
480.682	4316.89
481.053	4370.45
481.424	4409.09
481.795	4449.09
482.166	4490.67
482.537	4567.96
482.908	4644.57
483.279	4651.8
483.65	4748.07
484.021	4859.7
484.391	4878.46
484.762	4879.59
485.133	4937.67
485.503	5043.65
485.874	5091.34
486.244	5116.19
486.615	5193.71
486.985	5279.35
487.356	5353.7
487.726	5377.43
488.097	5484.55
488.467	5465.56
488.837	5595.5
489.207	5606.35
489.578	5609.51
489.948	5720.25
490.318	5879.11
490.688	5838.66
491.058	5915.04
491.428	5973.8
491.798	5986.9
492.168	6078.88
492.538	6096.73
492.908	6190.52
493.278	6307.8
493.648	6277.52
494.017	6347.12
494.387	6371.3
494.757	6447.23
495.126	6515.48
495.496	6482.71
495.866	6504.86
496.235	6559.77
496.605	6610.17
496.974	6655.36
497.344	6687.45
497.713	6693.78
498.082	6729.71
498.452	6839.76
498.821	6827.33
499.19	6851.29
499.559	6911.17
499.928	6942.13
500.298	6943.72
500.667	7044.73
501.036	6991.17
501.405	7029.59
501.774	7060.1
502.143	7103.26
502.512	7111.39
502.88	7211.28
503.249	7174.67
503.618	7221.67
503.987	7291.73
504.356	7267.1
504.724	7252.63
505.093	7297.38
505.462	7331.05
505.83	7398.62
506.199	7453.08
506.567	7472.29
506.936	7475.68
507.304	7568.56
507.672	7517.94
508.041	7609.69
508.409	7619.86
508.777	7616.24
509.145	7723.81
509.514	7688.33
509.882	7742.11
510.25	7665.28
510.618	7747.08
510.986	7760.87
511.354	7821.66
511.722	7816.69
512.09	7844.26
512.458	7860.75
512.826	7887.87
513.193	7917.7
513.561	7922.67
513.929	7938.72
514.297	7944.82
514.664	8015.78
515.032	8041.99
515.4	8006.29
515.767	8107.75
516.135	8148.66
516.502	8006.29
516.869	8154.98
517.237	8205.15
517.604	8140.97
517.972	8179.84
518.339	8212.83
518.706	8211.7
519.073	8195.66
519.44	8259.16
519.808	8333.28
520.175	8320.85
520.542	8335.32
520.909	8348.88
521.276	8337.13
521.643	8393.85
522.009	8469.55
522.376	8407.41
522.743	8468.42
523.11	8527.4
523.477	8508.19
523.843	8590.68
524.21	8629.77
524.577	8612.6
524.943	8620.06
525.31	8705.7
525.676	8758.58
526.043	8721.52
526.409	8729.66
526.776	8852.37
527.142	8790.22
527.508	8816.66
527.874	8784.35
528.241	8857.11
528.607	8808.07
528.973	8913.38
529.339	8859.82
529.705	8872.25
530.071	8994.06
530.437	8965.36
530.803	8996.77
531.169	9004
531.535	8963.32
531.901	8949.54
532.267	9012.81
532.632	8999.03
532.998	9042.42
533.364	9067.28
533.73	9031.12
534.095	9061.17
534.461	9023.89
534.826	8992.02
535.192	9046.03
535.557	9087.39
535.923	9058.46
536.288	9049.65
536.653	9072.7
537.019	9041.74
537.384	9043.77
537.749	9112.02
538.114	9077.44
538.479	9137.56
538.845	9106.37
539.21	9082.64
539.575	9005.13
539.94	9025.47
540.305	9147.95
540.67	9034.28
541.034	9058.91
541.399	9040.38
541.764	9098.01
542.129	9051.68
542.494	9091.23
542.858	9063.89
543.223	9020.5
543.587	9074.28
543.952	9044.23
544.316	9073.15
544.681	9031.8
545.045	9092.59
545.41	9077.22
545.774	9065.02
546.138	9003.55
546.503	9077.44
546.867	8975.75
547.231	9049.42
547.595	9013.49
547.959	9057.33
548.324	8984.34
548.688	9034.51
549.052	9065.47
549.416	9059.14
549.779	9039.25
550.143	9001.74
550.507	9044.9
550.871	9056.65
551.235	8996.77
551.599	9047.16
551.962	8987.5
552.326	9052.59
552.689	9084.9
553.053	8997.22
553.417	9053.72
553.78	9067.5
554.143	9002.19
554.507	9071.57
554.87	9081.96
555.234	9100.5
555.597	9020.95
555.96	9011.46
556.323	9098.46
556.686	9032.7
557.05	9039.71
557.413	9053.49
557.776	9018.69
558.139	9087.61
558.502	9107.27
558.865	9083.77
559.228	9114.28
559.59	9219.14
559.953	9150.44
560.316	9241.96
560.679	9099.59
561.041	9199.48
561.404	9187.72
561.767	9299.81
562.129	9238.57
562.492	9331
562.854	9295.07
563.217	9279.93
563.579	9323.09
563.941	9382.75
564.304	9367.15
564.666	9439.7
565.028	9450.32
565.39	9432.69
565.753	9452.8
566.115	9469.07
566.477	9486.7
566.839	9535.51
567.201	9614.15
567.563	9513.14
567.925	9649.63
568.287	9670.42
568.648	9604.89
569.01	9655.51
569.372	9698.22
569.734	9722.63
570.095	9742.29
570.457	9698.67
570.819	9845.33
571.18	9751.33
571.542	9832.68
571.903	9840.14
572.265	9846.92
572.626	9882.17
572.987	9887.37
573.349	9920.59
573.71	10051.2
574.071	9976.86
574.432	9987.25
574.794	10108.15
575.155	10068.83
575.516	10039.23
575.877	10154.03
576.238	10045.56
576.599	10142.5
576.96	10150.19
577.32	10170.3
577.681	10196.51
578.042	10263.63
578.403	10269.96
578.763	10281.03
579.124	10213.91
579.485	10299.56
579.845	10342.04
580.206	10362.83
580.566	10389.05
580.927	10326.68
581.287	10503.17
581.648	10387.92
582.008	10410.52
582.368	10433.34
582.728	10513.57
583.089	10454.13
583.449	10515.83
583.809	10508.82
584.169	10584.75
584.529	10517.41
584.889	10641.25
585.249	10562.38
585.609	10477.18
585.969	10637.86
586.329	10596.05
586.688	10650.06
587.048	10719.21
587.408	10678.76
587.768	10655.03
588.127	10733.45
588.487	10629.27
588.846	10783.39
589.206	10742.03
589.565	10735.25
589.925	10854.57
590.284	10759.66
590.643	10810.96
591.003	10843.73
591.362	10810.28
591.721	10768.25
592.08	10809.6
592.44	10876.27
592.799	10939.77
593.158	10878.53
593.517	10896.83
593.876	10963.05
594.235	10936.83
594.593	10995.59
594.952	10884.18
595.311	10916.72
595.67	10964.63
596.029	11033.1
596.387	10986.1
596.746	10993.55
597.104	11025.19
597.463	10975.25
597.822	11037.17
598.18	11007.56
598.538	10995.59
598.897	11081.69
599.255	11011.63
599.613	11125.75
599.972	11080.56
600.33	11066.77
600.688	11061.57
601.046	11072.87
601.404	11159.65
601.762	11067.45
602.12	11144.96
602.478	11186.77
602.836	11199.88
603.194	11053.44
603.552	11160.55
603.91	11176.37
604.268	11063.83
604.625	11140.89
604.983	11254.11
605.341	11076.71
605.698	11182.7
606.056	11158.97
606.413	11215.02
606.771	11238.74
607.128	11265.64
607.485	11270.61
607.843	11184.06
608.2	11191.97
608.557	11323.04
608.914	11314.9
609.272	11272.19
609.629	11297.27
609.986	11333.2
610.343	11358.29
610.7	11421.56
611.057	11339.08
611.414	11332.07
611.771	11410.72
612.127	11437.83
612.484	11396.03
612.841	11407.1
613.198	11508.12
613.554	11425.41
613.911	11441.22
614.267	11456.82
614.624	11502.92
614.98	11471.28
615.337	11523.71
615.693	11507.89
616.05	11478.06
616.406	11580.2
616.762	11526.65
617.118	11523.03
617.475	11530.04
617.831	11553.76
618.187	11547.89
618.543	11514.67
618.899	11637.6
619.255	11562.13
619.611	11551.73
619.967	11567.32
620.323	11545.18
620.678	11523.26
621.034	11544.72
621.39	11609.13
621.746	11537.49
622.101	11627.89
622.457	11617.94
622.812	11637.83
623.168	11664.72
623.523	11569.36
623.879	11704.95
624.234	11585.18
624.589	11611.62
624.945	11668.11
625.3	11670.15
625.655	11674.66
626.01	11656.13
626.365	11629.02
626.72	11596.25
627.075	11596.25
627.43	11634.89
627.785	11587.21
628.14	11560.54
628.495	11627.21
628.85	11571.16
629.205	11509.92
629.559	11605.29
629.914	11544.5
630.269	11626.08
630.623	11535.91
630.978	11533.88
631.332	11512.64
631.687	11499.08
632.041	11440.55
632.396	11430.83
632.75	11442.58
633.104	11486.65
633.459	11419.98
633.813	11425.41
634.167	11364.62
634.521	11314.67
634.875	11368.46
635.229	11357.84
635.583	11352.41
635.937	11311.28
636.291	11244.39
636.645	11287.56
636.999	11315.35
637.352	11324.17
637.706	11254.79
638.06	11269.25
638.413	11269.48
638.767	11256.82
639.121	11234.45
639.474	11167.79
639.828	11109.93
640.181	11211.85
640.534	11211.4
640.888	11234
641.241	11093.89
641.594	11144.06
641.947	11179.76
642.301	11087.11
642.654	11153.55
643.007	11110.61
643.36	11119.43
643.713	11043.04
644.066	11093.89
644.419	11060.67
644.771	11006.21
645.124	10979.32
645.477	10925.53
645.83	10835.36
646.182	10779.32
646.535	10815.7
646.888	10675.37
647.24	10659.55
647.593	10796.95
647.945	10763.05
648.298	10664.75
648.65	10699.55
649.002	10686.22
649.355	10733.67
649.707	10737.74
650.059	10768.47
650.411	10883.27
650.763	10777.97
651.115	10958.98
651.467	10921.46
651.819	10947
652.171	10950.16
652.523	10881.24
652.875	10899.77
653.227	10888.24
653.578	10892.31
653.93	10925.08
654.282	10857.06
654.633	10852.99
654.985	10919.43
655.337	10969.37
655.688	10932.09
656.039	10946.77
656.391	10831.98
656.742	10805.54
657.094	10894.8
657.445	10904.29
657.796	10861.13
658.147	10824.52
658.498	10836.27
658.849	10933.22
659.2	10854.57
659.551	10890.5
659.902	10885.76
660.253	10932.09
660.604	10935.02
660.955	10858.42
661.306	10860
661.656	10856.16
662.007	10831.3
662.358	10857.96
662.708	10847.34
663.059	10865.42
663.409	10797.85
663.76	10878.08
664.11	10951.97
664.461	10867
664.811	10908.58
665.161	10924.4
665.511	10862.93
665.862	10888.02
666.212	10853.22
666.562	10957.17
666.912	10887.11
667.262	10901.35
667.612	10895.02
667.962	10891.63
668.312	10882.6
668.662	10893.44
669.011	10907.45
669.361	10857.74
669.711	10859.77
670.06	10879.88
670.41	10809.83
670.76	10785.87
671.109	10781.58
671.459	10831.3
671.808	10813.44
672.157	10816.83
672.507	10775.03
672.856	10723.28
673.205	10825.87
673.554	10778.19
673.904	10838.75
674.253	10803.05
674.602	10766.67
674.951	10566.67
675.3	10623.17
675.649	10737.74
675.998	10716.27
676.346	10667.01
676.695	10688.02
677.044	10615.71
677.393	10654.35
677.741	10677.63
678.09	10664.52
678.438	10614.58
678.787	10631.3
679.135	10635.37
679.484	10573.68
679.832	10539.33
680.181	10550.4
680.529	10477.63
680.877	10482.38
681.225	10463.85
681.573	10549.04
681.922	10520.57
682.27	10432.44
682.618	10443.51
682.966	10442.61
683.314	10458.88
683.661	10378.43
684.009	10329.62
684.357	10319.22
684.705	10320.8
685.053	10294.81
685.4	10275.38
685.748	10194.93
686.095	10263.63
686.443	10238.54
686.79	10223.63
687.138	10137.76
687.485	10124.65
687.832	10080.13
688.18	10169.39
688.527	10161.94
688.874	10100.69
689.221	10022.28
689.568	10005.78
689.915	9877.88
690.262	9943.41
690.609	9907.71
690.956	9893.24
691.303	9878.1
691.65	9758.33
691.997	9791.32
692.344	9751.33
692.69	9762.4
693.037	9731.21
693.383	9621.16
693.73	9613.25
694.077	9557.43
694.423	9655.06
694.769	9546.59
695.116	9516.98
695.462	9532.12
695.808	9470.88
696.155	9495.06
696.501	9427.27
696.847	9370.32
697.193	9319.25
697.539	9352.47
697.885	9297.55
698.231	9292.81
698.577	9234.95
698.923	9259.59
699.269	9198.12
699.614	9192.7
699.96	9123.09
700.306	9057.33
700.651	9102.98
700.997	9042.42
701.342	8972.81
701.688	8961.74
702.033	8920.39
702.379	8921.97
702.724	8881.29
703.069	8889.65
703.415	8855.53
703.76	8752.93
704.105	8819.15
704.45	8739.83
704.795	8744.57
705.14	8660.73
705.485	8641.98
705.83	8635.87
706.175	8610.34
706.52	8590.45
706.865	8550.91
707.209	8503.45
707.554	8477.01
707.899	8485.82
708.243	8407.18
708.588	8424.81
708.932	8339.61
709.277	8381.42
709.621	8362.66
709.966	8343
710.31	8358.59
710.654	8261.87
710.998	8314.3
711.342	8253.74
711.687	8293.51
712.031	8211.7
712.375	8249.9
712.719	8198.37
713.063	8159.5
713.407	8123.8
713.75	8120.18
714.094	8183.23
714.438	8074.76
714.782	8136
715.125	8067.98
715.469	8047.19
715.812	8054.42
716.156	7974.65
716.499	8010.35
716.843	8013.29
717.186	7944.82
717.53	8027.08
717.873	7964.71
718.216	7950.92
718.559	7961.99
718.902	7923.35
719.246	7911.15
719.589	7892.17
719.932	7842.22
720.275	7803.35
720.617	7843.13
720.96	7846.97
721.303	7823.92
721.646	7839.06
721.989	7762.23
722.331	7804.03
722.674	7817.14
723.016	7859.17
723.359	7782.56
723.701	7834.09
724.044	7796.57
724.386	7736.24
724.729	7773.3
725.071	7745.73
725.413	7762.68
725.755	7742.79
726.097	7699.63
726.439	7718.38
726.782	7729.46
727.124	7769
727.465	7685.39
727.807	7652.4
728.149	7684.94
728.491	7660.53
728.833	7671.83
729.175	7622.79
729.516	7656.47
729.858	7620.99
730.199	7688.1
730.541	7625.28
730.882	7606.3
731.224	7635.67
731.565	7590.48
731.906	7585.51
732.248	7612.17
732.589	7601.78
732.93	7546.19
733.271	7523.14
733.612	7587.99
733.953	7604.26
734.294	7623.92
734.635	7604.94
734.976	7543.7
735.317	7509.12
735.658	7537.82
735.999	7559.97
736.339	7524.27
736.68	7603.13
737.021	7568.11
737.361	7585.96
737.702	7562
738.042	7518.39
738.383	7575.56
738.723	7594.32
739.063	7569.46
739.404	7594.77
739.744	7550.93
740.084	7562.68
740.424	7593.42
740.764	7605.62
741.104	7561.55
741.444	7579.63
741.784	7606.52
742.124	7651.95
742.464	7607.88
742.804	7693.3
743.143	7588.22
743.483	7731.27
743.823	7667.76
744.162	7688.1
744.502	7749.8
744.841	7688.55
745.181	7798.61
745.52	7825.73
745.86	7853.75
746.199	7826.86
746.538	7858.72
746.877	7909.11
747.216	7952.28
747.556	7971.26
747.895	7978.94
748.234	8033.63
748.573	8086.74
748.911	8077.25
749.25	8119.05
749.589	8171.03
749.928	8255.32
750.267	8259.16
750.605	8323.34
750.944	8389.78
751.283	8480.4
751.621	8507.74
751.96	8540.74
752.298	8643.33
752.636	8752.03
752.975	8802.42
753.313	8788.64
753.651	8923.78
753.989	8981.4
754.327	9081.96
754.666	9183.2
755.004	9364.67
755.342	9406.93
755.679	9438.79
756.017	9566.02
756.355	9673.14
756.693	9729.86
757.031	9867.48
757.368	9986.57
757.706	10131.65
758.044	10156.51
758.381	10315.83
758.719	10376.39
759.056	10613
759.394	10715.59
759.731	10775.03
760.068	10921.92
760.405	11027
760.743	11088.69
761.08	11287.33
761.417	11292.3
761.754	11433.32
762.091	11598.28
762.428	11668.79
762.765	11868.11
763.102	11959.18
763.438	12064.94
763.775	12189.45
764.112	12400.52
764.449	12556
764.785	12603.23
765.122	12655.43
765.458	12758.7
765.795	13028.08
766.131	13118.47
766.467	13156.66
766.804	13337.67
767.14	13340.61
767.476	13491.79
767.812	13525.46
768.148	13712.58
768.485	13748.51
768.821	13841.39
769.157	13934.27
769.492	14013.59
769.828	14030.31
770.164	14169.06
770.5	14328.38
770.836	14350.98
771.171	14367.02
771.507	14480.69
771.842	14501.48
772.178	14592.33
772.513	14678.88
772.849	14647.92
773.184	14720.01
773.519	14708.94
773.855	14797.97
774.19	14877.74
774.525	14859.44
774.86	14997.29
775.195	14992.77
775.53	15047.23
775.865	14980.34
776.2	14984.41
776.535	15052.88
776.87	15128.81
777.205	15193.22
777.539	15121.58
777.874	15174.46
778.209	15122.03
778.543	15113.22
778.878	15187.79
779.212	15209.94
779.547	15146.89
779.881	15168.13
780.215	15246.1
780.55	15230.05
780.884	15251.29
781.218	15256.04
781.552	15298.52
781.886	15249.26
782.22	15209.49
782.554	15269.37
782.888	15186.21
783.222	15159.09
783.556	15124.29
783.889	15116.16
784.223	15063.28
784.557	15124.07
784.89	15169.26
785.224	15096.5
785.557	15049.72
785.891	15067.34
786.224	15116.61
786.558	15036.61
786.891	15056.95
787.224	14956.61
787.557	14937.86
787.891	14921.13
788.224	14941.47
788.557	14948.7
788.89	14907.8
789.223	14967.91
789.556	14786.9
789.888	14792.1
790.221	14838.2
790.554	14685.43
790.887	14754.81
791.219	14654.93
791.552	14693.34
791.884	14631.2
792.217	14621.25
792.549	14570.18
792.882	14575.61
793.214	14437.76
793.546	14501.48
793.879	14424.87
794.211	14451.09
794.543	14445.67
794.875	14407.93
795.207	14418.32
795.539	14341.49
795.871	14344.43
796.203	14226.24
796.535	14179.68
796.867	14141.49
797.198	14138.78
797.53	14142.85
797.862	14068.5
798.193	14040.48
798.525	13960.03
798.856	14000.71
799.188	13867.38
799.519	13905.79
799.85	13771.56
800.182	13905.57
800.513	13887.04
800.844	13744.21
801.175	13810.88
801.506	13810.88
801.837	13802.29
802.168	13715.06
802.499	13640.49
802.83	13629.64
803.161	13589.87
803.491	13608.63
803.822	13571.56
804.153	13496.54
804.483	13408.18
804.814	13292.48
805.145	13416.77
805.475	13336.32
805.805	13299.25
806.136	13314.85
806.466	13291.8
806.796	13239.82
807.126	13187.39
807.457	13208.41
807.787	13192.14
808.117	13106.72
808.447	13065.59
808.777	13088.19
809.107	12974.29
809.436	13012.03
809.766	13046.83
810.096	12953.28
810.426	12916.67
810.755	12882.99
811.085	12836.44
811.414	12887.06
811.744	12775.43
812.073	12726.61
812.403	12794.41
812.732	12660.4
813.061	12637.8
813.39	12648.42
813.719	12604.58
814.049	12693.62
814.378	12638.71
814.707	12552.16
815.036	12600.97
815.365	12469.45
815.693	12499.5
816.022	12469.67
816.351	12401.43
816.68	12343.8
817.008	12448.2
817.337	12307.19
817.665	12298.83
817.994	12327.53
818.322	12285.5
818.651	12276.46
818.979	12253.18
819.307	12207.53
819.636	12208.44
819.964	12106.52
820.292	12257.02
820.62	12167.31
820.948	12134.54
821.276	12195.56
821.604	12130.02
821.932	12255.89
822.259	12091.38
822.587	12110.13
822.915	12134.99
823.243	12173.41
823.57	12119.62
823.898	12089.8
824.225	12075.78
824.553	12004.37
824.88	12050.93
825.207	12183.58
825.535	12115.33
825.862	12134.54
826.189	12103.81
826.516	12159.4
826.843	12200.07
827.17	12090.25
827.497	12142.68
827.824	12050.7
828.151	12169.57
828.478	12070.59
828.805	12197.81
829.131	12104.26
829.458	12065.84
829.785	11994.2
830.111	12158.04
830.438	12212.73
830.764	12154.65
831.09	12190.81
831.417	12079.17
831.743	12090.93
832.069	12119.85
832.395	12100.64
832.722	12126.86
833.048	12120.3
833.374	12053.19
833.7	12026.97
834.026	12034.43
834.351	11993.3
834.677	12042.11
835.003	12073.07
835.329	11998.05
835.654	11991.72
835.98	11983.13
836.306	11954.21
836.631	11917.14
836.956	11929.8
837.282	12005.5
837.607	11859.07
837.932	11916.92
838.258	11872.4
838.583	11844.38
838.908	11842.8
839.233	11808.9
839.558	11743.14
839.883	11755.34
840.208	11602.8
840.533	11629.02
840.858	11694.1
841.182	11736.58
841.507	11693.87
841.832	11621.56
842.156	11628.34
842.481	11577.72
842.805	11578.62
843.13	11547.66
843.454	11527.32
843.778	11503.82
844.103	11454.11
844.427	11403.26
844.751	11500.43
845.075	11385.18
845.399	11374.33
845.723	11292.53
846.047	11283.71
846.371	11200.33
846.695	11202.36
847.019	11132.08
847.343	11119.65
847.666	11022.25
847.99	11049.37
848.313	11034.23
848.637	10982.03
848.96	10911.07
849.284	10888.92
849.607	10796.04
849.931	10765.76
850.254	10653.9
850.577	10669.27
850.9	10619.55
851.223	10584.52
851.546	10556.28
851.869	10453.23
852.192	10558.99
852.515	10411.42
852.838	10424.53
853.161	10360.12
853.483	10345.89
853.806	10322.16
854.129	10251.65
854.451	10276.51
854.774	10211.88
855.096	10100.47
855.419	10112.22
855.741	10102.73
856.063	10093.69
856.385	10008.04
856.708	9997.65
857.03	9946.57
857.352	10009.17
857.674	9925.33
857.996	9918.55
858.318	9832.68
858.64	9834.26
858.961	9870.87
859.283	9788.39
859.605	9730.54
859.926	9726.02
860.248	9653.47
860.57	9701.38
860.891	9658.22
861.212	9615.06
861.534	9622.97
861.855	9582.97
862.176	9589.97
862.498	9626.13
862.819	9586.36
863.14	9436.98
863.461	9513.14
863.782	9457.55
864.103	9480.6
864.424	9442.18
864.745	9427.49
865.065	9420.71
865.386	9405.12
865.707	9400.15
866.027	9382.97
866.348	9379.13
866.668	9332.81
866.989	9349.53
867.309	9196.31
867.63	9295.74
867.95	9233.15
868.27	9160.83
868.59	9257.78
868.91	9225.24
869.23	9196.76
869.55	9136.43
869.87	9214.39
870.19	9156.99
870.51	9147.27
870.83	9145.92
871.15	9125.81
871.469	9089.87
871.789	9126.26
872.109	9064.34
872.428	9036.54
872.748	9096.43
873.067	9006.03
873.386	9058.46
873.706	8994.96
874.025	8981.85
874.344	9028.18
874.663	9009.88
874.982	8985.24
875.301	8975.3
875.62	8902.76
875.939	8942.76
876.258	8886.72
876.577	8822.54
876.896	8842.65
877.214	8912.25
877.533	8790.67
877.852	8844.68
878.17	8798.36
878.489	8811.92
878.807	8833.84
879.125	8714.29
879.444	8792.03
879.762	8754.97
880.08	8673.16
880.398	8659.83
880.716	8701.86
881.034	8670.22
881.352	8714.74
881.67	8618.93
881.988	8615.99
882.306	8684.01
882.624	8561.53
882.941	8620.28
883.259	8549.78
883.577	8526.05
883.894	8509.32
884.212	8497.12
884.529	8465.03
884.846	8433.85
885.164	8378.03
885.481	8394.75
885.798	8432.72
886.115	8353.62
886.432	8321.53
886.75	8339.39
887.067	8315.21
887.383	8224.59
887.7	8271.59
888.017	8259.84
888.334	8295.09
888.651	8246.28
888.967	8237.02
889.284	8149.33
889.6	8163.8
889.917	8062.33
890.233	8143.91
890.55	8072.27
890.866	8058.26
891.182	7978.72
891.498	7919.28
891.815	7919.74
892.131	7955.21
892.447	7905.95
892.763	7927.64
893.079	7901.66
893.395	7912.05
893.71	7899.17
894.026	7846.97
894.342	7814.2
894.657	7742.11
894.973	7740.53
895.289	7725.84
895.604	7737.59
895.92	7694.88
896.235	7562.46
896.55	7639.74
896.865	7551.61
897.181	7565.39
897.496	7555.23
897.811	7535.56
898.126	7490.14
898.441	7531.72
898.756	7432.29
899.071	7399.52
899.386	7410.14
899.7	7322.01
900.015	7279.98
900.33	7265.06
900.644	7291.96
900.959	7229.13
901.273	7233.43
901.588	7170.6
901.902	7094.22
902.216	7087.89
902.531	7154.56
902.845	7037.5
903.159	7027.78
903.473	7006.54
903.787	6974.22
904.101	6985.3
904.415	6941.23
904.729	6833.44
905.042	6881.8
905.356	6871.18
905.67	6885.86
905.984	6862.81
906.297	6866.2
906.611	6749.14
906.924	6799.09
907.237	6702.59
907.551	6696.49
907.864	6685.64
908.177	6657.85
908.491	6637.28
908.804	6638.64
909.117	6590.96
909.43	6494.91
909.743	6554.57
910.056	6534.01
910.368	6467.8
910.681	6432.77
910.994	6436.84
911.307	6440.23
911.619	6323.17
911.932	6355.48
912.244	6322.94
912.557	6292.21
912.869	6288.14
913.181	6223.51
913.494	6216.05
913.806	6187.35
914.118	6193.23
914.43	6136.51
914.742	6079.33
915.054	6050.86
915.366	6139.9
915.678	6019.67
915.99	6025.1
916.302	6003.85
916.613	5944.65
916.925	5990.75
917.236	5949.17
917.548	5838.66
917.859	5866.91
918.171	5868.72
918.482	5809.73
918.794	5782.84
919.105	5782.62
919.416	5750.53
919.727	5798.66
920.038	5737.65
920.349	5679.12
920.66	5658.1
920.971	5663.07
921.282	5658.55
921.593	5576.75
921.903	5576.75
922.214	5539.01
922.525	5516.18
922.835	5515.28
923.146	5504.88
923.456	5461.49
923.767	5449.29
924.077	5479.57
924.387	5381.72
924.697	5386.92
925.008	5381.04
925.318	5292.46
925.628	5339.46
925.938	5302.63
926.248	5188.96
926.558	5240.03
926.867	5224.44
927.177	5171.33
927.487	5146.02
927.796	5109.41
928.106	5139.47
928.416	5128.85
928.725	5116.19
929.034	5067.61
929.344	5045.69
929.653	5047.04
929.962	5016.08
930.271	4949.42
930.581	4958.46
930.89	4943.54
931.199	4951.45
931.508	4905.58
931.817	4907.39
932.125	4875.97
932.434	4863.54
932.743	4849.76
933.051	4805.69
933.36	4798.91
933.669	4738.35
933.977	4723.89
934.286	4757.33
934.594	4711.91
934.902	4694.74
935.21	4685.92
935.519	4682.76
935.827	4664.68
936.135	4627.62
936.443	4635.75
936.751	4537.68
937.059	4541.74
937.367	4516.89
937.674	4558.24
937.982	4545.59
938.29	4447.74
938.597	4519.15
938.905	4443.67
939.213	4467.62
939.52	4394.63
939.827	4394.63
940.135	4421.52
940.442	4362.54
940.749	4299.04
941.056	4336.55
941.363	4287.06
941.67	4249.1
941.977	4254.29
942.284	4219.72
942.591	4248.65
942.898	4228.53
943.205	4227.18
943.511	4185.14
943.818	4158.93
944.125	4147.63
944.431	4153.73
944.738	4116.22
945.044	4121.42
945.35	4113.51
945.657	4054.3
945.963	4016.11
946.269	4018.59
946.575	3986.51
946.881	3970.91
947.187	3975.43
947.493	3956.68
947.799	3942.44
948.105	3926.62
948.41	3905.15
948.716	3912.16
949.022	3876.9
949.327	3844.36
949.633	3824.93
949.938	3850.92
950.244	3843.23
950.549	3818.6
950.854	3751.71
951.16	3753.74
951.465	3756.45
951.77	3709.68
952.075	3736.34
952.38	3696.57
952.685	3716
952.99	3644.14
953.294	3689.79
953.599	3617.48
953.904	3625.84
954.209	3570.92
954.513	3564.14
954.818	3564.14
955.122	3574.54
955.426	3518.5
955.731	3514.88
956.035	3530.47
956.339	3515.78
956.643	3521.43
956.948	3440.08
957.252	3456.58
957.556	3414.77
957.86	3419.97
958.163	3362.34
958.467	3416.35
958.771	3414.77
959.075	3373.64
959.378	3323.7
959.682	3351.27
959.985	3370.25
960.289	3313.75
960.592	3298.61
960.896	3263.59
961.199	3283.47
961.502	3248.9
961.805	3252.29
962.108	3239.63
962.411	3229.24
962.714	3171.61
963.017	3207.09
963.32	3186.98
963.623	3194.44
963.926	3191.27
964.228	3141.1
964.531	3175.23
964.833	3125.51
965.136	3100.2
965.438	3088.9
965.741	3062.46
966.043	3057.49
966.345	3009.36
966.648	3019.3
966.95	3026.76
967.252	2989.02
967.554	3010.49
967.856	2975.68
968.158	2968.9
968.46	2961.22
968.761	2948.11
969.063	2938.4
969.365	2939.3
969.666	2894.33
969.968	2876.03
970.269	2872.86
970.571	2869.92
970.872	2829.93
971.174	2812.75
971.475	2818.63
971.776	2832.19
972.077	2801.68
972.378	2793.77
972.679	2815.46
972.98	2794.45
973.281	2771.17
973.582	2760.1
973.883	2713.09
974.183	2754.45
974.484	2741.11
974.785	2699.31
975.085	2673.32
975.386	2687.33
975.686	2666.31
975.986	2666.31
976.287	2688.23
976.587	2640.33
976.887	2647.56
977.187	2603.72
977.487	2616.82
977.787	2573.89
978.087	2563.27
978.387	2577.95
978.687	2509.48
978.987	2572.98
979.286	2531.4
979.586	2491.63
979.885	2504.28
980.185	2531.18
980.484	2499.31
980.784	2467.22
981.083	2450.05
981.382	2431.29
981.682	2427.22
981.981	2428.35
982.28	2436.49
982.579	2417.73
982.878	2382.71
983.177	2398.3
983.475	2349.94
983.774	2357.85
984.073	2349.71
984.372	2328.02
984.67	2344.97
984.969	2344.29
985.267	2332.31
985.566	2318.75
985.864	2302.71
986.162	2297.06
986.461	2276.95
986.759	2263.61
987.057	2270.17
987.355	2244.86
987.653	2243.73
987.951	2199.43
988.249	2229.72
988.547	2221.81
988.844	2198.53
989.142	2196.04
989.44	2172.09
989.737	2186.78
990.035	2163.05
990.332	2150.4
990.63	2154.69
990.927	2148.81
991.224	2095.03
991.521	2116.5
991.819	2162.37
992.116	2114.69
992.413	2096.61
992.71	2095.71
993.006	2031.3
993.303	2041.25
993.6	2049.83
993.897	2029.72
994.193	2024.3
994.49	2033.11
994.787	2036.27
995.083	1984.3
995.379	1987.69
995.676	1961.7
995.972	1960.12
996.268	1979.55
996.565	1938.88
996.861	1953.79
997.157	1961.02
997.453	1926.45
997.749	1905.2
998.044	1900.23
998.34	1911.76
998.636	1887.58
998.932	1863.85
999.227	1879.89
999.523	1840.12
999.818	1848.71
1000.114	1817.97
1000.409	1835.15
1000.704	1808.48
1001	1814.13
1001.295	1804.42
1001.59	1780.91
1001.885	1770.52
1002.18	1771.65
1002.475	1753.34
1002.77	1741.82
1003.065	1730.75
1003.359	1725.1
1003.654	1728.71
1003.949	1735.72
1004.243	1714.02
1004.538	1718.54
1004.832	1696.4
1005.127	1713.8
1005.421	1706.34
1005.715	1640.35
1006.009	1635.15
1006.304	1662.05
1006.598	1617.08
1006.892	1605.78
1007.186	1620.69
1007.48	1596.51
1007.773	1612.1
1008.067	1618.43
1008.361	1582.05
1008.655	1573.46
1008.948	1569.17
1009.242	1591.99
1009.535	1551.32
1009.829	1553.57
1010.122	1523.97
1010.415	1549.28
1010.708	1524.65
1011.001	1523.75
1011.295	1487.81
1011.588	1475.84
1011.881	1495.5
1012.173	1492.33
1012.466	1481.49
1012.759	1459.34
1013.052	1446.01
1013.344	1435.39
1013.637	1446.91
1013.93	1391.32
1014.222	1414.14
1014.514	1414.14
1014.807	1394.71
1015.099	1399
1015.391	1375.73
1015.683	1355.39
1015.976	1377.99
1016.268	1376.86
1016.56	1325.78
1016.851	1353.81
1017.143	1333.69
1017.435	1311.77
1017.727	1321.49
1018.018	1317.87
1018.31	1311.32
1018.602	1287.14
1018.893	1286.92
1019.185	1279.01
1019.476	1284.2
1019.767	1269.06
1020.058	1246.24
1020.35	1246.92
1020.641	1236.52
1020.932	1214.6
1021.223	1225
1021.514	1210.99
1021.804	1218.44
1022.095	1181.38
1022.386	1200.14
1022.677	1189.74
1022.967	1147.71
1023.258	1201.95
1023.548	1185.22
1023.839	1173.7
1024.129	1159.46
1024.419	1166.47
1024.709	1133.47
1025	1134.38
1025.29	1112.91
1025.58	1112.46
1025.87	1107.03
1026.16	1100.71
1026.449	1089.86
1026.739	1078.11
1027.029	1089.63
1027.319	1084.21
1027.608	1078.11
1027.898	1042.4
1028.187	1050.99
1028.477	1053.25
1028.766	1053.02
1029.055	1038.33
1029.344	1041.05
1029.634	1039.46
1029.923	1006.47
1030.212	1005.34
1030.501	1016.41
1030.79	979.58
1031.078	1004.21
1031.367	1013.02
1031.656	984.55
1031.945	976.42
1032.233	989.07
1032.522	963.53
1032.81	949.52
1033.099	944.1
1033.387	947.94
1033.675	947.94
1033.963	912.01
1034.251	928.51
1034.54	919.47
1034.828	895.74
1035.116	929.86
1035.403	912.46
1035.691	895.29
1035.979	901.16
1036.267	905.46
1036.554	883.08
1036.842	885.34
1037.129	880.6
1037.417	874.27
1037.704	870.66
1037.992	851.45
1038.279	853.03
1038.566	879.92
1038.853	879.92
1039.14	879.92
