Data from hue_200_FLMS001491_00063.txt Node
Date: Tue Feb 07 16:43:46 GMT 2017
User: dcchb
Spectrometer: FLMS00149
Trigger mode: 0
Integration Time (sec): 2.000000E-2
Scans to average: 10
Electric dark correction enabled: true
Nonlinearity correction enabled: false
Boxcar width: 0
XAxis mode: Wavelengths
Number of Pixels in Spectrum: 2048
>>>>>Begin Spectral Data<<<<<
341.393	-36.91
341.776	-36.91
342.16	-36.91
342.543	-70.13
342.927	-79.62
343.31	-62.22
343.693	-77.36
344.077	-65.61
344.46	-55.21
344.843	-47.98
345.226	-54.31
345.61	-34.65
345.993	-30.8
346.376	1.96
346.759	21.62
347.142	35.18
347.525	29.08
347.908	54.17
348.291	98.68
348.674	93.94
349.057	93.49
349.44	132.36
349.823	147.95
350.206	136.2
350.588	196.99
350.971	190.21
351.354	224.56
351.737	215.74
352.119	257.78
352.502	260.94
352.884	262.07
353.267	292.13
353.65	288.96
354.032	292.8
354.414	285.8
354.797	320.82
355.179	319.47
355.562	321.5
355.944	311.56
356.326	320.15
356.709	342.07
357.091	311.79
357.473	327.83
357.855	346.59
358.238	348.85
358.62	314.05
359.002	324.67
359.384	336.19
359.766	344.78
360.148	335.29
360.53	361.05
360.912	331.67
361.294	337.1
361.676	341.39
362.057	336.87
362.439	345.46
362.821	321.95
363.203	333.93
363.584	330.54
363.966	332.35
364.348	333.48
364.729	294.16
365.111	314.5
365.493	328.06
365.874	324.21
366.256	307.94
366.637	294.38
367.019	313.59
367.4	320.82
367.781	325.12
368.163	316.98
368.544	308.62
368.925	312.46
369.306	322.86
369.688	309.3
370.069	320.37
370.45	318.11
370.831	328.06
371.212	319.69
371.593	308.62
371.974	297.55
372.355	318.79
372.736	311.11
373.117	315.4
373.498	308.62
373.879	312.92
374.26	312.69
374.641	313.59
375.021	302.75
375.402	317.66
375.783	348.39
376.163	312.46
376.544	338
376.925	319.69
377.305	326.93
377.686	341.39
378.066	329.41
378.447	341.16
378.827	344.78
379.208	344.78
379.588	329.41
379.968	341.84
380.349	333.48
380.729	356.76
381.109	342.52
381.489	358.79
381.87	328.96
382.25	345.91
382.63	335.51
383.01	345.91
383.39	342.52
383.77	335.51
384.15	323.76
384.53	349.3
384.91	338.23
385.29	344.33
385.67	361.28
386.049	376.87
386.429	361.95
386.809	368.28
387.189	360.15
387.568	350.88
387.948	345.91
388.328	360.6
388.707	376.19
389.087	365.12
389.466	370.99
389.846	363.08
390.225	401.73
390.605	361.95
390.984	379.13
391.363	385.46
391.743	391.78
392.122	387.49
392.501	382.97
392.881	402.86
393.26	405.57
393.639	400.82
394.018	402.18
394.397	393.59
394.776	395.63
395.155	399.47
395.534	399.69
395.913	409.41
396.292	413.93
396.671	427.26
397.05	413.7
397.429	431.56
397.808	411.9
398.186	412.8
398.565	432.69
398.944	428.62
399.323	449.64
399.701	433.59
400.08	437.21
400.458	433.82
400.837	426.13
401.215	450.99
401.594	452.12
401.972	457.32
402.351	456.87
402.729	475.4
403.107	451.89
403.486	463.42
403.864	467.26
404.242	488.96
404.62	476.98
404.999	472.01
405.377	467.26
405.755	500.03
406.133	500.48
406.511	495.51
406.889	509.75
407.267	524.89
407.645	516.53
408.023	524.44
408.401	536.64
408.779	524.44
409.156	566.69
409.534	551.78
409.912	550.42
410.29	588.61
410.667	585.45
411.045	583.87
411.422	597.2
411.8	606.92
412.178	611.66
412.555	617.09
412.933	666.8
413.31	655.73
413.687	670.42
414.065	677.65
414.442	669.52
414.819	691.89
415.197	690.98
415.574	729.18
415.951	735.73
416.328	727.59
416.705	741.38
417.082	739.34
417.46	754.26
417.837	747.93
418.214	785.9
418.591	785.9
418.967	784.09
419.344	833.58
419.721	817.76
420.098	819.79
420.475	854.14
420.852	862.51
421.228	858.21
421.605	883.52
421.982	874.71
422.358	914.93
422.735	940.02
423.111	950.41
423.488	969.4
423.864	962.39
424.241	986.8
424.617	1032.9
424.994	1031.99
425.37	1027.92
425.746	1055.49
426.123	1098.66
426.499	1081.71
426.875	1087.13
427.251	1129.17
427.627	1143.4
428.003	1149.73
428.379	1197.41
428.756	1179.56
429.132	1172.1
429.507	1216.39
429.883	1248.94
430.259	1253.46
430.635	1277.18
431.011	1275.6
431.387	1307.47
431.763	1332.32
432.138	1336.84
432.514	1358.54
432.89	1377.07
433.265	1384.53
433.641	1452.77
434.016	1471.76
434.392	1472.43
434.767	1511.08
435.143	1535.93
435.518	1530.74
435.894	1571.87
436.269	1643.28
436.644	1637.63
437.02	1650.28
437.395	1692.99
437.77	1755.59
438.145	1755.82
438.52	1749.26
438.895	1783.39
439.271	1829.26
439.646	1911.29
440.021	1922.82
440.395	1915.36
440.77	1956.26
441.145	1960.78
441.52	1976.83
441.895	2014.34
442.27	2068.12
442.645	2042.81
443.019	2079.2
443.394	2081.46
443.769	2158.74
444.143	2139.99
444.518	2170.72
444.892	2179.76
445.267	2214.56
445.641	2202.58
446.016	2236.48
446.39	2270.6
446.764	2266.54
447.139	2287.33
447.513	2293.2
447.887	2317.61
448.262	2370.04
448.636	2361.45
449.01	2420.2
449.384	2400.54
449.758	2466.98
450.132	2460.43
450.506	2476.7
450.88	2517.15
451.254	2496.59
451.628	2554.44
452.002	2602.35
452.376	2571.16
452.75	2596.92
453.123	2647.09
453.497	2706.07
453.871	2702.68
454.244	2780.87
454.618	2765.73
454.992	2804.83
455.365	2846.86
455.739	2918.04
456.112	2899.51
456.486	2943.81
456.859	2935.67
457.232	3060.87
457.606	3037.14
457.979	3090.92
458.352	3156.23
458.725	3104.48
459.099	3188.32
459.472	3209.11
459.845	3330.24
460.218	3294.76
460.591	3289.11
460.964	3364.13
461.337	3404.81
461.71	3512.15
462.083	3492.04
462.456	3503.79
462.829	3582.43
463.201	3648.42
463.574	3657.01
463.947	3700.4
464.32	3758.93
464.692	3762.09
465.065	3853.61
465.438	3894.74
465.81	3943.78
466.183	3992.14
466.555	4088.18
466.928	4050.22
467.3	4082.08
467.672	4169.54
468.045	4248.86
468.417	4269.2
468.789	4282.08
469.161	4333.6
469.534	4428.29
469.906	4499.25
470.278	4532.47
470.65	4561.84
471.022	4694.5
471.394	4739.92
471.766	4753.02
472.138	4831.21
472.51	4927.71
472.882	4993.24
473.253	5029.63
473.625	5079.57
473.997	5224.88
474.369	5258.1
474.74	5305.78
475.112	5439.79
475.484	5494.7
475.855	5602.72
476.227	5613.34
476.598	5808.36
476.97	5764.07
477.341	5955.03
477.713	5970.62
478.084	6038.64
478.455	6175.81
478.827	6221.23
479.198	6461
479.569	6392.76
479.94	6552.3
480.311	6610.38
480.682	6745.06
481.053	6873.87
481.424	7004.72
481.795	7085.62
482.166	7179.85
482.537	7214.2
482.908	7383.24
483.279	7467.3
483.65	7630.46
484.021	7692.61
484.391	7805.15
484.762	7830.91
485.133	7951.13
485.503	7972.83
485.874	8162.65
486.244	8251.01
486.615	8361.29
486.985	8444.91
487.356	8573.26
487.726	8677.44
488.097	8803.31
488.467	8863.88
488.837	8986.36
489.207	9084.44
489.578	9175.28
489.948	9277.43
490.318	9363.52
490.688	9401.72
491.058	9511.54
491.428	9696.17
491.798	9785.66
492.168	9915.6
492.538	9887.13
492.908	10072.88
493.278	10108.82
493.648	10165.76
494.017	10264.74
494.387	10394.68
494.757	10371.18
495.126	10512.2
495.496	10448.69
495.866	10582.25
496.235	10662.02
496.605	10709.93
496.974	10741.79
497.344	10839.19
497.713	10857.27
498.082	10913.31
498.452	11025.18
498.821	11111.28
499.19	11036.7
499.559	11204.83
499.928	11270.14
500.298	11259.97
500.667	11380.42
501.036	11299.97
501.405	11391.72
501.774	11441.89
502.143	11496.58
502.512	11473.07
502.88	11545.84
503.249	11611.38
503.618	11706.29
503.987	11658.61
504.356	11721.66
504.724	11799.17
505.093	11754.42
505.462	11815.89
505.83	11871.48
506.199	11958.94
506.567	12099.5
506.936	12006.17
507.304	12112.83
507.672	12137.01
508.041	12165.49
508.409	12276.44
508.777	12197.57
509.145	12324.35
509.514	12338.59
509.882	12384.91
510.25	12368.64
510.618	12403.45
510.986	12471.24
511.354	12497.45
511.722	12553.5
512.09	12665.36
512.458	12611.8
512.826	12650.44
513.193	12662.87
513.561	12730.89
513.929	12770.89
514.297	12810.89
514.664	12817.22
515.032	12836.88
515.4	12902.64
515.767	12805.69
516.135	12872.36
516.502	12766.37
516.869	12966.59
517.237	12974.05
517.604	12892.7
517.972	12956.42
518.339	13044.33
518.706	12986.71
519.073	12986.48
519.44	13089.98
519.808	13138.79
520.175	13111
520.542	13170.88
520.909	13271.44
521.276	13142.18
521.643	13276.87
522.009	13281.39
522.376	13275.51
522.743	13340.37
523.11	13366.13
523.477	13447.49
523.843	13380.37
524.21	13460.82
524.577	13578.33
524.943	13452.46
525.31	13567.71
525.676	13605.45
526.043	13582.85
526.409	13599.12
526.776	13619.23
527.142	13600.93
527.508	13693.35
527.874	13630.76
528.241	13694.48
528.607	13635.05
528.973	13708.5
529.339	13572.68
529.705	13625.33
530.071	13732.68
530.437	13610.19
530.803	13790.3
531.169	13703.98
531.535	13627.59
531.901	13623.98
532.267	13604.09
532.632	13614.94
532.998	13585.11
533.364	13642.06
533.73	13574.49
534.095	13629.85
534.461	13672.79
534.826	13655.16
535.192	13535.62
535.557	13620.36
535.923	13475.73
536.288	13492.68
536.653	13511.21
537.019	13384.21
537.384	13337.43
537.749	13404.32
538.114	13355.06
538.479	13296.98
538.845	13247.26
539.21	13166.14
539.575	13172.92
539.94	13139.24
540.305	13214.27
540.67	13102.18
541.034	13076.87
541.399	12975.18
541.764	12944.67
542.129	12907.39
542.494	12920.04
542.858	13009.76
543.223	12800.95
543.587	12887.5
543.952	12786.26
544.316	12764.11
544.681	12684.34
545.045	12634.17
545.41	12755.3
545.774	12602.99
546.138	12534.29
546.503	12627.39
546.867	12490.9
547.231	12536.32
547.595	12443.9
547.959	12443.67
548.324	12325.48
548.688	12270.34
549.052	12324.35
549.416	12276.89
549.779	12221.08
550.143	12239.83
550.507	12222.21
550.871	12139.5
551.235	12085.94
551.599	12039.16
551.962	12048.88
552.326	11980.63
552.689	12098.14
553.053	11851.37
553.417	11903.35
553.78	11994.87
554.143	11849.34
554.507	11863.35
554.87	11795.1
555.234	11881.65
555.597	11813.18
555.96	11806.17
556.323	11798.49
556.686	11705.61
557.05	11730.47
557.413	11643.92
557.776	11669
558.139	11696.57
558.502	11716.91
558.865	11641.21
559.228	11632.62
559.59	11647.31
559.953	11606.4
560.316	11727.76
560.679	11691.83
561.041	11663.13
561.404	11720.98
561.767	11693.63
562.129	11587.42
562.492	11735.67
562.854	11570.02
563.217	11535.9
563.579	11665.39
563.941	11680.07
564.304	11702.45
564.666	11659.06
565.028	11637.14
565.39	11631.49
565.753	11725.04
566.115	11645.95
566.477	11682.79
566.839	11672.39
567.201	11764.14
567.563	11748.1
567.925	11770.24
568.287	11743.35
568.648	11791.26
569.01	11724.37
569.372	11918.03
569.734	11744.03
570.095	11790.35
570.457	11841.43
570.819	11789
571.18	11781.09
571.542	11850.01
571.903	11779.05
572.265	11801.2
572.626	11779.73
572.987	11909.9
573.349	11857.02
573.71	11919.39
574.071	11857.7
574.432	11914.19
574.794	11968.88
575.155	11946.73
575.516	11939.05
575.877	11935.43
576.238	11903.57
576.599	11984.25
576.96	11921.88
577.32	11860.86
577.681	11972.5
578.042	12021.99
578.403	11957.13
578.763	11981.08
579.124	11954.42
579.485	12018.37
579.845	11988.54
580.206	12052.04
580.566	11977.92
580.927	11954.87
581.287	12036.22
581.648	11943.8
582.008	11976.11
582.368	11953.06
582.728	12016.79
583.089	11948.32
583.449	12021.08
583.809	12045.49
584.169	12056.56
584.529	11925.72
584.889	12050.91
585.249	11954.42
585.609	11889.56
585.969	12022.21
586.329	11898.15
586.688	11943.34
587.048	11853.63
587.408	11883.46
587.768	11931.82
588.127	11882.78
588.487	11895.66
588.846	12031.25
589.206	11875.55
589.565	11827.42
589.925	11939.28
590.284	11876.91
590.643	11819.28
591.003	11938.15
591.362	11881.65
591.721	11901.09
592.08	11935.89
592.44	11855.66
592.799	11853.85
593.158	11911.25
593.517	11777.92
593.876	11857.24
594.235	11910.58
594.593	11792.84
594.952	11809.56
595.311	11743.8
595.67	11746.97
596.029	11878.49
596.387	11850.24
596.746	11874.65
597.104	11742.67
597.463	11770.69
597.822	11822.9
598.18	11775.21
598.538	11730.02
598.897	11791.26
599.255	11722.56
599.613	11888.66
599.972	11751.26
600.33	11796.68
600.688	11724.37
601.046	11789.45
601.404	11810.92
601.762	11782.22
602.12	11909.22
602.478	11790.58
602.836	11774.99
603.194	11776.57
603.552	11798.94
603.91	11769.56
604.268	11746.06
604.625	11681.43
604.983	11774.54
605.341	11738.15
605.698	11776.79
606.056	11814.99
606.413	11763.46
606.771	11752.16
607.128	11793.97
607.485	11755.33
607.843	11757.81
608.2	11753.97
608.557	11893.85
608.914	11821.54
609.272	11801.65
609.629	11831.71
609.986	11946.51
610.343	11805.49
610.7	11941.08
611.057	11921.42
611.414	11841.88
611.771	11880.07
612.127	11921.88
612.484	11953.74
612.841	12026.05
613.198	11965.26
613.554	11950.58
613.911	11942.67
614.267	11910.35
614.624	11940.86
614.98	11969.33
615.337	12014.75
615.693	11988.31
616.05	11949.45
616.406	12059.27
616.762	11929.33
617.118	11988.31
617.475	11989.67
617.831	12038.03
618.187	12008.2
618.543	12080.29
618.899	12104.47
619.255	11996.9
619.611	12038.26
619.967	12071.25
620.323	12181.76
620.678	12030.12
621.034	11991.25
621.39	12095.66
621.746	12000.07
622.101	12143.34
622.457	12008.2
622.812	12015.21
623.168	12084.81
623.523	12051.82
623.879	12066.28
624.234	12057.47
624.589	12043.45
624.945	12024.7
625.3	12078.48
625.655	12094.98
626.01	12053.17
626.365	12064.7
626.72	12059.05
627.075	11950.12
627.43	12102.44
627.785	12066.5
628.14	12066.73
628.495	12038.71
628.85	11971.82
629.205	11993.29
629.559	11968.88
629.914	11991.93
630.269	11916
630.623	11929.56
630.978	11898.37
631.332	11943.12
631.687	11968.2
632.041	11849.56
632.396	11924.59
632.75	11882.78
633.104	11937.69
633.459	11774.31
633.813	11791.94
634.167	11739.28
634.521	11710.81
634.875	11727.3
635.229	11771.82
635.583	11725.27
635.937	11659.06
636.291	11716.01
636.645	11703.12
636.999	11607.76
637.352	11640.75
637.706	11628.55
638.06	11665.39
638.413	11541.09
638.767	11587.65
639.121	11577.25
639.474	11546.29
639.828	11602.11
640.181	11574.99
640.534	11542.9
640.888	11499.06
641.241	11491.15
641.594	11509.01
641.947	11504.94
642.301	11496.12
642.654	11473.3
643.007	11488.21
643.36	11508.1
643.713	11408.67
644.066	11519.63
644.419	11333.64
644.771	11309.46
645.124	11243.48
645.477	11187.21
645.83	11147.21
646.182	11111.95
646.535	11120.99
646.888	11076.47
647.24	11088.45
647.593	11026.76
647.945	11047.1
648.298	10916.25
648.65	10988.79
649.002	11013.43
649.355	11075.12
649.707	10969.36
650.059	11106.3
650.411	11155.12
650.763	11179.97
651.115	11379.52
651.467	11264.49
651.819	11210.03
652.171	11212.97
652.523	11191.95
652.875	11234.21
653.227	11227.43
653.578	11253.64
653.93	11241.89
654.282	11190.14
654.633	11214.55
654.985	11254.55
655.337	11207.32
655.688	11335.9
656.039	11309.69
656.391	11272.18
656.742	11218.17
657.094	11252.97
657.445	11287.54
657.796	11275.11
658.147	11240.99
658.498	11214.78
658.849	11264.72
659.2	11277.6
659.551	11262.01
659.902	11282.8
660.253	11323.02
660.604	11285.06
660.955	11275.79
661.306	11272.85
661.656	11272.63
662.007	11236.24
662.358	11247.09
662.708	11250.93
663.059	11208.9
663.409	11155.34
663.76	11358.5
664.11	11273.31
664.461	11343.81
664.811	11307.65
665.161	11285.28
665.511	11293.42
665.862	11312.63
666.212	11299.29
666.562	11340.87
666.912	11394.21
667.262	11327.09
667.612	11289.35
667.962	11271.5
668.312	11304.26
668.662	11280.99
669.011	11245.96
669.361	11241.22
669.711	11205.51
670.06	11236.02
670.41	11235.11
670.76	11265.62
671.109	11167.32
671.459	11195.34
671.808	11197.38
672.157	11213.42
672.507	11125.51
672.856	11203.25
673.205	11207.32
673.554	11195.34
673.904	11188.11
674.253	11183.14
674.602	11122.8
674.951	10998.06
675.3	10900.21
675.649	11117.83
675.998	11082.12
676.346	11069.02
676.695	11134.1
677.044	11094.78
677.393	11030.37
677.741	11123.03
678.09	11026.53
678.438	10997.38
678.787	10952.18
679.135	10984.27
679.484	10982.01
679.832	11006.87
680.181	10894.11
680.529	10953.09
680.877	10970.94
681.225	10876.93
681.573	10951.05
681.922	10863.82
682.27	10855.24
682.618	10814.56
682.966	10767.33
683.314	10765.97
683.661	10834.67
684.009	10733.66
684.357	10726.2
684.705	10704.05
685.053	10721
685.4	10619.76
685.748	10537.73
686.095	10539.99
686.443	10526.88
686.79	10460.67
687.138	10479.43
687.485	10536.38
687.832	10482.82
688.18	10452.76
688.527	10443.04
688.874	10356.49
689.221	10324.63
689.568	10349.26
689.915	10337.96
690.262	10355.59
690.609	10281.69
690.956	10176.84
691.303	10246.89
691.65	10124.86
691.997	10141.81
692.344	10123.28
692.69	10051.87
693.037	10037.18
693.383	9942.94
693.73	9957.63
694.077	9867.69
694.423	9899.78
694.769	9877.41
695.116	9832.21
695.462	9843.06
695.808	9693.91
696.155	9771.42
696.501	9678.32
696.847	9630.41
697.193	9639
697.539	9641.03
697.885	9554.48
698.231	9575.72
698.577	9540.47
698.923	9476.74
699.269	9467.93
699.614	9374.15
699.96	9350.64
700.306	9317.65
700.651	9243.53
700.997	9180.03
701.342	9289.63
701.688	9198.11
702.033	9113.36
702.379	9180.25
702.724	9169.86
703.069	9105.23
703.415	9057.09
703.76	9017.09
704.105	8993.59
704.45	8956.08
704.795	8879.02
705.14	8875.18
705.485	8829.3
705.83	8816.65
706.175	8864.78
706.52	8830.21
706.865	8754.05
707.209	8764.22
707.554	8697.78
707.899	8694.84
708.243	8701.85
708.588	8669.53
708.932	8573.49
709.277	8585.47
709.621	8561.51
709.966	8517.45
710.31	8573.26
710.654	8504.79
710.998	8468.41
711.342	8474.96
711.687	8425.24
712.031	8388.41
712.375	8448.97
712.719	8425.24
713.063	8324.23
713.407	8439.71
713.75	8340.28
714.094	8305.02
714.438	8247.85
714.782	8268.19
715.125	8220.96
715.469	8241.75
715.812	8224.12
716.156	8186.83
716.499	8191.35
716.843	8139.38
717.186	8139.15
717.53	8174.86
717.873	8117.46
718.216	8137.57
718.559	8156.55
718.902	8089.66
719.246	8028.42
719.589	8038.81
719.932	8039.04
720.275	8037.91
720.617	8105.25
720.96	7982.09
721.303	8008.53
721.646	8005.59
721.989	7931.92
722.331	8038.14
722.674	7972.83
723.016	7992.49
723.359	7987.06
723.701	7973.96
724.044	7884.47
724.386	7915.65
724.729	7926.05
725.071	7928.76
725.413	7904.35
725.755	7926.5
726.097	7913.39
726.439	7839.72
726.782	7866.39
727.124	7922.88
727.465	7873.39
727.807	7882.43
728.149	7801.08
728.491	7836.79
728.833	7867.97
729.175	7813.51
729.516	7775.77
729.858	7855.09
730.199	7842.44
730.541	7750.01
730.882	7831.36
731.224	7828.42
731.565	7757.24
731.906	7750.91
732.248	7859.84
732.589	7759.05
732.93	7740.06
733.271	7791.14
733.612	7777.58
733.953	7845.37
734.294	7797.46
734.635	7779.84
734.976	7827.52
735.317	7851.93
735.658	7699.61
735.999	7817.8
736.339	7762.66
736.68	7812.15
737.021	7786.17
737.361	7798.14
737.702	7810.57
738.042	7758.6
738.383	7739.39
738.723	7837.24
739.063	7830.91
739.404	7851.25
739.744	7844.24
740.084	7788.43
740.424	7831.36
740.764	7846.73
741.104	7847.18
741.444	7870.68
741.784	7924.92
742.124	7922.21
742.464	7967.63
742.804	7895.77
743.143	7973.51
743.483	7982.09
743.823	7990.68
744.162	8004.46
744.502	8044.24
744.841	8101.41
745.181	8051.24
745.52	8073.62
745.86	8175.31
746.199	8107.96
746.538	8211.92
746.877	8276.77
747.216	8329.65
747.556	8332.59
747.895	8409.43
748.234	8431.8
748.573	8485.81
748.911	8531
749.25	8635.41
749.589	8661.17
749.928	8773.48
750.267	8767.16
750.605	8845.8
750.944	8928.73
751.283	8995.63
751.621	9079.92
751.96	9081.27
752.298	9284.88
752.636	9419.79
752.975	9420.92
753.313	9568.04
753.651	9705.44
753.989	9739.11
754.327	9837.41
754.666	9922.38
755.004	10075.37
755.342	10287.57
755.679	10416.15
756.017	10445.53
756.355	10629.48
756.693	10676.26
757.031	10937.27
757.368	11041.45
757.706	11136.81
758.044	11253.87
758.381	11492.96
758.719	11662.9
759.056	11810.92
759.394	12000.52
759.731	12104.24
760.068	12268.76
760.405	12502.65
760.743	12623.33
761.08	12854.05
761.417	12884.79
761.754	13151.45
762.091	13312.35
762.428	13499.91
762.765	13733.58
763.102	13940.35
763.438	14077.07
763.775	14174.02
764.112	14428.93
764.449	14699.88
764.785	14732.2
765.122	14874.79
765.458	15030.95
765.795	15225.97
766.131	15417.6
766.467	15627.99
766.804	15741.66
767.14	15855.78
767.476	16035.44
767.812	16165.15
768.148	16288.77
768.485	16501.87
768.821	16554.52
769.157	16737.57
769.492	16868.86
769.828	17052.36
770.164	17042.87
770.5	17133.04
770.836	17378.68
771.171	17444.89
771.507	17455.52
771.842	17679.24
772.178	17713.59
772.513	17783.87
772.849	17881.04
773.184	17997.2
773.519	18116.29
773.855	18304.76
774.19	18316.96
774.525	18342.05
774.86	18556.28
775.195	18631.98
775.53	18623.85
775.865	18693.45
776.2	18586.11
776.535	18678.53
776.87	18777.97
777.205	18795.82
777.539	18777.74
777.874	19038.98
778.209	18835.82
778.543	19015.47
778.878	18974.8
779.212	19075.36
779.547	18932.31
779.881	19203.94
780.215	19119.88
780.55	19188.13
780.884	19176.37
781.218	19179.09
781.552	19174.57
781.886	19208.92
782.22	19212.08
782.554	19232.19
782.888	19050.73
783.222	19186.77
783.556	19208.92
783.889	19140.9
784.223	19101.57
784.557	19048.24
784.89	19145.64
785.224	19118.07
785.557	19081.01
785.891	19076.72
786.224	19017.96
786.558	19167.11
786.891	18935.7
787.224	18936.61
787.557	19024.51
787.891	19021.58
788.224	19020.67
788.557	19018.41
788.89	18995.81
789.223	19130.5
789.556	18962.82
789.888	18871.75
790.221	18860.22
790.554	18752.66
790.887	18805.76
791.219	18827
791.552	18699.1
791.884	18653.45
792.217	18644.41
792.549	18593.79
792.882	18553.11
793.214	18603.73
793.546	18601.93
793.879	18463.17
794.211	18406.9
794.543	18448.03
794.875	18405.77
795.207	18590.85
795.539	18380.24
795.871	18486.22
796.203	18216.63
796.535	18242.39
796.867	18093.24
797.198	18153.12
797.53	18166.01
797.862	18031.32
798.193	18043.97
798.525	17969.63
798.856	17956.52
799.188	17908.84
799.519	17749.29
799.85	17745.68
800.182	17730.76
800.513	17771.89
800.844	17652.57
801.175	17859.12
801.506	17679.92
801.837	17533.93
802.168	17570.31
802.499	17521.05
802.83	17429.3
803.161	17432.01
803.491	17493.48
803.822	17375.07
804.153	17318.34
804.483	17134.39
804.814	17186.14
805.145	17198.35
805.475	17170.55
805.805	17114.06
806.136	17117.67
806.466	17112.93
806.796	17039.93
807.126	16996.09
807.457	16942.53
807.787	16931.69
808.117	16770.79
808.447	16839.49
808.777	16982.53
809.107	16767.85
809.436	16666.84
809.766	16689.21
810.096	16682.88
810.426	16531.25
810.755	16638.81
811.085	16602.2
811.414	16587.97
811.744	16417.12
812.073	16486.95
812.403	16451.02
812.732	16401.08
813.061	16369.22
813.39	16294.19
813.719	16252.61
814.049	16302.55
814.378	16230.69
814.707	16172.84
815.036	16188.88
815.365	16169
815.693	16023.24
816.022	16012.16
816.351	16071.37
816.68	16010.58
817.008	15919.74
817.337	15816.24
817.665	15858.72
817.994	15885.61
818.322	15806.52
818.651	15800.19
818.979	15745.05
819.307	15769.68
819.636	15719.97
819.964	15712.06
820.292	15761.32
820.62	15740.31
820.948	15497.83
821.276	15663.25
821.604	15741.89
821.932	15704.83
822.259	15660.99
822.587	15673.19
822.915	15659.4
823.243	15699.18
823.57	15576.24
823.898	15647.2
824.225	15565.62
824.553	15622.57
824.88	15688.78
825.207	15686.75
825.535	15605.85
825.862	15654.66
826.189	15611.5
826.516	15700.76
826.843	15733.3
827.17	15733.08
827.497	15645.17
827.824	15693.3
828.151	15693.75
828.478	15726.75
828.805	15789.34
829.131	15716.35
829.458	15672.51
829.785	15586.19
830.111	15699.4
830.438	15743.7
830.764	15699.4
831.09	15674.32
831.417	15635.68
831.743	15726.52
832.069	15627.32
832.395	15658.95
832.722	15694.21
833.048	15628.9
833.374	15606.75
833.7	15519.75
834.026	15554.1
834.351	15605.62
834.677	15564.04
835.003	15591.38
835.329	15556.36
835.654	15503.7
835.98	15437.72
836.306	15501.67
836.631	15453.31
836.956	15511.84
837.282	15515
837.607	15425.51
837.932	15341.9
838.258	15472.97
838.583	15334.44
838.908	15180.77
839.233	15280.66
839.558	15229.81
839.883	15156.14
840.208	15210.38
840.533	15163.37
840.858	15161.79
841.182	15124.5
841.507	15103.26
841.832	15094.9
842.156	15146.2
842.481	15091.74
842.805	14977.16
843.13	14963.83
843.454	15016.71
843.778	14874.57
844.103	14845.41
844.427	14878.63
844.751	14936.49
845.075	14804.29
845.399	14728.81
845.723	14593.44
846.047	14695.14
846.371	14545.54
846.695	14500.79
847.019	14536.04
847.343	14391.87
847.666	14364.98
847.99	14199.33
848.313	14281.36
848.637	14165.21
848.96	14071.2
849.284	14124.98
849.607	14008.6
849.931	13943.07
850.254	13823.29
850.577	13806.35
850.9	13743.07
851.223	13628.27
851.546	13637.54
851.869	13523.42
852.192	13696.07
852.515	13536.3
852.838	13438.45
853.161	13451.78
853.483	13289.07
853.806	13278.45
854.129	13275.74
854.451	13203.42
854.774	13166.14
855.096	13017.21
855.419	13135.86
855.741	13083.2
856.063	12965.92
856.385	12915.97
856.708	12952.36
857.03	12902.19
857.352	12822.64
857.674	12844.79
857.996	12825.35
858.318	12735.41
858.64	12673.95
858.961	12726.6
859.283	12655.19
859.605	12559.83
859.926	12615.87
860.248	12597.56
860.57	12477.12
860.891	12451.81
861.212	12409.09
861.534	12402.32
861.855	12393.28
862.176	12377.23
862.498	12346.27
862.819	12355.31
863.14	12262.66
863.461	12321.87
863.782	12261.75
864.103	12262.43
864.424	12201.64
864.745	12165.26
865.065	12172.04
865.386	12106.05
865.707	12076.67
866.027	12067.86
866.348	12046.62
866.668	12057.47
866.989	12084.81
867.309	11940.86
867.63	11931.14
867.95	12019.73
868.27	11873.74
868.59	12000.52
868.91	11848.21
869.23	11876.68
869.55	11834.87
869.87	11787.87
870.19	11877.13
870.51	11796
870.83	11807.75
871.15	11666.97
871.469	11720.98
871.789	11823.8
872.109	11745.84
872.428	11642.56
872.748	11738.15
873.067	11652.5
873.386	11696.35
873.706	11672.39
874.025	11510.14
874.344	11521.21
874.663	11551.72
874.982	11553.3
875.301	11500.19
875.62	11537.71
875.939	11509.23
876.258	11528.67
876.577	11486.18
876.896	11477.14
877.214	11382
877.533	11435.79
877.852	11324.6
878.17	11349.01
878.489	11310.14
878.807	11369.57
879.125	11347.88
879.444	11346.98
879.762	11240.76
880.08	11304.49
880.398	11253.64
880.716	11182.91
881.034	11150.14
881.352	11146.3
881.67	11145.17
881.988	11062.24
882.306	11124.61
882.624	11087.32
882.941	10955.12
883.259	10980.21
883.577	10957.61
883.894	10972.07
884.212	10876.93
884.529	10894.56
884.846	10904.5
885.164	10850.94
885.481	10738.86
885.798	10804.62
886.115	10715.13
886.432	10751.74
886.75	10740.21
887.067	10710.83
887.383	10610.72
887.7	10657.05
888.017	10706.09
888.334	10622.93
888.651	10618.41
888.967	10518.97
889.284	10566.66
889.6	10458.64
889.917	10398.98
890.233	10401.92
890.55	10366.44
890.866	10366.66
891.182	10345.42
891.498	10308.36
891.815	10211.19
892.131	10197.63
892.447	10267.23
892.763	10177.06
893.079	10088.7
893.395	10155.14
893.71	10101.36
894.026	10009.16
894.342	10053.22
894.657	9877.41
894.973	9948.14
895.289	9922.61
895.604	9939.1
895.92	9794.25
896.235	9803.51
896.55	9809.84
896.865	9774.59
897.181	9754.25
897.496	9810.07
897.811	9667.47
898.126	9600.35
898.441	9581.6
898.756	9578.66
899.071	9526.68
899.386	9519.45
899.7	9366.91
900.015	9424.54
900.33	9295.73
900.644	9285.56
900.959	9319.23
901.273	9293.24
901.588	9233.58
901.902	9193.13
902.216	9225.22
902.531	9225.9
902.845	9132.8
903.159	9051.89
903.473	9015.06
903.787	9013.93
904.101	8983.42
904.415	8969.19
904.729	8905.68
905.042	8860.71
905.356	8821.84
905.67	8805.57
905.984	8755.18
906.297	8788.85
906.611	8679.02
906.924	8667.95
907.237	8634.96
907.551	8601.96
907.864	8587.95
908.177	8495.53
908.491	8458.69
908.804	8466.37
909.117	8421.4
909.43	8358.81
909.743	8315.19
910.056	8348.18
910.368	8282.65
910.681	8278.36
910.994	8304.34
911.307	8148.42
911.619	8128.53
911.932	8162.88
912.244	8101.19
912.557	8130.34
912.869	7959.49
913.181	7950.23
913.494	7981.87
913.806	7936.67
914.118	7881.3
914.43	7817.58
914.742	7812.38
915.054	7789.56
915.366	7790.23
915.678	7690.35
915.99	7674.53
916.302	7674.98
916.613	7622.78
916.925	7613.06
917.236	7540.07
917.548	7565.38
917.859	7493.29
918.171	7435.44
918.482	7435.67
918.794	7386.18
919.105	7368.78
919.416	7327.87
919.727	7346.4
920.038	7326.06
920.349	7229.57
920.66	7247.2
920.971	7274.31
921.282	7173.53
921.593	7117.26
921.903	7094.21
922.214	7112.06
922.525	7086.52
922.835	7023.47
923.146	6994.77
923.456	6938.5
923.767	6934.66
924.077	6935.34
924.387	6855.57
924.697	6855.57
925.008	6838.17
925.318	6788.68
925.628	6796.81
925.938	6717.04
926.248	6690.83
926.558	6665.29
926.867	6651.05
927.177	6639.75
927.487	6547.1
927.796	6533.54
928.106	6514.33
928.416	6491.96
928.725	6540.77
929.034	6463.71
929.344	6520.21
929.653	6365.86
929.962	6314.34
930.271	6361.8
930.581	6344.17
930.89	6297.62
931.199	6252.87
931.508	6192.99
931.817	6225.53
932.125	6227.34
932.434	6221.01
932.743	6121.58
933.051	6107.34
933.36	6054.23
933.669	5997.74
933.977	6005.87
934.286	6039.54
934.594	5993.22
934.902	5927.01
935.21	5976.5
935.519	5927.68
935.827	5892.88
936.135	5930.17
936.443	5829.15
936.751	5797.74
937.059	5833.9
937.367	5763.17
937.674	5751.87
937.982	5723.39
938.29	5715.03
938.597	5684.75
938.905	5647.24
939.213	5657.86
939.52	5588.71
939.827	5589.84
940.135	5587.35
940.442	5492.89
940.749	5528.37
941.056	5473.23
941.363	5442.27
941.67	5437.53
941.977	5396.85
942.284	5328.38
942.591	5383.74
942.898	5339.45
943.205	5317.98
943.511	5308.26
943.818	5241.15
944.125	5280.92
944.431	5217.87
944.738	5230.07
945.044	5198.44
945.35	5177.19
945.657	5188.49
945.963	5146.91
946.269	5052.45
946.575	5083.41
946.881	5024.66
947.187	5062.17
947.493	5040.93
947.799	5009.97
948.105	4965.9
948.41	4932
948.716	4941.04
949.022	4910.31
949.327	4964.09
949.633	4884.09
949.938	4898.56
950.244	4791.44
950.549	4797.09
950.854	4779.24
951.16	4808.62
951.465	4741.05
951.77	4727.94
952.075	4708.28
952.38	4725.91
952.685	4707.83
952.99	4620.15
953.294	4650.65
953.599	4606.81
953.904	4587.38
954.209	4526.14
954.513	4553.48
954.818	4536.53
955.122	4508.06
955.426	4475.29
955.731	4455.63
956.035	4436.2
956.339	4442.98
956.643	4438.91
956.948	4368.4
957.252	4370.89
957.556	4398.23
957.86	4341.74
958.163	4307.84
958.467	4321.17
958.771	4213.83
959.075	4247.5
959.378	4294.51
959.682	4216.54
959.985	4210.89
960.289	4170.67
960.592	4183.32
960.896	4144
961.199	4141.97
961.502	4111.46
961.805	4131.12
962.108	4045.25
962.411	4042.99
962.714	4019.94
963.017	3995.76
963.32	4015.87
963.623	4004.12
963.926	3988.98
964.228	3939.94
964.531	3965.7
964.833	3933.39
965.136	3906.72
965.438	3862.2
965.741	3889.09
966.043	3824.24
966.345	3860.84
966.648	3827.85
966.95	3802.54
967.252	3776.55
967.554	3760.96
967.856	3744.46
968.158	3708.08
968.46	3731.81
968.761	3699.95
969.063	3698.82
969.365	3664.69
969.666	3685.26
969.968	3608.65
970.269	3609.1
970.571	3619.04
970.872	3591.47
971.174	3576.56
971.475	3588.76
971.776	3563.23
972.077	3540.4
972.378	3489.78
972.679	3522.1
972.98	3491.59
973.281	3463.79
973.582	3477.13
973.883	3473.28
974.183	3426.96
974.484	3396.45
974.785	3429.44
975.085	3400.97
975.386	3352.61
975.686	3364.36
975.986	3328.2
976.287	3352.16
976.587	3316.45
976.887	3288.2
977.187	3288.43
977.487	3274.65
977.787	3277.36
978.087	3214.08
978.387	3241.88
978.687	3204.14
978.987	3196.91
979.286	3178.38
979.586	3164.37
979.885	3155.55
980.185	3092.28
980.484	3150.13
980.784	3088.21
981.083	3122.11
981.382	3085.27
981.682	3062
981.981	3056.8
982.28	3047.76
982.579	3044.6
982.878	3049.11
983.177	2965.95
983.475	2972.05
983.774	2958.27
984.073	2937.71
984.372	2932.06
984.67	2915.11
984.969	2901.55
985.267	2918.5
985.566	2902.68
985.864	2896.58
986.162	2843.47
986.461	2845.96
986.759	2800.31
987.057	2802.57
987.355	2802.34
987.653	2790.14
987.951	2813.87
988.249	2798.27
988.547	2784.04
988.844	2769.8
989.142	2730.25
989.44	2697.94
989.737	2713.76
990.035	2680.08
990.332	2679.86
990.63	2650.26
990.927	2651.16
991.224	2662.01
991.521	2652.74
991.819	2608
992.116	2638.05
992.413	2587.66
992.71	2604.38
993.006	2588.34
993.303	2564.61
993.6	2543.59
993.897	2524.16
994.193	2537.72
994.49	2490.94
994.787	2507.21
995.083	2475.34
995.379	2453.2
995.676	2454.1
995.972	2436.02
996.268	2420.88
996.565	2396.93
996.861	2454.33
997.157	2426.08
997.453	2375.23
997.749	2373.65
998.044	2386.76
998.34	2357.83
998.636	2337.27
998.932	2322.81
999.227	2324.16
999.523	2305.63
999.818	2296.14
1000.114	2258.4
1000.409	2286.2
1000.704	2229.48
1001	2242.13
1001.295	2225.86
1001.59	2222.92
1001.885	2255.24
1002.18	2195.58
1002.475	2203.04
1002.77	2158.52
1003.065	2178.4
1003.359	2156.26
1003.654	2152.64
1003.949	2115.81
1004.243	2129.14
1004.538	2092.76
1004.832	2114.68
1005.127	2118.74
1005.421	2071.29
1005.715	2047.79
1006.009	2033.1
1006.304	2026.77
1006.598	2018.86
1006.892	2029.93
1007.186	2003.49
1007.48	1972.08
1007.773	1968.24
1008.067	1966.88
1008.361	1934.12
1008.655	1940.44
1008.948	1925.53
1009.242	1916.04
1009.535	1905.64
1009.829	1883.72
1010.122	1857.73
1010.415	1863.38
1010.708	1872.2
1011.001	1863.38
1011.295	1835.81
1011.588	1803.05
1011.881	1806.44
1012.173	1828.81
1012.466	1801.92
1012.759	1791.07
1013.052	1753.33
1013.344	1765.98
1013.637	1773.89
1013.93	1748.13
1014.222	1706.55
1014.514	1717.17
1014.807	1724.86
1015.099	1714.69
1015.391	1698.87
1015.683	1690.96
1015.976	1690.51
1016.268	1660.45
1016.56	1640.79
1016.851	1616.16
1017.143	1631.07
1017.435	1628.81
1017.727	1590.62
1018.018	1566.22
1018.31	1573.9
1018.602	1581.81
1018.893	1556.05
1019.185	1567.57
1019.476	1540
1019.767	1541.58
1020.058	1512.43
1020.35	1529.83
1020.641	1510.4
1020.932	1501.81
1021.223	1474.69
1021.514	1473.56
1021.804	1470.63
1022.095	1464.07
1022.386	1456.16
1022.677	1464.07
1022.967	1419.33
1023.258	1428.59
1023.548	1413.9
1023.839	1415.94
1024.129	1403.28
1024.419	1384.3
1024.709	1375.71
1025	1359.89
1025.29	1363.51
1025.58	1361.93
1025.87	1340.01
1026.16	1333
1026.449	1338.43
1026.739	1321.02
1027.029	1310.86
1027.319	1300.23
1027.608	1277.86
1027.898	1261.37
1028.187	1267.92
1028.477	1265.88
1028.766	1246.9
1029.055	1246.9
1029.344	1254.36
1029.634	1217.75
1029.923	1234.02
1030.212	1194.93
1030.501	1194.25
1030.79	1213.46
1031.078	1209.16
1031.367	1177.98
1031.656	1169.39
1031.945	1178.66
1032.233	1141.37
1032.522	1123.52
1032.81	1116.96
1033.099	1140.92
1033.387	1145.89
1033.675	1132.55
1033.963	1138.88
1034.251	1107.7
1034.54	1092.33
1034.828	1085.55
1035.116	1105.66
1035.403	1066.12
1035.691	1056.17
1035.979	1055.72
1036.267	1058.43
1036.554	1031.31
1036.842	1056.4
1037.129	1014.59
1037.417	1006.91
1037.704	1013.46
1037.992	1016.85
1038.279	1019.11
1038.566	1026.57
1038.853	1026.57
1039.14	1026.57
