Data from hue_320_FLMS001491_5.txt Node
Date: Mon Feb 06 15:46:37 GMT 2017
User: dcchb
Spectrometer: FLMS00149
Trigger mode: 0
Integration Time (sec): 2.000000E-2
Scans to average: 10
Electric dark correction enabled: true
Nonlinearity correction enabled: false
Boxcar width: 0
XAxis mode: Wavelengths
Number of Pixels in Spectrum: 2048
>>>>>Begin Spectral Data<<<<<
341.393	-16.13
341.776	-16.13
342.16	-16.13
342.543	-54.55
342.927	-52.74
343.31	-57.48
343.693	-58.61
344.077	-72.63
344.46	-47.09
344.843	-37.82
345.226	-51.83
345.61	-49.57
345.993	-30.82
346.376	0.14
346.759	29.74
347.142	14.15
347.525	21.61
347.908	70.65
348.291	80.82
348.674	92.57
349.057	96.18
349.44	122.62
349.823	149.74
350.206	170.31
350.588	196.75
350.971	188.61
351.354	237.88
351.737	249.4
352.119	259.57
352.502	261.38
352.884	263.19
353.267	283.52
353.65	294.82
354.032	318.1
354.414	319
354.797	310.19
355.179	344.76
355.562	317.2
355.944	330.3
356.326	344.76
356.709	333.47
357.091	338.21
357.473	315.84
357.855	361.49
358.238	337.08
358.62	342.73
359.002	362.17
359.384	337.76
359.766	357.42
360.148	345.67
360.53	363.07
360.912	331.88
361.294	352
361.676	328.72
362.057	340.47
362.439	340.25
362.821	345.22
363.203	350.41
363.584	320.13
363.966	325.1
364.348	338.89
364.729	334.14
365.111	335.5
365.493	319.45
365.874	328.72
366.256	337.76
366.637	346.12
367.019	301.83
367.4	322.62
367.781	341.15
368.163	325.78
368.544	316.29
368.925	322.84
369.306	328.04
369.688	321.49
370.069	322.39
370.45	342.73
370.831	318.32
371.212	309.96
371.593	326.91
371.974	333.92
372.355	299.12
372.736	324.88
373.117	306.12
373.498	329.62
373.879	325.1
374.26	300.7
374.641	335.5
375.021	320.58
375.402	335.73
375.783	325.78
376.163	328.72
376.544	328.72
376.925	341.83
377.305	338.44
377.686	342.73
378.066	349.28
378.447	340.47
378.827	339.79
379.208	371.2
379.588	345.67
379.968	325.56
380.349	331.21
380.729	331.88
381.109	365.1
381.489	350.64
381.87	317.65
382.25	346.57
382.63	349.51
383.01	338.66
383.39	350.41
383.77	360.13
384.15	352
384.53	363.52
384.91	397.64
385.29	346.12
385.67	354.71
386.049	362.62
386.429	347.48
386.809	345.67
387.189	347.48
387.568	357.87
387.948	351.09
388.328	361.94
388.707	371.43
389.087	377.31
389.466	375.95
389.846	366.69
390.225	371.88
390.605	372.56
390.984	378.66
391.363	369.17
391.743	391.32
392.122	398.55
392.501	380.02
392.881	382.5
393.26	388.83
393.639	380.24
394.018	375.05
394.397	381.83
394.776	378.44
395.155	384.31
395.534	396.74
395.913	400.13
396.292	407.36
396.671	390.64
397.05	408.72
397.429	397.87
397.808	379.79
398.186	389.51
398.565	419.11
398.944	408.94
399.323	409.85
399.701	426.8
400.08	418.89
400.458	429.51
400.837	428.6
401.215	438.77
401.594	403.52
401.972	417.98
402.351	400.36
402.729	437.87
403.107	441.26
403.486	431.09
403.864	431.32
404.242	418.66
404.62	461.6
404.999	466.8
405.377	435.84
405.755	443.07
406.133	445.78
406.511	442.84
406.889	455.72
407.267	466.8
407.645	454.37
408.023	484.2
408.401	483.74
408.779	481.26
409.156	472.9
409.534	514.93
409.912	474.48
410.29	532.33
410.667	511.77
411.045	494.14
411.422	501.6
411.8	505.89
412.178	530.52
412.555	527.13
412.933	539.56
413.31	549.96
413.687	544.31
414.065	557.87
414.442	546.34
414.819	557.64
415.197	573.23
415.574	610.97
415.951	601.48
416.328	590.41
416.705	576.62
417.082	610.07
417.46	631.54
417.837	621.59
418.214	616.62
418.591	624.53
418.967	644.64
419.344	667.02
419.721	665.89
420.098	635.6
420.475	664.3
420.852	689.16
421.228	706.34
421.605	693
421.982	705.66
422.358	728.03
422.735	702.04
423.111	733.46
423.488	729.61
423.864	733.23
424.241	740.46
424.617	734.59
424.994	744.98
425.37	740.01
425.746	766.22
426.123	762.83
426.499	780.01
426.875	770.52
427.251	796.5
427.627	790.85
428.003	823.85
428.379	806.9
428.756	829.5
429.132	825.2
429.507	828.82
429.883	851.87
430.259	854.13
430.635	862.94
431.011	849.38
431.387	905.65
431.763	891.19
432.138	899.55
432.514	932.32
432.89	931.64
433.265	975.48
433.641	947.01
434.016	959.66
434.392	984.75
434.767	986.56
435.143	989.27
435.518	998.31
435.894	1005.31
436.269	1029.27
436.644	1035.14
437.02	1015.03
437.395	1037.85
437.77	1038.98
438.145	1075.59
438.52	1083.5
438.895	1075.59
439.271	1084.63
439.646	1131.41
440.021	1118.98
440.395	1128.25
440.77	1096.16
441.145	1096.84
441.52	1144.97
441.895	1148.36
442.27	1147.68
442.645	1156.95
443.019	1184.06
443.394	1170.96
443.769	1154.46
444.143	1168.25
444.518	1166.44
444.892	1162.82
445.267	1190.84
445.641	1187.91
446.016	1192.2
446.39	1203.73
446.764	1192.43
447.139	1216.38
447.513	1202.82
447.887	1223.61
448.262	1255.25
448.636	1234.23
449.01	1219.54
449.384	1226.32
449.758	1259.32
450.132	1274.01
450.506	1264.97
450.88	1262.25
451.254	1258.87
451.628	1264.97
452.002	1288.92
452.376	1289.6
452.75	1299.54
453.123	1307.45
453.497	1318.52
453.871	1313.78
454.244	1341.12
454.618	1362.14
454.992	1362.82
455.365	1351.74
455.739	1379.99
456.112	1396.71
456.486	1396.71
456.859	1408.69
457.232	1436.49
457.606	1429.26
457.979	1423.15
458.352	1452.08
458.725	1486.88
459.099	1439.43
459.472	1497.73
459.845	1495.7
460.218	1508.35
460.591	1504.73
460.964	1505.41
461.337	1565.3
461.71	1557.16
462.083	1563.26
462.456	1556.48
462.829	1566.43
463.201	1574.11
463.574	1634.22
463.947	1616.14
464.32	1631.74
464.692	1682.13
465.065	1694.79
465.438	1683.26
465.81	1684.16
466.183	1685.52
466.555	1753.09
466.928	1722.81
467.3	1752.86
467.672	1776.37
468.045	1814.56
468.417	1802.35
468.789	1801.45
469.161	1782.92
469.534	1863.6
469.906	1868.57
470.278	1882.58
470.65	1853.43
471.022	1917.6
471.394	1939.07
471.766	1946.76
472.138	1944.04
472.51	2010.71
472.882	2033.99
473.253	2032.63
473.625	2051.16
473.997	2111.95
474.369	2075.79
474.74	2123.25
475.112	2118.28
475.484	2150.14
475.855	2205.51
476.227	2212.51
476.598	2251.61
476.97	2276.92
477.341	2280.76
477.713	2304.04
478.084	2311.27
478.455	2386.29
478.827	2412.06
479.198	2456.35
479.569	2465.16
479.94	2471.71
480.311	2500.64
480.682	2577.47
481.053	2590.36
481.424	2589
481.795	2627.64
482.166	2634.87
482.537	2692.27
482.908	2723.91
483.279	2746.74
483.65	2766.85
484.021	2817.24
484.391	2821.08
484.762	2856.79
485.133	2882.33
485.503	2902.66
485.874	2971.36
486.244	2973.17
486.615	3025.37
486.985	3063.11
487.356	3085.71
487.726	3101.3
488.097	3173.84
488.467	3174.3
488.837	3229.66
489.207	3246.38
489.578	3271.69
489.948	3285.48
490.318	3366.61
490.688	3363.89
491.058	3391.24
491.428	3439.82
491.798	3440.5
492.168	3494.06
492.538	3517.11
492.908	3540.39
493.278	3578.35
493.648	3551.01
494.017	3665.81
494.387	3639.82
494.757	3656.77
495.126	3678.69
495.496	3728.86
495.866	3734.73
496.235	3760.49
496.605	3769.99
496.974	3828.74
497.344	3845.24
497.713	3834.84
498.082	3884.11
498.452	3936.76
498.821	3915.52
499.19	3872.13
499.559	3949.42
499.928	3982.64
500.298	3967.27
500.667	3993.26
501.036	3960.26
501.405	4063.54
501.774	4038.91
502.143	4042.75
502.512	4040.71
502.88	4127.49
503.249	4106.02
503.618	4118.9
503.987	4167.04
504.356	4140.15
504.724	4215.62
505.093	4202.06
505.462	4195.06
505.83	4245.68
506.199	4273.7
506.567	4275.06
506.936	4291.33
507.304	4326.13
507.672	4313.7
508.041	4339.69
508.409	4297.66
508.777	4325.45
509.145	4366.81
509.514	4320.48
509.882	4362.51
510.25	4411.55
510.618	4429.18
510.986	4434.83
511.354	4506.24
511.722	4488.61
512.09	4553.92
512.458	4517.76
512.826	4548.72
513.193	4575.61
513.561	4543.52
513.929	4547.14
514.297	4654.26
514.664	4630.08
515.032	4572.68
515.4	4665.33
515.767	4623.97
516.135	4677.08
516.502	4653.13
516.869	4708.27
517.237	4697.87
517.604	4662.39
517.972	4734.48
518.339	4717.76
518.706	4698.1
519.073	4760.69
519.44	4745.55
519.808	4803.4
520.175	4822.39
520.542	4815.61
520.909	4853.8
521.276	4825.78
521.643	4870.07
522.009	4892.44
522.376	4878.66
522.743	4927.7
523.11	4957.53
523.477	5012.21
523.843	4997.75
524.21	5007.02
524.577	5048.6
524.943	5078.2
525.31	5065.32
525.676	5144.19
526.043	5124.98
526.409	5175.15
526.776	5205.88
527.142	5229.38
527.508	5281.13
527.874	5280
528.241	5295.14
528.607	5283.62
528.973	5351.19
529.339	5376.05
529.705	5451.98
530.071	5435.25
530.437	5458.98
530.803	5508.02
531.169	5531.75
531.535	5536.49
531.901	5531.75
532.267	5587.11
532.632	5614.23
532.998	5576.49
533.364	5672.31
533.73	5633.21
534.095	5711.4
534.461	5671.4
534.826	5747.11
535.192	5746.43
535.557	5790.5
535.923	5804.28
536.288	5840.21
536.653	5851.96
537.019	5841.12
537.384	5910.95
537.749	5917.5
538.114	5928.12
538.479	5959.53
538.845	5955.24
539.21	5967.22
539.575	5987.55
539.94	6011.06
540.305	6100.55
540.67	6117.49
541.034	6093.99
541.399	6141.22
541.764	6159.08
542.129	6180.09
542.494	6233.2
542.858	6231.84
543.223	6279.52
543.587	6294.44
543.952	6271.39
544.316	6318.39
544.681	6370.6
545.045	6332.4
545.41	6395.68
545.774	6418.96
546.138	6402.91
546.503	6454.43
546.867	6494.21
547.231	6552.06
547.595	6526.07
547.959	6569.69
548.324	6524.72
548.688	6583.24
549.052	6670.47
549.416	6646.29
549.779	6666.18
550.143	6711.6
550.507	6735.56
550.871	6749.79
551.235	6712.28
551.599	6775.33
551.962	6765.84
552.326	6840.64
552.689	6881.09
553.053	6879.96
553.417	6902.56
553.78	6926.06
554.143	6896.68
554.507	6982.56
554.87	6980.97
555.234	7019.17
555.597	7006.74
555.96	7054.42
556.323	7061.42
556.686	7078.15
557.05	7134.42
557.413	7186.39
557.776	7103.46
558.139	7138.48
558.502	7176.22
558.865	7187.3
559.228	7232.72
559.59	7247.86
559.953	7264.81
560.316	7353.17
560.679	7323.79
561.041	7336.67
561.404	7384.35
561.767	7404.01
562.129	7379.38
562.492	7453.05
562.854	7481.75
563.217	7426.84
563.579	7570.79
563.941	7572.15
564.304	7501.19
564.666	7675.42
565.028	7593.16
565.39	7666.15
565.753	7659.15
566.115	7718.36
566.477	7718.58
566.839	7786.38
567.201	7765.59
567.563	7800.84
567.925	7828.41
568.287	7845.58
568.648	7901.4
569.01	7894.17
569.372	8013.49
569.734	7954.96
570.095	8031.34
570.457	8067.73
570.819	8104.79
571.18	8089.42
571.542	8175.97
571.903	8157.67
572.265	8237.44
572.626	8320.15
572.987	8335.52
573.349	8324.89
573.71	8446.02
574.071	8422.97
574.432	8554.49
574.794	8641.04
575.155	8675.85
575.516	8654.83
575.877	8753.81
576.238	8820.25
576.599	8934.37
576.96	8874.26
577.32	9018.89
577.681	9112.44
578.042	9186.57
578.403	9295.72
578.763	9395.37
579.124	9470.4
579.485	9587.91
579.845	9715.59
580.206	9726.21
580.566	9847.57
580.927	10011.4
581.287	10175.47
581.648	10275.35
582.008	10416.82
582.368	10539.98
582.728	10728.67
583.089	10891.38
583.449	11052.05
583.809	11201.88
584.169	11395.77
584.529	11528.2
584.889	11831.47
585.249	11952.14
585.609	12176.09
585.969	12380.83
586.329	12559.59
586.688	12904.21
587.048	13052.91
587.408	13238.44
587.768	13490.18
588.127	13706.9
588.487	13952.09
588.846	14362.48
589.206	14588.23
589.565	14862.8
589.925	15196.13
590.284	15341.43
590.643	15682.44
591.003	15993.84
591.362	16301.18
591.721	16614.85
592.08	16836.31
592.44	17242.4
592.799	17585.22
593.158	17799
593.517	18123.28
593.876	18506.1
594.235	18763.49
594.593	19076.7
594.952	19520.98
595.311	19715.78
595.67	20112.38
596.029	20557.79
596.387	20805.47
596.746	21224.44
597.104	21404.32
597.463	21755.95
597.822	22081.59
598.18	22330.63
598.538	22711.18
598.897	23113.21
599.255	23350.71
599.613	23853.53
599.972	24009.45
600.33	24507.75
600.688	24509.33
601.046	25049.88
601.404	25310.21
601.762	25711.33
602.12	26035.16
602.478	26405.55
602.836	26592.66
603.194	26782.71
603.552	27076.27
603.91	27334.11
604.268	27744.5
604.625	27902.91
604.983	28423.8
605.341	28417.47
605.698	28787.86
606.056	29196.44
606.413	29539.93
606.771	29637.55
607.128	30040.03
607.485	30155.51
607.843	30386.23
608.2	30917.75
608.557	31034.35
608.914	31244.07
609.272	31691.74
609.629	31912.75
609.986	32256.92
610.343	32296.47
610.7	32653.29
611.057	32842.67
611.414	32976
611.771	33313.84
612.127	33496.21
612.484	33679.26
612.841	33960.83
613.198	34093.71
613.554	34332.35
613.911	34565.33
614.267	34729.85
614.624	34850.3
614.98	35007.36
615.337	35414.35
615.693	35523.05
616.05	35637.17
616.406	35897.28
616.762	36034.45
617.118	36158.06
617.475	36277.38
617.831	36581.33
618.187	36704.71
618.543	36795.33
618.899	37213.17
619.255	37240.52
619.611	37344.92
619.967	37574.75
620.323	37744.69
620.678	37542.43
621.034	37863.55
621.39	37878.92
621.746	38009.31
622.101	38582.86
622.457	38269.42
622.812	38400.04
623.168	38583.76
623.523	38668.73
623.879	38965.67
624.234	38624.89
624.589	39019.45
624.945	39014.48
625.3	39297.19
625.655	39107.36
626.01	39348.94
626.365	39658.31
626.72	39517.75
627.075	39623.28
627.43	39752.32
627.785	39555.26
628.14	39713.22
628.495	39837.29
628.85	39917.28
629.205	39830.96
629.559	40070.95
629.914	39985.3
630.269	40034.34
630.623	39837.96
630.978	40027.56
631.332	40292.64
631.687	40345.52
632.041	40062.36
632.396	40313.66
632.75	40054.68
633.104	40387.1
633.459	40250.61
633.813	40115.24
634.167	40169.03
634.521	40200.67
634.875	40339.87
635.229	40268.01
635.583	40245.86
635.937	40178.52
636.291	40202.93
636.645	40212.87
636.999	40171.06
637.352	40436.14
637.706	40190.95
638.06	40406.76
638.413	40318.4
638.767	40138.97
639.121	40320.66
639.474	40088.58
639.828	40206.54
640.181	40205.41
640.534	40335.58
640.888	40082.48
641.241	40066.21
641.594	40116.15
641.947	40182.81
642.301	40111.85
642.654	40123.38
643.007	40267.11
643.36	40139.65
643.713	39933.1
644.066	40192.53
644.419	40003.16
644.771	39744.86
645.124	39522.27
645.477	39492.21
645.83	39196.17
646.182	39081.37
646.535	39028.27
646.888	39041.15
647.24	38941.26
647.593	39046.12
647.945	39097.42
648.298	38959.79
648.65	38633.93
649.002	38864.2
649.355	38873.02
649.707	38875.96
650.059	38927.03
650.411	39546.67
650.763	39518.88
651.115	39953.67
651.467	39792.54
651.819	39805.65
652.171	39765.42
652.523	39635.48
652.875	39664.18
653.227	39469.16
653.578	39796.16
653.93	39742.15
654.282	39531.08
654.633	39331.08
654.985	39591.42
655.337	39502.61
655.688	39605.2
656.039	39534.02
656.391	39314.81
656.742	39520.91
657.094	39378.99
657.445	39636.39
657.796	39498.31
658.147	39491.31
658.498	39480.01
658.849	39486.33
659.2	39403.4
659.551	39357.98
659.902	39540.57
660.253	39467.8
660.604	39369.05
660.955	39235.04
661.306	39362.5
661.656	39157.3
662.007	39298.54
662.358	39398.88
662.708	39313.68
663.059	39204.99
663.409	39068.72
663.76	39253.8
664.11	39281.59
664.461	39300.12
664.811	39344.64
665.161	39225.1
665.511	39038.66
665.862	39207.47
666.212	39307.13
666.562	39405.88
666.912	39202.95
667.262	39200.47
667.612	39204.53
667.962	39271.65
668.312	39195.72
668.662	39337.86
669.011	39201.82
669.361	39047.48
669.711	39081.83
670.06	39062.39
670.41	39007.93
670.76	39016.97
671.109	39296.51
671.459	39037.08
671.808	39077.31
672.157	39110.07
672.507	38855.16
672.856	38741.72
673.205	39023.07
673.554	39173.57
673.904	39020.81
674.253	39239.11
674.602	38991.66
674.951	38407.72
675.3	38138.12
675.649	38740.37
675.998	38792.57
676.346	38796.41
676.695	38844.54
677.044	38628.28
677.393	38823.3
677.741	38743.3
678.09	38643.87
678.438	38617.2
678.787	38679.8
679.135	38665.57
679.484	38413.37
679.832	38577.43
680.181	38345.57
680.529	38456.76
680.877	38382.63
681.225	38421.05
681.573	38567.49
681.922	38275.74
682.27	38139.48
682.618	38115.98
682.966	38086.82
683.314	38108.52
683.661	38023.32
684.009	37908.97
684.357	37805.47
684.705	37768.41
685.053	37779.71
685.4	37739.71
685.748	37572.71
686.095	37525.03
686.443	37462.89
686.79	37441.42
687.138	37497.01
687.485	37397.8
687.832	37356
688.18	37371.36
688.527	37243
688.874	37136.34
689.221	37182.44
689.568	36914.65
689.915	36874.2
690.262	36854.31
690.609	36632.4
690.956	36690.93
691.303	36549.24
691.65	36412.07
691.997	36458.17
692.344	36277.15
692.69	36276.25
693.037	36272.86
693.383	36001.45
693.73	36105.18
694.077	35839.88
694.423	35865.19
694.769	35751.52
695.116	35789.03
695.462	35656.6
695.808	35558.98
696.155	35596.27
696.501	35294.58
696.847	35415.26
697.193	35174.13
697.539	35261.59
697.885	34971.88
698.231	34909.28
698.577	34857.3
698.923	34891.88
699.269	34686.46
699.614	34642.85
699.96	34459.35
700.306	34585.67
700.651	34241.05
700.997	34262.74
701.342	34201.5
701.688	34058
702.033	34085.35
702.379	33912.7
702.724	33952.02
703.069	33973.71
703.415	33468.19
703.76	33549.32
704.105	33538.24
704.45	33550.45
704.795	33293.73
705.14	33227.29
705.485	33266.16
705.83	32981.42
706.175	33102.32
706.52	33008.99
706.865	32840.86
707.209	32818.04
707.554	32775.78
707.899	32869.79
708.243	32696.23
708.588	32589.11
708.932	32361.78
709.277	32343.7
709.621	32303.25
709.966	32175.11
710.31	32354.77
710.654	32021.9
710.998	31986.42
711.342	32116.81
711.687	32016.7
712.031	31660.78
712.375	31738.29
712.719	31770.61
713.063	31672.53
713.407	31817.61
713.75	31605.41
714.094	31485.42
714.438	31529.71
714.782	31418.98
715.125	31358.86
715.469	31288.81
715.812	31252.88
716.156	31091.3
716.499	31067.35
716.843	31033.45
717.186	30957.29
717.53	31082.71
717.873	31009.72
718.216	30853.79
718.559	30738.54
718.902	30573.12
719.246	30698.77
719.589	30526.12
719.932	30391.43
720.275	30506.23
720.617	30363.64
720.96	30299.23
721.303	30375.16
721.646	30386.69
721.989	30087.03
722.331	30314.15
722.674	30159.8
723.016	30195.51
723.359	30096.3
723.701	29997.09
724.044	29871.9
724.386	29859.47
724.729	29845.46
725.071	29711.9
725.413	29695.86
725.755	29576.76
726.097	29682.75
726.439	29335.42
726.782	29500.83
727.124	29602.07
727.465	29358.92
727.807	29416.77
728.149	29318.01
728.491	29263.55
728.833	29281.18
729.175	29066.04
729.516	29158.47
729.858	29048.42
730.199	29108.08
730.541	28975.65
730.882	28968.42
731.224	29037.12
731.565	28840.96
731.906	28986.05
732.248	28980.4
732.589	28654.3
732.93	28649.78
733.271	28715.09
733.612	28685.71
733.953	28711.48
734.294	28474.42
734.635	28380.64
734.976	28445.95
735.317	28374.99
735.658	28284.82
735.999	28376.8
736.339	28330.24
736.68	28455.21
737.021	28214.31
737.361	28093.41
737.702	28340.19
738.042	28126.18
738.383	28123.24
738.723	28176.12
739.063	28034.66
739.404	28019.29
739.744	28048.9
740.084	27810.94
740.424	27890.48
740.764	27825.4
741.104	27987.43
741.444	27740.65
741.784	27707.66
742.124	27837.15
742.464	27624.5
742.804	27644.16
743.143	27490.04
743.483	27648.68
743.823	27404.17
744.162	27466.99
744.502	27430.61
744.841	27324.17
745.181	27363.72
745.52	27173.21
745.86	27335.47
746.199	27177.73
746.538	27117.85
746.877	27188.58
747.216	27187.45
747.556	27058.86
747.895	27121.69
748.234	26957.85
748.573	26957.4
748.911	26843.05
749.25	26897.74
749.589	26792.88
749.928	26827.91
750.267	26805.99
750.605	26624.53
750.944	26589.05
751.283	26603.74
751.621	26561.7
751.96	26476.51
752.298	26273.8
752.636	26356.28
752.975	26270.86
753.313	26159.91
753.651	26266.34
753.989	26146.57
754.327	26052.34
754.666	25981.6
755.004	26010.53
755.342	25998.1
755.679	25978.22
756.017	25847.82
756.355	25865.9
756.693	25677.66
757.031	25809.18
757.368	25644.44
757.706	25510.88
758.044	25499.36
758.381	25577.55
758.719	25325.35
759.056	25274.96
759.394	25400.15
759.731	25153.38
760.068	25109.76
760.405	25021.86
760.743	24961.74
761.08	24997
761.417	24832.48
761.754	24785.93
762.091	24852.37
762.428	24746.16
762.765	24520.17
763.102	24660.96
763.438	24449.22
763.775	24310.24
764.112	24368.31
764.449	24360.86
764.785	24190.69
765.122	24147.3
765.458	24006.06
765.795	23925.39
766.131	23905.73
766.467	23750.7
766.804	23746.18
767.14	23548.67
767.476	23576.24
767.812	23466.64
768.148	23463.03
768.485	23364.72
768.821	23263.26
769.157	23286.76
769.492	23200.89
769.828	23044.51
770.164	22908.47
770.5	22862.59
770.836	22900.33
771.171	22675.48
771.507	22717.51
771.842	22433.68
772.178	22438.65
772.513	22467.8
772.849	22346.22
773.184	22252.66
773.519	22251.08
773.855	22130.63
774.19	21974.03
774.525	22008.6
774.86	21929.96
775.195	21961.82
775.53	21763.41
775.865	21757.31
776.2	21490.65
776.535	21488.84
776.87	21410.43
777.205	21394.38
777.539	21314.38
777.874	21281.62
778.209	21079.81
778.543	20983.77
778.878	20889.99
779.212	20890.21
779.547	20921.63
779.881	20823.77
780.215	20601.41
780.55	20709.43
780.884	20530.9
781.218	20476.89
781.552	20456.78
781.886	20350.11
782.22	20190.34
782.554	20118.48
782.888	20001.2
783.222	19879.39
783.556	19852.5
783.889	19782.9
784.223	19684.82
784.557	19602.79
784.89	19598.72
785.224	19532.28
785.557	19406.64
785.891	19438.05
786.224	19390.59
786.558	19336.36
786.891	19149.69
787.224	19053.88
787.557	19047.78
787.891	19030.83
788.224	19064.05
788.557	19022.69
788.89	18821.79
789.223	18859.31
789.556	18616.6
789.888	18683.72
790.221	18494.57
790.554	18544.74
790.887	18492.54
791.219	18429.04
791.552	18245.76
791.884	18197.85
792.217	18211.87
792.549	18061.36
792.882	17973.91
793.214	17926.68
793.546	17973.23
793.879	17883.74
794.211	17690.98
794.543	17718.09
794.875	17727.36
795.207	17729.84
795.539	17619.79
795.871	17533.01
796.203	17529.4
796.535	17329.86
796.867	17350.87
797.198	17253.25
797.53	17206.92
797.862	17126.92
798.193	17114.72
798.525	17131.89
798.856	17009.64
799.188	16843.54
799.519	16910.66
799.85	16832.24
800.182	16851.45
800.513	16782.07
800.844	16632.47
801.175	16788.17
801.506	16633.15
801.837	16583.43
802.168	16448.97
802.499	16447.17
802.83	16373.27
803.161	16307.51
803.491	16299.15
803.822	16260.28
804.153	16218.47
804.483	16180.96
804.814	16052.15
805.145	15982.32
805.475	16120.62
805.805	16042.21
806.136	15875.66
806.466	15875.43
806.796	15794.75
807.126	15773.96
807.457	15688.09
807.787	15695.32
808.117	15517.93
808.447	15580.75
808.777	15552.5
809.107	15547.53
809.436	15531.71
809.766	15400.64
810.096	15406.29
810.426	15333.98
810.755	15299.85
811.085	15374.65
811.414	15265.73
811.744	15167.88
812.073	15096.92
812.403	15027.77
812.732	15044.49
813.061	14981.44
813.39	14945.28
813.719	14946.41
814.049	14942.35
814.378	14858.06
814.707	14853.31
815.036	14790.26
815.365	14757.04
815.693	14619.64
816.022	14636.59
816.351	14615.12
816.68	14500.32
817.008	14534
817.337	14380.1
817.665	14385.07
817.994	14395.69
818.322	14434.11
818.651	14401.57
818.979	14246.09
819.307	14359.76
819.636	14254
819.964	14162.93
820.292	14259.88
820.62	14164.51
820.948	14128.13
821.276	14197.06
821.604	14127.68
821.932	14118.64
822.259	14113.89
822.587	14155.02
822.915	14040
823.243	14163.38
823.57	14058.98
823.898	14162.93
824.225	14052.65
824.553	14082.93
824.88	14048.59
825.207	14161.12
825.535	14098.53
825.862	14042.94
826.189	14019.21
826.516	14055.59
826.843	14122.48
827.17	14111.41
827.497	14134.46
827.824	14101.47
828.151	14103.73
828.478	14003.39
828.805	14139.2
829.131	13971.75
829.458	14001.58
829.785	13978.76
830.111	14000.23
830.438	14085.87
830.764	14014.46
831.09	13978.53
831.417	13918.87
831.743	14021.92
832.069	13978.98
832.395	13889.04
832.722	13916.39
833.048	13893.34
833.374	13916.16
833.7	13902.15
834.026	13931.53
834.351	13875.93
834.677	13900.11
835.003	13911.87
835.329	13899.89
835.654	13828.03
835.98	13788.03
836.306	13858.31
836.631	13748.03
836.956	13810.85
837.282	13727.24
837.607	13722.49
837.932	13685.66
838.258	13657.64
838.583	13645.66
838.908	13593.23
839.233	13601.14
839.558	13551.88
839.883	13485.66
840.208	13461.26
840.533	13497.64
840.858	13487.47
841.182	13476.62
841.507	13395.95
841.832	13363.63
842.156	13339.68
842.481	13343.52
842.805	13246.57
843.13	13281.15
843.454	13250.41
843.778	13206.12
844.103	13096.97
844.427	13131.55
844.751	13115.5
845.075	13082.74
845.399	12974.72
845.723	13053.81
846.047	13077.09
846.371	12932.23
846.695	12894.49
847.019	12838.22
847.343	12748.05
847.666	12709.86
847.99	12563.88
848.313	12609.08
848.637	12570.21
848.96	12609.98
849.284	12526.82
849.607	12380.38
849.931	12362.3
850.254	12325.47
850.577	12216.32
850.9	12118.92
851.223	12141.97
851.546	12057.68
851.869	11968.41
852.192	12022.2
852.515	11935.19
852.838	11956.21
853.161	11924.57
853.483	11888.64
853.806	11737.46
854.129	11752.37
854.451	11719.38
854.774	11642.1
855.096	11551.02
855.419	11517.8
855.741	11539.72
856.063	11485.49
856.385	11439.39
856.708	11515.77
857.03	11443.91
857.352	11384.02
857.674	11292.05
857.996	11339.73
858.318	11240.52
858.64	11294.31
858.961	11226.51
859.283	11136.57
859.605	11113.07
859.926	11135.22
860.248	11080.98
860.57	11054.77
860.891	11120.3
861.212	10987.42
861.534	10945.62
861.855	11011.38
862.176	10949.68
862.498	10941.77
862.819	10965.05
863.14	10827.88
863.461	10930.25
863.782	10771.38
864.103	10811.61
864.424	10774.32
864.745	10789.46
865.065	10770.25
865.386	10796.92
865.707	10643.93
866.027	10711.5
866.348	10708.56
866.668	10661.56
866.989	10657.49
867.309	10568
867.63	10605.51
867.95	10537.27
868.27	10509.7
868.59	10537.94
868.91	10457.72
869.23	10492.29
869.55	10431.28
869.87	10470.6
870.19	10438.06
870.51	10439.41
870.83	10406.42
871.15	10377.27
871.469	10317.16
871.789	10403.03
872.109	10305.63
872.428	10280.1
872.748	10311.73
873.067	10331.17
873.386	10294.79
873.706	10267.44
874.025	10179.53
874.344	10203.26
874.663	10244.39
874.982	10163.04
875.301	10161.68
875.62	10143.38
875.939	10142.25
876.258	10105.86
876.577	10062.25
876.896	10061.57
877.214	10086.66
877.533	10045.98
877.852	10019.76
878.17	9989.26
878.489	10012.76
878.807	10033.55
879.125	9958.52
879.444	9962.37
879.762	9973.66
880.08	9896.15
880.398	9868.58
880.716	9908.13
881.034	9822.93
881.352	9887.56
881.67	9805.08
881.988	9786.78
882.306	9772.09
882.624	9814.35
882.941	9757.62
883.259	9596.05
883.577	9668.36
883.894	9623.62
884.212	9593.34
884.529	9537.52
884.846	9620
885.164	9544.98
885.481	9600.11
885.798	9555.82
886.115	9490.51
886.432	9469.04
886.75	9441.47
887.067	9505.43
887.383	9354.25
887.7	9435.37
888.017	9344.08
888.334	9305.21
888.651	9301.59
888.967	9282.16
889.284	9272.89
889.6	9258.88
889.917	9154.93
890.233	9162.61
890.55	9191.76
890.866	9173.01
891.182	9076.06
891.498	9077.64
891.815	9052.11
892.131	9024.54
892.447	8986.8
892.763	8952.67
893.079	8976.4
893.395	8904.77
893.71	8896.18
894.026	8956.29
894.342	8932.34
894.657	8846.24
894.973	8794.03
895.289	8755.39
895.604	8752.45
895.92	8673.81
896.235	8636.52
896.55	8654.15
896.865	8625.23
897.181	8595.17
897.496	8565.11
897.811	8528.28
898.126	8510.43
898.441	8460.71
898.756	8478.79
899.071	8400.82
899.386	8398.11
899.7	8407.15
900.015	8353.14
900.33	8228.4
900.644	8292.8
900.959	8237.44
901.273	8224.56
901.588	8188.17
901.902	8152.24
902.216	8115.86
902.531	8067.5
902.845	8098.91
903.159	8037.44
903.473	8014.17
903.787	7972.59
904.101	7960.84
904.415	7895.98
904.729	7875.41
905.042	7807.62
905.356	7828.18
905.67	7772.82
905.984	7820.73
906.297	7788.64
906.611	7660.28
906.924	7721.75
907.237	7689.2
907.551	7605.82
907.864	7628.42
908.177	7605.59
908.491	7576.21
908.804	7535.08
909.117	7476.33
909.43	7453.96
909.743	7352.72
910.056	7357.46
910.368	7418.7
910.681	7314.07
910.994	7306.84
911.307	7283.34
911.619	7263.23
911.932	7252.38
912.244	7187.3
912.557	7194.98
912.869	7096.9
913.181	7105.72
913.494	7078.37
913.806	7044.48
914.118	6994.76
914.43	7005.38
914.742	6990.92
915.054	6861.88
915.366	6865.72
915.678	6866.63
915.99	6794.09
916.302	6807.42
916.613	6739.17
916.925	6780.53
917.236	6697.82
917.548	6716.12
917.859	6654.43
918.171	6658.72
918.482	6651.04
918.794	6595.45
919.105	6575.11
919.416	6522.46
919.727	6559.97
920.038	6477.94
920.349	6408.56
920.66	6421.67
920.971	6422.8
921.282	6335.12
921.593	6334.66
921.903	6305.06
922.214	6308.68
922.525	6251.73
922.835	6275.68
923.146	6174.89
923.456	6211.96
923.767	6170.83
924.077	6124.95
924.387	6163.59
924.697	6089.02
925.008	6077.95
925.318	6003.6
925.628	6050.38
925.938	6015.8
926.248	5964.5
926.558	5909.82
926.867	5869.82
927.177	5886.99
927.487	5844.06
927.796	5793.44
928.106	5781.01
928.416	5801.8
928.725	5771.06
929.034	5771.06
929.344	5741.69
929.653	5696.26
929.962	5666.43
930.271	5618.52
930.581	5626.66
930.89	5532.43
931.199	5501.01
931.508	5544.4
931.817	5551.63
932.125	5480.22
932.434	5461.01
932.743	5422.15
933.051	5388.25
933.36	5431.86
933.669	5408.81
933.977	5354.8
934.286	5332.2
934.594	5372.2
934.902	5257.18
935.21	5244.98
935.519	5302.37
935.827	5222.15
936.135	5209.95
936.443	5115.26
936.751	5132.44
937.059	5104.87
937.367	5099.67
937.674	5104.41
937.982	5041.82
938.29	5049.5
938.597	5021.7
938.905	4970.41
939.213	4961.59
939.52	4914.14
939.827	4952.55
940.135	4904.19
940.442	4904.65
940.749	4901.26
941.056	4851.31
941.363	4824.87
941.67	4861.93
941.977	4818.55
942.284	4768.6
942.591	4741.03
942.898	4716.63
943.205	4698.32
943.511	4698.1
943.818	4725.21
944.125	4653.35
944.431	4654.03
944.738	4666.46
945.044	4597.99
945.35	4580.36
945.657	4558.21
945.963	4532.23
946.269	4485.45
946.575	4477.99
946.881	4481.38
947.187	4467.37
947.493	4422.85
947.799	4439.8
948.105	4373.13
948.41	4383.3
948.716	4403.87
949.022	4332.46
949.327	4355.05
949.633	4309.86
949.938	4256.98
950.244	4312.8
950.549	4281.61
950.854	4243.87
951.16	4233.93
951.465	4183.53
951.77	4161.16
952.075	4186.25
952.38	4133.59
952.685	4153.03
952.99	4088.62
953.294	4140.37
953.599	4070.32
953.904	4075.06
954.209	4019.92
954.513	4027.15
954.818	3990.77
955.122	4036.42
955.426	3941.05
955.731	3900.15
956.035	3946.93
956.339	3943.99
956.643	3893.37
956.948	3847.95
957.252	3875.97
957.556	3855.86
957.86	3845.69
958.163	3801.17
958.467	3844.11
958.771	3784.67
959.075	3810.44
959.378	3738.8
959.682	3710.33
959.985	3771.34
960.289	3682.3
960.592	3681.85
960.896	3644.11
961.199	3686.15
961.502	3644.57
961.805	3608.41
962.108	3592.14
962.411	3619.26
962.714	3553.49
963.017	3563.66
963.32	3566.15
963.623	3519.14
963.926	3531.12
964.228	3432.82
964.531	3489.32
964.833	3510.78
965.136	3508.75
965.438	3474.85
965.741	3422.65
966.043	3419.26
966.345	3384.69
966.648	3413.61
966.95	3370.45
967.252	3337
967.554	3290.68
967.856	3316.89
968.158	3303.33
968.46	3283.22
968.761	3287.29
969.063	3299.04
969.365	3254.07
969.666	3259.26
969.968	3233.73
970.269	3187.85
970.571	3224.01
970.872	3194.18
971.174	3141.3
971.475	3193.73
971.776	3165.26
972.077	3137.23
972.378	3145.37
972.679	3092.49
972.98	3077.35
973.281	3090.68
973.582	3055.43
973.883	3038.48
974.183	3021.53
974.484	2996.45
974.785	3007.75
975.085	3008.65
975.386	2964.36
975.686	2921.87
975.986	2978.82
976.287	2927.97
976.587	2901.99
976.887	2901.08
977.187	2904.92
977.487	2894.75
977.787	2880.97
978.087	2854.3
978.387	2852.5
978.687	2831.71
978.987	2842.55
979.286	2812.27
979.586	2799.39
979.885	2798.26
980.185	2793.29
980.484	2761.65
980.784	2788.77
981.083	2729.34
981.382	2712.39
981.682	2705.38
981.981	2717.81
982.28	2673.52
982.579	2650.92
982.878	2714.42
983.177	2657.7
983.475	2669.45
983.774	2614.76
984.073	2602.56
984.372	2616.34
984.67	2585.84
984.969	2618.15
985.267	2605.27
985.566	2549.68
985.864	2568.21
986.162	2531.37
986.461	2481.43
986.759	2552.39
987.057	2521.88
987.355	2476.01
987.653	2484.82
987.951	2450.25
988.249	2457.25
988.547	2461.32
988.844	2415.9
989.142	2429.68
989.44	2410.7
989.737	2421.32
990.035	2383.81
990.332	2398.04
990.63	2386.07
990.927	2374.54
991.224	2345.39
991.521	2337.03
991.819	2341.1
992.116	2294.77
992.413	2324.83
992.71	2298.16
993.006	2294.77
993.303	2247.77
993.6	2281.66
993.897	2258.61
994.193	2262.45
994.49	2239.4
994.787	2207.77
995.083	2223.81
995.379	2207.09
995.676	2182.68
995.972	2199.41
996.268	2195.34
996.565	2173.87
996.861	2172.29
997.157	2127.99
997.453	2143.14
997.749	2139.97
998.044	2119.18
998.34	2097.71
998.636	2085.96
998.932	2099.07
999.227	2066.98
999.523	2065.62
999.818	2065.4
1000.114	2029.69
1000.409	2043.93
1000.704	2000.77
1001	2009.81
1001.295	2011.61
1001.59	1984.04
1001.885	1978.17
1002.18	1972.29
1002.475	1927.32
1002.77	1946.76
1003.065	1946.98
1003.359	1924.16
1003.654	1937.72
1003.949	1883.93
1004.243	1908.57
1004.538	1898.62
1004.832	1849.81
1005.127	1862.92
1005.421	1862.01
1005.715	1821.56
1006.009	1821.56
1006.304	1826.31
1006.598	1836.25
1006.892	1819.3
1007.186	1798.51
1007.48	1799.87
1007.773	1772.07
1008.067	1779.53
1008.361	1758.29
1008.655	1745.18
1008.948	1761.22
1009.242	1726.42
1009.535	1713.99
1009.829	1703.6
1010.122	1683.71
1010.415	1703.37
1010.708	1670.38
1011.001	1664.5
1011.295	1685.29
1011.588	1657.95
1011.881	1657.05
1012.173	1664.5
1012.466	1617.05
1012.759	1653.88
1013.052	1608.01
1013.344	1603.71
1013.637	1596.71
1013.93	1586.77
1014.222	1567.33
1014.514	1568.46
1014.807	1559.42
1015.099	1544.28
1015.391	1549.25
1015.683	1527.56
1015.976	1528.69
1016.268	1489.14
1016.56	1484.17
1016.851	1476.94
1017.143	1479.2
1017.435	1471.51
1017.727	1447.33
1018.018	1443.49
1018.31	1427.22
1018.602	1402.59
1018.893	1415.47
1019.185	1432.42
1019.476	1401.23
1019.767	1424.96
1020.058	1398.3
1020.35	1368.69
1020.641	1375.25
1020.932	1377.96
1021.223	1367.11
1021.514	1356.94
1021.804	1314.68
1022.095	1314.68
1022.386	1314.68
1022.677	1329.37
1022.967	1304.97
1023.258	1296.6
1023.548	1297.73
1023.839	1281.46
1024.129	1280.33
1024.419	1257.06
1024.709	1254.35
1025	1229.94
1025.29	1235.36
1025.58	1232.43
1025.87	1201.01
1026.16	1223.16
1026.449	1229.26
1026.739	1202.37
1027.029	1202.82
1027.319	1190.17
1027.608	1188.13
1027.898	1157.85
1028.187	1189.71
1028.477	1153.11
1028.766	1150.62
1029.055	1148.81
1029.344	1148.81
1029.634	1143.16
1029.923	1131.41
1030.212	1111.52
1030.501	1119.66
1030.79	1135.93
1031.078	1081.69
1031.367	1090.06
1031.656	1093.45
1031.945	1079.66
1032.233	1087.57
1032.522	1073.11
1032.81	1041.02
1033.099	1048.7
1033.387	1046.44
1033.675	1020
1033.963	1035.37
1034.251	1058.42
1034.54	1025.65
1034.828	1001.02
1035.116	1010.74
1035.403	988.82
1035.691	989.27
1035.979	1008.7
1036.267	996.95
1036.554	958.99
1036.842	975.03
1037.129	960.12
1037.417	938.87
1037.704	960.79
1037.992	932.09
1038.279	937.74
1038.566	944.07
1038.853	944.07
1039.14	944.07
