Data from hue_320_FLMS001491_60.txt Node
Date: Mon Feb 06 15:47:24 GMT 2017
User: dcchb
Spectrometer: FLMS00149
Trigger mode: 0
Integration Time (sec): 2.000000E-2
Scans to average: 10
Electric dark correction enabled: true
Nonlinearity correction enabled: false
Boxcar width: 0
XAxis mode: Wavelengths
Number of Pixels in Spectrum: 2048
>>>>>Begin Spectral Data<<<<<
341.393	-20.35
341.776	-20.35
342.16	-20.35
342.543	-53.35
342.927	-87.02
343.31	-46.11
343.693	-91.76
344.077	-73.01
344.46	-50.18
344.843	-53.8
345.226	-49.73
345.61	-23.52
345.993	-25.55
346.376	-15.61
346.759	14.67
347.142	35.69
347.525	38.18
347.908	56.26
348.291	74.79
348.674	98.51
349.057	111.17
349.44	119.3
349.823	116.37
350.206	163.82
350.588	181
350.971	219.87
351.354	215.35
351.737	239.98
352.119	250.15
352.502	257.38
352.884	278.62
353.267	246.08
353.65	291.05
354.032	305.74
354.414	302.8
354.797	304.16
355.179	316.81
355.562	333.08
355.944	299.41
356.326	324.27
356.709	325.4
357.091	338.51
357.473	315.46
357.855	335.34
358.238	319.07
358.62	319.53
359.002	317.27
359.384	330.15
359.766	331.05
360.148	320.88
360.53	323.82
360.912	335.57
361.294	334.89
361.676	307.1
362.057	305.97
362.439	312.97
362.821	319.53
363.203	308.9
363.584	296.93
363.966	326.08
364.348	316.36
364.729	314.1
365.111	298.51
365.493	300.99
365.874	319.07
366.256	305.74
366.637	301.67
367.019	326.08
367.4	308
367.781	302.35
368.163	312.75
368.544	304.84
368.925	298.51
369.306	305.74
369.688	319.3
370.069	302.58
370.45	290.15
370.831	292.41
371.212	303.71
371.593	294.67
371.974	293.31
372.355	303.25
372.736	306.42
373.117	313.42
373.498	296.7
373.879	320.66
374.26	303.48
374.641	303.93
375.021	314.1
375.402	301.45
375.783	346.42
376.163	313.2
376.544	325.4
376.925	317.49
377.305	312.29
377.686	301.45
378.066	318.4
378.447	322.46
378.827	324.5
379.208	303.71
379.588	324.95
379.968	319.75
380.349	318.4
380.729	326.08
381.109	311.62
381.489	329.02
381.87	311.39
382.25	336.25
382.63	336.47
383.01	342.35
383.39	344.38
383.77	341.67
384.15	318.4
384.53	345.51
384.91	331.5
385.29	327.89
385.67	333.31
386.049	344.61
386.429	340.54
386.809	350.71
387.189	363.14
387.568	336.25
387.948	331.28
388.328	333.08
388.707	340.77
389.087	342.58
389.466	345.06
389.846	339.41
390.225	330.82
390.605	368.79
390.984	376.93
391.363	350.71
391.743	339.19
392.122	368.34
392.501	365.85
392.881	343.93
393.26	365.63
393.639	360.43
394.018	371.73
394.397	353.65
394.776	358.17
395.155	350.71
395.534	380.31
395.913	358.85
396.292	369.47
396.671	386.42
397.05	376.25
397.429	389.35
397.808	372.86
398.186	383.93
398.565	388.45
398.944	373.76
399.323	378.51
399.701	384.38
400.08	403.59
400.458	392.52
400.837	389.58
401.215	395.91
401.594	394.78
401.972	392.07
402.351	409.47
402.729	389.58
403.107	411.05
403.486	383.7
403.864	405.17
404.242	417.15
404.62	391.39
404.999	413.53
405.377	415.79
405.755	431.39
406.133	440.88
406.511	453.08
406.889	442.69
407.267	463.93
407.645	448.56
408.023	445.4
408.401	431.84
408.779	448.11
409.156	450.6
409.534	459.41
409.912	459.41
410.29	485.4
410.667	457.15
411.045	479.07
411.422	491.95
411.8	482.46
412.178	484.04
412.555	502.12
412.933	491.95
413.31	515.68
413.687	529.01
414.065	539.63
414.442	528.33
414.819	545.96
415.197	546.19
415.574	526.3
415.951	561.55
416.328	556.58
416.705	578.28
417.082	558.84
417.46	577.6
417.837	576.02
418.214	585.06
418.591	595
418.967	569.24
419.344	613.3
419.721	615.56
420.098	621.21
420.475	613.53
420.852	631.83
421.228	624.38
421.605	639.74
421.982	670.25
422.358	636.81
422.735	657.37
423.111	662.57
423.488	676.13
423.864	689.69
424.241	689.69
424.617	693.07
424.994	700.31
425.37	695.79
425.746	709.57
426.123	728.78
426.499	725.16
426.875	734.43
427.251	750.02
427.627	753.41
428.003	747.08
428.379	740.53
428.756	761.1
429.132	785.28
429.507	806.07
429.883	790.7
430.259	786.18
430.635	837.03
431.011	806.97
431.387	848.55
431.763	827.31
432.138	858.72
432.514	816.46
432.89	847.87
433.265	880.87
433.641	891.26
434.016	915.67
434.392	907.31
434.767	906.85
435.143	908.21
435.518	921.32
435.894	930.58
436.269	949.79
436.644	960.64
437.02	959.28
437.395	938.27
437.77	969.68
438.145	965.38
438.52	1021.2
438.895	997.47
439.271	1027.08
439.646	1035.66
440.021	1019.62
440.395	1024.14
440.77	1039.28
441.145	1034.53
441.52	1056
441.895	1073.4
442.27	1054.65
442.645	1067.98
443.019	1070.24
443.394	1080.18
443.769	1090.35
444.143	1071.6
444.518	1111.6
444.892	1078.6
445.267	1102.78
445.641	1107.75
446.016	1135.55
446.39	1139.84
446.764	1123.12
447.139	1128.54
447.513	1149.79
447.887	1124.7
448.262	1132.84
448.636	1150.69
449.01	1176.68
449.384	1157.24
449.758	1174.19
450.132	1165.15
450.506	1174.19
450.88	1147.98
451.254	1181.65
451.628	1209.9
452.002	1172.84
452.376	1200.18
452.75	1203.57
453.123	1236.79
453.497	1221.87
453.871	1216.68
454.244	1277.47
454.618	1267.07
454.992	1284.25
455.365	1264.59
455.739	1313.17
456.112	1309.78
456.486	1294.87
456.859	1319.5
457.232	1323.11
457.606	1328.54
457.979	1327.63
458.352	1336.45
458.725	1371.7
459.099	1375.54
459.472	1383.45
459.845	1394.07
460.218	1436.56
460.591	1402.66
460.964	1431.59
461.337	1457.57
461.71	1468.2
462.083	1492.15
462.456	1467.29
462.829	1449.21
463.201	1510.91
463.574	1498.7
463.947	1507.52
464.32	1514.07
464.692	1549.55
465.065	1550.91
465.438	1571.92
465.81	1584.58
466.183	1552.71
466.555	1605.37
466.928	1612.6
467.3	1628.19
467.672	1664.35
468.045	1677.23
468.417	1664.8
468.789	1661.41
469.161	1702.77
469.534	1688.08
469.906	1731.24
470.278	1765.14
470.65	1751.8
471.022	1765.59
471.394	1790.22
471.766	1829.09
472.138	1830.22
472.51	1847.39
472.882	1870.22
473.253	1917
473.625	1923.33
473.997	1944.79
474.369	1945.02
474.74	1946.38
475.112	1997.45
475.484	2026.37
475.855	2015.75
476.227	2047.62
476.598	2079.71
476.97	2128.29
477.341	2164
477.713	2176.2
478.084	2173.94
478.455	2230.66
478.827	2236.99
479.198	2280.38
479.569	2271.56
479.94	2347.27
480.311	2362.64
480.682	2369.19
481.053	2455.29
481.424	2448.06
481.795	2473.82
482.166	2509.98
482.537	2528.05
482.908	2565.12
483.279	2549.52
483.65	2562.4
484.021	2651.67
484.391	2686.24
484.762	2674.94
485.133	2704.32
485.503	2733.02
485.874	2754.26
486.244	2806.47
486.615	2856.86
486.985	2843.3
487.356	2945.45
487.726	2910.64
488.097	2947.03
488.467	2966.91
488.837	2979.12
489.207	3032
489.578	3056.85
489.948	3126.23
490.318	3159.45
490.688	3160.81
491.058	3164.87
491.428	3230.64
491.798	3222.27
492.168	3314.25
492.538	3286.68
492.908	3301.82
493.278	3300.69
493.648	3325.55
494.017	3438.09
494.387	3452.78
494.757	3439.67
495.126	3482.61
495.496	3498.65
495.866	3459.1
496.235	3536.16
496.605	3594.02
496.974	3603.96
497.344	3620
497.713	3590.63
498.082	3621.59
498.452	3663.84
498.821	3666.1
499.19	3690.28
499.559	3668.59
499.928	3768.7
500.298	3747.68
500.667	3794.46
501.036	3757.85
501.405	3773.22
501.774	3780
502.143	3814.12
502.512	3821.81
502.88	3873.33
503.249	3861.13
503.618	3872.43
503.987	3909.26
504.356	3905.87
504.724	3935.02
505.093	3970.5
505.462	3917.17
505.83	3938.41
506.199	4006.89
506.567	4001.91
506.936	4067.9
507.304	4082.36
507.672	4036.49
508.041	4059.77
508.409	4121.69
508.777	4115.13
509.145	4121.23
509.514	4125.98
509.882	4122.14
510.25	4163.94
510.618	4189.71
510.986	4188.8
511.354	4190.38
511.722	4220.67
512.09	4242.13
512.458	4249.59
512.826	4267.44
513.193	4265.18
513.561	4313.32
513.929	4292.75
514.297	4320.78
514.664	4402.58
515.032	4329.82
515.4	4374.79
515.767	4392.64
516.135	4384.73
516.502	4328.69
516.869	4462.47
517.237	4407.33
517.604	4446.42
517.972	4438.74
518.339	4467.21
518.706	4446.65
519.073	4481.22
519.44	4457.27
519.808	4531.39
520.175	4502.69
520.542	4570.94
520.909	4541.79
521.276	4584.05
521.643	4536.14
522.009	4610.26
522.376	4606.19
522.743	4635.8
523.11	4686.64
523.477	4751.05
523.843	4724.61
524.21	4734.32
524.577	4800.09
524.943	4811.61
525.31	4802.8
525.676	4872.63
526.043	4894.77
526.409	4836.92
526.776	4917.82
527.142	4968.67
527.508	4951.04
527.874	4984.26
528.241	5028.55
528.607	5023.13
528.973	5091.6
529.339	5054.99
529.705	5104.71
530.071	5117.59
530.437	5166.18
530.803	5185.84
531.169	5175.67
531.535	5239.17
531.901	5240.98
532.267	5246.4
532.632	5298.83
532.998	5287.53
533.364	5307.42
533.73	5324.14
534.095	5366.85
534.461	5391.93
534.826	5415.66
535.192	5431.26
535.557	5511.71
535.923	5472.16
536.288	5498.6
536.653	5449.33
537.019	5520.29
537.384	5531.59
537.749	5610.23
538.114	5577.24
538.479	5619.05
538.845	5662.66
539.21	5629.67
539.575	5693.4
539.94	5685.49
540.305	5775.2
540.67	5707.63
541.034	5750.57
541.399	5784.92
541.764	5780.4
542.129	5848.42
542.494	5863.56
542.858	5896.33
543.223	5857.46
543.587	5935.42
543.952	5920.06
544.316	5950.34
544.681	5952.15
545.045	6012.94
545.41	6064.23
545.774	6031.24
546.138	6090
546.503	6104.68
546.867	6093.61
547.231	6211.12
547.595	6186.04
547.959	6247.51
548.324	6210.22
548.688	6229.43
549.052	6254.06
549.416	6290.89
549.779	6259.03
550.143	6284.57
550.507	6363.89
550.871	6338.35
551.235	6410.89
551.599	6438.01
551.962	6449.08
552.326	6354.17
552.689	6478.69
553.053	6520.04
553.417	6463.77
553.78	6566.37
554.143	6609.53
554.507	6570.66
554.87	6504
555.234	6642.3
555.597	6614.73
555.96	6661.96
556.323	6638.23
556.686	6670.77
557.05	6703.99
557.413	6691.34
557.776	6749.19
558.139	6774.5
558.502	6821.05
558.865	6746.93
559.228	6845.91
559.59	6891.33
559.953	6837.55
560.316	6872.12
560.679	6933.36
561.041	6943.76
561.404	6986.92
561.767	7010.65
562.129	6973.14
562.492	7104.88
562.854	7049.52
563.217	7096.3
563.579	7127.03
563.941	7089.07
564.304	7172.45
564.666	7165.67
565.028	7240.25
565.39	7182.62
565.753	7285.67
566.115	7212.68
566.477	7329.74
566.839	7295.84
567.201	7327.48
567.563	7415.84
567.925	7401.37
568.287	7433.24
568.648	7446.34
569.01	7435.04
569.372	7569.73
569.734	7591.42
570.095	7580.13
570.457	7648.82
570.819	7613.57
571.18	7681.14
571.542	7782.61
571.903	7750.74
572.265	7819.89
572.626	7880.91
572.987	7929.27
573.349	7903.51
573.71	7961.81
574.071	7951.64
574.432	8041.36
574.794	8096.04
575.155	8133.33
575.516	8138.53
575.877	8261.01
576.238	8319.99
576.599	8387.11
576.96	8381.69
577.32	8493.55
577.681	8556.37
578.042	8701.45
578.403	8742.13
578.763	8822.13
579.124	8912.75
579.485	8966.76
579.845	9197.94
580.206	9171.04
580.566	9314.54
580.927	9420.98
581.287	9569.68
581.648	9711.14
582.008	9819.39
582.368	9899.61
582.728	10117.01
583.089	10169.89
583.449	10346.15
583.809	10493.04
584.169	10687.84
584.529	10847.38
584.889	11074.27
585.249	11236.98
585.609	11320.37
585.969	11620.47
586.329	11706.57
586.688	11976.85
587.048	12321.02
587.408	12464.52
587.768	12662.7
588.127	12811.4
588.487	13161.67
588.846	13387.2
589.206	13578.61
589.565	13871.26
589.925	14163.23
590.284	14394.86
590.643	14641.18
591.003	14949.2
591.362	15158.68
591.721	15513.93
592.08	15761.15
592.44	16037.3
592.799	16325.66
593.158	16575.6
593.517	16855.14
593.876	17105.98
594.235	17390.94
594.593	17693.53
594.952	18039.51
595.311	18295.32
595.67	18613.73
596.029	18966.04
596.387	19309.31
596.746	19625.46
597.104	19767.6
597.463	20072.9
597.822	20365.78
598.18	20636.96
598.538	20906.55
598.897	21340.22
599.255	21509.7
599.613	22025.4
599.972	22075.79
600.33	22500.86
600.688	22757.58
601.046	23012.94
601.404	23401.4
601.762	23629.65
602.12	24057.88
602.478	24216.07
602.836	24653.35
603.194	24630.98
603.552	25015.15
603.91	25185.54
604.268	25571.74
604.625	25803.15
604.983	26174.66
605.341	26209.92
605.698	26619.17
606.056	26806.51
606.413	27178.93
606.771	27467.06
607.128	27692.14
607.485	27688.75
607.843	28126.7
608.2	28300.48
608.557	28700.47
608.914	28745.9
609.272	29056.85
609.629	29322.15
609.986	29605.31
610.343	29665.19
610.7	30008.91
611.057	30299.98
611.414	30430.6
611.771	30609.35
612.127	30947.87
612.484	31097.93
612.841	31372.72
613.198	31430.8
613.554	31559.38
613.911	31987.17
614.267	32023.78
614.624	32077.11
614.98	32389.19
615.337	32566.14
615.693	32780.59
616.05	32823.3
616.406	33103.75
616.762	33164.09
617.118	33364.53
617.475	33409.73
617.831	33783.05
618.187	33915.25
618.543	34058.3
618.899	34312.53
619.255	34326.77
619.611	34450.15
619.967	34749.35
620.323	34745.29
620.678	34688.57
621.034	34795.46
621.39	35097.59
621.746	35119.51
622.101	35516.57
622.457	35259.62
622.812	35561.08
623.168	35746.62
623.523	35773.51
623.879	35990
624.234	35790.68
624.589	36012.6
624.945	36183.89
625.3	36241.97
625.655	36372.36
626.01	36366.04
626.365	36578.23
626.72	36552.7
627.075	36700.49
627.43	36705.24
627.785	36642.19
628.14	36665.91
628.495	36903.42
628.85	36840.37
629.205	36795.4
629.559	37084.21
629.914	36984.78
630.269	37087.37
630.623	37093.02
630.978	37005.79
631.332	37138.22
631.687	37376.4
632.041	37265.9
632.396	37308.16
632.75	37130.08
633.104	37314.26
633.459	37266.58
633.813	37235.84
634.167	37309.97
634.521	37194.71
634.875	37314.03
635.229	37406.69
635.583	37086.24
635.937	37258.67
636.291	37290.76
636.645	37295.73
636.999	37357.2
637.352	37407.59
637.706	37272.23
638.06	37296.41
638.413	37396.52
638.767	37321.94
639.121	37495.95
639.474	37091.21
639.828	37315.61
640.181	37335.28
640.534	37309.97
640.888	37344.77
641.241	37176.18
641.594	37282.4
641.947	37358.1
642.301	37274.71
642.654	37227.71
643.007	37443.3
643.36	37323.07
643.713	37291.21
644.066	37412.79
644.419	37172.79
644.771	36977.77
645.124	36709.08
645.477	36665.46
645.83	36488.52
646.182	36206.04
646.535	36142.99
646.888	36178.92
647.24	36052.82
647.593	36288.07
647.945	36197
648.298	36045.82
648.65	36024.8
649.002	35898.48
649.355	36153.39
649.707	36043.78
650.059	36177.79
650.411	36613.03
650.763	36733.94
651.115	36986.36
651.467	37034.49
651.819	36975.28
652.171	36935.51
652.523	36711.34
652.875	36805.12
653.227	36605.58
653.578	36949.52
653.93	36805.12
654.282	36703.88
654.633	36658.23
654.985	36641.06
655.337	36723.31
655.688	36737.32
656.039	36761.51
656.391	36418.46
656.742	36557.67
657.094	36691.22
657.445	36796.53
657.796	36599.93
658.147	36642.41
658.498	36635.18
658.849	36802.86
659.2	36692.35
659.551	36502.3
659.902	36653.03
660.253	36501.85
660.604	36622.3
660.955	36576.43
661.306	36678.12
661.656	36518.57
662.007	36611.45
662.358	36562.64
662.708	36530.78
663.059	36552.47
663.409	36385.24
663.76	36525.13
664.11	36486.26
664.461	36566.71
664.811	36489.87
665.161	36457.33
665.511	36535.97
665.862	36380.72
666.212	36463.89
666.562	36551.12
666.912	36335.3
667.262	36372.59
667.612	36375.98
667.962	36463.21
668.312	36332.14
668.662	36570.32
669.011	36375.3
669.361	36392.25
669.711	36373.72
670.06	36241.29
670.41	36311.12
670.76	36371.91
671.109	36322.65
671.459	36241.29
671.808	36292.36
672.157	36308.18
672.507	36175.08
672.856	36101.86
673.205	36252.82
673.554	36309.99
673.904	36171.24
674.253	36398.58
674.602	36229.09
674.951	35742.1
675.3	35507.3
675.649	36138.92
675.998	36087.17
676.346	36132.6
676.695	36201.52
677.044	35993.39
677.393	36041.3
677.741	36164.01
678.09	36037.91
678.438	35923.34
678.787	35897.12
679.135	35859.38
679.484	35703.68
679.832	35968.08
680.181	35708.88
680.529	35868.87
680.877	35684.47
681.225	35811.47
681.573	35886.5
681.922	35625.72
682.27	35444.25
682.618	35519.5
682.966	35393.63
683.314	35397.02
683.661	35382.56
684.009	35262.79
684.357	35063.02
684.705	35062.57
685.053	35060.08
685.4	35121.1
685.748	34902.57
686.095	34945.73
686.443	34837.49
686.79	34747.77
687.138	34892.85
687.485	34763.14
687.832	34729.24
688.18	34772.86
688.527	34451.51
688.874	34410.15
689.221	34391.17
689.568	34376.71
689.915	34290.61
690.262	34368.12
690.609	34195.7
690.956	34065.98
691.303	34136.26
691.65	33811.98
691.997	33927
692.344	33656.73
692.69	33703.51
693.037	33859.43
693.383	33489.05
693.73	33639.55
694.077	33528.6
694.423	33326.57
694.769	33183.07
695.116	33196.4
695.462	33162.73
695.808	33100.13
696.155	33195.5
696.501	32932.23
696.847	32949.18
697.193	32612.01
697.539	32770.2
697.885	32517.32
698.231	32495.4
698.577	32453.6
698.923	32398.91
699.269	32261.06
699.614	32068.75
699.96	32043.66
700.306	32054.06
700.651	31954.85
700.997	31838.02
701.342	31870.79
701.688	31905.36
702.033	31562.09
702.379	31572.26
702.724	31471.93
703.069	31618.59
703.415	31155.32
703.76	31302.44
704.105	31309.67
704.45	31071.03
704.795	31121.65
705.14	30918.04
705.485	30860.19
705.83	30844.6
706.175	30756.24
706.52	30767.76
706.865	30694.32
707.209	30673.98
707.554	30401.67
707.899	30504.27
708.243	30381.79
708.588	30343.37
708.932	30146.54
709.277	30211.62
709.621	30104.05
709.966	29978.41
710.31	30008.91
710.654	29807.79
710.998	29918.3
711.342	29750.84
711.687	29778.19
712.031	29662.48
712.375	29503.16
712.719	29554.91
713.063	29464.52
713.407	29588.59
713.75	29348.59
714.094	29477.18
714.438	29273.34
714.782	29210.29
715.125	29037.64
715.469	29185.21
715.812	28970.52
716.156	28769.17
716.499	28884.2
716.843	28878.77
717.186	28658.67
717.53	28965.33
717.873	28845.33
718.216	28724.2
718.559	28610.08
718.902	28531.89
719.246	28406.02
719.589	28458.67
719.932	28286.93
720.275	28423.42
720.617	28308.17
720.96	28217.32
721.303	28272.24
721.646	28146.82
721.989	28084.22
722.331	28135.97
722.674	27955.41
723.016	27967.84
723.359	28091
723.701	27986.82
724.044	27820.5
724.386	27758.13
724.729	27789.54
725.071	27714.51
725.413	27764.91
725.755	27680.84
726.097	27529.88
726.439	27472.71
726.782	27452.6
727.124	27616.21
727.465	27318.36
727.807	27381.41
728.149	27230.23
728.491	27274.52
728.833	27327.18
729.175	27230.68
729.516	27200.63
729.858	27128.31
730.199	27184.81
730.541	26955.21
730.882	27029.78
731.224	27082.66
731.565	27009.22
731.906	26867.53
732.248	26844.48
732.589	26693.52
732.93	26777.81
733.271	26779.85
733.612	26736.91
733.953	26669.57
734.294	26516.12
734.635	26616.91
734.976	26553.86
735.317	26417.37
735.658	26402.23
735.999	26411.27
736.339	26300.09
736.68	26394.55
737.021	26317.03
737.361	26147.32
737.702	26279.07
738.042	26264.83
738.383	26111.16
738.723	26169.92
739.063	26112.29
739.404	26162.24
739.744	26144.16
740.084	25922.02
740.424	25920.21
740.764	25859.42
741.104	26034.78
741.444	25879.98
741.784	25828.46
742.124	25885.86
742.464	25744.62
742.804	25702.81
743.143	25802.47
743.483	25748.01
743.823	25541.01
744.162	25512.31
744.502	25495.36
744.841	25508.24
745.181	25528.35
745.52	25371.52
745.86	25439.54
746.199	25435.7
746.538	25297.85
746.877	25369.49
747.216	25315.25
747.556	25291.75
747.895	25213.79
748.234	25044.07
748.573	25164.07
748.911	24988.03
749.25	25087.69
749.589	24870.29
749.928	24909.61
750.267	24907.13
750.605	24809.73
750.944	24809.73
751.283	24692.9
751.621	24848.82
751.96	24685.21
752.298	24579.68
752.636	24699.45
752.975	24515.27
753.313	24408.16
753.651	24414.49
753.989	24373.36
754.327	24286.58
754.666	24167.49
755.004	24220.37
755.342	24241.16
755.679	24189.86
756.017	24009.75
756.355	24129.52
756.693	23983.54
757.031	23938.11
757.368	23846.14
757.706	23751.23
758.044	23710.77
758.381	23760.94
758.719	23638.91
759.056	23667.61
759.394	23561.85
759.731	23388.3
760.068	23373.83
760.405	23324.8
760.743	23264.46
761.08	23326.83
761.417	23181.07
761.754	23129.1
762.091	23084.12
762.428	23021.75
762.765	22825.15
763.102	22965.26
763.438	22775.66
763.775	22737.24
764.112	22601.43
764.449	22618.6
764.785	22512.61
765.122	22435.78
765.458	22364.37
765.795	22366.4
766.131	22310.81
766.467	22158.05
766.804	22096.58
767.14	22002.57
767.476	22010.48
767.812	21873.76
768.148	21927.32
768.485	21748.79
768.821	21589.7
769.157	21678.51
769.492	21532.75
769.828	21524.39
770.164	21280.78
770.5	21330.72
770.836	21311.06
771.171	21156.49
771.507	21033.78
771.842	20884.86
772.178	20939.77
772.513	20898.42
772.849	20873.11
773.184	20663.4
773.519	20736.62
773.855	20558.99
774.19	20515.38
774.525	20384.31
774.86	20430.64
775.195	20368.94
775.53	20305.89
775.865	20142.06
776.2	20040.14
776.535	19948.39
776.87	19858.22
777.205	19760.82
777.539	19798.11
777.874	19778.22
778.209	19586.59
778.543	19600.15
778.878	19495.74
779.212	19440.6
779.547	19272.25
779.881	19373.04
780.215	19172.14
780.55	19202.64
780.884	19206.03
781.218	19178.92
781.552	19124.91
781.886	18913.84
782.22	18804.69
782.554	18849.89
782.888	18660.29
783.222	18552.72
783.556	18474.53
783.889	18432.27
784.223	18266.85
784.557	18336
784.89	18247.64
785.224	18128.55
785.557	18119.28
785.891	18199.06
786.224	18078.38
786.558	18001.09
786.891	17899.63
787.224	17784.38
787.557	17666.64
787.891	17710.03
788.224	17731.05
788.557	17660.76
788.89	17620.99
789.223	17602.23
789.556	17445.18
789.888	17402.47
790.221	17357.95
790.554	17138.07
790.887	17256.93
791.219	17130.38
791.552	17102.81
791.884	16912.99
792.217	16902.59
792.549	16916.83
792.882	16753.9
793.214	16726.33
793.546	16794.8
793.879	16584.41
794.211	16476.84
794.543	16557.29
794.875	16527.69
795.207	16531.53
795.539	16419.67
795.871	16382.15
796.203	16282.72
796.535	16080.24
796.867	16160.24
797.198	16119.79
797.53	16117.98
797.862	15987.36
798.193	16011.09
798.525	15849.96
798.856	15964.99
799.188	15792.79
799.519	15730.42
799.85	15613.59
800.182	15597.09
800.513	15661.72
800.844	15447.94
801.175	15558.22
801.506	15498.56
801.837	15480.26
802.168	15373.14
802.499	15294.27
802.83	15278.23
803.161	15107.61
803.491	15193.71
803.822	15197.55
804.153	15071.45
804.483	14928.86
804.814	14948.75
805.145	14874.17
805.475	14818.58
805.805	14891.12
806.136	14767.06
806.466	14786.72
806.796	14805.92
807.126	14651.8
807.457	14573.39
807.787	14649.32
808.117	14565.03
808.447	14468.08
808.777	14627.62
809.107	14454.75
809.436	14424.47
809.766	14453.62
810.096	14336.56
810.426	14274.41
810.755	14264.47
811.085	14289.78
811.414	14188.31
811.744	14134.98
812.073	14085.04
812.403	14076.45
812.732	13978.6
813.061	13979.28
813.39	13917.59
813.719	13858.15
814.049	13916.91
814.378	13905.83
814.707	13795.56
815.036	13821.09
815.365	13652.73
815.693	13615.67
816.022	13595.79
816.351	13583.13
816.68	13510.59
817.008	13546.52
817.337	13403.48
817.665	13408.67
817.994	13445.96
818.322	13397.6
818.651	13329.35
818.979	13303.59
819.307	13357.6
819.636	13372.29
819.964	13181.79
820.292	13265.85
820.62	13238.96
820.948	13187.44
821.276	13214.33
821.604	13128
821.932	13224.95
822.259	13180.43
822.587	13169.58
822.915	13127.55
823.243	13141.34
823.57	13097.27
823.898	13102.01
824.225	13102.24
824.553	13129.13
824.88	13078.06
825.207	13167.55
825.535	13118.96
825.862	13130.94
826.189	13132.07
826.516	13180.66
826.843	13185.4
827.17	13157.61
827.497	13135.69
827.824	13137.04
828.151	13154.89
828.478	13096.36
828.805	13113.31
829.131	13106.76
829.458	12985.18
829.785	13012.75
830.111	13043.71
830.438	13105.63
830.764	13051.62
831.09	13061.79
831.417	13016.14
831.743	13102.92
832.069	13006.88
832.395	12973.2
832.722	13050.94
833.048	12926.43
833.374	12982.24
833.7	12901.34
834.026	12930.27
834.351	13047.78
834.677	12997.61
835.003	12960.78
835.329	12929.14
835.654	12957.61
835.98	12854.79
836.306	12879.2
836.631	12838.29
836.956	12857.05
837.282	12809.14
837.607	12755.81
837.932	12777.28
838.258	12834.68
838.583	12700.89
838.908	12666.32
839.233	12665.42
839.558	12635.36
839.883	12657.51
840.208	12568.02
840.533	12591.97
840.858	12597.85
841.182	12519.43
841.507	12533.22
841.832	12410.28
842.156	12398.3
842.481	12420.45
842.805	12432.2
843.13	12396.5
843.454	12451.64
843.778	12317.63
844.103	12245.31
844.427	12264.75
844.751	12295.71
845.075	12117.63
845.399	12066.56
845.723	12077.86
846.047	12141.14
846.371	12032.21
846.695	12039.22
847.019	11910.63
847.343	11944.98
847.666	11808.26
847.99	11751.77
848.313	11702.28
848.637	11660.47
848.96	11671.77
849.284	11576.86
849.607	11601.94
849.931	11518.33
850.254	11485.11
850.577	11383.42
850.9	11294.15
851.223	11319.46
851.546	11258.45
851.869	11115.63
852.192	11179.8
852.515	11150.43
852.838	11017.32
853.161	11057.55
853.483	11015.52
853.806	10959.7
854.129	10922.41
854.451	10949.08
854.774	10906.59
855.096	10789.31
855.419	10739.36
855.741	10809.42
856.063	10718.12
856.385	10665.92
856.708	10567.39
857.03	10584.57
857.352	10624.11
857.674	10604
857.996	10545.92
858.318	10458.02
858.64	10476.55
858.961	10414.85
859.283	10345.7
859.605	10348.41
859.926	10337.79
860.248	10308.87
860.57	10279.94
860.891	10345.93
861.212	10198.36
861.534	10211.02
861.855	10205.37
862.176	10235.2
862.498	10176.22
862.819	10227.74
863.14	10147.97
863.461	10139.83
863.782	10086.5
864.103	10006.5
864.424	10076.56
864.745	10007.18
865.065	10002.43
865.386	9952.27
865.707	9914.08
866.027	9922.66
866.348	9901.19
866.668	9943.68
866.989	9970.35
867.309	9884.02
867.63	9906.17
867.95	9813.29
868.27	9787.75
868.59	9827.98
868.91	9783.46
869.23	9768.77
869.55	9725.15
869.87	9813.51
870.19	9677.7
870.51	9728.09
870.83	9729
871.15	9674.99
871.469	9621.2
871.789	9685.61
872.109	9652.84
872.428	9616.23
872.748	9641.09
873.067	9620.52
873.386	9611.71
873.706	9543.24
874.025	9550.47
874.344	9558.38
874.663	9541.2
874.982	9504.82
875.301	9466.63
875.62	9474.76
875.939	9369.46
876.258	9456.69
876.577	9388.21
876.896	9368.78
877.214	9391.38
877.533	9417.59
877.852	9378.04
878.17	9359.51
878.489	9355.67
878.807	9339.18
879.125	9318.38
879.444	9278.61
879.762	9288.78
880.08	9232.29
880.398	9190.03
880.716	9274.77
881.034	9192.29
881.352	9240.65
881.67	9177.6
881.988	9146.64
882.306	9156.13
882.624	9042.23
882.941	9089.92
883.259	9009.24
883.577	9058.73
883.894	8984.16
884.212	8975.12
884.529	8907.1
884.846	8962.46
885.164	8920.43
885.481	8866.42
885.798	8892.63
886.115	8829.81
886.432	8857.15
886.75	8794.78
887.067	8838.17
887.383	8773.77
887.7	8752.98
888.017	8741
888.334	8741.68
888.651	8714.56
888.967	8697.38
889.284	8602.02
889.6	8635.24
889.917	8582.36
890.233	8559.53
890.55	8553.89
890.866	8530.16
891.182	8501.46
891.498	8478.86
891.815	8462.36
892.131	8371.97
892.447	8367
892.763	8397.05
893.079	8347.79
893.395	8323.83
893.71	8269.15
894.026	8320.22
894.342	8237.51
894.657	8241.13
894.973	8191.18
895.289	8229.15
895.604	8155.48
895.92	8132.65
896.235	8069.15
896.55	8032.32
896.865	8023.28
897.181	8033.9
897.496	8086.33
897.811	7994.8
898.126	7952.77
898.441	7882.04
898.756	7912.32
899.071	7793.23
899.386	7893.56
899.7	7772.44
900.015	7757.97
900.33	7755.26
900.644	7739.22
900.959	7726.11
901.273	7629.39
901.588	7562.95
901.902	7614.25
902.216	7590.29
902.531	7555.04
902.845	7537.41
903.159	7536.28
903.473	7482.28
903.787	7424.2
904.101	7381.71
904.415	7421.71
904.729	7329.28
905.042	7322.28
905.356	7322.51
905.67	7311.43
905.984	7266.01
906.297	7302.84
906.611	7217.88
906.924	7278.21
907.237	7151.66
907.551	7122.06
907.864	7089.97
908.177	7062.85
908.491	7092.45
908.804	7014.49
909.117	6950.76
909.43	6938.11
909.743	6918
910.056	6947.6
910.368	6907.6
910.681	6819.69
910.994	6818.56
911.307	6842.07
911.619	6728.17
911.932	6749.19
912.244	6701.73
912.557	6699.92
912.869	6660.15
913.181	6660.6
913.494	6621.05
913.806	6615.18
914.118	6524.11
914.43	6514.84
914.742	6462.19
915.054	6443.66
915.366	6478.46
915.678	6391.91
915.99	6392.36
916.302	6307.62
916.613	6390.78
916.925	6332.25
917.236	6306.71
917.548	6211.8
917.859	6270.56
918.171	6177.68
918.482	6153.95
918.794	6176.55
919.105	6134.51
919.416	6050
919.727	6029.88
920.038	6041.18
920.349	6026.95
920.66	6016.1
920.971	5999.15
921.282	5937.68
921.593	5921.64
921.903	5910.56
922.214	5880.96
922.525	5838.93
922.835	5872.83
923.146	5809.32
923.456	5765.26
923.767	5727.52
924.077	5738.82
924.387	5705.37
924.697	5711.93
925.008	5665.37
925.318	5657.46
925.628	5637.13
925.938	5600.29
926.248	5546.73
926.558	5541.54
926.867	5512.61
927.177	5478.49
927.487	5517.13
927.796	5468.09
928.106	5430.35
928.416	5394.42
928.725	5417.47
929.034	5352.61
929.344	5369.56
929.653	5334.08
929.962	5264.48
930.271	5257.93
930.581	5207.08
930.89	5258.38
931.199	5226.52
931.508	5154.65
931.817	5112.17
932.125	5096.58
932.434	5137.03
932.743	5040.53
933.051	5050.47
933.36	5019.97
933.669	4967.31
933.977	4946.52
934.286	4980.87
934.594	4954.43
934.902	4926.41
935.21	4953.08
935.519	4916.24
935.827	4904.94
936.135	4857.94
936.443	4833.31
936.751	4821.33
937.059	4797.37
937.367	4779.75
937.674	4762.35
937.982	4769.13
938.29	4737.26
938.597	4720.77
938.905	4555.35
939.213	4631.05
939.52	4633.54
939.827	4665.85
940.135	4621.56
940.442	4594.44
940.749	4592.63
941.056	4585.63
941.363	4478.06
941.67	4516.48
941.977	4450.04
942.284	4451.39
942.591	4441.9
942.898	4455.91
943.205	4399.42
943.511	4380.66
943.818	4374.33
944.125	4350.15
944.431	4320.32
944.738	4332.98
945.044	4332.75
945.35	4288.91
945.657	4227.45
945.963	4236.48
946.269	4199.42
946.575	4215.47
946.881	4149.26
947.187	4145.41
947.493	4180.89
947.799	4085.75
948.105	4118.3
948.41	4112.42
948.716	4103.15
949.022	4054.34
949.327	4053.89
949.633	4001.91
949.938	4044.85
950.244	4021.58
950.549	3947.9
950.854	3947.23
951.16	3937.51
951.465	3930.73
951.77	3901.8
952.075	3886.44
952.38	3830.39
952.685	3899.32
952.99	3864.52
953.294	3815.03
953.599	3840.56
953.904	3783.39
954.209	3804.63
954.513	3770.28
954.818	3733.45
955.122	3720.57
955.426	3724.18
955.731	3678.53
956.035	3664.97
956.339	3677.86
956.643	3654.81
956.948	3620.68
957.252	3610.29
957.556	3601.02
957.86	3596.5
958.163	3568.03
958.467	3559.67
958.771	3529.61
959.075	3568.93
959.378	3515.37
959.682	3516.28
959.985	3506.56
960.289	3467.24
960.592	3453.91
960.896	3427.47
961.199	3398.31
961.502	3410.97
961.805	3404.42
962.108	3348.82
962.411	3373.91
962.714	3372.33
963.017	3355.83
963.32	3392.89
963.623	3338.43
963.926	3296.17
964.228	3286.91
964.531	3265.44
964.833	3241.93
965.136	3176.4
965.438	3206.91
965.741	3235.83
966.043	3205.1
966.345	3169.62
966.648	3187.92
966.95	3157.42
967.252	3116.06
967.554	3129.17
967.856	3095.05
968.158	3101.6
968.46	3101.6
968.761	3077.42
969.063	3060.47
969.365	3056.85
969.666	3031.32
969.968	2994.03
970.269	2984.99
970.571	3008.04
970.872	2978.89
971.174	2999.23
971.475	2946.58
971.776	2955.39
972.077	2943.64
972.378	2883.98
972.679	2901.15
972.98	2897.99
973.281	2846.24
973.582	2840.14
973.883	2826.13
974.183	2818.22
974.484	2858.89
974.785	2786.58
975.085	2830.87
975.386	2782.51
975.686	2788.39
975.986	2792.91
976.287	2757.65
976.587	2724.21
976.887	2720.59
977.187	2709.07
977.487	2699.58
977.787	2705.45
978.087	2679.92
978.387	2662.29
978.687	2674.04
978.987	2671.55
979.286	2625.23
979.586	2590.88
979.885	2625
980.185	2612.57
980.484	2592.23
980.784	2551.11
981.083	2553.14
981.382	2546.81
981.682	2550.65
981.981	2541.16
982.28	2530.31
982.579	2504.55
982.878	2507.26
983.177	2477.43
983.475	2485.12
983.774	2467.27
984.073	2494.84
984.372	2432.46
984.67	2451.9
984.969	2414.84
985.267	2420.26
985.566	2413.03
985.864	2409.64
986.162	2420.49
986.461	2386.59
986.759	2363.09
987.057	2330.55
987.355	2335.74
987.653	2341.62
987.951	2320.83
988.249	2321.05
988.547	2328.51
988.844	2310.43
989.142	2286.71
989.44	2275.86
989.737	2304.33
990.035	2261.85
990.332	2226.37
990.63	2252.13
990.927	2211
991.224	2189.53
991.521	2189.98
991.819	2184.11
992.116	2156.99
992.413	2147.27
992.71	2182.53
993.006	2171.23
993.303	2152.92
993.6	2125.81
993.897	2121.06
994.193	2115.64
994.49	2120.61
994.787	2094.85
995.083	2080.61
995.379	2060.72
995.676	2085.58
995.972	2031.12
996.268	2052.36
996.565	2044
996.861	2028.86
997.157	2013.04
997.453	2030.21
997.749	1973.27
998.044	1989.54
998.34	1966.04
998.636	1957.67
998.932	1957
999.227	1969.65
999.523	1937.11
999.818	1932.14
1000.114	1910.9
1000.409	1887.62
1000.704	1915.87
1001	1860.73
1001.295	1894.85
1001.59	1889.2
1001.885	1854.85
1002.18	1856.21
1002.475	1836.77
1002.77	1829.54
1003.065	1824.8
1003.359	1794.97
1003.654	1818.02
1003.949	1803.78
1004.243	1788.19
1004.538	1778.24
1004.832	1767.85
1005.127	1760.39
1005.421	1774.18
1005.715	1742.54
1006.009	1736.89
1006.304	1717.23
1006.598	1705.93
1006.892	1647.85
1007.186	1701.41
1007.48	1691.92
1007.773	1694.18
1008.067	1645.37
1008.361	1661.19
1008.655	1611.24
1008.948	1643.11
1009.242	1622.77
1009.535	1599.94
1009.829	1586.38
1010.122	1598.59
1010.415	1577.8
1010.708	1561.3
1011.001	1554.97
1011.295	1568.76
1011.588	1545.71
1011.881	1541.87
1012.173	1552.26
1012.466	1521.08
1012.759	1523.34
1013.052	1540.96
1013.344	1521.98
1013.637	1486.27
1013.93	1487.63
1014.222	1508.19
1014.514	1456.44
1014.807	1487.18
1015.099	1419.61
1015.391	1437.46
1015.683	1424.36
1015.976	1427.07
1016.268	1412.38
1016.56	1385.26
1016.851	1414.41
1017.143	1430.46
1017.435	1388.42
1017.727	1364.7
1018.018	1342.78
1018.31	1358.37
1018.602	1339.61
1018.893	1336.9
1019.185	1343
1019.476	1318.14
1019.767	1318.14
1020.058	1315.88
1020.35	1281.08
1020.641	1260.52
1020.932	1270.23
1021.223	1281.99
1021.514	1281.08
1021.804	1256.22
1022.095	1259.39
1022.386	1246.96
1022.677	1262.33
1022.967	1236.11
1023.258	1206.06
1023.548	1205.15
1023.839	1195.66
1024.129	1220.07
1024.419	1202.44
1024.709	1163.35
1025	1162.89
1025.29	1167.64
1025.58	1145.04
1025.87	1156.11
1026.16	1151.14
1026.449	1139.62
1026.739	1147.3
1027.029	1127.19
1027.319	1113.4
1027.608	1139.62
1027.898	1123.57
1028.187	1103.91
1028.477	1097.13
1028.766	1094.19
1029.055	1063.01
1029.344	1059.39
1029.634	1067.08
1029.923	1074.76
1030.212	1053.52
1030.501	1060.97
1030.79	1017.59
1031.078	1019.62
1031.367	1025.95
1031.656	1028.89
1031.945	1045.38
1032.233	989.56
1032.522	1001.99
1032.81	990.92
1033.099	984.82
1033.387	992.73
1033.675	971.94
1033.963	970.13
1034.251	956.12
1034.54	935.78
1034.828	975.1
1035.116	963.35
1035.403	931.94
1035.691	933.75
1035.979	911.37
1036.267	916.35
1036.554	923.13
1036.842	919.28
1037.129	916.57
1037.417	863.01
1037.704	895.78
1037.992	873.86
1038.279	884.71
1038.566	900.3
1038.853	900.3
1039.14	900.3
