Data from hue_140_FLMS001491_00026.txt Node
Date: Tue Feb 07 16:55:40 GMT 2017
User: dcchb
Spectrometer: FLMS00149
Trigger mode: 0
Integration Time (sec): 2.000000E-2
Scans to average: 10
Electric dark correction enabled: true
Nonlinearity correction enabled: false
Boxcar width: 0
XAxis mode: Wavelengths
Number of Pixels in Spectrum: 2048
>>>>>Begin Spectral Data<<<<<
341.393	-0.42
341.776	-0.42
342.16	-0.42
342.543	-45.39
342.927	-67.54
343.31	-67.31
343.693	-76.13
344.077	-64.38
344.46	-57.6
344.843	-45.85
345.226	-37.48
345.61	-11.5
345.993	-26.41
346.376	11.33
346.759	-2.23
347.142	26.24
347.525	26.92
347.908	42.96
348.291	71.66
348.674	90.42
349.057	119.35
349.44	121.16
349.823	165.67
350.206	163.41
350.588	199.8
350.971	219.01
351.354	223.98
351.737	225.56
352.119	241.83
352.502	274.37
352.884	275.5
353.267	282.51
353.65	302.62
354.032	299.23
354.414	308.72
354.797	335.39
355.179	303.98
355.562	340.58
355.944	327.93
356.326	352.56
356.709	347.36
357.091	346.46
357.473	352.11
357.855	338.32
358.238	352.79
358.62	326.57
359.002	332.22
359.384	357.53
359.766	365.67
360.148	348.95
360.53	330.64
360.912	330.19
361.294	328.83
361.676	337.19
362.057	336.97
362.439	357.76
362.821	353.47
363.203	329.74
363.584	334.71
363.966	316.18
364.348	329.29
364.729	321.6
365.111	319.12
365.493	315.05
365.874	316.4
366.256	309.17
366.637	333.58
367.019	332.45
367.4	327.93
367.781	324.31
368.163	324.77
368.544	331.32
368.925	313.92
369.306	327.93
369.688	303.52
370.069	301.26
370.45	320.02
370.831	309.17
371.212	315.5
371.593	330.87
371.974	317.76
372.355	326.57
372.736	304.2
373.117	310.53
373.498	303.07
373.879	328.83
374.26	304.88
374.641	309.62
375.021	312.79
375.402	327.48
375.783	317.99
376.163	334.71
376.544	327.25
376.925	323.86
377.305	348.49
377.686	311.88
378.066	341.94
378.447	321.83
378.827	314.82
379.208	336.52
379.588	343.3
379.968	338.1
380.349	332.67
380.729	326.57
381.109	303.75
381.489	332.22
381.87	358.44
382.25	333.8
382.63	350.53
383.01	350.53
383.39	334.26
383.77	344.88
384.15	336.52
384.53	341.04
384.91	338.78
385.29	348.04
385.67	365.44
386.049	350.75
386.429	353.01
386.809	358.44
387.189	342.84
387.568	364.76
387.948	348.27
388.328	361.37
388.707	344.65
389.087	369.74
389.466	375.16
389.846	361.6
390.225	376.29
390.605	369.96
390.984	352.34
391.363	388.49
391.743	374.71
392.122	384.42
392.501	372.9
392.881	387.81
393.26	378.1
393.639	372.67
394.018	380.13
394.397	389.4
394.776	358.89
395.155	395.72
395.534	396.63
395.913	398.21
396.292	400.7
396.671	386.91
397.05	411.09
397.429	404.31
397.808	394.37
398.186	379.91
398.565	369.96
398.944	374.93
399.323	409.28
399.701	408.61
400.08	403.86
400.458	396.85
400.837	412.9
401.215	415.84
401.594	409.96
401.972	405.67
402.351	410.86
402.729	400.02
403.107	416.97
403.486	411.99
403.864	389.62
404.242	403.63
404.62	447.47
404.999	424.65
405.377	422.84
405.755	428.04
406.133	446.8
406.511	427.59
406.889	434.82
407.267	430.75
407.645	438.89
408.023	441.37
408.401	446.57
408.779	438.21
409.156	448.15
409.534	431.88
409.912	435.27
410.29	449.28
410.667	453.8
411.045	453.8
411.422	466.91
411.8	475.72
412.178	463.29
412.555	468.04
412.933	468.04
413.31	495.16
413.687	483.41
414.065	489.96
414.442	495.38
414.819	494.7
415.197	511.65
415.574	484.76
415.951	517.08
416.328	496.96
416.705	504.42
417.082	516.4
417.46	519.79
417.837	510.98
418.214	552.1
418.591	538.55
418.967	546.23
419.344	529.28
419.721	552.33
420.098	517.3
420.475	534.7
420.852	510.52
421.228	523.86
421.605	540.8
421.982	536.96
422.358	534.03
422.735	563.4
423.111	581.71
423.488	560.92
423.864	568.83
424.241	558.43
424.617	564.31
424.994	591.43
425.37	598.2
425.746	567.47
426.123	589.62
426.499	590.75
426.875	592.33
427.251	602.05
427.627	596.85
428.003	595.49
428.379	605.66
428.756	601.59
429.132	600.46
429.507	625.77
429.883	631.65
430.259	636.17
430.635	644.31
431.011	646.79
431.387	656.28
431.763	667.36
432.138	648.15
432.514	686.34
432.89	677.3
433.265	684.76
433.641	687.47
434.016	687.92
434.392	702.83
434.767	713.91
435.143	704.64
435.518	721.14
435.894	713.46
436.269	729.95
436.644	727.24
437.02	739.22
437.395	755.26
437.77	744.19
438.145	766.79
438.52	773.79
438.895	772.89
439.271	757.3
439.646	775.83
440.021	777.86
440.395	799.56
440.77	812.89
441.145	804.07
441.52	814.47
441.895	803.85
442.27	807.46
442.645	825.32
443.019	848.59
443.394	837.52
443.769	862.15
444.143	836.16
444.518	826.67
444.892	844.98
445.267	835.26
445.641	869.61
446.016	876.16
446.39	875.49
446.764	877.29
447.139	891.08
447.513	875.94
447.887	875.26
448.262	896.73
448.636	888.82
449.01	893.11
449.384	881.81
449.758	901.7
450.132	914.35
450.506	936.73
450.88	931.08
451.254	955.48
451.628	938.99
452.002	967.01
452.376	972.88
452.75	994.35
453.123	978.99
453.497	967.23
453.871	992.54
454.244	1033.67
454.618	1011.98
454.992	1022.83
455.365	1048.59
455.739	1059.44
456.112	1064.18
456.486	1099.89
456.859	1077.74
457.232	1103.5
457.606	1112.77
457.979	1109.83
458.352	1148.47
458.725	1162.26
459.099	1146.21
459.472	1190.96
459.845	1209.94
460.218	1195.25
460.591	1223.27
460.964	1227.79
461.337	1255.81
461.71	1250.39
462.083	1308.47
462.456	1253.78
462.829	1333.78
463.201	1308.02
463.574	1320.67
463.947	1327.45
464.32	1365.19
464.692	1377.39
465.065	1404.06
465.438	1409.26
465.81	1462.36
466.183	1439.54
466.555	1498.52
466.928	1524.28
467.3	1514.79
467.672	1544.85
468.045	1600.66
468.417	1593.88
468.789	1627.78
469.161	1630.49
469.534	1677.27
469.906	1711.62
470.278	1708.68
470.65	1775.57
471.022	1786.42
471.394	1835.91
471.766	1856.7
472.138	1860.32
472.51	1899.41
472.882	1928.79
473.253	1966.76
473.625	2021.44
473.997	2079.97
474.369	2090.14
474.74	2145.28
475.112	2213.76
475.484	2236.13
475.855	2322.91
476.227	2358.38
476.598	2440.64
476.97	2459.4
477.341	2497.59
477.713	2592.28
478.084	2640.18
478.455	2705.95
478.827	2819.16
479.198	2869.33
479.569	2920.4
479.94	3063.68
480.311	3123.79
480.682	3196.1
481.053	3244.01
481.424	3381.86
481.795	3461.63
482.166	3521.07
482.537	3598.13
482.908	3701.63
483.279	3806.93
483.65	3887.38
484.021	4051
484.391	4090.32
484.762	4224.78
485.133	4320.82
485.503	4390.87
485.874	4591.32
486.244	4633.58
486.615	4792.22
486.985	4895.72
487.356	5027.69
487.726	5115.15
488.097	5245.99
488.467	5389.27
488.837	5523.5
489.207	5677.62
489.578	5807.79
489.948	5903.83
490.318	6017.95
490.688	6135.69
491.058	6291.39
491.428	6392.85
491.798	6545.84
492.168	6763.24
492.538	6874.88
492.908	6977.7
493.278	7152.83
493.648	7197.58
494.017	7362.55
494.387	7537.46
494.757	7579.04
495.126	7817
495.496	7819.94
495.866	7934.51
496.235	8142.19
496.605	8286.36
496.974	8310.09
497.344	8548.96
497.713	8634.38
498.082	8735.39
498.452	8906.01
498.821	8996.63
499.19	9023.29
499.559	9158.43
499.928	9249.73
500.298	9367.92
500.667	9485.2
501.036	9564.75
501.405	9727.23
501.774	9724.07
502.143	9825.08
502.512	9974
502.88	10069.82
503.249	10079.09
503.618	10146.65
503.987	10294.67
504.356	10417.16
504.724	10447.66
505.093	10501.9
505.462	10590.94
505.83	10707.54
506.199	10818.73
506.567	10963.81
506.936	10997.93
507.304	11100.3
507.672	11161.99
508.041	11198.83
508.409	11280.86
508.777	11390.92
509.145	11459.16
509.514	11526.05
509.882	11525.37
510.25	11498.03
510.618	11654.86
510.986	11754.3
511.354	11743.9
511.722	11893.95
512.09	12001.29
512.458	11988.41
512.826	12104.12
513.193	12072.71
513.561	12049.65
513.929	12163.78
514.297	12249.65
514.664	12305.24
515.032	12345.24
515.4	12459.81
515.767	12480.38
516.135	12533.71
516.502	12519.25
516.869	12608.28
517.237	12661.39
517.604	12667.49
517.972	12812.57
518.339	12709.75
518.706	12727.83
519.073	12837.88
519.44	12778.45
519.808	12891.44
520.175	12900.25
520.542	13099.8
520.909	13030.65
521.276	12919.46
521.643	13106.8
522.009	13154.94
522.376	13186.8
522.743	13236.06
523.11	13259.57
523.477	13355.16
523.843	13465.66
524.21	13457.75
524.577	13562.84
524.943	13546.34
525.31	13482.39
525.676	13650.29
526.043	13612.33
526.409	13717.18
526.776	13740.46
527.142	13701.81
527.508	13766.9
527.874	13764.64
528.241	13808.03
528.607	13729.38
528.973	13820.23
529.339	13824.98
529.705	13878.31
530.071	13898.42
530.437	13924.86
530.803	13835.14
531.169	13951.98
531.535	13853.9
531.901	13884.86
532.267	13860.23
532.632	13920.34
532.998	13883.28
533.364	13933.9
533.73	13874.24
534.095	13946.78
534.461	13852.09
534.826	13957.4
535.192	13903.84
535.557	13949.94
535.923	13834.01
536.288	13872.66
536.653	13919.66
537.019	13802.15
537.384	13744.98
537.749	13774.81
538.114	13668.82
538.479	13611.42
538.845	13762.6
539.21	13646.9
539.575	13650.29
539.94	13641.25
540.305	13586.11
540.67	13568.03
541.034	13589.05
541.399	13624.53
541.764	13564.87
542.129	13439.9
542.494	13499.79
542.858	13497.07
543.223	13459.11
543.587	13426.34
543.952	13350.19
544.316	13355.61
544.681	13368.72
545.045	13398.77
545.41	13330.98
545.774	13315.61
546.138	13234.48
546.503	13179.57
546.867	13076.75
547.231	13218.89
547.595	13106.58
547.959	13158.33
548.324	13067.93
548.688	13019.35
549.052	13008.27
549.416	12965.11
549.779	13010.76
550.143	12949.29
550.507	12984.55
550.871	12923.08
551.235	12887.6
551.599	12929.63
551.962	12900.48
552.326	12900.93
552.689	12833.36
553.053	12828.39
553.417	12724.89
553.78	12897.54
554.143	12739.81
554.507	12737.77
554.87	12651.67
555.234	12835.62
555.597	12658
555.96	12666.59
556.323	12683.99
556.686	12627.49
557.05	12673.14
557.413	12631.79
557.776	12677.21
558.139	12687.83
558.502	12679.92
558.865	12713.37
559.228	12696.87
559.59	12631.79
559.953	12635.63
560.316	12704.55
560.679	12629.75
561.041	12787.26
561.404	12643.09
561.767	12735.96
562.129	12641.96
562.492	12777.77
562.854	12681.73
563.217	12679.47
563.579	12681.05
563.941	12765.79
564.304	12748.85
564.666	12686.93
565.028	12722.18
565.39	12822.52
565.753	12768.51
566.115	12770.54
566.477	12859.58
566.839	12869.29
567.201	12935.28
567.563	12779.58
567.925	13003.53
568.287	12900.93
568.648	12860.48
569.01	12961.72
569.372	12961.04
569.734	12956.07
570.095	12953.13
570.457	12993.13
570.819	13014.83
571.18	13011.21
571.542	13002.17
571.903	13084.43
572.265	13091.89
572.626	13122.4
572.987	13014.6
573.349	13110.64
573.71	13124.43
574.071	13097.99
574.432	13194.71
574.794	13185.67
575.155	13123.07
575.516	13078.55
575.877	13228.16
576.238	13116.07
576.599	13181.15
576.96	13175.95
577.32	13166.24
577.681	13208.04
578.042	13317.19
578.403	13187.48
578.763	13344.76
579.124	13215.27
579.485	13202.84
579.845	13261.6
580.206	13257.76
580.566	13275.16
580.927	13217.08
581.287	13245.56
581.648	13221.15
582.008	13260.47
582.368	13250.75
582.728	13178.66
583.089	13218.44
583.449	13182.51
583.809	13267.02
584.169	13200.81
584.529	13159.91
584.889	13217.08
585.249	13219.12
585.609	13104.54
585.969	13145.67
586.329	13163.52
586.688	13161.04
587.048	13147.48
587.408	13097.09
587.768	13133.24
588.127	13109.29
588.487	13090.76
588.846	13150.19
589.206	13017.99
589.565	13081.04
589.925	13065.9
590.284	13093.7
590.643	13078.1
591.003	13136.41
591.362	13108.38
591.721	13018.22
592.08	13077.65
592.44	13090.31
592.799	13109.51
593.158	12977.54
593.517	13048.95
593.876	13039.69
594.235	13044.66
594.593	12993.13
594.952	12979.12
595.311	13017.54
595.67	12990.65
596.029	13092.34
596.387	13042.4
596.746	13047.14
597.104	12981.38
597.463	13027.71
597.822	13095.05
598.18	12949.07
598.538	12928.28
598.897	12928.95
599.255	12894.38
599.613	13046.24
599.972	12950.2
600.33	13033.36
600.688	12896.41
601.046	12931.89
601.404	13013.25
601.762	12968.05
602.12	13010.53
602.478	13087.82
602.836	12986.35
603.194	12961.04
603.552	12982.51
603.91	12940.93
604.268	12951.55
604.625	13029.74
604.983	12954.49
605.341	12969.86
605.698	13082.17
606.056	13051.21
606.413	13069.52
606.771	12963.53
607.128	13102.51
607.485	12975.05
607.843	12918.56
608.2	13027.26
608.557	13053.47
608.914	13010.99
609.272	13032.23
609.629	13170.08
609.986	13115.62
610.343	13083.53
610.7	13140.25
611.057	13156.52
611.414	13178.44
611.771	13163.3
612.127	13101.6
612.484	13123.07
612.841	13217.76
613.198	13124.88
613.554	13201.04
613.911	13229.51
614.267	13288.04
614.624	13170.53
614.98	13261.83
615.337	13356.51
615.693	13249.17
616.05	13305.67
616.406	13301.15
616.762	13276.74
617.118	13291.43
617.475	13364.2
617.831	13420.01
618.187	13288.04
618.543	13409.85
618.899	13412.33
619.255	13366.46
619.611	13396.74
619.967	13499.11
620.323	13413.69
620.678	13338.21
621.034	13302.5
621.39	13285.78
621.746	13322.62
622.101	13524.19
622.457	13349.51
622.812	13425.89
623.168	13377.53
623.523	13424.76
623.879	13504.31
624.234	13354.93
624.589	13427.47
624.945	13426.79
625.3	13484.65
625.655	13469.5
626.01	13427.7
626.365	13403.07
626.72	13414.36
627.075	13467.02
627.43	13450.97
627.785	13302.28
628.14	13397.87
628.495	13396.51
628.85	13300.92
629.205	13236.29
629.559	13397.87
629.914	13255.95
630.269	13270.19
630.623	13342.73
630.978	13256.85
631.332	13323.75
631.687	13311.54
632.041	13179.79
632.396	13378.21
632.75	13240.13
633.104	13284.65
633.459	13178.44
633.813	13250.75
634.167	13186.8
634.521	13241.26
634.875	13281.49
635.229	13173.02
635.583	13166.69
635.937	13117.42
636.291	13090.08
636.645	13162.17
636.999	13119.01
637.352	13120.14
637.706	12963.53
638.06	13020.25
638.413	13009.4
638.767	13016.18
639.121	12922.85
639.474	12979.12
639.828	12981.61
640.181	12902.51
640.534	12980.03
640.888	12885.11
641.241	12850.76
641.594	12916.52
641.947	12941.83
642.301	12872.01
642.654	12812.35
643.007	12882.63
643.36	12862.06
643.713	12792.46
644.066	12816.64
644.419	12752.24
644.771	12695.06
645.124	12659.36
645.477	12596.99
645.83	12490.32
646.182	12525.8
646.535	12425.69
646.888	12397.67
647.24	12312.92
647.593	12317.67
647.945	12324.22
648.298	12316.09
648.65	12277.9
649.002	12285.58
649.355	12393.6
649.707	12307.73
650.059	12409.65
650.411	12629.98
650.763	12549.3
651.115	12703.88
651.467	12656.87
651.819	12564.67
652.171	12611.67
652.523	12644.44
652.875	12611.22
653.227	12621.84
653.578	12713.82
653.93	12648.06
654.282	12591.34
654.633	12576.42
654.985	12581.39
655.337	12599.92
655.688	12632.24
656.039	12712.01
656.391	12631.11
656.742	12521.96
657.094	12650.77
657.445	12702.52
657.796	12646.25
658.147	12628.85
658.498	12608.28
658.849	12615.74
659.2	12660.26
659.551	12616.19
659.902	12652.8
660.253	12587.95
660.604	12716.98
660.955	12658
661.306	12685.12
661.656	12639.92
662.007	12631.33
662.358	12662.29
662.708	12669.3
663.059	12662.75
663.409	12594.73
663.76	12661.39
664.11	12636.53
664.461	12656.87
664.811	12764.66
665.161	12680.82
665.511	12625.68
665.862	12729.41
666.212	12697.77
666.562	12714.5
666.912	12682.86
667.262	12659.36
667.612	12717.43
667.962	12667.72
668.312	12633.82
668.662	12733.93
669.011	12585.46
669.361	12581.17
669.711	12628.4
670.06	12676.53
670.41	12578.23
670.76	12570.77
671.109	12648.06
671.459	12546.82
671.808	12559.7
672.157	12646.7
672.507	12511.56
672.856	12488.29
673.205	12555.63
673.554	12580.94
673.904	12473.6
674.253	12603.31
674.602	12566.03
674.951	12375.75
675.3	12327.16
675.649	12490.32
675.998	12449.19
676.346	12508.4
676.695	12554.27
677.044	12420.27
677.393	12541.85
677.741	12475.86
678.09	12404.45
678.438	12445.12
678.787	12373.94
679.135	12369.19
679.484	12298.24
679.832	12396.09
680.181	12281.29
680.529	12284.9
680.877	12231.8
681.225	12240.84
681.573	12280.16
681.922	12122.87
682.27	12157.45
682.618	12204.68
682.966	12147.05
683.314	12156.32
683.661	12176.21
684.009	12051.69
684.357	11989.54
684.705	12066.15
685.053	12027.73
685.4	12013.95
685.748	11922.88
686.095	11930.56
686.443	11851.69
686.79	11845.59
687.138	11904.8
687.485	11859.6
687.832	11833.62
688.18	11848.98
688.527	11717.91
688.874	11733.73
689.221	11706.61
689.568	11726.73
689.915	11640.63
690.262	11671.59
690.609	11543
690.956	11499.16
691.303	11483.12
691.65	11451.48
691.997	11475.43
692.344	11353.18
692.69	11357.02
693.037	11351.59
693.383	11219.62
693.73	11293.29
694.077	11197.93
694.423	11185.27
694.769	11133.75
695.116	11150.7
695.462	11094.65
695.808	11078.38
696.155	11026.4
696.501	10980.08
696.847	10957.93
697.193	10846.07
697.539	10918.16
697.885	10768.78
698.231	10801.33
698.577	10794.32
698.923	10727.43
699.269	10616.47
699.614	10635
699.96	10623.25
700.306	10544.38
700.651	10482.01
700.997	10476.81
701.342	10481.11
701.688	10415.12
702.033	10368.57
702.379	10422.35
702.724	10404.95
703.069	10370.6
703.415	10263.94
703.76	10207.22
704.105	10258.52
704.45	10178.97
704.795	10110.95
705.14	10028.69
705.485	10129.71
705.83	10014.23
706.175	10072.53
706.52	10006.32
706.865	9983.95
707.209	9877.51
707.554	9918.19
707.899	9882.93
708.243	9851.29
708.588	9898.53
708.932	9754.35
709.277	9796.83
709.621	9831.41
709.966	9729.49
710.31	9746.44
710.654	9633.9
710.998	9637.51
711.342	9711.64
711.687	9672.09
712.031	9513.45
712.375	9514.81
712.719	9590.06
713.063	9546.44
713.407	9576.27
713.75	9482.26
714.094	9503.06
714.438	9425.77
714.782	9523.17
715.125	9370.63
715.469	9458.99
715.812	9358.43
716.156	9313.91
716.499	9373.12
716.843	9310.74
717.186	9259.67
717.53	9332.21
717.873	9333.34
718.216	9269.84
718.559	9215.38
718.902	9207.92
719.246	9214.48
719.589	9157.53
719.932	9177.41
720.275	9145.32
720.617	9129.73
720.96	9144.19
721.303	9146.23
721.646	9126.57
721.989	9013.58
722.331	9151.65
722.674	9121.14
723.016	9116.85
723.359	9022.84
723.701	9047.25
724.044	9021.71
724.386	9044.99
724.729	9081.82
725.071	8962.73
725.413	8977.87
725.755	9013.35
726.097	9002.96
726.439	8933.35
726.782	8927.93
727.124	8951.21
727.465	8943.3
727.807	8938.1
728.149	8957.76
728.491	8946.46
728.833	8910.53
729.175	8914.6
729.516	8958.44
729.858	8915.05
730.199	8892.9
730.541	8905.78
730.882	8874.82
731.224	8894.48
731.565	8854.71
731.906	8833.69
732.248	8888.61
732.589	8825.33
732.93	8777.42
733.271	8780.14
733.612	8873.02
733.953	8854.71
734.294	8787.59
734.635	8773.81
734.976	8821.49
735.317	8789.18
735.658	8798.67
735.999	8899.23
736.339	8797.09
736.68	8827.59
737.021	8828.5
737.361	8785.33
737.702	8844.54
738.042	8807.71
738.383	8829.63
738.723	8798.67
739.063	8787.14
739.404	8880.7
739.744	8843.19
740.084	8826.46
740.424	8870.08
740.764	8877.08
741.104	8986.23
741.444	8845.45
741.784	8911.21
742.124	8883.64
742.464	8927.03
742.804	8904.88
743.143	9002.28
743.483	9062.84
743.823	8980.81
744.162	8974.71
744.502	9095.16
744.841	9118.43
745.181	9175.61
745.52	9141.48
745.86	9175.83
746.199	9213.12
746.538	9256.51
746.877	9314.59
747.216	9322.95
747.556	9326.34
747.895	9418.31
748.234	9418.54
748.573	9457.18
748.911	9527.24
749.25	9579.21
749.589	9649.04
749.928	9703.95
750.267	9824.85
750.605	9812.43
750.944	9901.91
751.283	9985.75
751.621	10099.65
751.96	10141.91
752.298	10262.13
752.636	10305.97
752.975	10356.14
753.313	10447.21
753.651	10660.54
753.989	10623.7
754.327	10766.3
754.666	10850.36
755.004	10913.41
755.342	11076.12
755.679	11215.78
756.017	11239.28
756.355	11437.02
756.693	11519.05
757.031	11713.39
757.368	11755.65
757.706	11883.78
758.044	12074.51
758.381	12219.82
758.719	12418.23
759.056	12556.31
759.394	12658.68
759.731	12798.11
760.068	12974.38
760.405	13094.83
760.743	13171.89
761.08	13454.82
761.417	13475.83
761.754	13658.43
762.091	13823.85
762.428	13943.62
762.765	14032.88
763.102	14282.36
763.438	14390.16
763.775	14502.02
764.112	14727.78
764.449	14907.21
764.785	15045.96
765.122	15068.56
765.458	15221.77
765.795	15368.66
766.131	15470.58
766.467	15699.05
766.804	15837.8
767.14	15834.41
767.476	16104.01
767.812	16200.28
768.148	16320.05
768.485	16344.46
768.821	16448.41
769.157	16668.74
769.492	16713.04
769.828	16858.79
770.164	16863.99
770.5	17079.58
770.836	17191.89
771.171	17213.13
771.507	17284.32
771.842	17350.08
772.178	17423.52
772.513	17458.55
772.849	17600.02
773.184	17746
773.519	17800.01
773.855	17838.66
774.19	17923.17
774.525	17816.96
774.86	17989.61
775.195	18007.24
775.53	18071.64
775.865	18092.66
776.2	17972.44
776.535	17990.74
776.87	18089.27
777.205	18134.69
777.539	18142.38
777.874	18301.47
778.209	18220.11
778.543	18206.33
778.878	18229.61
779.212	18390.51
779.547	18308.02
779.881	18368.13
780.215	18293.33
780.55	18483.38
780.884	18306.67
781.218	18336.27
781.552	18392.76
781.886	18402.93
782.22	18424.85
782.554	18405.87
782.888	18251.07
783.222	18241.81
783.556	18176.27
783.889	18198.87
784.223	18212.2
784.557	18156.84
784.89	18247.91
785.224	18143.96
785.557	18010.85
785.891	18048.14
786.224	18014.92
786.558	18109.83
786.891	17972.89
787.224	17979.89
787.557	17850.41
787.891	17972.89
788.224	17990.52
788.557	18052.43
788.89	17944.19
789.223	17968.82
789.556	17821.03
789.888	17805.66
790.221	17819.67
790.554	17605.44
790.887	17712.1
791.219	17637.76
791.552	17687.47
791.884	17622.16
792.217	17568.15
792.549	17577.87
792.882	17364.54
793.214	17394.37
793.546	17472.34
793.879	17369.06
794.211	17343.98
794.543	17352.11
794.875	17385.33
795.207	17408.38
795.539	17271.66
795.871	17299.91
796.203	17121.61
796.535	16934.27
796.867	17014.72
797.198	17044.78
797.53	16961.84
797.862	16905.35
798.193	16966.81
798.525	16870.32
798.856	16943.54
799.188	16761.17
799.519	16661.29
799.85	16673.71
800.182	16688.85
800.513	16642.98
800.844	16500.16
801.175	16710.1
801.506	16565.69
801.837	16503.55
802.168	16457.9
802.499	16426.04
802.83	16265.82
803.161	16262.65
803.491	16257.45
803.822	16256.1
804.153	16226.49
804.483	16177.68
804.814	16013.62
805.145	16064.24
805.475	15942.89
805.805	16052.26
806.136	16111.02
806.466	16033.05
806.796	15964.13
807.126	15836.45
807.457	15794.42
807.787	15824.47
808.117	15778.14
808.447	15725.72
808.777	15692.72
809.107	15690.24
809.436	15647.07
809.766	15604.14
810.096	15570.24
810.426	15498.38
810.755	15507.87
811.085	15533.41
811.414	15498.38
811.744	15372.96
812.073	15296.12
812.403	15337.93
812.732	15310.13
813.061	15321.43
813.39	15225.62
813.719	15165.05
814.049	15282.79
814.378	15109.46
814.707	15178.39
815.036	15106.52
815.365	15075.34
815.693	14950.14
816.022	14973.42
816.351	14909.24
816.68	14860.65
817.008	14890.48
817.337	14859.52
817.665	14795.57
817.994	14734.56
818.322	14767.78
818.651	14725.52
818.979	14642.13
819.307	14780.66
819.636	14743.6
819.964	14541.11
820.292	14656.82
820.62	14608.68
820.948	14602.58
821.276	14673.77
821.604	14531.62
821.932	14702.24
822.259	14633.77
822.587	14619.98
822.915	14522.13
823.243	14613.66
823.57	14574.79
823.898	14481
824.225	14551.28
824.553	14452.53
824.88	14507.22
825.207	14503.6
825.535	14522.13
825.862	14537.5
826.189	14515.13
826.516	14616.37
826.843	14502.25
827.17	14586.54
827.497	14635.58
827.824	14591.51
828.151	14570.04
828.478	14549.93
828.805	14609.59
829.131	14426.99
829.458	14533.66
829.785	14505.64
830.111	14419.31
830.438	14644.39
830.764	14536.6
831.09	14565.07
831.417	14439.42
831.743	14553.09
832.069	14585.86
832.395	14459.54
832.722	14481.46
833.048	14459.31
833.374	14510.61
833.7	14405.3
834.026	14435.35
834.351	14393.32
834.677	14489.36
835.003	14524.62
835.329	14420.21
835.654	14380.44
835.98	14368.92
836.306	14339.76
836.631	14282.59
836.956	14340.44
837.282	14407.33
837.607	14275.36
837.932	14292.31
838.258	14147.23
838.583	14279.65
838.908	14185.19
839.233	14150.16
839.558	14205.53
839.883	14091.64
840.208	14085.99
840.533	14039.43
840.858	14102.93
841.182	13988.81
841.507	14063.16
841.832	13916.95
842.156	13873.34
842.481	13987.68
842.805	13919.66
843.13	13923.05
843.454	13889.38
843.778	13801.47
844.103	13792.66
844.427	13759.89
844.751	13671.08
845.075	13706.56
845.399	13666.79
845.723	13527.58
846.047	13599.22
846.371	13477.87
846.695	13447.81
847.019	13364.2
847.343	13403.52
847.666	13313.8
847.99	13251.66
848.313	13157.65
848.637	13113.13
848.96	13082.85
849.284	13030.87
849.607	12849.41
849.931	12857.09
850.254	12769.86
850.577	12790.43
850.9	12658.9
851.223	12719.92
851.546	12612.8
851.869	12462.75
852.192	12570.32
852.515	12458.46
852.838	12446.93
853.161	12431.57
853.483	12345.92
853.806	12284.68
854.129	12259.14
854.451	12193.83
854.774	12164.91
855.096	12183.21
855.419	12068.86
855.741	12138.47
856.063	12068.64
856.385	12011.69
856.708	11913.61
857.03	11880.17
857.352	11987.74
857.674	11911.81
857.996	11832.26
858.318	11731.47
858.64	11760.17
858.961	11778.25
859.283	11681.53
859.605	11634.3
859.926	11668.87
860.248	11597.46
860.57	11592.94
860.891	11550.01
861.212	11494.19
861.534	11379.84
861.855	11420.29
862.176	11428.88
862.498	11456.22
862.819	11415.1
863.14	11393.85
863.461	11352.72
863.782	11328.32
864.103	11271.6
864.424	11258.04
864.745	11261.2
865.065	11198.38
865.386	11197.47
865.707	11210.35
866.027	11199.06
866.348	11195.89
866.668	11132.62
866.989	11084.93
867.309	11124.26
867.63	11146.18
867.95	11037.03
868.27	10991.15
868.59	11047.2
868.91	11022.11
869.23	10973.98
869.55	10922.68
869.87	11034.54
870.19	10933.3
870.51	10931.27
870.83	10941.21
871.15	10858.73
871.469	10884.94
871.789	10855.11
872.109	10898.72
872.428	10735.11
872.748	10856.47
873.067	10741.67
873.386	10783.25
873.706	10729.24
874.025	10679.3
874.344	10654.89
874.663	10722.01
874.982	10699.41
875.301	10708.67
875.62	10600.88
875.939	10593.2
876.258	10592.74
876.577	10586.19
876.896	10497.15
877.214	10605.4
877.533	10554.33
877.852	10521.11
878.17	10502.8
878.489	10503.93
878.807	10431.17
879.125	10456.02
879.444	10462.8
879.762	10419.19
880.08	10409.02
880.398	10372.41
880.716	10377.83
881.034	10321.56
881.352	10332.41
881.67	10293.99
881.988	10370.15
882.306	10254.22
882.624	10185.52
882.941	10220.32
883.259	10194.79
883.577	10077.28
883.894	10135.58
884.212	10105.53
884.529	10126.09
884.846	10097.39
885.164	10036.37
885.481	10071.4
885.798	10032.31
886.115	10017.17
886.432	9967.68
886.75	10001.35
887.067	9976.72
887.383	9895.36
887.7	9892.88
888.017	9816.49
888.334	9928.13
888.651	9789.38
888.967	9747.34
889.284	9804.06
889.6	9720.45
889.917	9631.64
890.233	9682.71
890.55	9653.33
890.866	9615.82
891.182	9558.87
891.498	9508.93
891.815	9579.21
892.131	9442.49
892.447	9469.61
892.763	9383.74
893.079	9406.56
893.395	9364.08
893.71	9288.6
894.026	9335.6
894.342	9302.83
894.657	9253.12
894.973	9184.65
895.289	9159.79
895.604	9131.99
895.92	9086.34
896.235	9119.56
896.55	9018.32
896.865	9000.02
897.181	9007.93
897.496	8993.92
897.811	8988.72
898.126	8910.98
898.441	8843.86
898.756	8839.12
899.071	8829.85
899.386	8746.46
899.7	8734.94
900.015	8720.48
900.33	8642.74
900.644	8583.08
900.959	8674.15
901.273	8617.43
901.588	8529.75
901.902	8560.71
902.216	8496.3
902.531	8456.3
902.845	8438.45
903.159	8442.29
903.473	8405
903.787	8334.72
904.101	8335.18
904.415	8252.01
904.729	8262.86
905.042	8212.47
905.356	8154.84
905.67	8183.77
905.984	8158.68
906.297	8123.88
906.611	8042.53
906.924	8021.96
907.237	8007.73
907.551	7981.74
907.864	7946.26
908.177	7935.19
908.491	7916.66
908.804	7821.74
909.117	7810.44
909.43	7731.12
909.743	7758.24
910.056	7694.97
910.368	7631.24
910.681	7626.27
910.994	7626.95
911.307	7664.69
911.619	7537.91
911.932	7586.5
912.244	7488.19
912.557	7461.08
912.869	7394.64
913.181	7440.96
913.494	7327.97
913.806	7340.63
914.118	7295.66
914.43	7273.74
914.742	7236.22
915.054	7253.85
915.366	7203
915.678	7201.87
915.99	7116.68
916.302	7062.67
916.613	7030.58
916.925	7036
917.236	7025.38
917.548	6989.22
917.859	6957.36
918.171	6914.2
918.482	6923.01
918.794	6867.87
919.105	6860.64
919.416	6796.23
919.727	6784.26
920.038	6768.44
920.349	6719.63
920.66	6738.61
920.971	6689.34
921.282	6708.55
921.593	6600.08
921.903	6561.44
922.214	6618.84
922.525	6531.38
922.835	6515.34
923.146	6491.38
923.456	6444.15
923.767	6410.48
924.077	6418.62
924.387	6363.93
924.697	6351.95
925.008	6319.86
925.318	6320.09
925.628	6306.76
925.938	6283.48
926.248	6193.54
926.558	6223.14
926.867	6198.74
927.177	6106.76
927.487	6118.29
927.796	6094.78
928.106	6082.81
928.416	6066.54
928.725	6017.95
929.034	6000.1
929.344	6029.25
929.653	5964.62
929.962	5928.91
930.271	5871.06
930.581	5889.59
930.89	5848.01
931.199	5832.42
931.508	5784.06
931.817	5822.47
932.125	5790.16
932.434	5767.56
932.743	5758.29
933.051	5706.09
933.36	5669.94
933.669	5639.88
933.977	5612.08
934.286	5583.61
934.594	5578.19
934.902	5557.85
935.21	5476.72
935.519	5450.28
935.827	5509.49
936.135	5449.15
936.443	5379.77
936.751	5391.3
937.059	5398.3
937.367	5428.59
937.674	5348.59
937.982	5322.15
938.29	5304.52
938.597	5301.36
938.905	5194.69
939.213	5236.27
939.52	5222.49
939.827	5201.7
940.135	5149.27
940.442	5135.26
940.749	5120.8
941.056	5128.93
941.363	5065.88
941.67	5048.03
941.977	5010.74
942.284	4997.86
942.591	4987.92
942.898	4970.29
943.205	4946.34
943.511	4922.16
943.818	4886
944.125	4907.92
944.431	4881.48
944.738	4873.35
945.044	4814.14
945.35	4776.63
945.657	4745.21
945.963	4737.08
946.269	4736.4
946.575	4763.07
946.881	4746.34
947.187	4747.02
947.493	4686.01
947.799	4624.99
948.105	4671.32
948.41	4598.33
948.716	4612.56
949.022	4578.21
949.327	4609.17
949.633	4499.12
949.938	4512.45
950.244	4481.94
950.549	4523.07
950.854	4455.05
951.16	4487.59
951.465	4469.52
951.77	4373.92
952.075	4401.72
952.38	4343.19
952.685	4367.15
952.99	4281.5
953.294	4288.96
953.599	4280.82
953.904	4256.41
954.209	4241.95
954.513	4204.89
954.818	4212.57
955.122	4234.95
955.426	4148.39
955.731	4135.06
956.035	4127.38
956.339	4132.8
956.643	4075.63
956.948	4078.34
957.252	4060.03
957.556	4065.01
957.86	4025.01
958.163	4002.86
958.467	4010.54
958.771	3994.95
959.075	3964.44
959.378	3923.54
959.682	3933.48
959.985	3881.96
960.289	3865.24
960.592	3856.42
960.896	3890.55
961.199	3862.53
961.502	3802.87
961.805	3804
962.108	3797.44
962.411	3779.14
962.714	3755.41
963.017	3716.77
963.32	3738.46
963.623	3713.15
963.926	3716.54
964.228	3724
964.531	3671.8
964.833	3694.17
965.136	3634.06
965.438	3653.04
965.741	3658.69
966.043	3585.7
966.345	3566.49
966.648	3557.67
966.95	3503.66
967.252	3502.08
967.554	3524
967.856	3498.69
968.158	3460.5
968.46	3462.76
968.761	3433.16
969.063	3409.43
969.365	3445.59
969.666	3440.16
969.968	3396.1
970.269	3407.62
970.571	3367.85
970.872	3382.54
971.174	3314.97
971.475	3330.34
971.776	3306.61
972.077	3303.22
972.378	3282.43
972.679	3309.32
972.98	3220.06
973.281	3248.53
973.582	3245.37
973.883	3224.58
974.183	3222.77
974.484	3220.28
974.785	3187.29
975.085	3152.26
975.386	3133.96
975.686	3119.04
975.986	3152.94
976.287	3095.77
976.587	3107.07
976.887	3086.95
977.187	3078.37
977.487	3045.82
977.787	3031.81
978.087	3027.29
978.387	2999.27
978.687	2987.07
978.987	2957.69
979.286	3029.55
979.586	2986.62
979.885	2940.06
980.185	2926.28
980.484	2893.96
980.784	2882.66
981.083	2882.89
981.382	2865.26
981.682	2852.38
981.981	2823.91
982.28	2798.15
982.579	2830.91
982.878	2792.5
983.177	2796.11
983.475	2778.26
983.774	2761.76
984.073	2787.98
984.372	2715.44
984.67	2713.63
984.969	2716.34
985.267	2750.69
985.566	2704.14
985.864	2707.3
986.162	2672.95
986.461	2662.11
986.759	2655.55
987.057	2601.09
987.355	2637.25
987.653	2624.14
987.951	2620.75
988.249	2610.13
988.547	2567.87
988.844	2549.79
989.142	2558.38
989.44	2537.14
989.737	2556.12
990.035	2510.92
990.332	2522.9
990.63	2513.86
990.927	2500.3
991.224	2500.53
991.521	2465.27
991.819	2446.52
992.116	2447.42
992.413	2432.51
992.71	2430.7
993.006	2422.11
993.303	2418.27
993.6	2418.5
993.897	2412.17
994.193	2362.68
994.49	2335.11
994.787	2347.09
995.083	2336.01
995.379	2311.83
995.676	2325.62
995.972	2301.44
996.268	2273.41
996.565	2286.07
996.861	2242.91
997.157	2250.14
997.453	2221.66
997.749	2214.89
998.044	2244.71
998.34	2215.56
998.636	2195.9
998.932	2189.12
999.227	2169.46
999.523	2169.91
999.818	2141.67
1000.114	2151.38
1000.409	2164.04
1000.704	2088.11
1001	2146.64
1001.295	2090.82
1001.59	2085.4
1001.885	2082.46
1002.18	2053.53
1002.475	2094.21
1002.77	2015.34
1003.065	2038.17
1003.359	2028.68
1003.654	2024.16
1003.949	2010.14
1004.243	1949.36
1004.538	2001.33
1004.832	1961.78
1005.127	1962.91
1005.421	1934.89
1005.715	1905.06
1006.009	1913.42
1006.304	1905.51
1006.598	1872.07
1006.892	1890.6
1007.186	1875.01
1007.48	1855.57
1007.773	1865.74
1008.067	1868.45
1008.361	1826.87
1008.655	1834.78
1008.948	1811.28
1009.242	1807.21
1009.535	1803.82
1009.829	1795.24
1010.122	1751.17
1010.415	1753.2
1010.708	1748
1011.001	1739.42
1011.295	1733.32
1011.588	1738.29
1011.881	1708.01
1012.173	1713.66
1012.466	1697.84
1012.759	1677.27
1013.052	1691.74
1013.344	1693.32
1013.637	1678.4
1013.93	1643.6
1014.222	1643.37
1014.514	1629.59
1014.807	1629.59
1015.099	1595.24
1015.391	1611.06
1015.683	1585.3
1015.976	1548.24
1016.268	1584.85
1016.56	1570.61
1016.851	1571.51
1017.143	1553.66
1017.435	1512.3
1017.727	1540.78
1018.018	1519.76
1018.31	1525.64
1018.602	1497.16
1018.893	1498.07
1019.185	1470.27
1019.476	1474.11
1019.767	1480.22
1020.058	1457.84
1020.35	1431.18
1020.641	1431.63
1020.932	1417.39
1021.223	1401.12
1021.514	1390.5
1021.804	1397.96
1022.095	1363.61
1022.386	1378.98
1022.677	1359.99
1022.967	1371.07
1023.258	1380.1
1023.548	1348.69
1023.839	1360.44
1024.129	1327.9
1024.419	1329.26
1024.709	1303.27
1025	1310.5
1025.29	1272.31
1025.58	1280.22
1025.87	1274.57
1026.16	1266.66
1026.449	1277.96
1026.739	1247.91
1027.029	1221.47
1027.319	1211.97
1027.608	1225.08
1027.898	1197.28
1028.187	1198.19
1028.477	1191.86
1028.766	1183.5
1029.055	1180.56
1029.344	1188.47
1029.634	1177.17
1029.923	1180.56
1030.212	1136.04
1030.501	1160.45
1030.79	1158.87
1031.078	1117.96
1031.367	1126.55
1031.656	1096.95
1031.945	1086.1
1032.233	1117.51
1032.522	1112.54
1032.81	1103.73
1033.099	1100.11
1033.387	1083.84
1033.675	1081.13
1033.963	1053.79
1034.251	1075.03
1034.54	1047.46
1034.828	1041.58
1035.116	1062.37
1035.403	1022.83
1035.691	1040.23
1035.979	1002.49
1036.267	1007.91
1036.554	988.93
1036.842	1022.37
1037.129	1001.58
1037.417	1001.58
1037.704	983.05
1037.992	982.15
1038.279	971.98
1038.566	955.03
1038.853	955.03
1039.14	955.03
