Data from hue_60_FLMS001491_61.txt Node
Date: Mon Feb 06 15:17:43 GMT 2017
User: dcchb
Spectrometer: FLMS00149
Trigger mode: 0
Integration Time (sec): 2.000000E-2
Scans to average: 10
Electric dark correction enabled: true
Nonlinearity correction enabled: false
Boxcar width: 0
XAxis mode: Wavelengths
Number of Pixels in Spectrum: 2048
>>>>>Begin Spectral Data<<<<<
341.393	-12.12
341.776	-12.12
342.16	-12.12
342.543	-54.38
342.927	-54.83
343.31	-78.78
343.693	-71.55
344.077	-51.44
344.46	-46.02
344.843	-69.29
345.226	-46.47
345.61	-20.03
345.993	-27.03
346.376	-4.89
346.759	22.91
347.142	12.74
347.525	31.95
347.908	55.45
348.291	82.79
348.674	87.54
349.057	122.12
349.44	131.61
349.823	150.82
350.206	175.45
350.588	190.59
350.971	190.36
351.354	215.45
351.737	216.35
352.119	260.19
352.502	268.55
352.884	279.85
353.267	299.96
353.65	289.12
354.032	296.57
354.414	301.55
354.797	321.21
355.179	336.57
355.562	320.75
355.944	339.51
356.326	319.85
356.709	328.89
357.091	327.53
357.473	337.25
357.855	320.3
358.238	354.65
358.62	353.3
359.002	344.03
359.384	344.48
359.766	330.92
360.148	350.58
360.53	332.73
360.912	334.54
361.294	349.91
361.676	333.41
362.057	342.22
362.439	332.96
362.821	332.73
363.203	327.99
363.584	325.05
363.966	323.69
364.348	328.21
364.729	310.36
365.111	315.33
365.493	339.51
365.874	302.9
366.256	318.04
366.637	316.23
367.019	306.97
367.4	334.09
367.781	325.05
368.163	318.27
368.544	304.71
368.925	338.83
369.306	304.94
369.688	303.35
370.069	330.92
370.45	316.23
370.831	303.35
371.212	333.64
371.593	310.59
371.974	314.2
372.355	334.77
372.736	314.2
373.117	310.59
373.498	313.75
373.879	321.66
374.26	327.76
374.641	316.69
375.021	312.84
375.402	338.83
375.783	314.2
376.163	330.02
376.544	332.51
376.925	337.48
377.305	312.84
377.686	319.62
378.066	338.83
378.447	337.25
378.827	311.26
379.208	336.12
379.588	313.07
379.968	331.38
380.349	324.82
380.729	344.93
381.109	327.53
381.489	318.95
381.87	317.82
382.25	329.12
382.63	341.09
383.01	330.47
383.39	344.03
383.77	325.05
384.15	351.71
384.53	338.83
384.91	336.57
385.29	336.8
385.67	346.97
386.049	359.4
386.429	351.04
386.809	349.68
387.189	352.17
387.568	353.75
387.948	329.12
388.328	341.77
388.707	358.72
389.087	354.43
389.466	354.88
389.846	365.05
390.225	346.52
390.605	341.77
390.984	361.43
391.363	356.46
391.743	364.14
392.122	375.22
392.501	361.88
392.881	345.84
393.26	368.89
393.639	368.21
394.018	367.31
394.397	383.35
394.776	379.28
395.155	359.62
395.534	370.02
395.913	376.35
396.292	366.63
396.671	379.51
397.05	375.44
397.429	365.5
397.808	390.81
398.186	374.09
398.565	381.54
398.944	400.75
399.323	374.09
399.701	381.32
400.08	378.83
400.458	381.09
400.837	404.37
401.215	379.74
401.594	411.15
401.972	404.82
402.351	386.97
402.729	392.16
403.107	389.68
403.486	375.44
403.864	386.06
404.242	382
404.62	385.61
404.999	427.42
405.377	393.07
405.755	405.5
406.133	388.55
406.511	418.83
406.889	416.8
407.267	414.31
407.645	413.86
408.023	399.62
408.401	416.34
408.779	429.9
409.156	439.62
409.534	416.12
409.912	436.68
410.29	426.97
410.667	436.91
411.045	433.29
411.422	423.58
411.8	457.47
412.178	447.08
412.555	429.68
412.933	428.1
413.31	458.83
413.687	440.75
414.065	473.07
414.442	464.93
414.819	447.3
415.197	469.9
415.574	486.17
415.951	474.87
416.328	482.56
416.705	472.39
417.082	481.43
417.46	486.4
417.837	494.54
418.214	500.18
418.591	482.11
418.967	490.24
419.344	492.28
419.721	492.73
420.098	515.33
420.475	500.41
420.852	508.09
421.228	497.92
421.605	496.57
421.982	500.86
422.358	532.05
422.735	511.26
423.111	504.03
423.488	527.3
423.864	501.54
424.241	530.47
424.617	539.96
424.994	535.21
425.37	525.72
425.746	537.92
426.123	560.3
426.499	544.25
426.875	528.88
427.251	558.26
427.627	542.9
428.003	556.91
428.379	551.03
428.756	551.26
429.132	555.78
429.507	568.21
429.883	579.05
430.259	591.03
430.635	557.81
431.011	584.93
431.387	592.39
431.763	604.36
432.138	582.67
432.514	589.45
432.89	597.36
433.265	609.79
433.641	603.01
434.016	621.54
434.392	640.07
434.767	633.97
435.143	656.11
435.518	635.1
435.894	646.17
436.269	651.14
436.644	669.67
437.02	673.06
437.395	660.41
437.77	659.73
438.145	678.48
438.52	664.7
438.895	677.36
439.271	683.68
439.646	693.63
440.021	695.43
440.395	685.04
440.77	687.52
441.145	697.02
441.52	706.28
441.895	725.26
442.27	731.36
442.645	742.89
443.019	732.27
443.394	735.88
443.769	731.14
444.143	725.72
444.518	711.7
444.892	732.72
445.267	739.05
445.641	756.22
446.016	749.22
446.39	740.18
446.764	764.36
447.139	768.2
447.513	760.29
447.887	745.15
448.262	778.14
448.636	771.82
449.01	778.82
449.384	777.01
449.758	809.78
450.132	803.68
450.506	824.7
450.88	807.07
451.254	791.93
451.628	828.76
452.002	834.64
452.376	840.74
452.75	833.96
453.123	842.1
453.497	846.16
453.871	840.29
454.244	884.13
454.618	868.31
454.992	864.92
455.365	889.78
455.739	914.41
456.112	903.56
456.486	887.07
456.859	943.79
457.232	945.6
457.606	955.99
457.979	943.56
458.352	960.29
458.725	984.01
459.099	989.66
459.472	998.25
459.845	991.92
460.218	992.38
460.591	1028.53
460.964	1029.66
461.337	1064.01
461.71	1058.36
462.083	1082.77
462.456	1059.72
462.829	1066.95
463.201	1078.02
463.574	1071.69
463.947	1122.99
464.32	1158.02
464.692	1149.66
465.065	1164.57
465.438	1150.11
465.81	1197.79
466.183	1234.85
466.555	1246.15
466.928	1228.75
467.3	1229.66
467.672	1264.01
468.045	1289.99
468.417	1338.58
468.789	1334.96
469.161	1343.78
469.534	1368.64
469.906	1418.58
470.278	1422.42
470.65	1447.28
471.022	1500.38
471.394	1522.3
471.766	1549.42
472.138	1550.55
472.51	1629.19
472.882	1631.68
473.253	1661.74
473.625	1691.34
473.997	1746.03
474.369	1776.31
474.74	1815.63
475.112	1864.89
475.484	1907.38
475.855	1948.06
476.227	2008.62
476.598	2051.78
476.97	2087.94
477.341	2147.6
477.713	2215.17
478.084	2214.04
478.455	2329.74
478.827	2402.06
479.198	2478.44
479.569	2508.72
479.94	2608.15
480.311	2633.91
480.682	2729.5
481.053	2845.43
481.424	2909.16
481.795	2964.98
482.166	3096.73
482.537	3176.95
482.908	3263.05
483.279	3381.01
483.65	3439.77
484.021	3563.15
484.391	3607
484.762	3745.07
485.133	3819.19
485.503	3956.14
485.874	4042.01
486.244	4114.55
486.615	4281.33
486.985	4420.76
487.356	4547.99
487.726	4632.96
488.097	4792.95
488.467	4897.81
488.837	5063.45
489.207	5146.84
489.578	5361.07
489.948	5496.21
490.318	5609.2
490.688	5726.94
491.058	5911.34
491.428	6053.03
491.798	6179.36
492.168	6306.59
492.538	6485.56
492.908	6651.66
493.278	6767.36
493.648	6907.02
494.017	7125.55
494.387	7231.08
494.757	7393.34
495.126	7540
495.496	7598.3
495.866	7819.31
496.235	8007.11
496.605	8122.13
496.974	8243.03
497.344	8418.17
497.713	8586.75
498.082	8743.36
498.452	8875.56
498.821	8994.65
499.19	9111.26
499.559	9293.17
499.928	9476.22
500.298	9585.82
500.667	9769.55
501.036	9787.17
501.405	10066.26
501.774	10087.5
502.143	10330.21
502.512	10430.32
502.88	10606.59
503.249	10708.28
503.618	10858.56
503.987	11009.06
504.356	11082.73
504.724	11254.7
505.093	11391.88
505.462	11453.79
505.83	11608.59
506.199	11801.58
506.567	12050.62
506.936	12053.1
507.304	12226.43
507.672	12379.19
508.041	12504.16
508.409	12642.24
508.777	12790.48
509.145	12998.84
509.514	12974.88
509.882	13145.05
510.25	13247.19
510.618	13356.57
510.986	13424.82
511.354	13644.92
511.722	13812.15
512.09	14036.78
512.458	13957.68
512.826	14193.16
513.193	14382.76
513.561	14493.94
513.929	14585.24
514.297	14814.61
514.664	14914.04
515.032	15013.02
515.4	15106.35
515.767	15156.52
516.135	15313.81
516.502	15349.06
516.869	15735.04
517.237	15762.38
517.604	15790.63
517.972	15988.82
518.339	16169.6
518.706	16127.57
519.073	16251.63
519.44	16459.54
519.808	16628.12
520.175	16751.51
520.542	16899.75
520.909	17027.66
521.276	17095.23
521.643	17239.86
522.009	17402.11
522.376	17552.17
522.743	17652.05
523.11	17836.9
523.477	18033.51
523.843	18266.27
524.21	18354.86
524.577	18445.48
524.943	18581.97
525.31	18716.88
525.676	18882.53
526.043	19055.85
526.409	19106.25
526.776	19313.48
527.142	19399.35
527.508	19579.68
527.874	19666.01
528.241	19783.29
528.607	19944.65
528.973	20142.15
529.339	20116.62
529.705	20428.47
530.071	20558.19
530.437	20589.15
530.803	20729.71
531.169	20822.36
531.535	20885.64
531.901	20963.38
532.267	21121.11
532.632	21230.71
532.998	21314.33
533.364	21418.05
533.73	21565.85
534.095	21631.15
534.461	21726.97
534.826	21889.23
535.192	21852.84
535.557	22079.96
535.923	22040.41
536.288	22243.12
536.653	22351.14
537.019	22288.31
537.384	22349.33
537.749	22549.55
538.114	22639.49
538.479	22657.12
538.845	22798.58
539.21	22723.1
539.575	22895.08
539.94	23087.16
540.305	23086.71
540.67	23089.2
541.034	23222.98
541.399	23336.65
541.764	23393.82
542.129	23413.03
542.494	23506.81
542.858	23643.3
543.223	23514.95
543.587	23747.93
543.952	23807.37
544.316	23884.65
544.681	23871.77
545.045	23962.39
545.41	24211.65
545.774	24226.57
546.138	24227.47
546.503	24226.11
546.867	24410.06
547.231	24509.5
547.595	24471.31
547.959	24656.16
548.324	24796.27
548.688	24760.11
549.052	24885.31
549.416	24881.92
549.779	24951.52
550.143	25071.97
550.507	25245.97
550.871	25260.66
551.235	25258.63
551.599	25455.69
551.962	25543.59
552.326	25575.68
552.689	25745.17
553.053	25692.29
553.417	25716.47
553.78	26055.67
554.143	26008.89
554.507	26054.31
554.87	26193.07
555.234	26540.18
555.597	26340.18
555.96	26520.07
556.323	26627.63
556.686	26729.1
557.05	26839.38
557.413	26898.36
557.776	27078.24
558.139	27173.83
558.502	27184.91
558.865	27317.56
559.228	27459.02
559.59	27563.88
559.953	27651.56
560.316	27827.6
560.679	27951.44
561.041	28191.66
561.404	28195.95
561.767	28492.67
562.129	28340.13
562.492	28524.08
562.854	28697.41
563.217	28659.22
563.579	28857.18
563.941	29063.28
564.304	29060.11
564.666	29269.37
565.028	29331.74
565.39	29522.25
565.753	29617.84
566.115	29636.14
566.477	29823.26
566.839	29924.27
567.201	30114.77
567.563	30046.3
567.925	30394.54
568.287	30394.77
568.648	30359.96
569.01	30616
569.372	30721.76
569.734	30641.99
570.095	30964.24
570.457	30936.9
570.819	31119.94
571.18	31225.25
571.542	31350.45
571.903	31393.61
572.265	31542.98
572.626	31488.75
572.987	31646.03
573.349	31727.61
573.71	32058.22
574.071	32000.15
574.432	32085.34
574.794	32209.18
575.155	32276.07
575.516	32131.22
575.877	32316.98
576.238	32441.27
576.599	32590.64
576.96	32550.42
577.32	32648.27
577.681	32757.87
578.042	32953.34
578.403	32870.41
578.763	32919.9
579.124	32909.5
579.485	33060.68
579.845	33208.7
580.206	33203.51
580.566	33112.66
580.927	33173.9
581.287	33353.78
581.648	33254.13
582.008	33422.93
582.368	33348.36
582.728	33401.47
583.089	33397.62
583.449	33497.51
583.809	33477.62
584.169	33557.62
584.529	33485.76
584.889	33717.16
585.249	33489.6
585.609	33360.34
585.969	33516.04
586.329	33462.71
586.688	33585.64
587.048	33725.53
587.408	33580.44
587.768	33639.2
588.127	33708.12
588.487	33558.3
588.846	33909.93
589.206	33736.6
589.565	33781.57
589.925	33857.95
590.284	33783.38
590.643	33712.87
591.003	33926.65
591.362	33893.66
591.721	33948.12
592.08	33951.96
592.44	34081.67
592.799	34084.39
593.158	33802.59
593.517	34100.88
593.876	34088.91
594.235	33967.55
594.593	34072.86
594.952	34156.02
595.311	34106.76
595.67	34113.09
596.029	34310.6
596.387	34371.84
596.746	34530.93
597.104	34340.65
597.463	34264.72
597.822	34304.49
598.18	34360.31
598.538	34274.21
598.897	34605.5
599.255	34322.57
599.613	34799.17
599.972	34659.74
600.33	34590.14
600.688	34516.24
601.046	34837.59
601.404	34956.45
601.762	34648.89
602.12	35032.16
602.478	34887.08
602.836	35030.58
603.194	34722.11
603.552	34891.14
603.91	34845.04
604.268	35137.69
604.625	34989.9
604.983	35106.05
605.341	35052.95
605.698	35284.35
606.056	35330.23
606.413	35269.44
606.771	35475.08
607.128	35548.08
607.485	35353.28
607.843	35433.5
608.2	35566.83
608.557	35584.46
608.914	35641.63
609.272	35791.23
609.629	35854.96
609.986	35977.44
610.343	35735.19
610.7	36077.78
611.057	36013.83
611.414	36026.03
611.771	36105.8
612.127	36315.97
612.484	36238.23
612.841	36239.58
613.198	36245.46
613.554	36137.44
613.911	36521.38
614.267	36561.61
614.624	36480.71
614.98	36671.89
615.337	36740.36
615.693	36675.05
616.05	36842.96
616.406	36878.21
616.762	36834.82
617.118	36753.92
617.475	36845.22
617.831	37032.56
618.187	37006.34
618.543	37102.61
618.899	37246.11
619.255	37221.25
619.611	37252.21
619.967	37342.83
620.323	37534.92
620.678	37416.73
621.034	37273.91
621.39	37357.07
621.746	37359.1
622.101	37661.47
622.457	37494.24
622.812	37504.41
623.168	37815.59
623.523	37691.98
623.879	37843.61
624.234	37567.23
624.589	37642.48
624.945	37775.14
625.3	37830.28
625.655	37860.78
626.01	37836.38
626.365	37858.07
626.72	37897.39
627.075	37957.05
627.43	37924.74
627.785	37775.59
628.14	37951.86
628.495	37898.98
628.85	37847.68
629.205	37722.03
629.559	38086.31
629.914	37763.16
630.269	37873.89
630.623	37839.54
630.978	37640.9
631.332	38003.15
631.687	37975.13
632.041	37921.8
632.396	37988.69
632.75	37605.88
633.104	37842.93
633.459	37834.34
633.813	37684.52
634.167	37709.83
634.521	37698.75
634.875	37823.95
635.229	37672.77
635.583	37586.44
635.937	37612.66
636.291	37413.56
636.645	37535.37
636.999	37458.08
637.352	37661.47
637.706	37385.99
638.06	37433
638.413	37433.9
638.767	37302.15
639.121	37416.73
639.474	37155.49
639.828	37271.42
640.181	37322.27
640.534	37308.26
640.888	37214.93
641.241	37082.95
641.594	37095.38
641.947	37314.36
642.301	37108.49
642.654	37162.5
643.007	37141.48
643.36	37060.35
643.713	37098.32
644.066	37155.27
644.419	36963.86
644.771	36739.68
645.124	36472.35
645.477	36325.91
645.83	36173.6
646.182	35985.58
646.535	36057.44
646.888	36036.43
647.24	35740.84
647.593	35959.59
647.945	36038.23
648.298	35659.49
648.65	35661.75
649.002	35545.82
649.355	35694.74
649.707	35654.97
650.059	35839.14
650.411	36243.65
650.763	36320.03
651.115	36706.01
651.467	36568.84
651.819	36532.01
652.171	36457.88
652.523	36451.56
652.875	36478.9
653.227	36287.49
653.578	36537.43
653.93	36368.17
654.282	36174.27
654.633	36094.5
654.985	36337.66
655.337	36268.06
655.688	36248.4
656.039	36292.24
656.391	36090.66
656.742	36098.12
657.094	36100.15
657.445	36238
657.796	36283.65
658.147	36088.18
658.498	36107.61
658.849	36208.62
659.2	36019.48
659.551	36012.02
659.902	36144.9
660.253	36033.04
660.604	36146.03
660.955	35973.6
661.306	36043.2
661.656	35870.55
662.007	35953.94
662.358	36007.05
662.708	36022.64
663.059	35967.05
663.409	35649.32
663.76	36064.67
664.11	35946.71
664.461	35878.01
664.811	35951.46
665.161	35862.42
665.511	35915.07
665.862	35785.81
666.212	35915.52
666.562	35875.98
666.912	35712.37
667.262	35799.37
667.612	35807.28
667.962	35815.87
668.312	35711.69
668.662	36011.57
669.011	35778.58
669.361	35738.35
669.711	35681.41
670.06	35695.64
670.41	35653.38
670.76	35607.06
671.109	35850.89
671.459	35707.39
671.808	35570.9
672.157	35706.04
672.507	35548.98
672.856	35587.4
673.205	35583.56
673.554	35635.31
673.904	35564.35
674.253	35706.72
674.602	35665.14
674.951	35070.12
675.3	34994.64
675.649	35377.46
675.998	35513.95
676.346	35438.47
676.695	35523.67
677.044	35203.45
677.393	35368.19
677.741	35548.53
678.09	35293.39
678.438	35238.48
678.787	35309.44
679.135	35291.36
679.484	35189.89
679.832	35111.48
680.181	35030.12
680.529	35168.43
680.877	35044.81
681.225	34896.57
681.573	35156.45
681.922	34976.34
682.27	34781.77
682.618	34886.4
682.966	34714.2
683.314	34740.87
683.661	34823.8
684.009	34575.22
684.357	34470.14
684.705	34309.01
685.053	34422.68
685.4	34399.41
685.748	34340.65
686.095	34205.51
686.443	34183.37
686.79	34060.66
687.138	34137.04
687.485	34192.86
687.832	33983.6
688.18	33990.6
688.527	33843.26
688.874	33805.3
689.221	33783.15
689.568	33611.86
689.915	33703.83
690.262	33565.3
690.609	33412.31
690.956	33372.31
691.303	33465.87
691.65	33211.87
691.997	33223.84
692.344	32936.85
692.69	33065.88
693.037	33061.36
693.383	32735.72
693.73	32844.42
694.077	32653.01
694.423	32632.9
694.769	32657.31
695.116	32522.39
695.462	32515.39
695.808	32387.26
696.155	32373.47
696.501	32151.56
696.847	32250.31
697.193	31972.35
697.539	32097.77
697.885	31764
698.231	31631.8
698.577	31797.67
698.923	31727.39
699.269	31538.69
699.614	31411.69
699.96	31223.67
700.306	31328.75
700.651	31267.06
700.997	31098.7
701.342	30993.85
701.688	31144.12
702.033	30956.11
702.379	30919.27
702.724	30764.25
703.069	30907.52
703.415	30533.07
703.76	30555.67
704.105	30521.99
704.45	30496.23
704.795	30220.76
705.14	30272.96
705.485	30174.43
705.83	30160.65
706.175	30038.84
706.52	29887.43
706.865	29909.58
707.209	29705.29
707.554	29637.72
707.899	29787.32
708.243	29650.6
708.588	29652.64
708.932	29419.65
709.277	29369.93
709.621	29461.46
709.966	29201.8
710.31	29359.76
710.654	29065.99
710.998	29206.55
711.342	29121.13
711.687	29115.93
712.031	28909.61
712.375	28768.82
712.719	28858.31
713.063	28792.32
713.407	28874.13
713.75	28666.68
714.094	28651.76
714.438	28661.93
714.782	28645.43
715.125	28513.23
715.469	28454.03
715.812	28266.23
716.156	28175.39
716.499	28290.41
716.843	28158.21
717.186	28015.85
717.53	28176.29
717.873	28195.5
718.216	27994.15
718.559	27880.48
718.902	27739.24
719.246	27844.78
719.589	27807.94
719.932	27577.66
720.275	27738.34
720.617	27477.33
720.96	27593.26
721.303	27527.27
721.646	27518.23
721.989	27319.14
722.331	27421.06
722.674	27358.46
723.016	27232.14
723.359	27327.95
723.701	27304.23
724.044	27162.08
724.386	26983.1
724.729	27181.52
725.071	27131.12
725.413	26958.92
725.755	26989.43
726.097	26873.05
726.439	26740.62
726.782	26697.69
727.124	26758.7
727.465	26671.93
727.807	26609.55
728.149	26652.94
728.491	26614.53
728.833	26631.93
729.175	26401.65
729.516	26413.4
729.858	26425.38
730.199	26452.72
730.541	26388.54
730.882	26350.35
731.224	26350.35
731.565	26131.15
731.906	26214.31
732.248	26242.56
732.589	26186.51
732.93	26085.73
733.271	25935
733.612	25997.82
733.953	26027.2
734.294	25945.62
734.635	25805.73
734.976	26011.38
735.317	25721.67
735.658	25789.01
735.999	25813.42
736.339	25647.77
736.68	25792.63
737.021	25591.95
737.361	25448.68
737.702	25599.64
738.042	25583.82
738.383	25445.07
738.723	25509.47
739.063	25327.78
739.404	25418.4
739.744	25271.28
740.084	25217.5
740.424	25314.22
740.764	25260.89
741.104	25340.89
741.444	25101.8
741.784	25175.47
742.124	25084.4
742.464	25102.02
742.804	25046.21
743.143	25011.18
743.483	25024.29
743.823	24934.12
744.162	24814.57
744.502	24824.52
744.841	24776.38
745.181	24939.32
745.52	24764.86
745.86	24783.39
746.199	24631.75
746.538	24758.76
746.877	24707.46
747.216	24680.34
747.556	24587.69
747.895	24602.38
748.234	24464.3
748.573	24445.77
748.911	24377.97
749.25	24370.29
749.589	24172.56
749.928	24305.89
750.267	24275.38
750.605	24215.72
750.944	24154.7
751.283	24102.73
751.621	24079.68
751.96	23901.15
752.298	23951.32
752.636	23944.54
752.975	23858.21
753.313	23735.51
753.651	23966.01
753.989	23857.99
754.327	23738.44
754.666	23528.51
755.004	23616.19
755.342	23528.96
755.679	23528.73
756.017	23433.37
756.355	23508.62
756.693	23275.63
757.031	23344.1
757.368	23182.75
757.706	23183.43
758.044	23152.47
758.381	23167.39
758.719	22933.04
759.056	23052.81
759.394	22925.81
759.731	22747.74
760.068	22712.93
760.405	22701.63
760.743	22651.24
761.08	22639.49
761.417	22432.49
761.754	22573.95
762.091	22438.59
762.428	22322.44
762.765	22135.55
763.102	22243.57
763.438	22160.86
763.775	22019.62
764.112	22009.68
764.449	21942.11
764.785	21913.41
765.122	21733.07
765.458	21758.38
765.795	21649.46
766.131	21674.77
766.467	21510.48
766.804	21479.29
767.14	21371.05
767.476	21353.42
767.812	21317.72
768.148	21432.74
768.485	21090.15
768.821	21039.98
769.157	21050.6
769.492	20899.87
769.828	21008.35
770.164	20805.19
770.5	20801.8
770.836	20672.99
771.171	20592.54
771.507	20568.58
771.842	20388.48
772.178	20457.63
772.513	20377.18
772.849	20183.96
773.184	20149.39
773.519	20149.39
773.855	20061.03
774.19	20067.81
774.525	19941.48
774.86	19857.19
775.195	19833.69
775.53	19739.68
775.865	19643.86
776.2	19609.51
776.535	19443.19
776.87	19409.97
777.205	19293.36
777.539	19263.53
777.874	19266.7
778.209	19054.27
778.543	19049.98
778.878	18917.78
779.212	18971.79
779.547	18820.83
779.881	18828.97
780.215	18794.17
780.55	18652.02
780.884	18591.01
781.218	18465.36
781.552	18510.33
781.886	18422.88
782.22	18389.43
782.554	18280.51
782.888	18159.16
783.222	18104.24
783.556	18017.01
783.889	17956.45
784.223	17806.62
784.557	17779.96
784.89	17821.09
785.224	17669
785.557	17659.06
785.891	17587.42
786.224	17555.56
786.558	17502
786.891	17341.32
787.224	17277.82
787.557	17311.95
787.891	17285.05
788.224	17159.86
788.557	17136.81
788.89	17164.83
789.223	17073.76
789.556	16922.8
789.888	16879.19
790.221	16833.99
790.554	16704.05
790.887	16731.17
791.219	16677.61
791.552	16579.54
791.884	16407.79
792.217	16461.12
792.549	16393.33
792.882	16291.63
793.214	16211.86
793.546	16334.34
793.879	16132.09
794.211	16083.73
794.543	16098.19
794.875	16032.21
795.207	16058.42
795.539	15947.01
795.871	15970.29
796.203	15789.73
796.535	15761.03
796.867	15737.52
797.198	15626.57
797.53	15610.97
797.862	15582.27
798.193	15592.9
798.525	15380.7
798.856	15461.83
799.188	15313.13
799.519	15158.78
799.85	15219.35
800.182	15230.64
800.513	15229.97
800.844	15102.96
801.175	15150.19
801.506	15040.14
801.837	14980.48
802.168	15066.58
802.499	14852.8
802.83	14892.8
803.161	14800.37
803.491	14831.79
803.822	14755.85
804.153	14768.74
804.483	14544.11
804.814	14538.23
805.145	14586.37
805.475	14524.45
805.805	14441.29
806.136	14503.21
806.466	14417.11
806.796	14427.05
807.126	14276.32
807.457	14217.11
807.787	14273.61
808.117	14144.35
808.447	14092.14
808.777	14132.82
809.107	14045.59
809.436	14041.07
809.766	13955.42
810.096	13959.72
810.426	13913.62
810.755	13917.01
811.085	13897.8
811.414	13796.11
811.744	13634.98
812.073	13763.34
812.403	13633.17
812.732	13640.86
813.061	13634.53
813.39	13529.9
813.719	13481.31
814.049	13542.33
814.378	13468.43
814.707	13448.77
815.036	13353.41
815.365	13306.18
815.693	13218.72
816.022	13223.24
816.351	13225.05
816.68	13161.55
817.008	13144.15
817.337	13078.38
817.665	12999.74
817.994	13128.55
818.322	13016.01
818.651	13022.79
818.979	12954.55
819.307	12970.59
819.636	12960.2
819.964	12861.89
820.292	12908.45
820.62	12887.43
820.948	12907.54
821.276	12828
821.604	12736.7
821.932	12854.21
822.259	12781.44
822.587	12799.52
822.915	12821.22
823.243	12794.1
823.57	12745.51
823.898	12738.73
824.225	12774.66
824.553	12634.33
824.88	12726.76
825.207	12789.8
825.535	12720.43
825.862	12779.18
826.189	12672.97
826.516	12769.92
826.843	12796.13
827.17	12791.84
827.497	12754.55
827.824	12803.14
828.151	12750.71
828.478	12750.71
828.805	12802.91
829.131	12758.85
829.458	12679.75
829.785	12654.44
830.111	12683.82
830.438	12766.53
830.764	12683.59
831.09	12724.72
831.417	12672.07
831.743	12709.58
832.069	12681.33
832.395	12622.58
832.722	12669.13
833.048	12703.25
833.374	12634.33
833.7	12528.57
834.026	12663.71
834.351	12634.55
834.677	12624.16
835.003	12576.03
835.329	12458.29
835.654	12553.43
835.98	12502.35
836.306	12568.12
836.631	12456.93
836.956	12562.01
837.282	12484.95
837.607	12386.88
837.932	12363.6
838.258	12410.15
838.583	12350.27
838.908	12345.52
839.233	12301
839.558	12361.34
839.883	12272.76
840.208	12182.36
840.533	12240.89
840.858	12249.03
841.182	12242.47
841.507	12285.41
841.832	12101.46
842.156	12126.55
842.481	12127.9
842.805	12061.24
843.13	12040.22
843.454	12024.85
843.778	11958.64
844.103	11922.26
844.427	11910.05
844.751	11875.7
845.075	11915.48
845.399	11834.8
845.723	11689.95
846.047	11741.92
846.371	11741.24
846.695	11696.95
847.019	11581.93
847.343	11522.04
847.666	11506.67
847.99	11375.15
848.313	11362.27
848.637	11306.91
848.96	11325.89
849.284	11306.45
849.607	11206.12
849.931	11171.99
850.254	11153.01
850.577	11038.66
850.9	10969.51
851.223	10955.5
851.546	10873.25
851.869	10803.42
852.192	10912.11
852.515	10813.36
852.838	10759.35
853.161	10737.66
853.483	10681.61
853.806	10590.99
854.129	10607.04
854.451	10592.12
854.774	10519.81
855.096	10476.19
855.419	10463.54
855.741	10430.77
856.063	10391.9
856.385	10404.33
856.708	10286.14
857.03	10239.36
857.352	10312.13
857.674	10283.66
857.996	10231.91
858.318	10194.39
858.64	10175.86
858.961	10166.6
859.283	10062.42
859.605	10050.44
859.926	10109.65
860.248	10048.41
860.57	10021.52
860.891	10001.63
861.212	9991.01
861.534	9934.96
861.855	9895.42
862.176	9923.44
862.498	9938.35
862.819	9901.07
863.14	9859.26
863.461	9868.07
863.782	9812.48
864.103	9716.89
864.424	9748.75
864.745	9709.21
865.065	9742.65
865.386	9688.42
865.707	9664.46
866.027	9682.09
866.348	9713.5
866.668	9666.72
866.989	9585.6
867.309	9570.23
867.63	9543.11
867.95	9592.37
868.27	9482.55
868.59	9575.88
868.91	9531.81
869.23	9536.56
869.55	9469.21
869.87	9535.2
870.19	9468.08
870.51	9504.47
870.83	9450.01
871.15	9408.88
871.469	9397.13
871.789	9408.2
872.109	9467.63
872.428	9387.41
872.748	9336.56
873.067	9294.08
873.386	9343.12
873.706	9316.68
874.025	9276.68
874.344	9282.33
874.663	9280.29
874.982	9214.98
875.301	9268.77
875.62	9159.17
875.939	9186.96
876.258	9162.33
876.577	9144.03
876.896	9116.23
877.214	9070.13
877.533	9125.04
877.852	9099.96
878.17	9074.87
878.489	9105.38
878.807	9031.71
879.125	9116
879.444	9019.96
879.762	8988.77
880.08	8972.73
880.398	8962.79
880.716	8976.8
881.034	8951.71
881.352	8975.22
881.67	8923.24
881.988	8869.46
882.306	8941.54
882.624	8855.22
882.941	8810.93
883.259	8758.72
883.577	8818.38
883.894	8704.04
884.212	8776.58
884.529	8719.63
884.846	8704.26
885.164	8665.17
885.481	8694.09
885.798	8651.38
886.115	8631.04
886.432	8645.51
886.75	8580.42
887.067	8550.14
887.383	8512.86
887.7	8581.55
888.017	8479.86
888.334	8460.43
888.651	8439.64
888.967	8441.22
889.284	8375.46
889.6	8359.19
889.917	8291.84
890.233	8300.88
890.55	8266.08
890.866	8284.16
891.182	8287.78
891.498	8271.05
891.815	8205.52
892.131	8241.68
892.447	8145.86
892.763	8118.52
893.079	8124.62
893.395	8063.15
893.71	8051.62
894.026	8052.53
894.342	7965.53
894.657	8013.89
894.973	7998.52
895.289	7964.4
895.604	7925.07
895.92	7888.69
896.235	7877.17
896.55	7834.68
896.865	7848.01
897.181	7770.05
897.496	7717.17
897.811	7732.99
898.126	7753.33
898.441	7614.57
898.756	7671.97
899.071	7681.46
899.386	7621.81
899.7	7549.72
900.015	7509.72
900.33	7445.54
900.644	7455.03
900.959	7523.05
901.273	7468.14
901.588	7377.52
901.902	7349.5
902.216	7323.73
902.531	7353.56
902.845	7306.79
903.159	7252.55
903.473	7265.66
903.787	7215.94
904.101	7184.75
904.415	7197.41
904.729	7160.57
905.042	7163.51
905.356	7091.2
905.67	7068.6
905.984	7033.8
906.297	7049.62
906.611	6979.34
906.924	6947.02
907.237	6967.36
907.551	6871.32
907.864	6902.5
908.177	6902.73
908.491	6879.9
908.804	6824.09
909.117	6755.16
909.43	6748.16
909.743	6667.93
910.056	6714.48
910.368	6643.53
910.681	6656.41
910.994	6622.06
911.307	6564.21
911.619	6487.15
911.932	6519.46
912.244	6490.08
912.557	6550.42
912.869	6444.89
913.181	6426.36
913.494	6463.19
913.806	6385.68
914.118	6345.45
914.43	6322.86
914.742	6349.75
915.054	6297.55
915.366	6280.82
915.678	6237.21
915.99	6208.28
916.302	6168.51
916.613	6165.8
916.925	6166.48
917.236	6131.9
917.548	6055.07
917.859	6110.21
918.171	6012.13
918.482	6000.38
918.794	5985.69
919.105	6006.48
919.416	5955.41
919.727	5918.8
920.038	5887.61
920.349	5836.54
920.66	5842.87
920.971	5822.53
921.282	5777.11
921.593	5793.83
921.903	5742.98
922.214	5688.75
922.525	5717.22
922.835	5645.59
923.146	5662.31
923.456	5676.09
923.767	5629.32
924.077	5573.5
924.387	5556.77
924.697	5534.4
925.008	5484.91
925.318	5486.27
925.628	5470.22
925.938	5461.18
926.248	5389.32
926.558	5353.39
926.867	5360.17
927.177	5386.84
927.487	5309.1
927.796	5264.81
928.106	5257.35
928.416	5269.1
928.725	5226.39
929.034	5201.76
929.344	5205.37
929.653	5165.15
929.962	5115.88
930.271	5063.68
930.581	5110.23
930.89	5064.81
931.199	5044.25
931.508	5043.34
931.817	5038.37
932.125	5014.87
932.434	4973.74
932.743	4934.64
933.051	4940.97
933.36	4891.26
933.669	4854.19
933.977	4834.76
934.286	4874.31
934.594	4858.94
934.902	4797.25
935.21	4776
935.519	4781.65
935.827	4726.06
936.135	4693.52
936.443	4677.02
936.751	4702.11
937.059	4696.01
937.367	4649.45
937.674	4625.27
937.982	4587.31
938.29	4570.59
938.597	4602.9
938.905	4539.4
939.213	4547.54
939.52	4524.71
939.827	4538.27
940.135	4477.71
940.442	4462.11
940.749	4425.05
941.056	4462.79
941.363	4366.07
941.67	4372.63
941.977	4373.76
942.284	4333.3
942.591	4326.75
942.898	4282.91
943.205	4275.68
943.511	4300.31
943.818	4232.29
944.125	4211.73
944.431	4198.62
944.738	4240.88
945.044	4192.06
945.35	4148.22
945.657	4115
945.963	4106.42
946.269	4125.85
946.575	4090.37
946.881	4057.38
947.187	4028.45
947.493	3995.01
947.799	3980.77
948.105	3999.53
948.41	3975.35
948.716	3985.74
949.022	3966.08
949.327	3962.47
949.633	3875.92
949.938	3910.04
950.244	3927.67
950.549	3866.42
950.854	3816.93
951.16	3839.76
951.465	3853.77
951.77	3802.02
952.075	3762.7
952.38	3753.21
952.685	3748.23
952.99	3742.36
953.294	3700.78
953.599	3730.61
953.904	3661.01
954.209	3697.84
954.513	3632.98
954.818	3641.34
955.122	3609.03
955.426	3597.5
955.731	3630.5
956.035	3583.72
956.339	3588.46
956.643	3582.14
956.948	3522.48
957.252	3517.05
957.556	3530.61
957.86	3472.99
958.163	3499.88
958.467	3479.99
958.771	3465.76
959.075	3425.98
959.378	3408.58
959.682	3416.27
959.985	3410.84
960.289	3350.28
960.592	3348.47
960.896	3352.31
961.199	3326.78
961.502	3336.04
961.805	3287.23
962.108	3273.22
962.411	3296.95
962.714	3271.19
963.017	3241.81
963.32	3225.99
963.623	3228.93
963.926	3184.41
964.228	3183.96
964.531	3148.93
964.833	3169.49
965.136	3111.64
965.438	3139.21
965.741	3107.8
966.043	3108.48
966.345	3091.08
966.648	3082.94
966.95	3078.2
967.252	3070.51
967.554	3037.29
967.856	3019.89
968.158	2968.59
968.46	3044.3
968.761	2964.53
969.063	2991.64
969.365	2976.28
969.666	2960.91
969.968	2960.68
970.269	2925.21
970.571	2928.6
970.872	2921.36
971.174	2861.7
971.475	2848.6
971.776	2855.83
972.077	2880.01
972.378	2851.54
972.679	2813.8
972.98	2828.48
973.281	2840.46
973.582	2804.3
973.883	2784.64
974.183	2762.27
974.484	2764.53
974.785	2740.8
975.085	2741.71
975.386	2726.79
975.686	2695.38
975.986	2704.19
976.287	2686.34
976.587	2653.57
976.887	2663.74
977.187	2683.86
977.487	2617.64
977.787	2606.12
978.087	2583.29
978.387	2627.13
978.687	2611.09
978.987	2587.14
979.286	2554.82
979.586	2551.66
979.885	2523.86
980.185	2511.43
980.484	2515.5
980.784	2501.04
981.083	2508.72
981.382	2466.23
981.682	2472.79
981.981	2465.1
982.28	2461.49
982.579	2425.11
982.878	2425.33
983.177	2407.71
983.475	2433.02
983.774	2419.91
984.073	2402.73
984.372	2376.07
984.67	2409.06
984.969	2350.08
985.267	2398.44
985.566	2345.33
985.864	2322.96
986.162	2341.27
986.461	2327.93
986.759	2349.18
987.057	2292.23
987.355	2263.53
987.653	2295.39
987.951	2274.15
988.249	2248.61
988.547	2216.07
988.844	2274.83
989.142	2246.81
989.44	2236.18
989.737	2200.93
990.035	2190.31
990.332	2194.15
990.63	2174.26
990.927	2139.01
991.224	2166.58
991.521	2153.25
991.819	2165.45
992.116	2123.19
992.413	2130.42
992.71	2104.44
993.006	2122.97
993.303	2066.7
993.6	2071.44
993.897	2053.82
994.193	2066.25
994.49	2062.18
994.787	2030.54
995.083	2013.59
995.379	2007.72
995.676	2011.11
995.972	1999.58
996.268	1989.64
996.565	1978.56
996.861	1970.43
997.157	1980.37
997.453	1945.8
997.749	1967.26
998.044	1963.42
998.34	1929.07
998.636	1942.41
998.932	1909.19
999.227	1883.65
999.523	1896.08
999.818	1895.4
1000.114	1868.74
1000.409	1866.48
1000.704	1841.17
1001	1851.34
1001.295	1819.7
1001.59	1820.6
1001.885	1837.78
1002.18	1790.09
1002.475	1761.62
1002.77	1799.59
1003.065	1760.72
1003.359	1769.08
1003.654	1752.81
1003.949	1754.16
1004.243	1755.74
1004.538	1736.54
1004.832	1729.53
1005.127	1721.85
1005.421	1711.9
1005.715	1702.19
1006.009	1682.3
1006.304	1697.22
1006.598	1676.2
1006.892	1664.67
1007.186	1642.75
1007.48	1634.84
1007.773	1639.36
1008.067	1649.31
1008.361	1592.59
1008.655	1594.62
1008.948	1590.1
1009.242	1592.81
1009.535	1559.14
1009.829	1592.36
1010.122	1586.03
1010.415	1591.46
1010.708	1536.77
1011.001	1523.89
1011.295	1519.14
1011.588	1506.26
1011.881	1547.16
1012.173	1495.64
1012.466	1486.15
1012.759	1470.33
1013.052	1487.05
1013.344	1486.37
1013.637	1471.23
1013.93	1475.3
1014.222	1437.56
1014.514	1425.58
1014.807	1416.54
1015.099	1421.29
1015.391	1414.06
1015.683	1389.88
1015.976	1377.68
1016.268	1374.29
1016.56	1373.83
1016.851	1381.29
1017.143	1356.21
1017.435	1360.95
1017.727	1352.59
1018.018	1327.96
1018.31	1342.87
1018.602	1324.57
1018.893	1307.17
1019.185	1310.11
1019.476	1290.67
1019.767	1299.94
1020.058	1309.2
1020.35	1269.43
1020.641	1256.32
1020.932	1239.15
1021.223	1236.44
1021.514	1240.5
1021.804	1221.75
1022.095	1235.53
1022.386	1232.59
1022.677	1204.8
1022.967	1181.52
1023.258	1199.38
1023.548	1172.71
1023.839	1187.4
1024.129	1185.14
1024.419	1204.57
1024.709	1153.73
1025	1165.93
1025.29	1125.25
1025.58	1154.86
1025.87	1130.22
1026.16	1113.95
1026.449	1131.58
1026.739	1086.84
1027.029	1116.89
1027.319	1097.23
1027.608	1069.66
1027.898	1075.54
1028.187	1084.8
1028.477	1061.07
1028.766	1049.55
1029.055	1028.76
1029.344	1054.07
1029.634	1052.71
1029.923	1041.19
1030.212	1046.16
1030.501	1048.19
1030.79	1038.7
1031.078	1016.1
1031.367	1005.26
1031.656	990.79
1031.945	993.5
1032.233	995.09
1032.522	970.23
1032.81	973.17
1033.099	964.81
1033.387	966.84
1033.675	962.55
1033.963	935.88
1034.251	939.27
1034.54	949.66
1034.828	909.21
1035.116	941.53
1035.403	911.93
1035.691	911.25
1035.979	902.89
1036.267	909.44
1036.554	894.98
1036.842	901.08
1037.129	906.28
1037.417	885.03
1037.704	889.78
1037.992	891.13
1038.279	891.59
1038.566	871.02
1038.853	871.02
1039.14	871.02
