Data from hue_10_FLMS001491_1.txt Node
Date: Mon Feb 06 15:31:18 GMT 2017
User: dcchb
Spectrometer: FLMS00149
Trigger mode: 0
Integration Time (sec): 2.000000E-2
Scans to average: 10
Electric dark correction enabled: true
Nonlinearity correction enabled: false
Boxcar width: 0
XAxis mode: Wavelengths
Number of Pixels in Spectrum: 2048
>>>>>Begin Spectral Data<<<<<
341.393	-40.59
341.776	-40.59
342.16	-40.59
342.543	-74.49
342.927	-50.99
343.31	-58.67
343.693	-72.91
344.077	-71.33
344.46	-69.97
344.843	-45.11
345.226	-28.39
345.61	-42.4
345.993	-27.03
346.376	-13.93
346.759	32.63
347.142	31.27
347.525	49.12
347.908	40.54
348.291	81.44
348.674	102.91
349.057	91.83
349.44	111.72
349.823	132.74
350.206	156.46
350.588	176.58
350.971	201.21
351.354	198.72
351.737	218.84
352.119	250.25
352.502	235.56
352.884	250.02
353.267	293.64
353.65	298.83
354.032	304.71
354.414	305.16
354.797	292.96
355.179	323.24
355.562	317.82
355.944	312.17
356.326	323.92
356.709	319.62
357.091	329.12
357.473	318.95
357.855	333.64
358.238	336.35
358.62	332.28
359.002	330.7
359.384	344.26
359.766	333.41
360.148	346.06
360.53	345.61
360.912	348.32
361.294	335.44
361.676	326.86
362.057	325.05
362.439	333.64
362.821	330.7
363.203	315.56
363.584	317.82
363.966	311.04
364.348	316.23
364.729	312.17
365.111	308.78
365.493	309.46
365.874	330.47
366.256	316.91
366.637	300.19
367.019	312.62
367.4	296.35
367.781	305.84
368.163	327.53
368.544	289.79
368.925	292.05
369.306	298.38
369.688	312.17
370.069	299.51
370.45	303.58
370.831	312.84
371.212	337.93
371.593	318.27
371.974	327.31
372.355	298.16
372.736	287.76
373.117	315.78
373.498	316.91
373.879	320.53
374.26	322.56
374.641	306.07
375.021	304.03
375.402	307.65
375.783	306.74
376.163	310.36
376.544	316.01
376.925	342.9
377.305	323.47
377.686	332.51
378.066	309.46
378.447	318.49
378.827	325.27
379.208	328.44
379.588	316.46
379.968	326.63
380.349	313.75
380.729	318.27
381.109	328.89
381.489	318.04
381.87	313.97
382.25	338.83
382.63	355.78
383.01	335.9
383.39	346.06
383.77	341.77
384.15	323.92
384.53	343.58
384.91	347.42
385.29	348.55
385.67	330.47
386.049	350.58
386.429	335.9
386.809	334.09
387.189	360.3
387.568	357.14
387.948	345.16
388.328	347.19
388.707	356.01
389.087	343.13
389.466	347.65
389.846	363.69
390.225	360.98
390.605	360.75
390.984	367.31
391.363	365.95
391.743	334.54
392.122	350.81
392.501	336.12
392.881	342.45
393.26	372.73
393.639	360.08
394.018	349.91
394.397	388.32
394.776	350.36
395.155	375.22
395.534	379.06
395.913	372.05
396.292	356.01
396.671	387.42
397.05	354.2
397.429	371.83
397.808	372.96
398.186	381.54
398.565	381.77
398.944	362.11
399.323	382.45
399.701	375.67
400.08	397.36
400.458	378.61
400.837	391.49
401.215	392.16
401.594	385.84
401.972	415.44
402.351	380.41
402.729	389.45
403.107	380.41
403.486	384.71
403.864	379.96
404.242	402.33
404.62	407.98
404.999	396.68
405.377	412.96
405.755	398.72
406.133	401.88
406.511	399.85
406.889	400.07
407.267	415.44
407.645	427.19
408.023	443.24
408.401	415.89
408.779	412.96
409.156	411.83
409.534	435.1
409.912	420.86
410.29	440.75
410.667	430.81
411.045	446.63
411.422	431.03
411.8	424.71
412.178	436.68
412.555	428.77
412.933	436.46
413.31	443.46
413.687	455.44
414.065	459.51
414.442	445.95
414.819	462.45
415.197	442.56
415.574	446.17
415.951	464.03
416.328	475.33
416.705	455.21
417.082	473.52
417.46	480.75
417.837	468.55
418.214	477.13
418.591	483.24
418.967	484.82
419.344	466.06
419.721	501.09
420.098	463.58
420.475	464.25
420.852	506.29
421.228	503.12
421.605	480.52
421.982	499.05
422.358	505.38
422.735	498.38
423.111	523.69
423.488	497.92
423.864	524.59
424.241	549
424.617	524.59
424.994	551.48
425.37	518.94
425.746	532.5
426.123	534.53
426.499	524.82
426.875	524.59
427.251	523.91
427.627	549.45
428.003	563.01
428.379	539.73
428.756	549.22
429.132	562.1
429.507	553.06
429.883	560.97
430.259	582.22
430.635	559.17
431.011	571.14
431.387	573.4
431.763	574.76
432.138	607.98
432.514	602.55
432.89	593.97
433.265	603.23
433.641	607.75
434.016	593.74
434.392	600.52
434.767	623.8
435.143	625.83
435.518	628.09
435.894	629.45
436.269	640.07
436.644	647.3
437.02	657.92
437.395	651.37
437.77	671.93
438.145	660.86
438.52	663.34
438.895	653.4
439.271	684.59
439.646	680.07
440.021	661.54
440.395	686.39
440.77	688.65
441.145	692.72
441.52	692.27
441.895	690.91
442.27	707.18
442.645	695.66
443.019	722.1
443.394	722.78
443.769	724.13
444.143	718.48
444.518	737.47
444.892	704.47
445.267	726.85
445.641	744.02
446.016	719.39
446.39	732.04
446.764	744.7
447.139	735.88
447.513	728.43
447.887	758.93
448.262	758.03
448.636	766.62
449.01	773.4
449.384	753.51
449.758	764.36
450.132	778.82
450.506	786.05
450.88	779.5
451.254	777.01
451.628	816.56
452.002	808.2
452.376	824.02
452.75	818.37
453.123	806.62
453.497	847.29
453.871	826.05
454.244	833.06
454.618	831.93
454.992	858.59
455.365	838.71
455.739	870.57
456.112	890.23
456.486	866.05
456.859	871.7
457.232	905.82
457.606	914.86
457.979	890.91
458.352	920.74
458.725	958.25
459.099	952.6
459.472	951.02
459.845	931.81
460.218	991.02
460.591	950.12
460.964	981.75
461.337	988.76
461.71	1000.96
462.083	1006.61
462.456	1001.41
462.829	991.25
463.201	1009.78
463.574	1034.86
463.947	1071.02
464.32	1041.41
464.692	1042.54
465.065	1107.17
465.438	1096.78
465.81	1129.09
466.183	1094.97
466.555	1116.44
466.928	1128.64
467.3	1147.85
467.672	1170.68
468.045	1174.07
468.417	1195.08
468.789	1173.39
469.161	1194.4
469.534	1229.88
469.906	1246.38
470.278	1271.01
470.65	1261.07
471.022	1268.07
471.394	1310.78
471.766	1326.15
472.138	1338.13
472.51	1364.12
472.882	1379.94
473.253	1354.17
473.625	1419.48
473.997	1473.27
474.369	1444.57
474.74	1475.98
475.112	1504.68
475.484	1526.82
475.855	1546.71
476.227	1559.59
476.598	1643.66
476.97	1625.8
477.341	1649.76
477.713	1707.16
478.084	1683.88
478.455	1729.08
478.827	1746.03
479.198	1795.29
479.569	1795.74
479.94	1852.69
480.311	1878.45
480.682	1910.99
481.053	1965.68
481.424	1992.57
481.795	1996.64
482.166	2053.59
482.537	2107.6
482.908	2124.77
483.279	2137.66
483.65	2195.28
484.021	2235.28
484.391	2268.73
484.762	2290.42
485.133	2306.01
485.503	2335.62
485.874	2402.06
486.244	2440.92
486.615	2463.52
486.985	2535.16
487.356	2505.56
487.726	2625.33
488.097	2636.4
488.467	2644.99
488.837	2725.44
489.207	2759.33
489.578	2778.54
489.948	2868.03
490.318	2896.51
490.688	2891.99
491.058	2903.74
491.428	2954.13
491.798	3010.63
492.168	3039.78
492.538	3076.61
492.908	3125.65
493.278	3227.34
493.648	3192.77
494.017	3238.87
494.387	3273.45
494.757	3262.82
495.126	3308.25
495.496	3366.32
495.866	3368.58
496.235	3437.73
496.605	3472.31
496.974	3469.6
497.344	3536.71
497.713	3520.67
498.082	3598.41
498.452	3587.11
498.821	3619.42
499.19	3609.03
499.559	3657.16
499.928	3681.57
500.298	3720.66
500.667	3722.47
501.036	3709.14
501.405	3778.06
501.774	3809.7
502.143	3805.41
502.512	3848.12
502.88	3900.1
503.249	3918.85
503.618	3926.08
503.987	3951.17
504.356	3937.83
504.724	3968.57
505.093	3985.74
505.462	3997.27
505.83	4026.19
506.199	4061.45
506.567	4114.55
506.936	4138.06
507.304	4175.12
507.672	4159.52
508.041	4185.96
508.409	4203.82
508.777	4228.45
509.145	4306.86
509.514	4313.64
509.882	4266.64
510.25	4348.44
510.618	4347.54
510.986	4363.81
511.354	4392.29
511.722	4404.26
512.09	4436.58
512.458	4444.26
512.826	4473.64
513.193	4471.15
513.561	4460.76
513.929	4524.49
514.297	4543.92
514.664	4574.2
515.032	4534.43
515.4	4625.73
515.767	4611.26
516.135	4654.43
516.502	4599.51
516.869	4726.97
517.237	4703.46
517.604	4660.3
517.972	4747.3
518.339	4732.62
518.706	4766.06
519.073	4792.73
519.44	4770.13
519.808	4838.6
520.175	4837.92
520.542	4903.91
520.909	4893.29
521.276	4872.05
521.643	4907.75
522.009	4941.65
522.376	4957.24
522.743	4990.69
523.11	5044.02
523.477	5036.34
523.843	5100.97
524.21	5089.44
524.577	5124.02
524.943	5158.82
525.31	5181.64
525.676	5210.57
526.043	5320.62
526.409	5266.16
526.776	5345.48
527.142	5340.28
527.508	5294.86
527.874	5390.9
528.241	5394.29
528.607	5421.86
528.973	5522.2
529.339	5500.73
529.705	5495.76
530.071	5552.93
530.437	5558.58
530.803	5590.22
531.169	5672.03
531.535	5655.53
531.901	5726.49
532.267	5676.09
532.632	5681.74
532.998	5731.01
533.364	5763.1
533.73	5799.03
534.095	5825.92
534.461	5842.64
534.826	5879.48
535.192	5883.55
535.557	5933.71
535.923	5993.83
536.288	5949.53
536.653	6008.97
537.019	5991.57
537.384	6007.38
537.749	6078.34
538.114	6081.28
538.479	6120.6
538.845	6155.4
539.21	6160.6
539.575	6150.21
539.94	6214.84
540.305	6184.78
540.67	6171.22
541.034	6291.44
541.399	6306.59
541.764	6298.45
542.129	6359.69
542.494	6349.75
542.858	6346.58
543.223	6414.61
543.587	6408.73
543.952	6399.01
544.316	6435.17
544.681	6471.1
545.045	6510.65
545.41	6611.44
545.774	6558.33
546.138	6591.32
546.503	6599.01
546.867	6636.97
547.231	6688.04
547.595	6705.22
547.959	6748.61
548.324	6735.95
548.688	6759
549.052	6764.43
549.416	6743.64
549.779	6857.08
550.143	6855.05
550.507	6901.37
550.871	6931.65
551.235	6914.03
551.599	6952.9
551.962	6948.6
552.326	7022.05
552.689	7017.3
553.053	7037.19
553.417	7043.52
553.78	7122.61
554.143	7110.63
554.507	7191.53
554.87	7121.71
555.234	7230.18
555.597	7163.74
555.96	7203.06
556.323	7273.11
556.686	7263.17
557.05	7322.38
557.413	7339.1
557.776	7311.53
558.139	7434.24
558.502	7405.54
558.865	7367.57
559.228	7436.05
559.59	7429.95
559.953	7531.86
560.316	7543.39
560.679	7532.77
561.041	7602.6
561.404	7610.96
561.767	7692.09
562.129	7632.2
562.492	7703.61
562.854	7699.32
563.217	7710.39
563.579	7770.5
563.941	7831.29
564.304	7826.32
564.666	7901.35
565.028	7881.91
565.39	7891.85
565.753	8001.68
566.115	7984.73
566.477	7950.16
566.839	8047.33
567.201	8041.46
567.563	8118.29
567.925	8129.36
568.287	8170.94
568.648	8150.15
569.01	8187.67
569.372	8257.27
569.734	8270.83
570.095	8306.08
570.457	8318.06
570.819	8337.04
571.18	8395.8
571.542	8498.84
571.903	8462.24
572.265	8547.43
572.626	8551.95
572.987	8597.82
573.349	8690.48
573.71	8714.43
574.071	8701.1
574.432	8818.84
574.794	8834.2
575.155	8890.92
575.516	8909.23
575.877	8965.5
576.238	9059.06
576.599	9078.49
576.96	9169.56
577.32	9203.46
577.681	9348.09
578.042	9434.86
578.403	9442.77
578.763	9487.97
579.124	9586.95
579.485	9750.34
579.845	9778.81
580.206	9884.8
580.566	10013.61
580.927	10056.32
581.287	10226.48
581.648	10273.94
582.008	10405.46
582.368	10522.75
582.728	10702.18
583.089	10718
583.449	10933.13
583.809	11040.47
584.169	11253.12
584.529	11351.88
584.889	11571.98
585.249	11753.67
585.609	11780.34
585.969	12015.14
586.329	12192.53
586.688	12420.78
587.048	12637.27
587.408	12774.21
587.768	12947.77
588.127	13159.96
588.487	13340.98
588.846	13712.72
589.206	13706.39
589.565	14053.05
589.925	14354.28
590.284	14550.44
590.643	14800.83
591.003	15061.61
591.362	15309.06
591.721	15504.08
592.08	15806.67
592.44	16041.92
592.799	16435.36
593.158	16583.83
593.517	16907.21
593.876	17212.51
594.235	17527.76
594.593	17707.64
594.952	18157.57
595.311	18208.42
595.67	18556.43
596.029	18943.99
596.387	19220.82
596.746	19559.57
597.104	19698.1
597.463	19962.72
597.822	20334.69
598.18	20609.49
598.538	20786.2
598.897	21271.84
599.255	21329.47
599.613	21971.94
599.972	22124.02
600.33	22428.2
600.688	22605.37
601.046	22984.57
601.404	23276.53
601.762	23667.03
602.12	23885.33
602.478	24149.05
602.836	24288.71
603.194	24590.17
603.552	24905.64
603.91	25071.52
604.268	25288.91
604.625	25476.25
604.983	25910.14
605.341	26099.06
605.698	26496.11
606.056	26834.86
606.413	26952.6
606.771	27277.79
607.128	27523.88
607.485	27630.77
607.843	27701.73
608.2	28178.78
608.557	28539.67
608.914	28610.86
609.272	28881.59
609.629	29275.25
609.986	29490.38
610.343	29710.26
610.7	30026.64
611.057	30234.09
611.414	30345.95
611.771	30498.72
612.127	30772.16
612.484	30980.29
612.841	31281.75
613.198	31298.02
613.554	31564.23
613.911	31822.98
614.267	31980.03
614.624	32094.38
614.98	32215.96
615.337	32657.98
615.693	32656.85
616.05	32950.63
616.406	33157.63
616.762	33241.92
617.118	33320.34
617.475	33387.91
617.831	33765.98
618.187	33853.43
618.543	33969.59
618.899	34361.89
619.255	34342.46
619.611	34467.2
619.967	34651.15
620.323	34897.47
620.678	34806.63
621.034	34821.54
621.39	34957.36
621.746	35108.54
622.101	35384.47
622.457	35235.77
622.812	35498.59
623.168	35731.57
623.523	35809.99
623.879	35940.61
624.234	35707.85
624.589	35940.16
624.945	36031.68
625.3	36082.53
625.655	36192.35
626.01	36324.78
626.365	36472.35
626.72	36565.23
627.075	36526.13
627.43	36578.11
627.785	36610.2
628.14	36750.3
628.495	36793.69
628.85	36823.98
629.205	36825.56
629.559	37050.86
629.914	36989.62
630.269	36901.71
630.623	36902.17
630.978	36905.78
631.332	37177.64
631.687	37302.61
632.041	37115.27
632.396	37278.65
632.75	37136.96
633.104	37194.14
633.459	37256.96
633.813	37141.03
634.167	37361.14
634.521	37249.73
634.875	37332.66
635.229	37318.43
635.583	37130.18
635.937	37162.95
636.291	37255.15
636.645	37366.33
636.999	37246.79
637.352	37373.11
637.706	37344.87
638.06	37270.29
638.413	37314.81
638.767	37191.2
639.121	37263.96
639.474	37030.07
639.828	37254.02
640.181	37250.86
640.534	37225.09
640.888	37346.67
641.241	37040.47
641.594	37082.05
641.947	37360.23
642.301	37228.03
642.654	37138.09
643.007	37265.32
643.36	37212.89
643.713	37200.69
644.066	37359.55
644.419	37066.45
644.771	36881.15
645.124	36683.41
645.477	36515.06
645.83	36274.39
646.182	36127.5
646.535	36094.05
646.888	36163.65
647.24	35969.76
647.593	36334.04
647.945	36064.22
648.298	36044.56
648.65	35967.05
649.002	35860.16
649.355	36106.48
649.707	35882.98
650.059	36146.48
650.411	36529.75
650.763	36604.77
651.115	36942.62
651.467	36836.4
651.819	36821.04
652.171	36711.89
652.523	36607.94
652.875	36794.6
653.227	36541.95
653.578	36813.81
653.93	36547.37
654.282	36513.7
654.633	36621.49
654.985	36630.53
655.337	36594.83
655.688	36601.61
656.039	36831.43
656.391	36355.29
656.742	36491.55
657.094	36553.25
657.445	36661.27
657.796	36649.29
658.147	36480.26
658.498	36487.71
658.849	36505.57
659.2	36454.49
659.551	36315.74
659.902	36613.59
660.253	36502.85
660.604	36492.91
660.955	36231
661.306	36516.86
661.656	36376.08
662.007	36411.56
662.358	36419.69
662.708	36402.74
663.059	36307.15
663.409	36186.25
663.76	36466.7
664.11	36335.85
664.461	36369.98
664.811	36447.26
665.161	36435.28
665.511	36335.85
665.862	36330.2
666.212	36348.96
666.562	36560.48
666.912	36390.09
667.262	36318.45
667.612	36268.06
667.962	36414.95
668.312	36328.17
668.662	36327.94
669.011	36330.43
669.361	36337.43
669.711	36206.82
670.06	36223.31
670.41	36061.96
670.76	36157.33
671.109	36310.77
671.459	36123.65
671.808	36196.87
672.157	36301.28
672.507	36037.1
672.856	35953.04
673.205	36098.34
673.554	36100.38
673.904	36096.31
674.253	36296.53
674.602	36163.43
674.951	35579.04
675.3	35408.42
675.649	35989.65
675.998	35891.34
676.346	36014.28
676.695	36039.82
677.044	35599.83
677.393	36014.51
677.741	35950.78
678.09	35841.63
678.438	35726.38
678.787	35798.69
679.135	35739.48
679.484	35594.4
679.832	35634.4
680.181	35474.63
680.529	35515.76
680.877	35570.67
681.225	35491.13
681.573	35522.77
681.922	35388.76
682.27	35301.98
682.618	35289.78
682.966	35213.17
683.314	35326.84
683.661	35163
684.009	34931.82
684.357	34935.66
684.705	35018.37
685.053	34929.56
685.4	34989.45
685.748	34663.13
686.095	34855.89
686.443	34614.09
686.79	34681.21
687.138	34741.32
687.485	34569.8
687.832	34533.41
688.18	34612.96
688.527	34393.3
688.874	34286.41
689.221	34424.26
689.568	34232.18
689.915	34171.16
690.262	34185.17
690.609	34085.29
690.956	34021.79
691.303	33961
691.65	33723.72
691.997	33728.69
692.344	33547.68
692.69	33525.53
693.037	33631.74
693.383	33290.06
693.73	33328.93
694.077	33166.9
694.423	33259.32
694.769	33078.76
695.116	33058.2
695.462	32952.89
695.808	32839.9
696.155	32828.37
696.501	32568.04
696.847	32655.72
697.193	32278.33
697.539	32633.35
697.885	32394.26
698.231	32301.61
698.577	32300.03
698.923	32268.61
699.269	32124.89
699.614	31830.43
699.96	31911.79
700.306	31783.88
700.651	31743.66
700.997	31662.08
701.342	31491.69
701.688	31559.71
702.033	31502.53
702.379	31468.41
702.724	31293.5
703.069	31293.27
703.415	30977.12
703.76	31141.19
704.105	30975.32
704.45	30953.62
704.795	30775.32
705.14	30784.59
705.485	30736.23
705.83	30629.11
706.175	30736.23
706.52	30541.65
706.865	30388.89
707.209	30331.49
707.554	30297.37
707.899	30209.23
708.243	30127.65
708.588	30177.14
708.932	29991.39
709.277	29896.25
709.621	29995.23
709.966	29792.52
710.31	29804.95
710.654	29534.68
710.998	29608.8
711.342	29673.43
711.687	29439.99
712.031	29333.1
712.375	29345.98
712.719	29377.39
713.063	29344.85
713.407	29388.01
713.75	29126.1
714.094	29176.04
714.438	28945.09
714.782	29109.6
715.125	28929.27
715.469	29015.14
715.812	28737.41
716.156	28762.72
716.499	28715.26
716.843	28730.18
717.186	28433.91
717.53	28719.33
717.873	28707.58
718.216	28560.69
718.559	28348.49
718.902	28323.86
719.246	28283.86
719.589	28190.98
719.932	28061.95
720.275	28122.96
720.617	28031.89
720.96	27985.79
721.303	27964.1
721.646	28028.5
721.989	27877.77
722.331	27896.98
722.674	27892.68
723.016	27792.35
723.359	27848.17
723.701	27859.92
724.044	27535.86
724.386	27513.94
724.729	27674.16
725.071	27482.75
725.413	27470.55
725.755	27562.98
726.097	27360.04
726.439	27260.38
726.782	27407.95
727.124	27225.36
727.465	27108.3
727.807	27259.48
728.149	27086.83
728.491	27071.69
728.833	27119.15
729.175	27068.98
729.516	26884.35
729.858	26837.12
730.199	26944.24
730.541	26763.67
730.882	26768.19
731.224	26908.53
731.565	26749.44
731.906	26709.66
732.248	26755.54
732.589	26594.87
732.93	26440.52
733.271	26505.15
733.612	26560.97
733.953	26483
734.294	26429.22
734.635	26414.76
734.976	26393.29
735.317	26184.03
735.658	26246.4
735.999	26160.75
736.339	26080.53
736.68	26223.8
737.021	26157.36
737.361	26072.62
737.702	26134.99
738.042	26123.24
738.383	26016.8
738.723	26103.35
739.063	25922.79
739.404	26069.68
739.744	25839.63
740.084	25636.47
740.424	25698.17
740.764	25726.41
741.104	25870.14
741.444	25652.74
741.784	25622.46
742.124	25686.87
742.464	25707.66
742.804	25602.35
743.143	25456.82
743.483	25539.53
743.823	25356.71
744.162	25351.28
744.502	25520.09
744.841	25300.89
745.181	25337.05
745.52	25301.79
745.86	25288.23
746.199	25219.76
746.538	25090.27
746.877	25222.92
747.216	25043.72
747.556	25035.13
747.895	25161.91
748.234	25002.14
748.573	24918.75
748.911	25001.69
749.25	24832.88
749.589	24833.1
749.928	24792.43
750.267	24862.93
750.605	24777.29
750.944	24542.72
751.283	24556.5
751.621	24664.52
751.96	24572.55
752.298	24601.7
752.636	24529.84
752.975	24424.3
753.313	24333.91
753.651	24515.82
753.989	24300.01
754.327	24269.5
754.666	24164.2
755.004	24284.19
755.342	24196.96
755.679	24150.86
756.017	24048.94
756.355	24094.59
756.693	23991.09
757.031	23935.05
757.368	23886.01
757.706	23835.16
758.044	23695.51
758.381	23744.32
758.719	23671.33
759.056	23703.19
759.394	23550.65
759.731	23359.47
760.068	23394.72
760.405	23371.22
760.743	23225.91
761.08	23306.14
761.417	23171
761.754	23101.62
762.091	23182.3
762.428	22959.48
762.765	22872.03
763.102	22905.47
763.438	22769.43
763.775	22599.04
764.112	22638.81
764.449	22647.62
764.785	22649.21
765.122	22391.81
765.458	22285.15
765.795	22330.12
766.131	22284.02
766.467	22306.39
766.804	22174.64
767.14	22011.26
767.476	22020.97
767.812	21950.69
768.148	21900.3
768.485	21867.53
768.821	21626.63
769.157	21748.21
769.492	21619.86
769.828	21454.89
770.164	21409.24
770.5	21285.17
770.836	21296.47
771.171	21170.6
771.507	21237.49
771.842	21018.97
772.178	20905.3
772.513	20934.9
772.849	20844.73
773.184	20852.42
773.519	20763.61
773.855	20716.83
774.19	20487.23
774.525	20604.97
774.86	20487
775.195	20386.67
775.53	20360
775.865	20224.41
776.2	20118.88
776.535	19991.65
776.87	19899.67
777.205	19933.12
777.539	19834.14
777.874	19779.68
778.209	19660.81
778.543	19666.91
778.878	19542.85
779.212	19527.71
779.547	19412.46
779.881	19414.49
780.215	19382.4
780.55	19268.28
780.884	19147.15
781.218	19221.73
781.552	19155.29
781.886	18989.87
782.22	18798.91
782.554	18879.81
782.888	18733.15
783.222	18593.04
783.556	18549.43
783.889	18580.84
784.223	18372.26
784.557	18452.48
784.89	18398.02
785.224	18293.62
785.557	18143.56
785.891	18083.23
786.224	18146.05
786.558	18073.06
786.891	17926.85
787.224	17879.39
787.557	17834.42
787.891	17793.52
788.224	17753.97
788.557	17628.77
788.89	17564.82
789.223	17581.09
789.556	17480.98
789.888	17447.99
790.221	17482.56
790.554	17229.24
790.887	17283.7
791.219	17219.07
791.552	17223.81
791.884	16951.73
792.217	17037.15
792.549	16917.61
792.882	16874.44
793.214	16850.49
793.546	16814.78
793.879	16764.39
794.211	16573.21
794.543	16698.4
794.875	16546.99
795.207	16592.19
795.539	16446.43
795.871	16397.39
796.203	16335.02
796.535	16282.37
796.867	16162.37
797.198	16172.54
797.53	16130.28
797.862	16046.67
798.193	16069.94
798.525	15909.27
798.856	15958.08
799.188	15906.79
799.519	15728.71
799.85	15695.27
800.182	15822.04
800.513	15688.71
800.844	15437.64
801.175	15719.67
801.506	15632.44
801.837	15494.14
802.168	15508.38
802.499	15372.34
802.83	15272.23
803.161	15304.09
803.491	15219.12
803.822	15272.9
804.153	15156.3
804.483	15089.63
804.814	14949.97
805.145	14953.82
805.475	14936.64
805.805	14935.74
806.136	14898.22
806.466	14848.51
806.796	14861.39
807.126	14709.98
807.457	14672.47
807.787	14610.55
808.117	14611.68
808.447	14523.32
808.777	14600.15
809.107	14528.97
809.436	14489.42
809.766	14406.26
810.096	14370.33
810.426	14345.47
810.755	14284.91
811.085	14337.56
811.414	14280.84
811.744	14188.41
812.073	14145.93
812.403	14175.08
812.732	14081.75
813.061	14062.31
813.39	13948.19
813.719	13961.75
814.049	14098.47
814.378	13956.1
814.707	13885.6
815.036	13922.43
815.365	13870.23
815.693	13655.32
816.022	13699.16
816.351	13710.91
816.68	13613.29
817.008	13629.1
817.337	13459.62
817.665	13554.3
817.994	13488.77
818.322	13549.78
818.651	13389.56
818.979	13301.2
819.307	13445.15
819.636	13318.6
819.964	13307.31
820.292	13363.8
820.62	13283.8
820.948	13235.67
821.276	13313.18
821.604	13251.04
821.932	13225.27
822.259	13260.53
822.587	13318.6
822.915	13164.71
823.243	13250.36
823.57	13187.31
823.898	13179.4
824.225	13136.91
824.553	13167.65
824.88	13166.07
825.207	13178.72
825.535	13101.44
825.862	13224.37
826.189	13119.74
826.516	13258.27
826.843	13256.23
827.17	13213.07
827.497	13216.01
827.824	13164.03
828.151	13199.06
828.478	13094.43
828.805	13190.47
829.131	13109.34
829.458	13114.99
829.785	13091.04
830.111	13082.23
830.438	13191.83
830.764	13117.71
831.09	13150.7
831.417	13031.61
831.743	13147.54
832.069	13122.23
832.395	13080.64
832.722	13100.08
833.048	13030.7
833.374	13012.85
833.7	12935.79
834.026	12991.16
834.351	13002.91
834.677	13042.23
835.003	13018.5
835.329	12975.11
835.654	12964.26
835.98	12831.61
836.306	12927.88
836.631	12911.16
836.956	12913.64
837.282	12822.8
837.607	12773.99
837.932	12821.44
838.258	12886.3
838.583	12844.27
838.908	12728.79
839.233	12727.89
839.558	12799.97
839.883	12656.48
840.208	12625.52
840.533	12703.03
840.858	12647.66
841.182	12588
841.507	12583.26
841.832	12523.82
842.156	12514.78
842.481	12461.45
842.805	12448.8
843.13	12351.17
843.454	12456.48
843.778	12382.81
844.103	12334
844.427	12314.56
844.751	12272.98
845.075	12303.94
845.399	12247.22
845.723	12187.11
846.047	12159.31
846.371	12043.84
846.695	12067.56
847.019	11923.39
847.343	12010.39
847.666	11847.68
847.99	11801.13
848.313	11846.1
848.637	11702.83
848.96	11739.89
849.284	11638.2
849.607	11528.6
849.931	11578.54
850.254	11509.84
850.577	11457.41
850.9	11391.88
851.223	11386.45
851.546	11306.91
851.869	11247.25
852.192	11246.57
852.515	11123.86
852.838	11121.6
853.161	11149.17
853.483	11057.42
853.806	10994.82
854.129	11011.77
854.451	10999.12
854.774	10998.89
855.096	10828.5
855.419	10815.85
855.741	10869.63
856.063	10729.52
856.385	10692.68
856.708	10701.95
857.03	10659.69
857.352	10708.5
857.674	10565
857.996	10586.47
858.318	10516.87
858.64	10478
858.961	10431.9
859.283	10459.24
859.605	10371.34
859.926	10350.1
860.248	10437.1
860.57	10337.44
860.891	10370.21
861.212	10310.32
861.534	10287.72
861.855	10244.34
862.176	10257.22
862.498	10265.8
862.819	10225.35
863.14	10174.73
863.461	10148.74
863.782	10127.28
864.103	10161.4
864.424	10046.83
864.745	10022.42
865.065	10051.35
865.386	10062.19
865.707	9978.35
866.027	10018.35
866.348	9962.08
866.668	9982.65
866.989	9948.3
867.309	9864.68
867.63	9895.87
867.95	9859.03
868.27	9891.12
868.59	9800.51
868.91	9835.08
869.23	9853.16
869.55	9763.22
869.87	9869.66
870.19	9757.79
870.51	9792.37
870.83	9736.33
871.15	9725.25
871.469	9661.07
871.789	9654.07
872.109	9726.16
872.428	9568.65
872.748	9721.19
873.067	9631.02
873.386	9661.53
873.706	9633.05
874.025	9587.63
874.344	9578.82
874.663	9563.68
874.982	9533.17
875.301	9518.25
875.62	9522.09
875.939	9499.5
876.258	9513.51
876.577	9424.7
876.896	9410.23
877.214	9403.68
877.533	9373.62
877.852	9402.78
878.17	9438.93
878.489	9390.8
878.807	9357.58
879.125	9344.47
879.444	9272.38
879.762	9235.77
880.08	9287.3
880.398	9227.19
880.716	9216.11
881.034	9217.02
881.352	9272.61
881.67	9205.04
881.988	9157.13
882.306	9185.83
882.624	9164.14
882.941	9121.43
883.259	9092.95
883.577	9058.6
883.894	9010.24
884.212	9010.92
884.529	9006.85
884.846	8980.87
885.164	8937.25
885.481	8923.69
885.798	8899.74
886.115	8893.86
886.432	8892.51
886.75	8841.66
887.067	8835.78
887.383	8772.74
887.7	8858.83
888.017	8772.06
888.334	8802.34
888.651	8732.74
888.967	8715.56
889.284	8680.99
889.6	8645.06
889.917	8586.53
890.233	8597.6
890.55	8638.28
890.866	8664.26
891.182	8582.68
891.498	8490.93
891.815	8518.73
892.131	8499.3
892.447	8442.35
892.763	8386.08
893.079	8398.06
893.395	8337.49
893.71	8362.58
894.026	8385.63
894.342	8300.43
894.657	8254.78
894.973	8247.1
895.289	8250.49
895.604	8216.37
895.92	8115.58
896.235	8112.19
896.55	8078.52
896.865	8115.35
897.181	8061.57
897.496	8074.9
897.811	8026.54
898.126	7992.19
898.441	7933.89
898.756	7924.4
899.071	7821.12
899.386	7859.54
899.7	7829.71
900.015	7770.28
900.33	7743.61
900.644	7729.15
900.959	7804.4
901.273	7717.4
901.588	7689.15
901.902	7658.87
902.216	7573.44
902.531	7543.84
902.845	7537.51
903.159	7482.37
903.473	7533.45
903.787	7422.04
904.101	7434.92
904.415	7426.33
904.729	7428.82
905.042	7310.4
905.356	7301.14
905.67	7303.4
905.984	7312.21
906.297	7266.11
906.611	7253.91
906.924	7191.08
907.237	7157.18
907.551	7158.54
907.864	7151.76
908.177	7072.89
908.491	7081.25
908.804	7026.79
909.117	7075.38
909.43	7031.99
909.743	6981.82
910.056	6878.32
910.368	6908.83
910.681	6824.09
910.994	6847.81
911.307	6842.39
911.619	6787.25
911.932	6749.96
912.244	6752
912.557	6688.5
912.869	6660.25
913.181	6621.15
913.494	6602.17
913.806	6614.15
914.118	6574.83
914.43	6475.85
914.742	6507.48
915.054	6458.9
915.366	6458.22
915.678	6498.22
915.99	6414.15
916.302	6406.24
916.613	6373.02
916.925	6318.11
917.236	6330.99
917.548	6264.33
917.859	6300.26
918.171	6258.45
918.482	6199.92
918.794	6210.32
919.105	6178.91
919.416	6157.89
919.727	6105.91
920.038	6105.46
920.349	6101.62
920.66	6019.36
920.971	6044.9
921.282	5959.02
921.593	5932.13
921.903	5925.58
922.214	5910.44
922.525	5900.27
922.835	5845.35
923.146	5785.7
923.456	5791.12
923.767	5730.78
924.077	5781.4
924.387	5731.23
924.697	5700.05
925.008	5661.18
925.318	5692.36
925.628	5724.23
925.938	5631.12
926.248	5574.18
926.558	5581.41
926.867	5522.88
927.177	5499.83
927.487	5454.18
927.796	5458.02
928.106	5458.7
928.416	5424.57
928.725	5441.3
929.034	5396.33
929.344	5411.24
929.653	5345.71
929.962	5312.49
930.271	5281.08
930.581	5287.86
930.89	5240.4
931.199	5185.26
931.508	5180.51
931.817	5202.66
932.125	5154.3
932.434	5173.06
932.743	5085.83
933.051	5059.61
933.36	5091.93
933.669	5016.68
933.977	5026.62
934.286	5004.02
934.594	5013.96
934.902	4919.28
935.21	4960.18
935.519	4967.19
935.827	4944.59
936.135	4865.27
936.443	4863.46
936.751	4855.78
937.059	4832.05
937.367	4824.36
937.674	4795.21
937.982	4763.8
938.29	4760.41
938.597	4786.17
938.905	4716.57
939.213	4661.43
939.52	4615.78
939.827	4623.01
940.135	4599.06
940.442	4597.03
940.749	4564.48
941.056	4559.29
941.363	4554.99
941.67	4507.76
941.977	4501.66
942.284	4503.7
942.591	4486.29
942.898	4439.29
943.205	4453.98
943.511	4383.47
943.818	4393.42
944.125	4380.76
944.431	4374.66
944.738	4357.94
945.044	4290.37
945.35	4295.11
945.657	4296.69
945.963	4244.04
946.269	4209.69
946.575	4230.03
946.881	4178.05
947.187	4213.99
947.493	4175.57
947.799	4153.2
948.105	4125.63
948.41	4164.27
948.716	4091.95
949.022	4086.98
949.327	4060.77
949.633	4028
949.938	4010.37
950.244	4088.79
950.549	3995.23
950.854	3950.26
951.16	3970.83
951.465	3932.41
951.77	3922.69
952.075	3919.98
952.38	3908.91
952.685	3887.67
952.99	3831.4
953.294	3862.36
953.599	3814.22
953.904	3795.01
954.209	3757.05
954.513	3773.54
954.818	3795.92
955.122	3743.26
955.426	3736.26
955.731	3696.94
956.035	3684.96
956.339	3697.39
956.643	3694.68
956.948	3631.63
957.252	3668.91
957.556	3618.97
957.86	3607.67
958.163	3598.18
958.467	3581.46
958.771	3555.92
959.075	3562.02
959.378	3516.6
959.682	3500.56
959.985	3482.03
960.289	3464.63
960.592	3488.13
960.896	3465.3
961.199	3439.54
961.502	3439.99
961.805	3455.14
962.108	3400
962.411	3413.78
962.714	3372.2
963.017	3327.45
963.32	3333.78
963.623	3318.42
963.926	3331.97
964.228	3267.57
964.531	3291.3
964.833	3257.63
965.136	3240.23
965.438	3236.84
965.741	3196.84
966.043	3234.12
966.345	3174.46
966.648	3188.7
966.95	3182.37
967.252	3161.81
967.554	3151.19
967.856	3118.87
968.158	3116.16
968.46	3103.96
968.761	3060.12
969.063	3076.61
969.365	3090.85
969.666	3057.86
969.968	3024.64
970.269	3028.71
970.571	3016.05
970.872	3003.17
971.174	2961.36
971.475	2997.75
971.776	2967.01
972.077	2947.13
972.378	2942.61
972.679	2928.6
972.98	2937.41
973.281	2889.05
973.582	2906.45
973.883	2862.38
974.183	2850.63
974.484	2877.98
974.785	2819.9
975.085	2821.03
975.386	2819.9
975.686	2785.77
975.986	2769.28
976.287	2778.32
976.587	2745.78
976.887	2731.09
977.187	2716.62
977.487	2732.44
977.787	2705.1
978.087	2712.1
978.387	2688.83
978.687	2671.88
978.987	2640.47
979.286	2650.41
979.586	2611.77
979.885	2628.94
980.185	2616.51
980.484	2631.43
980.784	2579.9
981.083	2605.67
981.382	2553.69
981.682	2562.96
981.981	2542.62
982.28	2524.99
982.579	2543.97
982.878	2545.55
983.177	2509.62
983.475	2518.66
983.774	2494.26
984.073	2481.6
984.372	2495.16
984.67	2478.66
984.969	2482.51
985.267	2425.56
985.566	2435.05
985.864	2427.14
986.162	2423.52
986.461	2401.6
986.759	2365.67
987.057	2359.57
987.355	2379.46
987.653	2380.14
987.951	2376.07
988.249	2325.67
988.547	2328.39
988.844	2324.32
989.142	2294.26
989.44	2291.78
989.737	2293.36
990.035	2283.41
990.332	2263.75
990.63	2230.08
990.927	2231.89
991.224	2247.03
991.521	2224.66
991.819	2207.03
992.116	2192.34
992.413	2184.66
992.71	2164.77
993.006	2171.78
993.303	2161.84
993.6	2144.89
993.897	2141.05
994.193	2121.16
994.49	2110.54
994.787	2105.79
995.083	2052.69
995.379	2106.92
995.676	2081.16
995.972	2089.07
996.268	2040.03
996.565	2024.44
996.861	2001.39
997.157	2040.26
997.453	2052.46
997.749	1975.63
998.044	2034.38
998.34	1968.85
998.636	2005
998.932	1977.21
999.227	1950.99
999.523	1951.45
999.818	1945.12
1000.114	1915.97
1000.409	1933.59
1000.704	1923.2
1001	1901.5
1001.295	1872.58
1001.59	1910.77
1001.885	1881.62
1002.18	1865.57
1002.475	1839.81
1002.77	1817.89
1003.065	1813.6
1003.359	1818.79
1003.654	1789.64
1003.949	1798
1004.243	1757.33
1004.538	1780.38
1004.832	1770.43
1005.127	1772.69
1005.421	1775.63
1005.715	1735.41
1006.009	1758.91
1006.304	1737.89
1006.598	1712.36
1006.892	1706.03
1007.186	1699.7
1007.48	1701.28
1007.773	1689.98
1008.067	1688.4
1008.361	1661.51
1008.655	1680.27
1008.948	1648.4
1009.242	1651.11
1009.535	1595.97
1009.829	1621.06
1010.122	1620.16
1010.415	1606.6
1010.708	1612.25
1011.001	1574.05
1011.295	1574.73
1011.588	1577.9
1011.881	1552.81
1012.173	1567.28
1012.466	1575.86
1012.759	1525.24
1013.052	1520.95
1013.344	1532.25
1013.637	1512.59
1013.93	1511.68
1014.222	1455.64
1014.514	1464.45
1014.807	1454.06
1015.099	1478.69
1015.391	1457.9
1015.683	1429.65
1015.976	1437.56
1016.268	1409.99
1016.56	1420.84
1016.851	1405.02
1017.143	1409.09
1017.435	1376.77
1017.727	1362.08
1018.018	1357.34
1018.31	1374.06
1018.602	1366.15
1018.893	1330.45
1019.185	1349.65
1019.476	1324.57
1019.767	1352.14
1020.058	1313.04
1020.35	1292.93
1020.641	1288.41
1020.932	1281.18
1021.223	1285.25
1021.514	1273.72
1021.804	1276.66
1022.095	1275.08
1022.386	1234.85
1022.677	1264.23
1022.967	1255.87
1023.258	1237.57
1023.548	1233.05
1023.839	1228.75
1024.129	1237.57
1024.419	1199.83
1024.709	1192.82
1025	1219.49
1025.29	1180.39
1025.58	1178.81
1025.87	1185.14
1026.16	1151.24
1026.449	1143.56
1026.739	1153.95
1027.029	1161.18
1027.319	1123.9
1027.608	1123.67
1027.898	1111.24
1028.187	1133.61
1028.477	1108.08
1028.766	1080.28
1029.055	1097.23
1029.344	1066.95
1029.634	1074.86
1029.923	1046.38
1030.212	1055.88
1030.501	1040.96
1030.79	1021.3
1031.078	1018.59
1031.367	1044.13
1031.656	1046.84
1031.945	995.76
1032.233	1017.01
1032.522	1024.46
1032.81	989.89
1033.099	971.36
1033.387	967.74
1033.675	978.82
1033.963	970.45
1034.251	990.12
1034.54	944.47
1034.828	937.24
1035.116	926.39
1035.403	941.75
1035.691	926.61
1035.979	928.87
1036.267	924.13
1036.554	922.32
1036.842	946.05
1037.129	898.82
1037.417	918.25
1037.704	875.99
1037.992	915.09
1038.279	867.63
1038.566	888.65
1038.853	888.65
1039.14	888.65
