Data from hue_100_FLMS001491_00100.txt Node
Date: Tue Feb 07 17:03:55 GMT 2017
User: dcchb
Spectrometer: FLMS00149
Trigger mode: 0
Integration Time (sec): 2.000000E-2
Scans to average: 10
Electric dark correction enabled: true
Nonlinearity correction enabled: false
Boxcar width: 0
XAxis mode: Wavelengths
Number of Pixels in Spectrum: 2048
>>>>>Begin Spectral Data<<<<<
341.393	-3.21
341.776	-3.21
342.16	-3.21
342.543	-63.77
342.927	-64
343.31	-75.75
343.693	-65.8
344.077	-55.86
344.46	-76.42
344.843	-53.37
345.226	-54.5
345.61	-38.91
345.993	-14.73
346.376	-15.18
346.759	24.82
347.142	37.47
347.525	41.09
347.908	73.4
348.291	68.66
348.674	101.65
349.057	103.46
349.44	138.71
349.823	164.47
350.206	154.3
350.588	204.02
350.971	220.97
351.354	218.93
351.737	224.58
352.119	260.06
352.502	258.48
352.884	261.87
353.267	270.01
353.65	284.24
354.032	291.93
354.414	319.72
354.797	312.27
355.179	343.45
355.562	307.97
355.944	327.41
356.326	323.79
356.709	334.86
357.091	337.12
357.473	335.09
357.855	329.44
358.238	324.47
358.62	326.05
359.002	362.21
359.384	340.74
359.766	329.89
360.148	326.95
360.53	337.8
360.912	328.76
361.294	324.24
361.676	335.77
362.057	342.1
362.439	327.86
362.821	340.74
363.203	329.89
363.584	320.85
363.966	328.54
364.348	319.72
364.729	320.18
365.111	305.71
365.493	328.76
365.874	329.89
366.256	305.94
366.637	300.06
367.019	327.63
367.4	290.8
367.781	313.17
368.163	315.2
368.544	305.49
368.925	326.95
369.306	314.3
369.688	331.25
370.069	326.95
370.45	322.89
370.831	323.56
371.212	314.07
371.593	324.02
371.974	315.66
372.355	304.58
372.736	337.35
373.117	321.08
373.498	317.01
373.879	315.43
374.26	322.89
374.641	326.5
375.021	305.26
375.402	330.34
375.783	322.44
376.163	308.65
376.544	319.27
376.925	350.46
377.305	309.78
377.686	332.15
378.066	325.82
378.447	343.45
378.827	326.73
379.208	335.32
379.588	316.56
379.968	341.87
380.349	339.61
380.729	353.85
381.109	327.86
381.489	341.19
381.87	362.21
382.25	345.03
382.63	350.68
383.01	336.67
383.39	322.89
383.77	343.23
384.15	345.71
384.53	348.2
384.91	341.87
385.29	356.56
385.67	370.8
386.049	361.3
386.429	335.99
386.809	351.36
387.189	366.95
387.568	368.31
387.948	358.59
388.328	377.57
388.707	361.3
389.087	375.31
389.466	359.72
389.846	352.72
390.225	383.45
390.605	365.6
390.984	382.77
391.363	383.45
391.743	380.51
392.122	382.09
392.501	375.54
392.881	394.52
393.26	379.61
393.639	391.81
394.018	375.54
394.397	380.06
394.776	384.35
395.155	399.04
395.534	394.3
395.913	392.49
396.292	411.7
396.671	411.47
397.05	393.85
397.429	404.92
397.808	384.35
398.186	373.28
398.565	419.83
398.944	404.01
399.323	371.7
399.701	416.22
400.08	395.88
400.458	423.22
400.837	418.7
401.215	419.83
401.594	420.96
401.972	404.01
402.351	423
402.729	442.43
403.107	408.31
403.486	429.78
403.864	419.16
404.242	437.46
404.62	431.13
404.999	408.99
405.377	448.31
405.755	449.66
406.133	434.75
406.511	433.62
406.889	460.06
407.267	445.82
407.645	462.54
408.023	452.83
408.401	440.62
408.779	450.57
409.156	468.42
409.534	479.04
409.912	460.96
410.29	490.11
410.667	474.97
411.045	490.11
411.422	524.92
411.8	484.92
412.178	497.8
412.555	494.18
412.933	511.58
413.31	510.45
413.687	517.46
414.065	517.46
414.442	512.49
414.819	496.89
415.197	535.54
415.574	517.23
415.951	533.28
416.328	527.4
416.705	513.16
417.082	547.06
417.46	557.46
417.837	559.94
418.214	538.7
418.591	554.52
418.967	573.5
419.344	569.66
419.721	544.58
420.098	570.79
420.475	573.95
420.852	559.49
421.228	570.79
421.605	584.35
421.982	599.04
422.358	579.83
422.735	578.25
423.111	604.91
423.488	575.31
423.864	601.3
424.241	578.7
424.617	607.4
424.994	601.52
425.37	618.47
425.746	618.02
426.123	625.25
426.499	624.8
426.875	622.99
427.251	628.64
427.627	645.14
428.003	659.38
428.379	660.28
428.756	672.26
429.132	667.51
429.507	693.27
429.883	672.03
430.259	703.44
430.635	681.97
431.011	687.62
431.387	711.35
431.763	712.71
432.138	712.26
432.514	704.57
432.89	731.24
433.265	738.7
433.641	748.86
434.016	747.28
434.392	759.94
434.767	754.29
435.143	758.36
435.518	763.1
435.894	762.88
436.269	803.78
436.644	802.65
437.02	807.62
437.395	813.04
437.77	832.03
438.145	833.61
438.52	834.06
438.895	857.79
439.271	848.07
439.646	834.51
440.021	846.04
440.395	868.86
440.77	861.86
441.145	857.79
441.52	870.22
441.895	882.65
442.27	891.91
442.645	876.77
443.019	907.5
443.394	904.11
443.769	901.18
444.143	897.56
444.518	918.13
444.892	924.45
445.267	934.17
445.641	955.19
446.016	920.16
446.39	934.4
446.764	942.08
447.139	970.78
447.513	954.51
447.887	989.31
448.262	1001.51
448.636	987.5
449.01	996.77
449.384	1032.25
449.758	1022.76
450.132	1045.35
450.506	1025.69
450.88	1040.16
451.254	1047.61
451.628	1030.44
452.002	1020.95
452.376	1071.12
452.75	1079.7
453.123	1087.16
453.497	1086.93
453.871	1125.35
454.244	1131.45
454.618	1131
454.992	1130.32
455.365	1156.54
455.739	1169.87
456.112	1193.37
456.486	1180.94
456.859	1198.12
457.232	1244.44
457.606	1242.86
457.979	1253.71
458.352	1295.06
458.725	1299.13
459.099	1300.04
459.472	1301.62
459.845	1337.1
460.218	1315.86
460.591	1360.83
460.964	1358.11
461.337	1386.36
461.71	1424.1
462.083	1424.1
462.456	1434.95
462.829	1469.07
463.201	1475.63
463.574	1478.11
463.947	1509.07
464.32	1560.82
464.692	1543.87
465.065	1545
465.438	1589.52
465.81	1648.28
466.183	1633.36
466.555	1661.38
466.928	1694.15
467.3	1714.49
467.672	1741.61
468.045	1759.01
468.417	1796.07
468.789	1814.6
469.161	1826.58
469.534	1863.86
469.906	1899.12
470.278	1959.68
470.65	1970.3
471.022	2034.93
471.394	2074.03
471.766	2086.91
472.138	2138.43
472.51	2161.93
472.882	2215.27
473.253	2264.53
473.625	2278.54
473.997	2361.03
474.369	2386.11
474.74	2436.5
475.112	2511.3
475.484	2543.39
475.855	2597.18
476.227	2637.85
476.598	2737.29
476.97	2776.16
477.341	2862.48
477.713	2935.93
478.084	2986.55
478.455	3055.92
478.827	3144.06
479.198	3230.38
479.569	3276.71
479.94	3411.85
480.311	3446.19
480.682	3547.66
481.053	3713.76
481.424	3795.56
481.795	3866.97
482.166	3975.67
482.537	4050.02
482.908	4171.83
483.279	4250.02
483.65	4378.6
484.021	4517.13
484.391	4608.2
484.762	4765.93
485.133	4823.33
485.503	4969.32
485.874	5076.21
486.244	5152.59
486.615	5331.79
486.985	5440.04
487.356	5636.19
487.726	5721.16
488.097	5901.95
488.467	5948.05
488.837	6161.83
489.207	6284.99
489.578	6399.79
489.948	6563.63
490.318	6750.74
490.688	6825.54
491.058	6973.11
491.428	7107.12
491.798	7298.75
492.168	7493.55
492.538	7558.4
492.908	7762.01
493.278	7893.76
493.648	8007.88
494.017	8176.24
494.387	8258.95
494.757	8445.39
495.126	8600.41
495.496	8700.75
495.866	8802.66
496.235	8952.04
496.605	9141.41
496.974	9266.15
497.344	9355.87
497.713	9473.83
498.082	9637.22
498.452	9763.54
498.821	9779.14
499.19	9898
499.559	10068.62
499.928	10156.07
500.298	10239.01
500.667	10465.45
501.036	10436.29
501.405	10607.36
501.774	10650.75
502.143	10822.95
502.512	10854.36
502.88	11045.99
503.249	11074.69
503.618	11274.46
503.987	11239.21
504.356	11320.34
504.724	11469.49
505.093	11483.72
505.462	11591.74
505.83	11716.49
506.199	11839.65
506.567	11982.47
506.936	11981.34
507.304	12131.62
507.672	12242.35
508.041	12356.69
508.409	12384.94
508.777	12481.44
509.145	12556.01
509.514	12585.39
509.882	12671.71
510.25	12663.81
510.618	12870.81
510.986	12800.75
511.354	12886.85
511.722	12980.18
512.09	13076.9
512.458	13106.73
512.826	13301.08
513.193	13304.92
513.561	13276.22
513.929	13340.85
514.297	13494.52
514.664	13536.55
515.032	13585.14
515.4	13719.37
515.767	13719.37
516.135	13754.85
516.502	13705.59
516.869	13896.54
517.237	13985.13
517.604	13919.37
517.972	14031.23
518.339	14102.41
518.706	13966.37
519.073	14099.7
519.44	14055.41
519.808	14242.3
520.175	14222.41
520.542	14327.49
520.909	14468.28
521.276	14446.36
521.643	14494.49
522.009	14529.75
522.376	14578.78
522.743	14603.42
523.11	14708.95
523.477	14857.19
523.843	14815.61
524.21	14876.63
524.577	15009.96
524.943	14967.25
525.31	14986
525.676	15047.25
526.043	15091.09
526.409	15193.91
526.776	15125.44
527.142	15188.03
527.508	15267.8
527.874	15229.61
528.241	15332.66
528.607	15332.89
528.973	15405.65
529.339	15317.75
529.705	15360.23
530.071	15491.53
530.437	15517.74
530.803	15478.87
531.169	15527.91
531.535	15400.68
531.901	15521.58
532.267	15481.13
532.632	15590.96
532.998	15512.09
533.364	15492.43
533.73	15452.43
534.095	15457.63
534.461	15539.89
534.826	15600.45
535.192	15481.81
535.557	15625.54
535.923	15490.4
536.288	15505.99
536.653	15524.52
537.019	15333.57
537.384	15553
537.749	15436.16
538.114	15372.21
538.479	15366.56
538.845	15409.95
539.21	15273.91
539.575	15374.47
539.94	15293.79
540.305	15280.69
540.67	15288.14
541.034	15288.14
541.399	15169.73
541.764	15211.54
542.129	15221.93
542.494	15154.81
542.858	15154.59
543.223	15108.03
543.587	15141.03
543.952	15197.52
544.316	15160.91
544.681	14992.78
545.045	15074.36
545.41	15052.67
545.774	14967.93
546.138	14902.84
546.503	14957.98
546.867	14928.83
547.231	14980.13
547.595	14920.47
547.959	14812.68
548.324	14811.32
548.688	14792.79
549.052	14798.89
549.416	14802.05
549.779	14746.46
550.143	14750.98
550.507	14696.52
550.871	14708.27
551.235	14683.87
551.599	14746.46
551.962	14636.41
552.326	14654.94
552.689	14723.64
553.053	14539.46
553.417	14587.82
553.78	14615.62
554.143	14524.55
554.507	14548.05
554.87	14641.15
555.234	14672.57
555.597	14487.71
555.96	14525.23
556.323	14452.23
556.686	14420.14
557.05	14534.04
557.413	14504.66
557.776	14436.41
558.139	14532
558.502	14418.34
558.865	14361.39
559.228	14523.19
559.59	14460.82
559.953	14470.99
560.316	14537.43
560.679	14506.02
561.041	14522.29
561.404	14591.44
561.767	14609.74
562.129	14553.7
562.492	14681.15
562.854	14603.19
563.217	14504.21
563.579	14602.74
563.941	14637.09
564.304	14688.16
564.666	14714.82
565.028	14770.42
565.39	14674.83
565.753	14710.53
566.115	14722.96
566.477	14805.9
566.839	14799.12
567.201	14790.3
567.563	14760.7
567.925	14869.4
568.287	14851.77
568.648	14936.97
569.01	14917.31
569.372	14920.47
569.734	14950.3
570.095	14888.83
570.457	14984.2
570.819	14902.84
571.18	14989.17
571.542	15025.33
571.903	15040.01
572.265	15037.75
572.626	15048.6
572.987	14932.9
573.349	15060.13
573.71	15060.13
574.071	15021.94
574.432	15137.19
574.794	15219.9
575.155	15201.82
575.516	15175.15
575.877	15201.59
576.238	15161.14
576.599	15221.7
576.96	15256.96
577.32	15199.11
577.681	15277.52
578.042	15252.44
578.403	15176.06
578.763	15247.01
579.124	15231.2
579.485	15247.92
579.845	15346.22
580.206	15357.97
580.566	15195.72
580.927	15331.53
581.287	15283.4
581.648	15316.84
582.008	15304.87
582.368	15273.45
582.728	15232.78
583.089	15245.66
583.449	15199.56
583.809	15246.34
584.169	15248.82
584.529	15158.88
584.889	15271.65
585.249	15161.14
585.609	15111.2
585.969	15266.9
586.329	15212.21
586.688	15188.48
587.048	15157.98
587.408	15178.32
587.768	15070.07
588.127	15152.78
588.487	15097.19
588.846	15180.8
589.206	15071.2
589.565	14978.55
589.925	15122.27
590.284	15037.75
590.643	15087.02
591.003	15046.79
591.362	15111.2
591.721	15059
592.08	15109.62
592.44	15025.55
592.799	15237.52
593.158	15066.23
593.517	15047.92
593.876	15071.43
594.235	14978.09
594.593	15053.57
594.952	15015.16
595.311	14991.2
595.67	15002.5
596.029	15108.03
596.387	15056.06
596.746	14967.25
597.104	14999.56
597.463	14924.99
597.822	15002.73
598.18	14933.8
598.538	14868.27
598.897	14978.55
599.255	14841.38
599.613	15105.1
599.972	15007.92
600.33	15044.31
600.688	14939.68
601.046	15033.69
601.404	15089.05
601.762	15078.66
602.12	15055.38
602.478	15034.82
602.836	15125.21
603.194	14947.81
603.552	14943.29
603.91	14922.73
604.268	14966.57
604.625	14927.47
604.983	14981.26
605.341	14931.54
605.698	14938.55
606.056	14962.5
606.413	14982.39
606.771	15040.69
607.128	15019.45
607.485	14963.63
607.843	15002.05
608.2	15070.75
608.557	15131.31
608.914	15010.64
609.272	15181.48
609.629	15073.23
609.986	15183.74
610.343	15031.43
610.7	15289.95
611.057	15124.53
611.414	15079.56
611.771	15126.79
612.127	15206.11
612.484	15140.8
612.841	15230.52
613.198	15119.33
613.554	15207.47
613.911	15276.62
614.267	15259.9
614.624	15198.65
614.98	15157.98
615.337	15254.47
615.693	15187.58
616.05	15291.53
616.406	15359.1
616.762	15390.74
617.118	15336.5
617.475	15332.21
617.831	15359.1
618.187	15365.88
618.543	15370.17
618.899	15445.43
619.255	15424.41
619.611	15413.79
619.967	15516.61
620.323	15512.09
620.678	15426.22
621.034	15441.36
621.39	15475.03
621.746	15433.22
622.101	15553
622.457	15409.04
622.812	15376.05
623.168	15494.24
623.523	15420.34
623.879	15599.32
624.234	15387.35
624.589	15492.21
624.945	15417.63
625.3	15504.86
625.655	15392.55
626.01	15361.36
626.365	15517.29
626.72	15484.3
627.075	15469.16
627.43	15416.28
627.785	15443.39
628.14	15378.99
628.495	15425.31
628.85	15349.84
629.205	15341.02
629.559	15473.68
629.914	15309.39
630.269	15364.98
630.623	15348.93
630.978	15348.71
631.332	15424.64
631.687	15379.44
632.041	15261.7
632.396	15361.81
632.75	15238.88
633.104	15210.86
633.459	15178.99
633.813	15159.56
634.167	15216.05
634.521	15179.67
634.875	15319.55
635.229	15207.02
635.583	15154.14
635.937	15122.95
636.291	15108.71
636.645	15041.37
636.999	15125.44
637.352	15047.7
637.706	14981.94
638.06	15067.13
638.413	14943.75
638.767	15032.33
639.121	14967.7
639.474	14847.7
639.828	14900.13
640.181	14901.71
640.534	14901.71
640.888	14903.29
641.241	14814.26
641.594	14903.75
641.947	14867.59
642.301	14815.16
642.654	14847.48
643.007	14777.42
643.36	14797.08
643.713	14777.87
644.066	14797.53
644.419	14717.54
644.771	14639.8
645.124	14509.86
645.477	14479.8
645.83	14455.17
646.182	14379.24
646.535	14239.36
646.888	14352.57
647.24	14288.62
647.593	14295.4
647.945	14262.18
648.298	14282.75
648.65	14276.64
649.002	14158
649.355	14314.84
649.707	14235.52
650.059	14331.33
650.411	14497.88
650.763	14508.28
651.115	14637.31
651.467	14575.39
651.819	14689.97
652.171	14640.93
652.523	14574.72
652.875	14585.11
653.227	14518.45
653.578	14616.75
653.93	14598.44
654.282	14531.55
654.633	14554.6
654.985	14537.65
655.337	14477.32
655.688	14609.74
656.039	14588.05
656.391	14425.57
656.742	14562.06
657.094	14494.04
657.445	14667.59
657.796	14539.91
658.147	14502.18
658.498	14541.72
658.849	14536.07
659.2	14587.82
659.551	14512.12
659.902	14569.97
660.253	14629.86
660.604	14617.43
660.955	14584.88
661.306	14561.83
661.656	14563.87
662.007	14641.83
662.358	14574.72
662.708	14666.46
663.059	14597.99
663.409	14544.66
663.76	14698.55
664.11	14610.87
664.461	14717.08
664.811	14709.18
665.161	14728.38
665.511	14692.45
665.862	14730.42
666.212	14680.48
666.562	14652
666.912	14599.57
667.262	14575.62
667.612	14655.84
667.962	14657.2
668.312	14657.2
668.662	14747.14
669.011	14708.95
669.361	14570.65
669.711	14565
670.06	14534.94
670.41	14521.16
670.76	14487.71
671.109	14601.83
671.459	14565.45
671.808	14468.05
672.157	14521.38
672.507	14443.65
672.856	14465.57
673.205	14498.79
673.554	14582.63
673.904	14441.16
674.253	14504.66
674.602	14449.07
674.951	14273.48
675.3	14201.84
675.649	14369.52
675.998	14365.46
676.346	14360.26
676.695	14435.96
677.044	14369.07
677.393	14409.97
677.741	14333.59
678.09	14307.6
678.438	14270.77
678.787	14300.15
679.135	14260.37
679.484	14206.82
679.832	14159.13
680.181	14190.09
680.529	14054.96
680.877	14141.51
681.225	14071.23
681.573	14243.2
681.922	14057.44
682.27	13929.31
682.618	14069.64
682.966	14006.37
683.314	14027.16
683.661	14017.44
684.009	13958.69
684.357	13911
684.705	13853.6
685.053	13824.23
685.4	13871.01
685.748	13794.4
686.095	13759.6
686.443	13678.24
686.79	13656.32
687.138	13687.51
687.485	13744.68
687.832	13622.88
688.18	13630.33
688.527	13544.01
688.874	13454.97
689.221	13533.84
689.568	13468.53
689.915	13447.74
690.262	13424.24
690.609	13401.19
690.956	13321.87
691.303	13280.29
691.65	13317.8
691.997	13246.61
692.344	13183.57
692.69	13080.07
693.037	13084.13
693.383	13002.55
693.73	13004.81
694.077	12998.71
694.423	12949.9
694.769	12869
695.116	12810.47
695.462	12819.51
695.808	12749.68
696.155	12756.23
696.501	12585.16
696.847	12653.86
697.193	12521.21
697.539	12571.38
697.885	12472.17
698.231	12384.72
698.577	12428.33
698.923	12379.97
699.269	12262.01
699.614	12186.53
699.96	12209.35
700.306	12209.35
700.651	12101.11
700.997	12135.91
701.342	11986.31
701.688	12005.97
702.033	11993.09
702.379	11985.86
702.724	11821.34
703.069	11950.6
703.415	11714.9
703.76	11723.04
704.105	11744.06
704.45	11717.16
704.795	11565.76
705.14	11582.7
705.485	11623.15
705.83	11514.68
706.175	11594.46
706.52	11491.63
706.865	11427.68
707.209	11459.54
707.554	11380.68
707.899	11387
708.243	11317.63
708.588	11206.67
708.932	11265.88
709.277	11204.86
709.621	11249.83
709.966	11168.03
710.31	11194.92
710.654	11053.68
710.998	11036.28
711.342	11038.54
711.687	10956.96
712.031	10987.24
712.375	10960.57
712.719	10989.05
713.063	10910.41
713.407	10990.4
713.75	10919.44
714.094	10903.63
714.438	10806.68
714.782	10830.18
715.125	10760.13
715.469	10843.97
715.812	10755.83
716.156	10687.13
716.499	10662.28
716.843	10662.95
717.186	10610.53
717.53	10651.2
717.873	10704.76
718.216	10660.47
718.559	10559
718.902	10469.74
719.246	10617.08
719.589	10537.31
719.932	10512.45
720.275	10434.03
720.617	10484.65
720.96	10456.63
721.303	10475.16
721.646	10418.21
721.989	10376.41
722.331	10366.46
722.674	10360.14
723.016	10381.83
723.359	10382.28
723.701	10372.34
724.044	10406.01
724.386	10329.86
724.729	10387.26
725.071	10321.72
725.413	10326.24
725.755	10332.57
726.097	10283.08
726.439	10246.47
726.782	10185.45
727.124	10304.32
727.465	10173.48
727.807	10282.63
728.149	10236.3
728.491	10160.37
728.833	10250.54
729.175	10112.23
729.516	10221.38
729.858	10169.86
730.199	10140.93
730.541	10192.23
730.882	10124.44
731.224	10265
731.565	10157.66
731.906	10174.61
732.248	10119.01
732.589	10124.66
732.93	10092.8
733.271	10091.9
733.612	10151.33
733.953	10120.6
734.294	10064.55
734.635	10053.93
734.976	10139.58
735.317	10083.31
735.658	10150.88
735.999	10092.8
736.339	10094.61
736.68	10216.41
737.021	10062.97
737.361	10089.86
737.702	10133.25
738.042	10122.4
738.383	10081.73
738.723	10170.31
739.063	10138.22
739.404	10224.77
739.744	10182.29
740.084	10140.26
740.424	10229.75
740.764	10185.45
741.104	10218.9
741.444	10225.45
741.784	10161.72
742.124	10283.76
742.464	10296.64
742.804	10306.81
743.143	10264.77
743.483	10349.29
743.823	10302.51
744.162	10364.43
744.502	10399.23
744.841	10333.92
745.181	10454.82
745.52	10435.62
745.86	10527.59
746.199	10552.45
746.538	10539.34
746.877	10548.61
747.216	10683.29
747.556	10733.46
747.895	10778.43
748.234	10789.73
748.573	10865.66
748.911	10954.92
749.25	10938.2
749.589	11066.56
749.928	11076.95
750.267	11182.94
750.605	11227.23
750.944	11340.45
751.283	11373.9
751.621	11421.8
751.96	11529.82
752.298	11697.96
752.636	11744.73
752.975	11745.41
753.313	11823.15
753.651	12047.1
753.989	12056.36
754.327	12201.44
754.666	12278.73
755.004	12443.25
755.342	12541.77
755.679	12715.78
756.017	12776.8
756.355	12939.5
756.693	13026.73
757.031	13240.51
757.368	13313.96
757.706	13504.46
758.044	13581.3
758.381	13758.24
758.719	13867.84
759.056	14032.81
759.394	14141.51
759.731	14262.18
760.068	14389.86
760.405	14570.87
760.743	14709.18
761.08	15008.83
761.417	15026
761.754	15264.64
762.091	15468.25
762.428	15515.48
762.765	15698.53
763.102	15894.23
763.438	16008.58
763.775	16023.94
764.112	16347.1
764.449	16538.73
764.785	16618.05
765.122	16600.65
765.458	16854.66
765.795	16927.42
766.131	17186.85
766.467	17252.84
766.804	17433.62
767.14	17411.7
767.476	17573.73
767.812	17634.3
768.148	17891.01
768.485	17887.62
768.821	17980.05
769.157	18151.8
769.492	18219.37
769.828	18422.52
770.164	18510.66
770.5	18520.37
770.836	18648.96
771.171	18662.52
771.507	18865.9
771.842	18738
772.178	18939.35
772.513	19033.58
772.849	18995.16
773.184	19192.45
773.519	19176.85
773.855	19163.75
774.19	19198.1
774.525	19307.25
774.86	19427.24
775.195	19466.11
775.53	19486.68
775.865	19450.07
776.2	19444.87
776.535	19383.85
776.87	19501.82
777.205	19518.09
777.539	19698.87
777.874	19752.21
778.209	19622.49
778.543	19654.58
778.878	19628.14
779.212	19659.1
779.547	19734.35
779.881	19674.02
780.215	19654.13
780.55	19665.88
780.884	19631.98
781.218	19710.17
781.552	19821.58
781.886	19732.55
782.22	19708.82
782.554	19759.89
782.888	19468.37
783.222	19502.5
783.556	19498.2
783.889	19461.37
784.223	19532.78
784.557	19443.06
784.89	19528.03
785.224	19294.82
785.557	19363.52
785.891	19405.1
786.224	19339.34
786.558	19265.44
786.891	19250.75
787.224	19194.71
787.557	19250.07
787.891	19219.11
788.224	19131.21
788.557	19214.82
788.89	19097.53
789.223	19154.48
789.556	19090.98
789.888	19086.24
790.221	18996.29
790.554	18965.56
790.887	18913.36
791.219	18847.15
791.552	18841.5
791.884	18756.53
792.217	18734.61
792.549	18691.22
792.882	18636.3
793.214	18578.9
793.546	18706.13
793.879	18584.33
794.211	18409.64
794.543	18504.33
794.875	18399.47
795.207	18510.21
795.539	18344.11
795.871	18414.39
796.203	18204.68
796.535	18099.59
796.867	18262.98
797.198	18178.01
797.53	18176.2
797.862	18023.21
798.193	18031.8
798.525	17953.84
798.856	17960.84
799.188	17818.7
799.519	17838.13
799.85	17700.06
800.182	17725.14
800.513	17703.22
800.844	17600.4
801.175	17597.24
801.506	17730.34
801.837	17601.53
802.168	17569.21
802.499	17470.91
802.83	17366.51
803.161	17303.91
803.491	17389.33
803.822	17315.21
804.153	17273.63
804.483	17166.51
804.814	17064.14
805.145	17109.79
805.475	17050.58
805.805	16974.88
806.136	16973.07
806.466	17039.28
806.796	16992.96
807.126	16852.4
807.457	16706.41
807.787	16793.41
808.117	16705.28
808.447	16804.04
808.777	16630.48
809.107	16714.77
809.436	16562.23
809.766	16602.01
810.096	16577.6
810.426	16493.54
810.755	16474.78
811.085	16432.29
811.414	16423.93
811.744	16300.09
812.073	16274.56
812.403	16334.22
812.732	16207.22
813.061	16216.25
813.39	16143.94
813.719	16124.28
814.049	16264.84
814.378	16033.43
814.707	15977.62
815.036	16002.93
815.365	15937.39
815.693	15828.24
816.022	15860.56
816.351	15833.67
816.68	15761.8
817.008	15857.17
817.337	15677.06
817.665	15659.66
817.994	15763.84
818.322	15674.35
818.651	15581.02
818.979	15459.21
819.307	15648.36
819.636	15580.79
819.964	15450.62
820.292	15515.03
820.62	15449.49
820.948	15402.72
821.276	15472.32
821.604	15452.88
821.932	15509.38
822.259	15418.54
822.587	15399.1
822.915	15438.87
823.243	15435.94
823.57	15384.64
823.898	15422.38
824.225	15318.2
824.553	15291.53
824.88	15454.47
825.207	15449.27
825.535	15363.62
825.862	15486.56
826.189	15294.92
826.516	15429.83
826.843	15475.93
827.17	15509.61
827.497	15438.2
827.824	15418.99
828.151	15465.31
828.478	15404.52
828.805	15569.94
829.131	15486.1
829.458	15394.36
829.785	15345.99
830.111	15401.13
830.438	15431.64
830.764	15437.74
831.09	15368.37
831.417	15341.7
831.743	15476.61
832.069	15423.28
832.395	15393.45
832.722	15382.38
833.048	15357.75
833.374	15341.25
833.7	15255.83
834.026	15309.61
834.351	15326.56
834.677	15263.06
835.003	15322.49
835.329	15310.29
835.654	15295.6
835.98	15134.93
836.306	15263.29
836.631	15245.43
836.956	15198.43
837.282	15154.36
837.607	15127.47
837.932	15058.09
838.258	15117.53
838.583	15105.1
838.908	14939.23
839.233	14987.81
839.558	14978.77
839.883	14854.48
840.208	14925.21
840.533	14836.4
840.858	14886.8
841.182	14845.44
841.507	14840.47
841.832	14837.08
842.156	14761.38
842.481	14801.38
842.805	14800.02
843.13	14665.33
843.454	14699.23
843.778	14632.34
844.103	14514.6
844.427	14567.26
844.751	14569.97
845.075	14426.47
845.399	14446.36
845.723	14409.75
846.047	14414.49
846.371	14279.36
846.695	14273.25
847.019	14104.22
847.343	14099.7
847.666	14029.42
847.99	13990.32
848.313	13964.56
848.637	13910.1
848.96	13866.71
849.284	13804.34
849.607	13731.8
849.931	13689.99
850.254	13651.8
850.577	13550.34
850.9	13446.38
851.223	13443.9
851.546	13334.3
851.869	13244.36
852.192	13334.3
852.515	13211.14
852.838	13184.47
853.161	13100.86
853.483	13075.09
853.806	12963.68
854.129	12986.06
854.451	12948.09
854.774	12873.07
855.096	12866.96
855.419	12844.37
855.741	12829.9
856.063	12758.27
856.385	12709
856.708	12637.14
857.03	12656.35
857.352	12567.99
857.674	12481.66
857.996	12474.21
858.318	12439.86
858.64	12465.17
858.961	12432.63
859.283	12383.59
859.605	12310.82
859.926	12388.11
860.248	12270.6
860.57	12231.95
860.891	12272.86
861.212	12174.55
861.534	12177.72
861.855	12134.55
862.176	12058.62
862.498	12042.8
862.819	12047.78
863.14	12072.18
863.461	12004.84
863.782	12017.04
864.103	11985.41
864.424	11966.2
864.745	11941.79
865.065	11825.64
865.386	11921.23
865.707	11875.13
866.027	11816.14
866.348	11874.22
866.668	11834
866.989	11730.95
867.309	11739.76
867.63	11794.68
867.95	11685.98
868.27	11608.01
868.59	11642.59
868.91	11643.95
869.23	11636.94
869.55	11583.61
869.87	11672.87
870.19	11616.38
870.51	11624.51
870.83	11584.29
871.15	11566.66
871.469	11482.82
871.789	11465.64
872.109	11482.37
872.428	11407.79
872.748	11443.5
873.067	11431.97
873.386	11409.83
873.706	11378.19
874.025	11308.81
874.344	11422.26
874.663	11254.8
874.982	11355.37
875.301	11292.99
875.62	11337.29
875.939	11247.12
876.258	11275.59
876.577	11220.23
876.896	11169.83
877.214	11136.16
877.533	11117.18
877.852	11178.87
878.17	11134.58
878.489	11043.96
878.807	11156.05
879.125	11044.41
879.444	11035.6
879.762	10995.37
880.08	11008.71
880.398	11014.13
880.716	10997.41
881.034	10903.4
881.352	10935.04
881.67	10888.26
881.988	10900.46
882.306	10893.23
882.624	10792.22
882.941	10680.58
883.259	10743.4
883.577	10684.87
883.894	10613.01
884.212	10703.63
884.529	10675.84
884.846	10627.47
885.164	10553.13
885.481	10607.59
885.798	10583.86
886.115	10469.06
886.432	10521.94
886.75	10436.52
887.067	10516.74
887.383	10437.42
887.7	10427.03
888.017	10407.37
888.334	10387.93
888.651	10300.03
888.967	10339.35
889.284	10295.51
889.6	10286.92
889.917	10205.56
890.233	10226.81
890.55	10158.56
890.866	10206.92
891.182	10005.57
891.498	10042.18
891.815	9985.68
892.131	10010.54
892.447	9955.4
892.763	9964.22
893.079	9901.62
893.395	9914.5
893.71	9858.68
894.026	9810.1
894.342	9806.71
894.657	9695.07
894.973	9718.12
895.289	9793.37
895.604	9685.13
895.92	9632.47
896.235	9626.6
896.55	9592.47
896.865	9488.52
897.181	9559.03
897.496	9480.84
897.811	9444.23
898.126	9438.58
898.441	9348.19
898.756	9363.1
899.071	9262.99
899.386	9361.97
899.7	9157.91
900.015	9211.47
900.33	9155.2
900.644	9173.73
900.959	9226.61
901.273	9081.53
901.588	9048.31
901.902	9036.78
902.216	9002.43
902.531	8983.68
902.845	8981.64
903.159	8874.3
903.473	8863.45
903.787	8845.6
904.101	8721.76
904.415	8815.55
904.729	8755.43
905.042	8635.44
905.356	8663.01
905.67	8628.21
905.984	8566.29
906.297	8551.82
906.611	8515.44
906.924	8551.15
907.237	8458.72
907.551	8367.65
907.864	8413.07
908.177	8291.27
908.491	8317.25
908.804	8320.64
909.117	8267.76
909.43	8203.58
909.743	8177.82
910.056	8168.1
910.368	8133.53
910.681	8086.52
910.994	8120.2
911.307	8053.98
911.619	7981.44
911.932	7963.59
912.244	7886.98
912.557	7902.8
912.869	7877.72
913.181	7779.64
913.494	7793.43
913.806	7769.02
914.118	7683.82
914.43	7680.21
914.742	7657.38
915.054	7604.5
915.366	7626.65
915.678	7597.27
915.99	7459.2
916.302	7484.73
916.613	7445.19
916.925	7439.08
917.236	7410.38
917.548	7442.93
917.859	7366.54
918.171	7337.17
918.482	7339.65
918.794	7252.87
919.105	7237.96
919.416	7206.55
919.727	7138.75
920.038	7160.22
920.349	7111.64
920.66	7072.99
920.971	7117.06
921.282	7025.08
921.593	7055.59
921.903	6945.99
922.214	6973.56
922.525	6936.72
922.835	6907.12
923.146	6827.8
923.456	6867.8
923.767	6793.23
924.077	6754.81
924.387	6719.33
924.697	6700.12
925.008	6689.95
925.318	6645.88
925.628	6630.97
925.938	6593.46
926.248	6524.31
926.558	6568.6
926.867	6485.21
927.177	6520.01
927.487	6484.53
927.796	6376.51
928.106	6433.91
928.416	6384.65
928.725	6382.84
929.034	6275.95
929.344	6338.32
929.653	6280.02
929.962	6231.43
930.271	6228.72
930.581	6235.73
930.89	6155.95
931.199	6137.88
931.508	6110.98
931.817	6137.88
932.125	6074.15
932.434	6062.62
932.743	6019.46
933.051	6001.61
933.36	5975.85
933.669	5995.96
933.977	5939.91
934.286	5892.68
934.594	5891.1
934.902	5853.14
935.21	5812.23
935.519	5849.3
935.827	5777.21
936.135	5759.58
936.443	5710.32
936.751	5689.53
937.059	5690.43
937.367	5674.38
937.674	5693.37
937.982	5656.31
938.29	5588.51
938.597	5594.39
938.905	5477.78
939.213	5529.3
939.52	5470.1
939.827	5469.87
940.135	5450.66
940.442	5450.66
940.749	5434.62
941.056	5424.45
941.363	5375.64
941.67	5341.29
941.977	5299.25
942.284	5288.63
942.591	5272.59
942.898	5267.39
943.205	5227.62
943.511	5204.34
943.818	5190.78
944.125	5099.26
944.431	5170.22
944.738	5137.68
945.044	5073.72
945.35	5098.58
945.657	5025.81
945.963	5035.76
946.269	4962.54
946.575	5004.35
946.881	4954.4
947.187	4943.56
947.493	4968.41
947.799	4915.53
948.105	4843.22
948.41	4847.06
948.716	4886.16
949.022	4829.89
949.327	4793.05
949.633	4766.16
949.938	4716.22
950.244	4735.2
950.549	4698.37
950.854	4706.27
951.16	4690.23
951.465	4632.83
951.77	4639.16
952.075	4603.45
952.38	4607.52
952.685	4564.81
952.99	4530.91
953.294	4515.32
953.599	4496.11
953.904	4464.02
954.209	4486.39
954.513	4468.09
954.818	4377.7
955.122	4450.24
955.426	4383.57
955.731	4363.46
956.035	4343.57
956.339	4342.67
956.643	4326.85
956.948	4327.98
957.252	4284.59
957.556	4226.74
957.86	4273.52
958.163	4235.33
958.467	4207.08
958.771	4177.02
959.075	4138.61
959.378	4157.36
959.682	4165.5
959.985	4103.35
960.289	4095.22
960.592	4047.76
960.896	4045.5
961.199	4061.77
961.502	4030.13
961.805	3992.62
962.108	3946.97
962.411	4002.79
962.714	3970.93
963.017	3931.38
963.32	3978.61
963.623	3908.33
963.926	3897.93
964.228	3874.43
964.531	3844.15
964.833	3845.73
965.136	3846.41
965.438	3801.21
965.741	3821.33
966.043	3822.68
966.345	3775.45
966.648	3782.01
966.95	3722.12
967.252	3675.12
967.554	3682.57
967.856	3669.01
968.158	3663.14
968.46	3628.79
968.761	3674.89
969.063	3632.18
969.365	3602.57
969.666	3577.94
969.968	3543.59
970.269	3543.59
970.571	3564.61
970.872	3501.11
971.174	3517.15
971.475	3495.23
971.776	3460.21
972.077	3479.19
972.378	3479.19
972.679	3446.42
972.98	3462.92
973.281	3376.14
973.582	3372.3
973.883	3390.15
974.183	3350.38
974.484	3372.75
974.785	3337.95
975.085	3316.93
975.386	3310.15
975.686	3293.66
975.986	3292.98
976.287	3249.36
976.587	3267.67
976.887	3218.18
977.187	3219.99
977.487	3202.59
977.787	3186.54
978.087	3187.9
978.387	3160.33
978.687	3160.55
978.987	3111.97
979.286	3149.03
979.586	3127.11
979.885	3102.25
980.185	3075.13
980.484	3062.48
980.784	3058.86
981.083	3009.14
981.382	3026.54
981.682	2982.03
981.981	2989.48
982.28	2973.89
982.579	2945.87
982.878	2933.44
983.177	2939.32
983.475	2919.88
983.774	2911.07
984.073	2892.54
984.372	2895.7
984.67	2893.89
984.969	2858.87
985.267	2831.3
985.566	2837.85
985.864	2798.08
986.162	2785.42
986.461	2797.85
986.759	2792.43
987.057	2769.6
987.355	2750.62
987.653	2757.85
987.951	2744.97
988.249	2687.34
988.547	2681.7
988.844	2675.82
989.142	2695.03
989.44	2705.42
989.737	2637.85
990.035	2629.27
990.332	2602.15
990.63	2596.73
990.927	2601.25
991.224	2600.12
991.521	2621.58
991.819	2613.45
992.116	2554.92
992.413	2580.45
992.71	2513.11
993.006	2504.98
993.303	2482.38
993.6	2525.54
993.897	2504.07
994.193	2525.77
994.49	2464.75
994.787	2431.08
995.083	2461.59
995.379	2412.55
995.676	2403.06
995.972	2424.53
996.268	2386.34
996.565	2357.18
996.861	2353.57
997.157	2340.69
997.453	2318.99
997.749	2340.46
998.044	2292.78
998.34	2296.85
998.636	2299.11
998.932	2264.3
999.227	2248.03
999.523	2291.65
999.818	2247.58
1000.114	2267.24
1000.409	2221.37
1000.704	2214.59
1001	2204.42
1001.295	2212.55
1001.59	2200.13
1001.885	2156.51
1002.18	2173.01
1002.475	2123.29
1002.77	2138.66
1003.065	2145.21
1003.359	2093.01
1003.654	2094.82
1003.949	2104.54
1004.243	2075.38
1004.538	2055.5
1004.832	2076.74
1005.127	2026.35
1005.421	2021.6
1005.715	2023.86
1006.009	2017.31
1006.304	1974.59
1006.598	1984.31
1006.892	1952.22
1007.186	1979.57
1007.48	1937.08
1007.773	1934.6
1008.067	1905.9
1008.361	1896.4
1008.655	1925.1
1008.948	1899.57
1009.242	1900.7
1009.535	1872.22
1009.829	1851.21
1010.122	1861.15
1010.415	1839.01
1010.708	1837.65
1011.001	1813.7
1011.295	1802.62
1011.588	1801.27
1011.881	1785.22
1012.173	1765.79
1012.466	1759.91
1012.759	1780.7
1013.052	1747.93
1013.344	1769.85
1013.637	1767.14
1013.93	1732.12
1014.222	1703.42
1014.514	1700.25
1014.807	1682.63
1015.099	1697.09
1015.391	1660.03
1015.683	1652.57
1015.976	1662.29
1016.268	1654.6
1016.56	1608.28
1016.851	1645.34
1017.143	1600.82
1017.435	1598.56
1017.727	1564.89
1018.018	1578
1018.31	1572.8
1018.602	1563.08
1018.893	1547.26
1019.185	1545.68
1019.476	1522.4
1019.767	1560.59
1020.058	1532.57
1020.35	1490.54
1020.641	1481.95
1020.932	1492.35
1021.223	1469.52
1021.514	1465.23
1021.804	1415.97
1022.095	1424.33
1022.386	1403.31
1022.677	1401.95
1022.967	1399.24
1023.258	1385.91
1023.548	1405.57
1023.839	1408.51
1024.129	1383.88
1024.419	1382.75
1024.709	1326.93
1025	1368.51
1025.29	1317.89
1025.58	1336.87
1025.87	1312.01
1026.16	1291.9
1026.449	1313.82
1026.739	1278.79
1027.029	1283.99
1027.319	1303.43
1027.608	1279.25
1027.898	1261.85
1028.187	1274.95
1028.477	1226.59
1028.766	1235.18
1029.055	1222.07
1029.344	1225.46
1029.634	1216.42
1029.923	1214.84
1030.212	1231.79
1030.501	1197.89
1030.79	1174.84
1031.078	1156.31
1031.367	1164.67
1031.656	1154.96
1031.945	1150.21
1032.233	1169.19
1032.522	1140.94
1032.81	1123.54
1033.099	1143.66
1033.387	1148.18
1033.675	1113.15
1033.963	1105.92
1034.251	1113.6
1034.54	1099.14
1034.828	1089.42
1035.116	1073.83
1035.403	1066.14
1035.691	1073.15
1035.979	1066.37
1036.267	1064.79
1036.554	1042.19
1036.842	1030.89
1037.129	1032.47
1037.417	1013.26
1037.704	1013.04
1037.992	997.45
1038.279	1008.97
1038.566	1004.23
1038.853	1004.23
1039.14	1004.23
