Data from hue_120_FLMS001491_00057.txt Node
Date: Tue Feb 07 16:59:40 GMT 2017
User: dcchb
Spectrometer: FLMS00149
Trigger mode: 0
Integration Time (sec): 2.000000E-2
Scans to average: 10
Electric dark correction enabled: true
Nonlinearity correction enabled: false
Boxcar width: 0
XAxis mode: Wavelengths
Number of Pixels in Spectrum: 2048
>>>>>Begin Spectral Data<<<<<
341.393	2.54
341.776	2.54
342.16	2.54
342.543	-53.28
342.927	-74.07
343.31	-48.53
343.693	-64.57
344.077	-64.12
344.46	-60.05
344.843	-69.55
345.226	-36.1
345.61	-28.87
345.993	-20.96
346.376	-18.47
346.759	23.33
347.142	13.39
347.525	42.32
347.908	63.56
348.291	77.34
348.674	89.09
349.057	102.2
349.44	126.38
349.823	143.78
350.206	169.77
350.588	193.72
350.971	192.59
351.354	209.77
351.737	231.46
352.119	240.73
352.502	242.08
352.884	283.89
353.267	274.63
353.65	299.94
354.032	310.33
354.414	320.05
354.797	307.17
355.179	317.34
355.562	320.27
355.944	308.3
356.326	333.38
356.709	336.77
357.091	331.8
357.473	332.7
357.855	345.36
358.238	318.92
358.62	322.76
359.002	341.52
359.384	318.47
359.766	326.38
360.148	328.18
360.53	333.61
360.912	344.91
361.294	330.22
361.676	315.3
362.057	328.41
362.439	324.12
362.821	324.12
363.203	309.43
363.584	310.1
363.966	341.74
364.348	311.01
364.729	315.98
365.111	316.43
365.493	320.73
365.874	313.72
366.256	320.27
366.637	281.63
367.019	341.06
367.4	300.61
367.781	312.59
368.163	318.47
368.544	293.83
368.925	327.28
369.306	296.77
369.688	327.28
370.069	297.9
370.45	308.3
370.831	305.59
371.212	299.26
371.593	320.73
371.974	295.87
372.355	309.88
372.736	337.22
373.117	325.25
373.498	323.44
373.879	318.69
374.26	330.67
374.641	306.04
375.021	308.3
375.402	309.65
375.783	320.05
376.163	342.65
376.544	330.67
376.925	318.92
377.305	329.99
377.686	312.14
378.066	337.45
378.447	314.4
378.827	330.44
379.208	345.58
379.588	330.67
379.968	318.69
380.349	366.15
380.729	329.99
381.109	337.22
381.489	343.78
381.87	336.09
382.25	341.06
382.63	348.3
383.01	334.96
383.39	336.09
383.77	327.73
384.15	324.79
384.53	350.56
384.91	342.19
385.29	357.11
385.67	352.36
386.049	350.1
386.429	345.58
386.809	359.82
387.189	334.06
387.568	360.5
387.948	361.85
388.328	345.58
388.707	367.05
389.087	362.53
389.466	379.48
389.846	365.7
390.225	362.08
390.605	347.62
390.984	361.4
391.363	361.63
391.743	371.8
392.122	393.27
392.501	396.43
392.881	382.19
393.26	380.39
393.639	365.24
394.018	383.55
394.397	343.55
394.776	373.83
395.155	369.31
395.534	391.91
395.913	393.94
396.292	391.01
396.671	377.45
397.05	402.76
397.429	390.1
397.808	382.19
398.186	386.26
398.565	398.01
398.944	404.57
399.323	421.29
399.701	402.53
400.08	371.12
400.458	391.91
400.837	401.18
401.215	405.7
401.594	391.01
401.972	420.16
402.351	398.01
402.729	391.01
403.107	410.22
403.486	427.62
403.864	430.1
404.242	440.72
404.62	447.28
404.999	433.72
405.377	412.25
405.755	426.94
406.133	452.47
406.511	417.67
406.889	430.33
407.267	421.74
407.645	427.62
408.023	421.51
408.401	455.41
408.779	438.24
409.156	431.91
409.534	477.33
409.912	450.89
410.29	435.53
410.667	457.22
411.045	451.8
411.422	477.11
411.8	467.39
412.178	463.32
412.555	452.93
412.933	472.36
413.31	470.78
413.687	459.48
414.065	484.34
414.442	489.08
414.819	479.37
415.197	490.44
415.574	481.17
415.951	534.51
416.328	511.23
416.705	497.22
417.082	491.79
417.46	524.11
417.837	522.53
418.214	512.81
418.591	501.96
418.967	503.55
419.344	525.01
419.721	510.55
420.098	517.56
420.475	543.32
420.852	515.75
421.228	551.68
421.605	529.76
421.982	539.7
422.358	544.22
422.735	551.91
423.111	575.63
423.488	545.13
423.864	551.45
424.241	584.22
424.617	587.84
424.994	563.66
425.37	588.52
425.746	571.79
426.123	575.18
426.499	579.02
426.875	575.63
427.251	606.82
427.627	591.45
428.003	596.88
428.379	612.7
428.756	616.54
429.132	604.33
429.507	624.67
429.883	588.29
430.259	622.19
430.635	623.32
431.011	639.36
431.387	651.34
431.763	656.54
432.138	633.03
432.514	651.56
432.89	664.45
433.265	663.77
433.641	677.55
434.016	682.98
434.392	699.7
434.767	671.45
435.143	711.45
435.518	724.33
435.894	721.39
436.269	728.85
436.644	708.96
437.02	718.23
437.395	742.18
437.77	738.57
438.145	734.05
438.52	762.52
438.895	752.35
439.271	761.84
439.646	771.56
440.021	762.52
440.395	776.76
440.77	777.44
441.145	800.94
441.52	799.81
441.895	769.75
442.27	791.22
442.645	795.06
443.019	828.96
443.394	828.74
443.769	806.36
444.143	833.93
444.518	817.66
444.892	806.59
445.267	826.93
445.641	814.05
446.016	822.63
446.39	836.42
446.764	855.4
447.139	853.37
447.513	854.72
447.887	846.81
448.262	867.83
448.636	848.17
449.01	879.81
449.384	891.11
449.758	902.86
450.132	886.13
450.506	890.88
450.88	909.86
451.254	919.58
451.628	896.08
452.002	927.72
452.376	892.91
452.75	964.1
453.123	941.05
453.497	974.04
453.871	967.49
454.244	967.26
454.618	976.08
454.992	1018.79
455.365	991.44
455.739	1022.85
456.112	1034.38
456.486	1032.57
456.859	1045.9
457.232	1064.66
457.606	1040.48
457.979	1070.54
458.352	1083.64
458.725	1081.61
459.099	1116.86
459.472	1148.27
459.845	1157.99
460.218	1139.46
460.591	1178.1
460.964	1181.95
461.337	1164.32
461.71	1203.64
462.083	1216.3
462.456	1231.44
462.829	1260.14
463.201	1268.27
463.574	1246.13
463.947	1266.01
464.32	1314.37
464.692	1314.6
465.065	1352.11
465.438	1332.68
465.81	1360.92
466.183	1393.47
466.555	1427.59
466.928	1415.84
467.3	1430.98
467.672	1466.46
468.045	1516.63
468.417	1500.81
468.789	1533.8
469.161	1567.25
469.534	1596.17
469.906	1609.51
470.278	1641.82
470.65	1650.18
471.022	1711.88
471.394	1731.31
471.766	1760.01
472.138	1799.11
472.51	1829.84
472.882	1866.67
473.253	1861.25
473.625	1912.32
473.997	1959.33
474.369	2005.43
474.74	2015.6
475.112	2071.41
475.484	2164.75
475.855	2216.72
476.227	2202.71
476.598	2274.8
476.97	2336.04
477.341	2380.78
477.713	2428.69
478.084	2490.39
478.455	2596.37
478.827	2628.69
479.198	2713.66
479.569	2751.85
479.94	2865.74
480.311	2892.41
480.682	3013.99
481.053	3070.48
481.424	3152.06
481.795	3231.61
482.166	3361.55
482.537	3390.48
482.908	3507.31
483.279	3627.76
483.65	3702.11
484.021	3797.24
484.391	3902.33
484.762	4004.92
485.133	4081.53
485.503	4188.19
485.874	4305.48
486.244	4424.35
486.615	4561.52
486.985	4597.9
487.356	4776.2
487.726	4897.78
488.097	5057.1
488.467	5090.54
488.837	5218.22
489.207	5386.36
489.578	5502.74
489.948	5619.34
490.318	5734.82
490.688	5861.6
491.058	5986.11
491.428	6095.04
491.798	6291.87
492.168	6408.48
492.538	6543.61
492.908	6660.9
493.278	6852.98
493.648	6889.82
494.017	7005.3
494.387	7099.08
494.757	7219.98
495.126	7422.01
495.496	7518.5
495.866	7634.43
496.235	7705.84
496.605	7857.93
496.974	8000.98
497.344	8131.82
497.713	8222.89
498.082	8312.61
498.452	8425.37
498.821	8508.08
499.19	8602.32
499.559	8686.16
499.928	8852.93
500.298	8917.79
500.667	9110.33
501.036	9137.44
501.405	9282.52
501.774	9305.8
502.143	9458.56
502.512	9468.73
502.88	9613.82
503.249	9703.53
503.618	9764.55
503.987	9865.33
504.356	10005.9
504.724	10017.65
505.093	10104.42
505.462	10194.14
505.83	10203.18
506.199	10337.86
506.567	10430.52
506.936	10488.14
507.304	10593.9
507.672	10605.65
508.041	10721.36
508.409	10811.75
508.777	10943.5
509.145	10999.99
509.514	10962.25
509.882	11112.98
510.25	11041.12
510.618	11138.97
510.986	11175.81
511.354	11328.35
511.722	11366.99
512.09	11462.35
512.458	11431.85
512.826	11479.3
513.193	11546.19
513.561	11565.4
513.929	11744.83
514.297	11712.74
514.664	11758.17
515.032	11774.21
515.4	11872.74
515.767	11962.68
516.135	11869.35
516.502	11842.68
516.869	12058.04
517.237	12075.22
517.604	11993.19
517.972	12014.88
518.339	12092.62
518.706	12130.58
519.073	12238.15
519.44	12253.75
519.808	12383.46
520.175	12277.47
520.542	12405.83
520.909	12496
521.276	12406.51
521.643	12523.57
522.009	12550.69
522.376	12599.95
522.743	12527.18
523.11	12690.57
523.477	12698.71
523.843	12766.73
524.21	12839.04
524.577	12885.14
524.943	12880.4
525.31	12897.34
525.676	12944.57
526.043	12965.14
526.409	12950.68
526.776	13053.5
527.142	13079.26
527.508	12997.68
527.874	13111.58
528.241	13086.04
528.607	13014.86
528.973	13154.74
529.339	13128.3
529.705	13170.33
530.071	13170.56
530.437	13221.63
530.803	13185.47
531.169	13192.93
531.535	13134.17
531.901	13090.11
532.267	13117.9
532.632	13123.33
532.998	13158.58
533.364	13200.39
533.73	13132.37
534.095	13192.03
534.461	13159.71
534.826	13227.96
535.192	13196.09
535.557	13159.71
535.923	13061.41
536.288	13062.99
536.653	13110.9
537.019	13019.83
537.384	12981.86
537.749	12922.43
538.114	13016.44
538.479	12977.79
538.845	13025.25
539.21	12848.98
539.575	12794.75
539.94	12857.35
540.305	12827.97
540.67	12836.1
541.034	12714.3
541.399	12792.49
541.764	12690.57
542.129	12734.41
542.494	12703.68
542.858	12750.91
543.223	12605.6
543.587	12619.61
543.952	12559.73
544.316	12554.3
544.681	12530.12
545.045	12432.95
545.41	12508.65
545.774	12479.05
546.138	12455.77
546.503	12415.78
546.867	12378.04
547.231	12397.47
547.595	12346.17
547.959	12345.04
548.324	12299.39
548.688	12274.08
549.052	12208.55
549.416	12144.37
549.779	12126.52
550.143	12155.22
550.507	12206.74
550.871	12161.54
551.235	12053.3
551.599	12082.22
551.962	12076.8
552.326	12129.91
552.689	12017.14
553.053	11901.66
553.417	11939.86
553.78	12003.13
554.143	11884.94
554.507	11880.87
554.87	11924.26
555.234	11975.56
555.597	11862.57
555.96	11821.89
556.323	11847.2
556.686	11754.78
557.05	11875.68
557.413	11866.64
557.776	11823.47
558.139	11781.67
558.502	11788
558.865	11852.85
559.228	11811.72
559.59	11829.35
559.953	11782.35
560.316	11939.18
560.679	11823.7
561.041	11800.88
561.404	11908.9
561.767	11900.08
562.129	11739.63
562.492	11880.42
562.854	11846.98
563.217	11813.53
563.579	11749.35
563.941	11869.57
564.304	11914.09
564.666	11936.47
565.028	11863.02
565.39	11904.6
565.753	11986.86
566.115	11933.53
566.477	11932.62
566.839	11955.22
567.201	11994.32
567.563	11973.53
567.925	11955.67
568.287	11952.06
568.648	12043.13
569.01	12027.08
569.372	12094.43
569.734	12113.41
570.095	12129.46
570.457	12110.25
570.819	12144.82
571.18	12082
571.542	12173.07
571.903	12106.18
572.265	12161.09
572.626	12195.67
572.987	12134.43
573.349	12208.32
573.71	12208.1
574.071	12192.05
574.432	12215.55
574.794	12284.71
575.155	12246.06
575.516	12194.09
575.877	12293.29
576.238	12275.89
576.599	12237.25
576.96	12246.29
577.32	12257.14
577.681	12261.43
578.042	12322.44
578.403	12287.42
578.763	12234.31
579.124	12362.9
579.485	12296.46
579.845	12331.94
580.206	12314.53
580.566	12306.4
580.927	12342.33
581.287	12354.99
581.648	12306.63
582.008	12326.06
582.368	12293.74
582.728	12300.75
583.089	12334.65
583.449	12348.66
583.809	12315.89
584.169	12218.72
584.529	12209.9
584.889	12277.93
585.249	12238.83
585.609	12209
585.969	12300.3
586.329	12202.9
586.688	12236.8
587.048	12291.71
587.408	12220.53
587.768	12191.6
588.127	12161.77
588.487	12143.69
588.846	12208.32
589.206	12090.13
589.565	12115.44
589.925	12206.97
590.284	12113.64
590.643	12150.47
591.003	12188.44
591.362	12164.71
591.721	12069.34
592.08	12095.11
592.44	12225.05
592.799	12065.5
593.158	12086.52
593.517	12006.29
593.876	12057.14
594.235	12106.4
594.593	12045.39
594.952	12094.43
595.311	12007.2
595.67	12110.25
596.029	12093.3
596.387	12096.24
596.746	12172.17
597.104	12015.56
597.463	11978.5
597.822	12031.6
598.18	12003.13
598.538	12014.2
598.897	12065.95
599.255	11933.53
599.613	12132.17
599.972	12051.27
600.33	12064.82
600.688	11977.14
601.046	12018.05
601.404	12047.42
601.762	12062.56
602.12	12116.12
602.478	12017.37
602.836	12075.22
603.194	12017.37
603.552	12013.3
603.91	12101.43
604.268	11966.97
604.625	11994.09
604.983	12026.18
605.341	12030.47
605.698	12133.75
606.056	12070.25
606.413	12112.51
606.771	12116.57
607.128	12083.13
607.485	12036.58
607.843	12034.09
608.2	12126.29
608.557	12035.67
608.914	12040.87
609.272	12199.51
609.629	12099.85
609.986	12169.91
610.343	12092.85
610.7	12172.62
611.057	12182.79
611.414	12122.45
611.771	12159.51
612.127	12252.39
612.484	12145.73
612.841	12226.63
613.198	12213.97
613.554	12210.58
613.911	12241.99
614.267	12255.1
614.624	12256.23
614.98	12292.61
615.337	12313.63
615.693	12309.79
616.05	12263.69
616.406	12435.21
616.762	12338.94
617.118	12285.16
617.475	12295.55
617.831	12313.41
618.187	12409.45
618.543	12365.61
618.899	12410.13
619.255	12465.72
619.611	12275.21
619.967	12450.12
620.323	12430.01
620.678	12332.39
621.034	12395.89
621.39	12363.57
621.746	12389.11
622.101	12470.01
622.457	12382.78
622.812	12394.53
623.168	12420.52
623.523	12462.1
623.879	12443.35
624.234	12423.91
624.589	12458.49
624.945	12390.69
625.3	12455.1
625.655	12409.67
626.01	12441.54
626.365	12423.46
626.72	12410.35
627.075	12373.97
627.43	12367.87
627.785	12409.67
628.14	12344.36
628.495	12368.09
628.85	12329.45
629.205	12329.9
629.559	12442.22
629.914	12337.13
630.269	12395.21
630.623	12314.99
630.978	12309.34
631.332	12317.02
631.687	12354.76
632.041	12274.99
632.396	12245.38
632.75	12265.95
633.104	12229.57
633.459	12237.25
633.813	12230.24
634.167	12163.13
634.521	12145.73
634.875	12171.04
635.229	12157.7
635.583	12066.63
635.937	12115.44
636.291	12216.68
636.645	12098.72
636.999	12047.42
637.352	12094.88
637.706	11997.26
638.06	12058.95
638.413	12092.39
638.767	11996.58
639.121	11959.74
639.474	12018.5
639.828	12036.12
640.181	12001.1
640.534	12027.76
640.888	11895.79
641.241	11835.45
641.594	11890.59
641.947	11907.77
642.301	11864.15
642.654	11904.15
643.007	11917.71
643.36	11926.75
643.713	11884.26
644.066	11883.59
644.419	11777.15
644.771	11668.45
645.124	11545.52
645.477	11613.76
645.83	11530.15
646.182	11477.72
646.535	11526.53
646.888	11517.04
647.24	11500.32
647.593	11519.75
647.945	11514.33
648.298	11502.58
648.65	11377.84
649.002	11418.97
649.355	11475.91
649.707	11479.53
650.059	11497.61
650.411	11642.46
650.763	11665.06
651.115	11841.1
651.467	11685.4
651.819	11756.58
652.171	11659.18
652.523	11675.68
652.875	11651.95
653.227	11670.71
653.578	11738.73
653.93	11636.59
654.282	11647.43
654.633	11645.63
654.985	11686.75
655.337	11666.42
655.688	11726.53
656.039	11794.32
656.391	11639.75
656.742	11621.22
657.094	11764.04
657.445	11717.04
657.796	11688.56
658.147	11687.43
658.498	11728.11
658.849	11638.85
659.2	11647.43
659.551	11707.77
659.902	11682.01
660.253	11671.16
660.604	11772.4
660.955	11674.33
661.306	11724.95
661.656	11714.32
662.007	11771.95
662.358	11772.63
662.708	11803.81
663.059	11765.85
663.409	11670.03
663.76	11807.88
664.11	11799.29
664.461	11772.18
664.811	11804.27
665.161	11791.16
665.511	11800.65
665.862	11757.04
666.212	11741.22
666.562	11837.26
666.912	11733.53
667.262	11774.44
667.612	11747.09
667.962	11737.6
668.312	11721.1
668.662	11802.91
669.011	11730.6
669.361	11726.3
669.711	11707.55
670.06	11715.45
670.41	11678.17
670.76	11763.81
671.109	11710.26
671.459	11709.35
671.808	11686.3
672.157	11770.82
672.507	11656.02
672.856	11579.64
673.205	11674.55
673.554	11695.12
673.904	11571.73
674.253	11667.77
674.602	11654.21
674.951	11481.79
675.3	11367.44
675.649	11599.07
675.998	11549.81
676.346	11561.33
676.695	11602.46
677.044	11525.18
677.393	11559.75
677.741	11531.5
678.09	11538.74
678.438	11407.67
678.787	11500.32
679.135	11509.58
679.484	11429.36
679.832	11413.32
680.181	11416.03
680.529	11428.68
680.877	11373.99
681.225	11365.63
681.573	11412.19
681.922	11300.32
682.27	11301.45
682.618	11289.93
682.966	11287.9
683.314	11264.62
683.661	11142.81
684.009	11147.11
684.357	11109.37
684.705	11132.87
685.053	11117.5
685.4	11091.52
685.748	11048.58
686.095	10971.07
686.443	11018.75
686.79	10960.67
687.138	11037.73
687.485	11000.45
687.832	10956.38
688.18	10936.72
688.527	10902.14
688.874	10840.9
689.221	10876.15
689.568	10828.02
689.915	10786.89
690.262	10769.49
690.609	10668.25
690.956	10747.34
691.303	10705.76
691.65	10596.84
691.997	10660.12
692.344	10546.9
692.69	10560.68
693.037	10450.86
693.383	10435.04
693.73	10447.47
694.077	10387.35
694.423	10261.93
694.769	10360.91
695.116	10264.19
695.462	10280.46
695.808	10229.39
696.155	10319.79
696.501	10196.85
696.847	10143.29
697.193	10080.47
697.539	10112.33
697.885	10023.52
698.231	9988.95
698.577	9964.54
698.923	9959.79
699.269	9904.2
699.614	9845.9
699.96	9861.94
700.306	9833.24
700.651	9815.17
700.997	9792.79
701.342	9699.24
701.688	9710.99
702.033	9611.78
702.379	9596.64
702.724	9632.8
703.069	9564.32
703.415	9438.68
703.76	9459.92
704.105	9463.54
704.45	9433.48
704.795	9373.82
705.14	9388.96
705.485	9278.68
705.83	9307.38
706.175	9224.9
706.52	9272.36
706.865	9198.01
707.209	9151
707.554	9175.41
707.899	9213.6
708.243	9159.82
708.588	9146.26
708.932	9028.52
709.277	9074.62
709.621	9064.22
709.966	9006.15
710.31	8980.39
710.654	8915.3
710.998	9013.15
711.342	8901.52
711.687	8918.47
712.031	8816.55
712.375	8900.61
712.719	8895.42
713.063	8796.66
713.407	8917.11
713.75	8760.73
714.094	8750.33
714.438	8726.38
714.782	8836.43
715.125	8606.38
715.469	8688.64
715.812	8680.05
716.156	8631.24
716.499	8610.45
716.843	8627.63
717.186	8544.46
717.53	8600.96
717.873	8636.21
718.216	8546.27
718.559	8566.61
718.902	8540.4
719.246	8516.22
719.589	8490
719.932	8470.57
720.275	8461.98
720.617	8508.53
720.96	8477.12
721.303	8478.7
721.646	8508.76
721.989	8477.35
722.331	8429.21
722.674	8441.87
723.016	8422.43
723.359	8414.98
723.701	8406.39
724.044	8366.62
724.386	8350.8
724.729	8351.25
725.071	8388.76
725.413	8382.43
725.755	8315.54
726.097	8308.76
726.439	8276.68
726.782	8261.99
727.124	8321.19
727.465	8259.73
727.807	8303.34
728.149	8286.62
728.491	8242.55
728.833	8281.19
729.175	8254.3
729.516	8260.63
729.858	8296.79
730.199	8281.19
730.541	8260.63
730.882	8270.12
731.224	8288.2
731.565	8190.12
731.906	8230.12
732.248	8221.99
732.589	8151.93
732.93	8129.79
733.271	8152.84
733.612	8199.39
733.953	8166.85
734.294	8230.35
734.635	8215.43
734.976	8212.72
735.317	8156.68
735.658	8179.28
735.999	8199.39
736.339	8208.43
736.68	8329.33
737.021	8211.14
737.361	8171.14
737.702	8254.3
738.042	8193.06
738.383	8157.36
738.723	8295.88
739.063	8290.69
739.404	8235.77
739.744	8287.3
740.084	8271.48
740.424	8337.69
740.764	8348.54
741.104	8376.56
741.444	8312.83
741.784	8292.72
742.124	8360.97
742.464	8462.21
742.804	8360.29
743.143	8401.87
743.483	8431.02
743.823	8351.02
744.162	8383.34
744.502	8450.23
744.841	8524.13
745.181	8522.54
745.52	8538.82
745.86	8577.46
746.199	8574.97
746.538	8647.29
746.877	8639.38
747.216	8669.89
747.556	8775.87
747.895	8776.77
748.234	8866.26
748.573	8869.88
748.911	8879.15
749.25	9016.77
749.589	9036.66
749.928	9057.45
750.267	9217.44
750.605	9259.93
750.944	9234.39
751.283	9350.32
751.621	9453.14
751.96	9481.39
752.298	9622.63
752.636	9768.16
752.975	9769.97
753.313	9843.64
753.651	9964.77
753.989	10086.34
754.327	10186.23
754.666	10255.38
755.004	10413.79
755.342	10555.03
755.679	10585.99
756.017	10757.06
756.355	10898.75
756.693	11013.78
757.031	11148.46
757.368	11260.78
757.706	11378.97
758.044	11498.29
758.381	11653.54
758.719	11760.88
759.056	12022.34
759.394	11991.15
759.731	12216.68
760.068	12355.66
760.405	12518.6
760.743	12633.17
761.08	12818.48
761.417	13008.75
761.754	13070.22
762.091	13216.21
762.428	13441.51
762.765	13467.95
763.102	13752.92
763.438	13859.13
763.775	13907.94
764.112	14107.26
764.449	14362.39
764.785	14509.73
765.122	14556.28
765.458	14631.76
765.795	14930.06
766.131	15043.5
766.467	15101.13
766.804	15187.23
767.14	15257.51
767.476	15479.42
767.812	15597.61
768.148	15774.56
768.485	15873.31
768.821	15763.71
769.157	16088.9
769.492	16207.31
769.828	16308.78
770.164	16280.98
770.5	16437.14
770.836	16520.53
771.171	16557.36
771.507	16685.95
771.842	16712.39
772.178	16946.5
772.513	16924.81
772.849	17030.34
773.184	17040.74
773.519	17199.83
773.855	17257.91
774.19	17320.05
774.525	17248.87
774.86	17406.38
775.195	17538.8
775.53	17517.11
775.865	17461.29
776.2	17484.79
776.535	17523.21
776.87	17564.11
777.205	17538.35
777.539	17666.26
777.874	17705.81
778.209	17593.72
778.543	17704
778.878	17626.71
779.212	17746.03
779.547	17690.66
779.881	17803.88
780.215	17774.96
780.55	17928.17
780.884	17731.57
781.218	17816.09
781.552	17860.6
781.886	17751.91
782.22	17848.17
782.554	17860.6
782.888	17754.62
783.222	17782.19
783.556	17643.89
783.889	17734.73
784.223	17572.48
784.557	17680.95
784.89	17738.8
785.224	17649.31
785.557	17587.39
785.891	17656.54
786.224	17563.66
786.558	17592.59
786.891	17531.35
787.224	17528.41
787.557	17467.39
787.891	17643.43
788.224	17496.77
788.557	17464.68
788.89	17454.51
789.223	17354.4
789.556	17289.32
789.888	17380.16
790.221	17329.09
790.554	17200.73
790.887	17209.55
791.219	17228.76
791.552	17207.06
791.884	17162.32
792.217	17085.03
792.549	17060.17
792.882	16924.13
793.214	16916.45
793.546	17020.17
793.879	16852.04
794.211	16783.57
794.543	16846.39
794.875	16813.4
795.207	16916
795.539	16794.42
795.871	16785.83
796.203	16616.34
796.535	16599.17
796.867	16684.14
797.198	16532.96
797.53	16555.78
797.862	16457.25
798.193	16530.24
798.525	16465.84
798.856	16421.55
799.188	16252.74
799.519	16194.21
799.85	16174.32
800.182	16181.55
800.513	16229.01
800.844	15995.57
801.175	16189.46
801.506	16196.47
801.837	16043.93
802.168	16036.7
802.499	16021.1
802.83	15895.46
803.161	15858.85
803.491	15830.37
803.822	15908.11
804.153	15811.39
804.483	15687.33
804.814	15636.03
805.145	15622.47
805.475	15636.48
805.805	15458.86
806.136	15593.54
806.466	15570.04
806.796	15567.78
807.126	15424.96
807.457	15396.71
807.787	15435.81
808.117	15357.84
808.447	15299.99
808.777	15366.21
809.107	15241.46
809.436	15182.26
809.766	15145.19
810.096	15065.42
810.426	15137.29
810.755	15119.88
811.085	15051.64
811.414	14989.27
811.744	14939.32
812.073	14966.22
812.403	14932.32
812.732	14862.94
813.061	14867.24
813.39	14773.68
813.719	14763.28
814.049	14825.2
814.378	14803.51
814.707	14751.76
815.036	14630.86
815.365	14641.48
815.693	14606
816.022	14555.38
816.351	14490.07
816.68	14470.18
817.008	14465.89
817.337	14368.49
817.665	14366.23
817.994	14408.94
818.322	14375.27
818.651	14317.42
818.979	14180.02
819.307	14326.69
819.636	14210.98
819.964	14176.18
820.292	14215.95
820.62	14295.05
820.948	14197.2
821.276	14259.79
821.604	14157.2
821.932	14239.68
822.259	14155.84
822.587	14166.92
822.915	14181.38
823.243	14202.39
823.57	14201.49
823.898	14226.58
824.225	14160.81
824.553	14143.64
824.88	14156.75
825.207	14187.03
825.535	14135.05
825.862	14173.92
826.189	14132.11
826.516	14197.65
826.843	14180.02
827.17	14198.1
827.497	14142.28
827.824	14202.85
828.151	14158.78
828.478	14159.46
828.805	14203.75
829.131	14168.95
829.458	14182.96
829.785	14048.5
830.111	14143.64
830.438	14265.67
830.764	14144.77
831.09	14199.23
831.417	14081.72
831.743	14206.01
832.069	14154.26
832.395	14094.83
832.722	14188.38
833.048	14044.21
833.374	14127.59
833.7	14029.97
834.026	14088.73
834.351	14112
834.677	14001.04
835.003	14021.83
835.329	14072.23
835.654	13967.37
835.98	14029.29
836.306	13998.78
836.631	13929.86
836.956	13982.51
837.282	14008.95
837.607	13931.22
837.932	13821.39
838.258	13891.89
838.583	13806.93
838.908	13794.5
839.233	13837.88
839.558	13748.62
839.883	13725.57
840.208	13714.5
840.533	13748.85
840.858	13718.57
841.182	13714.5
841.507	13663.43
841.832	13517.67
842.156	13597.67
842.481	13525.8
842.805	13525.58
843.13	13498.91
843.454	13404.9
843.778	13421.85
844.103	13418.01
844.427	13344.34
844.751	13340.5
845.075	13297.33
845.399	13283.1
845.723	13265.47
846.047	13253.04
846.371	13134.63
846.695	13084.68
847.019	12994.52
847.343	12931.02
847.666	12978.7
847.99	12875.65
848.313	12865.48
848.637	12812.15
848.96	12760.4
849.284	12657.35
849.607	12550.23
849.931	12599.95
850.254	12576
850.577	12446.28
850.9	12414.19
851.223	12403.57
851.546	12365.16
851.869	12232.73
852.192	12423.46
852.515	12181.43
852.838	12119.74
853.161	12092.62
853.483	12030.93
853.806	12016.69
854.129	11995.9
854.451	11942.34
854.774	11888.56
855.096	11760.88
855.419	11811.05
855.741	11809.92
856.063	11709.81
856.385	11655.8
856.708	11695.57
857.03	11605.4
857.352	11646.53
857.674	11570.15
857.996	11481.56
858.318	11517.04
858.64	11540.54
858.961	11473.65
859.283	11400.66
859.605	11283.38
859.926	11350.49
860.248	11289.93
860.57	11295.35
860.891	11301.23
861.212	11190.95
861.534	11254.22
861.855	11101.69
862.176	11215.35
862.498	11151.85
862.819	11223.49
863.14	11056.71
863.461	11083.61
863.782	11138.97
864.103	11046.32
864.424	11000.45
864.745	11051.07
865.065	11009.26
865.386	10918.19
865.707	10919.09
866.027	10852.2
866.348	10870.28
866.668	10843.84
866.989	10868.47
867.309	10836.61
867.63	10768.13
867.95	10771.98
868.27	10699.21
868.59	10714.13
868.91	10700.79
869.23	10725.88
869.55	10676.39
869.87	10766.78
870.19	10701.47
870.51	10681.58
870.83	10714.13
871.15	10598.87
871.469	10640.45
871.789	10652.88
872.109	10586.22
872.428	10520.23
872.748	10583.06
873.067	10564.75
873.386	10569.5
873.706	10525.43
874.025	10415.38
874.344	10388.48
874.663	10452.66
874.982	10375.38
875.301	10428.48
875.62	10370.86
875.939	10374.92
876.258	10369.73
876.577	10318.43
876.896	10327.69
877.214	10254.48
877.533	10277.3
877.852	10234.36
878.17	10226
878.489	10283.4
878.807	10247.47
879.125	10204.76
879.444	10244.53
879.762	10121.82
880.08	10140.81
880.398	10177.19
880.716	10078.89
881.034	10141.71
881.352	10062.62
881.67	10071.88
881.988	10062.16
882.306	10037.76
882.624	10010.41
882.941	9987.36
883.259	9930.87
883.577	9932.22
883.894	9900.81
884.212	9927.71
884.529	9889.74
884.846	9784.66
885.164	9829.63
885.481	9751.66
885.798	9785.34
886.115	9728.39
886.432	9712.57
886.75	9673.25
887.067	9665.34
887.383	9679.12
887.7	9654.27
888.017	9608.17
888.334	9630.99
888.651	9598
888.967	9561.16
889.284	9497.89
889.6	9475.74
889.917	9432.12
890.233	9443.42
890.55	9357.78
890.866	9427.15
891.182	9359.58
891.498	9266.03
891.815	9293.6
892.131	9321.62
892.447	9227.84
892.763	9210.66
893.079	9124.11
893.395	9098.12
893.71	9126.82
894.026	9071.91
894.342	9102.87
894.657	8986.71
894.973	8925.47
895.289	9004.11
895.604	8950.78
895.92	8821.75
896.235	8888.86
896.55	8785.36
896.865	8845.02
897.181	8837.34
897.496	8746.27
897.811	8748.53
898.126	8691.35
898.441	8659.94
898.756	8627.17
899.071	8613.84
899.386	8593.73
899.7	8521.41
900.015	8482.32
900.33	8491.81
900.644	8431.93
900.959	8435.54
901.273	8399.84
901.588	8407.75
901.902	8350.35
902.216	8295.43
902.531	8257.47
902.845	8205.49
903.159	8179.5
903.473	8119.84
903.787	8108.77
904.101	8109.45
904.415	8096.57
904.729	8064.48
905.042	7994.65
905.356	8031.26
905.67	7949.68
905.984	8005.72
906.297	7902.67
906.611	7891.6
906.924	7821.09
907.237	7869.23
907.551	7834.65
907.864	7726.86
908.177	7628.78
908.491	7729.57
908.804	7644.15
909.117	7606.86
909.43	7585.39
909.743	7491.84
910.056	7511.27
910.368	7480.54
910.681	7416.58
910.994	7469.92
911.307	7405.06
911.619	7330.26
911.932	7342.01
912.244	7297.04
912.557	7248
912.869	7233.76
913.181	7209.81
913.494	7188.57
913.806	7142.47
914.118	7144.5
914.43	7073.99
914.742	7104.5
915.054	7049.59
915.366	7015.92
915.678	6983.6
915.99	6923.26
916.302	6875.58
916.613	6879.2
916.925	6869.48
917.236	6860.22
917.548	6797.17
917.859	6844.62
918.171	6768.92
918.482	6744.96
918.794	6754.91
919.105	6708.81
919.416	6613.89
919.727	6638.53
920.038	6592.2
920.349	6580.67
920.66	6539.77
920.971	6597.4
921.282	6532.77
921.593	6496.38
921.903	6495.03
922.214	6464.97
922.525	6396.72
922.835	6358.76
923.146	6374.13
923.456	6327.8
923.767	6293.9
924.077	6258.2
924.387	6219.55
924.697	6151.53
925.008	6174.58
925.318	6152.66
925.628	6182.94
925.938	6078.31
926.248	6069.73
926.558	6069.05
926.867	6005.55
927.177	6027.92
927.487	6039.22
927.796	5874.25
928.106	5900.24
928.416	5869.05
928.725	5870.18
929.034	5842.39
929.344	5853.91
929.653	5842.16
929.962	5850.98
930.271	5814.14
930.581	5699.79
930.89	5646.91
931.199	5689.4
931.508	5688.72
931.817	5676.97
932.125	5624.09
932.434	5598.1
932.743	5589.29
933.051	5562.85
933.36	5530.08
933.669	5514.26
933.977	5517.2
934.286	5489.4
934.594	5431.78
934.902	5424.09
935.21	5378.45
935.519	5397.2
935.827	5423.42
936.135	5319.24
936.443	5276.98
936.751	5281.05
937.059	5225.46
937.367	5262.07
937.674	5268.62
937.982	5225.91
938.29	5175.97
938.597	5160.15
938.905	5152.92
939.213	5076.99
939.52	5022.52
939.827	5092.8
940.135	5050.32
940.442	5057.32
940.749	5037.89
941.056	5001.28
941.363	4979.81
941.67	4943.88
941.977	4938.68
942.284	4879.02
942.591	4877.22
942.898	4815.07
943.205	4825.01
943.511	4841.29
943.818	4768.29
944.125	4784.34
944.431	4757.9
944.738	4780.27
945.044	4718.12
945.35	4693.94
945.657	4664.34
945.963	4670.89
946.269	4632.25
946.575	4608.07
946.881	4554.74
947.187	4551.12
947.493	4591.12
947.799	4538.69
948.105	4527.4
948.41	4487.4
948.716	4512.03
949.022	4457.57
949.327	4448.3
949.633	4427.06
949.938	4371.02
950.244	4428.87
950.549	4365.59
950.854	4309.77
951.16	4281.98
951.465	4302.32
951.77	4279.27
952.075	4267.97
952.38	4228.19
952.685	4240.4
952.99	4206.5
953.294	4173.96
953.599	4217.57
953.904	4169.44
954.209	4138.25
954.513	4122.89
954.818	4110.23
955.122	4127.86
955.426	4082.89
955.731	4043.34
956.035	4033.85
956.339	4014.19
956.643	4017.58
956.948	3963.57
957.252	3941.87
957.556	3940.29
957.86	3944.13
958.163	3954.53
958.467	3863.46
958.771	3925.15
959.075	3868.66
959.378	3818.49
959.682	3842.44
959.985	3790.47
960.289	3802.44
960.592	3794.53
960.896	3779.62
961.199	3772.61
961.502	3736.23
961.805	3693.29
962.108	3709.34
962.411	3681.54
962.714	3690.13
963.017	3642.67
963.32	3635.44
963.623	3631.6
963.926	3607.42
964.228	3586.63
964.531	3550.47
964.833	3605.61
965.136	3552.73
965.438	3537.82
965.741	3530.59
966.043	3491.94
966.345	3536.46
966.648	3434.32
966.95	3455.78
967.252	3458.27
967.554	3440.19
967.856	3398.61
968.158	3390.48
968.46	3324.49
968.761	3375.56
969.063	3402.23
969.365	3344.83
969.666	3339.63
969.968	3327.2
970.269	3299.4
970.571	3282.46
970.872	3321.78
971.174	3227.99
971.475	3248.56
971.776	3233.64
972.077	3227.77
972.378	3192.06
972.679	3199.07
972.98	3185.28
973.281	3157.71
973.582	3132.86
973.883	3118.84
974.183	3071.39
974.484	3133.53
974.785	3050.15
975.085	3079.07
975.386	3101.22
975.686	3065.96
975.986	3079.52
976.287	3042.24
976.587	2992.75
976.887	2986.64
977.187	3017.83
977.487	2989.58
977.787	2971.5
978.087	2953.88
978.387	2936.25
978.687	2913.88
978.987	2890.6
979.286	2869.13
979.586	2877.49
979.885	2858.06
980.185	2871.39
980.484	2824.61
980.784	2838.63
981.083	2809.02
981.382	2791.62
981.682	2799.76
981.981	2815.35
982.28	2778.06
982.579	2731.51
982.878	2731.74
983.177	2769.48
983.475	2731.74
983.774	2682.25
984.073	2673.21
984.372	2689.7
984.67	2658.97
984.969	2664.17
985.267	2654
985.566	2651.96
985.864	2601.57
986.162	2610.16
986.461	2575.58
986.759	2572.42
987.057	2582.81
987.355	2532.65
987.653	2563.83
987.951	2543.49
988.249	2537.16
988.547	2529.03
988.844	2481.57
989.142	2503.72
989.44	2490.16
989.737	2489.26
990.035	2451.52
990.332	2439.77
990.63	2453.55
990.927	2459.43
991.224	2399.54
991.521	2411.52
991.819	2410.61
992.116	2385.98
992.413	2367.9
992.71	2379.88
993.006	2345.53
993.303	2308.7
993.6	2345.76
993.897	2303.95
994.193	2326.1
994.49	2335.14
994.787	2331.52
995.083	2291.3
995.379	2265.53
995.676	2237.51
995.972	2245.2
996.268	2246.55
996.565	2212.88
996.861	2232.31
997.157	2200
997.453	2180.34
997.749	2187.8
998.044	2152.99
998.34	2136.27
998.636	2143.95
998.932	2132.88
999.227	2141.24
999.523	2121.58
999.818	2135.82
1000.114	2087.69
1000.409	2048.59
1000.704	2065.54
1001	2038.87
1001.295	2030.51
1001.59	2058.53
1001.885	2064.86
1002.18	1988.03
1002.475	2003.39
1002.77	1979.44
1003.065	1966.11
1003.359	1961.59
1003.654	1966.33
1003.949	1937.41
1004.243	1911.87
1004.538	1922.94
1004.832	1951.64
1005.127	1871.42
1005.421	1875.26
1005.715	1902.15
1006.009	1884.75
1006.304	1892.89
1006.598	1856.28
1006.892	1852.66
1007.186	1844.08
1007.48	1841.59
1007.773	1799.11
1008.067	1777.64
1008.361	1785.32
1008.655	1770.18
1008.948	1763.4
1009.242	1754.36
1009.535	1783.06
1009.829	1730.63
1010.122	1744.87
1010.415	1721.59
1010.708	1710.07
1011.001	1699.67
1011.295	1683.63
1011.588	1678.66
1011.881	1710.29
1012.173	1654.25
1012.466	1663.29
1012.759	1650.41
1013.052	1661.03
1013.344	1629.62
1013.637	1616.96
1013.93	1601.37
1014.222	1587.36
1014.514	1550.98
1014.807	1586.46
1015.099	1573.12
1015.391	1592.33
1015.683	1546.68
1015.976	1543.52
1016.268	1524.08
1016.56	1516.17
1016.851	1511.2
1017.143	1489.73
1017.435	1514.37
1017.727	1483.18
1018.018	1497.87
1018.31	1485.67
1018.602	1451.54
1018.893	1456.52
1019.185	1454.48
1019.476	1451.54
1019.767	1442.73
1020.058	1401.83
1020.35	1398.66
1020.641	1400.7
1020.932	1344.43
1021.223	1384.65
1021.514	1371.77
1021.804	1361.38
1022.095	1384.65
1022.386	1331.09
1022.677	1327.71
1022.967	1316.18
1023.258	1318.89
1023.548	1303.3
1023.839	1318.67
1024.129	1290.64
1024.419	1320.93
1024.709	1257.88
1025	1265.79
1025.29	1252
1025.58	1261.72
1025.87	1240.48
1026.16	1233.47
1026.449	1259.68
1026.739	1211.55
1027.029	1233.7
1027.319	1232.34
1027.608	1193.47
1027.898	1185.34
1028.187	1219.46
1028.477	1162.29
1028.766	1171.33
1029.055	1166.58
1029.344	1170.65
1029.634	1159.12
1029.923	1159.12
1030.212	1114.15
1030.501	1106.92
1030.79	1123.42
1031.078	1117.32
1031.367	1117.54
1031.656	1109.18
1031.945	1082.97
1032.233	1063.76
1032.522	1064.66
1032.81	1060.37
1033.099	1053.36
1033.387	1065.34
1033.675	1025.57
1033.963	1042.51
1034.251	1042.06
1034.54	1039.58
1034.828	1034.83
1035.116	987.38
1035.403	988.28
1035.691	992.57
1035.979	1015.85
1036.267	1002.52
1036.554	979.24
1036.842	969.52
1037.129	974.72
1037.417	983.76
1037.704	960.48
1037.992	934.72
1038.279	944.44
1038.566	934.95
1038.853	934.95
1039.14	934.95
