Data from hue_40_FLMS001491_18.txt Node
Date: Mon Feb 06 15:07:31 GMT 2017
User: dcchb
Spectrometer: FLMS00149
Trigger mode: 0
Integration Time (sec): 2.000000E-2
Scans to average: 10
Electric dark correction enabled: true
Nonlinearity correction enabled: false
Boxcar width: 0
XAxis mode: Wavelengths
Number of Pixels in Spectrum: 2048
>>>>>Begin Spectral Data<<<<<
341.393	-26.03
341.776	-26.03
342.16	-26.03
342.543	-71.68
342.927	-66.03
343.31	-74.16
343.693	-61.51
344.077	-42.3
344.46	-64
344.843	-57.89
345.226	-43.43
345.61	-16.31
345.993	-24.9
346.376	6.29
346.759	-5.47
347.142	38.83
347.525	21.65
347.908	46.96
348.291	66.62
348.674	96
349.057	113.63
349.44	117.02
349.823	140.74
350.206	173.51
350.588	200.86
350.971	190.01
351.354	223.23
351.737	262.55
352.119	241.31
352.502	237.69
352.884	278.82
353.267	291.25
353.65	291.93
354.032	274.3
354.414	291.25
354.797	312.04
355.179	311.14
355.562	306.16
355.944	314.3
356.326	337.35
356.709	353.85
357.091	345.26
357.473	359.72
357.855	329.44
358.238	345.94
358.62	330.34
359.002	321.76
359.384	328.76
359.766	328.76
360.148	335.77
360.53	333.06
360.912	345.03
361.294	325.6
361.676	316.79
362.057	328.76
362.439	312.94
362.821	326.05
363.203	317.24
363.584	339.84
363.966	315.2
364.348	330.57
364.729	329.21
365.111	314.98
365.493	332.6
365.874	297.8
366.256	338.25
366.637	317.24
367.019	298.03
367.4	306.62
367.781	327.41
368.163	322.66
368.544	321.08
368.925	325.37
369.306	334.19
369.688	298.71
370.069	303.45
370.45	341.42
370.831	318.82
371.212	314.53
371.593	297.35
371.974	296.45
372.355	327.41
372.736	319.5
373.117	344.81
373.498	321.76
373.879	327.63
374.26	329.89
374.641	317.69
375.021	326.95
375.402	319.95
375.783	320.63
376.163	340.74
376.544	315.88
376.925	309.33
377.305	323.56
377.686	325.37
378.066	328.99
378.447	324.47
378.827	324.24
379.208	344.36
379.588	317.69
379.968	344.81
380.349	343.9
380.729	329.89
381.109	337.8
381.489	333.28
381.87	340.29
382.25	326.5
382.63	345.03
383.01	352.72
383.39	350.68
383.77	339.16
384.15	327.63
384.53	342.55
384.91	331.93
385.29	349.1
385.67	321.08
386.049	341.42
386.429	375.99
386.809	354.07
387.189	344.81
387.568	348.2
387.948	339.16
388.328	359.72
388.707	350
389.087	370.34
389.466	355.65
389.846	341.64
390.225	371.25
390.605	345.94
390.984	368.54
391.363	379.16
391.743	383.22
392.122	372.15
392.501	372.38
392.881	378.93
393.26	361.76
393.639	371.47
394.018	381.87
394.397	383
394.776	386.84
395.155	390.23
395.534	376.9
395.913	399.95
396.292	395.65
396.671	385.71
397.05	371.7
397.429	383.9
397.808	376.22
398.186	380.06
398.565	390.23
398.944	391.36
399.323	378.7
399.701	383.68
400.08	401.75
400.458	393.85
400.837	398.82
401.215	403.56
401.594	406.5
401.972	398.82
402.351	395.43
402.729	403.34
403.107	402.88
403.486	403.11
403.864	416.67
404.242	418.25
404.62	407.86
404.999	423.45
405.377	418.03
405.755	412.83
406.133	420.06
406.511	423.45
406.889	410.57
407.267	404.92
407.645	419.16
408.023	422.55
408.401	427.74
408.779	437.91
409.156	435.2
409.534	443.56
409.912	438.14
410.29	440.4
410.667	445.37
411.045	445.82
411.422	443.11
411.8	452.15
412.178	467.74
412.555	460.28
412.933	442.88
413.31	454.86
413.687	466.84
414.065	455.76
414.442	465.48
414.819	473.84
415.197	492.83
415.574	482.66
415.951	495.31
416.328	495.31
416.705	495.76
417.082	471.81
417.46	491.47
417.837	472.94
418.214	489.44
418.591	502.54
418.967	519.04
419.344	499.15
419.721	510.45
420.098	525.37
420.475	516.1
420.852	517.68
421.228	512.94
421.605	509.77
421.982	520.17
422.358	531.47
422.735	558.14
423.111	537.34
423.488	532.15
423.864	536.67
424.241	545.93
424.617	541.41
424.994	550.23
425.37	558.36
425.746	568.98
426.123	566.72
426.499	568.3
426.875	578.93
427.251	578.7
427.627	577.57
428.003	594.29
428.379	590.45
428.756	595.2
429.132	607.63
429.507	597
429.883	592.71
430.259	634.97
430.635	622.99
431.011	619.83
431.387	616.66
431.763	644.91
432.138	635.42
432.514	645.14
432.89	643.1
433.265	637
433.641	663.44
434.016	664.12
434.392	658.47
434.767	646.95
435.143	650.11
435.518	663.89
435.894	661.64
436.269	713.39
436.644	678.58
437.02	707.96
437.395	690.56
437.77	735.31
438.145	730.79
438.52	718.13
438.895	717.23
439.271	729.2
439.646	742.54
440.021	708.64
440.395	754.29
440.77	733.27
441.145	745.02
441.52	756.1
441.895	773.72
442.27	771.46
442.645	745.7
443.019	778.24
443.394	771.69
443.769	778.92
444.143	781.41
444.518	769.43
444.892	802.2
445.267	771.01
445.641	772.82
446.016	784.57
446.39	791.35
446.764	810.56
447.139	797
447.513	821.63
447.887	799.26
448.262	805.59
448.636	824.79
449.01	828.86
449.384	841.97
449.758	845.36
450.132	856.43
450.506	856.43
450.88	840.39
451.254	868.86
451.628	869.09
452.002	895.3
452.376	877
452.75	907.73
453.123	894.4
453.497	903.66
453.871	883.1
454.244	924.45
454.618	890.56
454.992	928.29
455.365	926.94
455.739	948.41
456.112	956.99
456.486	985.02
456.859	994.96
457.232	984.34
457.606	991.57
457.979	1010.1
458.352	1005.81
458.725	1019.82
459.099	1031.12
459.472	1057.1
459.845	1079.03
460.218	1063.88
460.591	1086.71
460.964	1078.8
461.337	1098.46
461.71	1122.87
462.083	1133.94
462.456	1156.54
462.829	1130.1
463.201	1154.05
463.574	1179.14
463.947	1183.88
464.32	1218.46
464.692	1229.3
465.065	1240.83
465.438	1236.08
465.81	1279.92
466.183	1261.85
466.555	1317.89
466.928	1321.5
467.3	1323.76
467.672	1363.99
468.045	1371
468.417	1390.2
468.789	1403.76
469.161	1448.06
469.534	1444.89
469.906	1507.49
470.278	1499.81
470.65	1505.45
471.022	1558.56
471.394	1574.61
471.766	1598.79
472.138	1626.36
472.51	1652.34
472.882	1693.25
473.253	1729.4
473.625	1736.18
473.997	1751.55
474.369	1819.12
474.74	1839.68
475.112	1906.57
475.484	1930.98
475.855	1992
476.227	2036.06
476.598	2077.42
476.97	2094.14
477.341	2132.33
477.713	2203.06
478.084	2217.75
478.455	2356.05
478.827	2356.28
479.198	2432.21
479.569	2409.84
479.94	2543.62
480.311	2618.42
480.682	2697.97
481.053	2760.34
481.424	2820.9
481.795	2902.48
482.166	2946.09
482.537	3040.33
482.908	3132.3
483.279	3173.43
483.65	3274.9
484.021	3382.69
484.391	3416.82
484.762	3495.68
485.133	3592.41
485.503	3637.15
485.874	3785.39
486.244	3881.44
486.615	3971.6
486.985	4088.66
487.356	4164.37
487.726	4203.01
488.097	4360.97
488.467	4456.56
488.837	4573.85
489.207	4633.96
489.578	4777.46
489.948	4873.05
490.318	4997.57
490.688	5042.54
491.058	5177.22
491.428	5285.47
491.798	5420.61
492.168	5517.78
492.538	5606.14
492.908	5715.06
493.278	5845
493.648	5889.52
494.017	6079.12
494.387	6143.07
494.757	6267.14
495.126	6366.57
495.496	6401.82
495.866	6558.66
496.235	6665.09
496.605	6730.63
496.974	6875.26
497.344	6938.76
497.713	7015.14
498.082	7118.64
498.452	7246.77
498.821	7343.95
499.19	7397.05
499.559	7511.85
499.928	7617.84
500.298	7746.19
500.667	7867.77
501.036	7853.76
501.405	7993.19
501.774	8049.69
502.143	8145.73
502.512	8220.31
502.88	8315.22
503.249	8345.73
503.618	8481.54
503.987	8553.63
504.356	8661.42
504.724	8693.06
505.093	8708.43
505.462	8837.24
505.83	8915.43
506.199	9020.74
506.567	9174.86
506.936	9188.87
507.304	9346.83
507.672	9419.82
508.041	9459.37
508.409	9605.58
508.777	9618.69
509.145	9777.1
509.514	9780.49
509.882	9893.48
510.25	9866.14
510.618	10045.34
510.986	9917.44
511.354	10140.26
511.722	10200.14
512.09	10385.67
512.458	10329.18
512.826	10504.31
513.193	10494.14
513.561	10595.16
513.929	10726.23
514.297	10780.47
514.664	10846
515.032	10926.45
515.4	10972.78
515.767	11046.67
516.135	11143.62
516.502	11034.24
516.869	11213
517.237	11281.69
517.604	11276.27
517.972	11473.78
518.339	11573.21
518.706	11490.95
519.073	11594
519.44	11766.43
519.808	11869.02
520.175	11807.33
520.542	11923.49
520.909	12058.62
521.276	12149.92
521.643	12218.85
522.009	12310.37
522.376	12272.18
522.743	12365.51
523.11	12479.86
523.477	12608.44
523.843	12641.21
524.21	12810.92
524.577	12803.46
524.943	12994.19
525.31	13032.84
525.676	13224.02
526.043	13200.74
526.409	13325.93
526.776	13444.8
527.142	13438.02
527.508	13497.91
527.874	13695.87
528.241	13635.53
528.607	13775.87
528.973	13867.16
529.339	13908.97
529.705	14063.77
530.071	14227.61
530.437	14132.92
530.803	14272.58
531.169	14340.15
531.535	14392.57
531.901	14398.9
532.267	14533.36
532.632	14661.72
532.998	14605
533.364	14739.68
533.73	14759.8
534.095	14844.99
534.461	14957.76
534.826	15078.88
535.192	15064.19
535.557	15177.41
535.923	15191.87
536.288	15269.39
536.653	15345.32
537.019	15273
537.384	15491.3
537.749	15517.52
538.114	15487.91
538.479	15675.93
538.845	15766.55
539.21	15683.39
539.575	15744.63
539.94	15735.14
540.305	16005.86
540.67	15932.65
541.034	15992.08
541.399	16147.33
541.764	16089.7
542.129	16207.22
542.494	16257.16
542.858	16291.73
543.223	16310.26
543.587	16461.67
543.952	16409.7
544.316	16574.66
544.681	16618.28
545.045	16592.52
545.41	16747.77
545.774	16810.59
546.138	16816.69
546.503	16924.26
546.867	16832.74
547.231	17063.01
547.595	17051.49
547.959	17145.27
548.324	17132.61
548.688	17143.24
549.052	17231.14
549.416	17328.99
549.779	17261.88
550.143	17391.82
550.507	17577.57
550.871	17593.39
551.235	17529.67
551.599	17782.54
551.962	17729.43
552.326	17821.64
552.689	17845.82
553.053	17904.12
553.417	17949.54
553.78	18235.41
554.143	18043.55
554.507	18154.51
554.87	18175.07
555.234	18430.43
555.597	18236.77
555.96	18401.28
556.323	18506.82
556.686	18539.81
557.05	18612.12
557.413	18751.1
557.776	18727.6
558.139	18818.45
558.502	18810.08
558.865	18862.74
559.228	19034.71
559.59	19069.74
559.953	19164.88
560.316	19255.72
560.679	19271.09
561.041	19405.55
561.404	19511.53
561.767	19561.25
562.129	19572.78
562.492	19706.11
562.854	19785.65
563.217	19689.61
563.579	19870.4
563.941	20002.6
564.304	20154.23
564.666	20253.89
565.028	20189.71
565.39	20356.94
565.753	20514.67
566.115	20505.18
566.477	20553.99
566.839	20561.45
567.201	20732.97
567.563	20789.47
567.925	20857.26
568.287	20903.59
568.648	20921.44
569.01	20905.62
569.372	21083.02
569.734	21093.87
570.095	21257.03
570.457	21296.57
570.819	21381.99
571.18	21454.76
571.542	21617.02
571.903	21680.97
572.265	21837.35
572.626	21891.36
572.987	22020.85
573.349	21984.92
573.71	22117.57
574.071	22203.89
574.432	22203.89
574.794	22514.62
575.155	22549.65
575.516	22466.03
575.877	22687.27
576.238	22793.93
576.599	22977.21
576.96	22932.46
577.32	23085.23
577.681	23200.25
578.042	23382.85
578.403	23414.94
578.763	23640.01
579.124	23667.13
579.485	23887.47
579.845	24052.21
580.206	24096.95
580.566	24149.61
580.927	24396.38
581.287	24561.12
581.648	24531.74
582.008	24856.03
582.368	24928.12
582.728	25202.01
583.089	25274.1
583.449	25318.84
583.809	25550.25
584.169	25709.11
584.529	25759.05
584.889	26167.41
585.249	26006.96
585.609	26180.51
585.969	26631.12
586.329	26633.83
586.688	26943.2
587.048	27033.15
587.408	27169.41
587.768	27377.54
588.127	27536.18
588.487	27653.24
588.846	28020.92
589.206	27874.7
589.565	28161.48
589.925	28505.2
590.284	28581.58
590.643	28812.08
591.003	29221.11
591.362	29369.58
591.721	29301.79
592.08	29672.85
592.44	29825.39
592.799	30102.22
593.158	30195.1
593.517	30277.58
593.876	30568.87
594.235	30666.5
594.593	30927.96
594.952	31121.4
595.311	31197.1
595.67	31447.49
596.029	31794.15
596.387	31913.24
596.746	32108.94
597.104	32071.66
597.463	32268.49
597.822	32566.33
598.18	32699.44
598.538	32832.54
598.897	33172.64
599.255	33018.3
599.613	33680.88
599.972	33596.36
600.33	33715.23
600.688	33683.37
601.046	34035.22
601.404	34348.43
601.762	34329
602.12	34579.16
602.478	34751.36
602.836	34890.79
603.194	34833.17
603.552	35011.01
603.91	35022.31
604.268	35396.99
604.625	35357.22
604.983	35620.49
605.341	35582.52
605.698	35944.1
606.056	35996.07
606.413	36035.85
606.771	36295.05
607.128	36353.35
607.485	36439.45
607.843	36471.77
608.2	36885.09
608.557	37074.24
608.914	37020.68
609.272	37213.22
609.629	37300.67
609.986	37574.56
610.343	37499.99
610.7	37860.43
611.057	37752.86
611.414	37818.17
611.771	37981.11
612.127	38130.48
612.484	38146.98
612.841	38463.13
613.198	38373.19
613.554	38629.9
613.911	38722.78
614.267	38720.97
614.624	38753.29
614.98	38843.23
615.337	39087.07
615.693	39055.43
616.05	39249.55
616.406	39439.37
616.762	39216.1
617.118	39311.69
617.475	39472.59
617.831	39640.05
618.187	39687.95
618.543	39760.72
618.899	40078
619.255	39929.08
619.611	40006.82
619.967	40187.38
620.323	40374.94
620.678	40172.91
621.034	40239.13
621.39	40254.72
621.746	40381.72
622.101	40770.86
622.457	40447.48
622.812	40628.95
623.168	40738.55
623.523	40761.82
623.879	40979.9
624.234	40643.86
624.589	40715.27
624.945	40973.34
625.3	40949.84
625.655	41054.92
626.01	40941.25
626.365	41114.36
626.72	41149.84
627.075	41023.06
627.43	41200.68
627.785	41131.31
628.14	41225.99
628.495	41257.18
628.85	41269.38
629.205	41236.61
629.559	41357.29
629.914	41306.89
630.269	41209.27
630.623	41116.84
630.978	41065.09
631.332	41442.48
631.687	41464.18
632.041	41319.1
632.396	41490.17
632.75	41174.92
633.104	41270.51
633.459	41233.22
633.813	41154.81
634.167	41038.2
634.521	41167.46
634.875	41219.44
635.229	41076.17
635.583	41022.83
635.937	41080.23
636.291	40981.25
636.645	41077.75
636.999	41012.66
637.352	41146.45
637.706	40872.78
638.06	41110.29
638.413	41082.04
638.767	40889.96
639.121	41061.7
639.474	40788.49
639.828	40737.64
640.181	40930.86
640.534	40934.25
640.888	40798.43
641.241	40628.49
641.594	40830.97
641.947	40895.83
642.301	40752.33
642.654	40821.26
643.007	40751.2
643.36	40740.36
643.713	40627.36
644.066	40808.6
644.419	40468.05
644.771	40238.9
645.124	39921.62
645.477	39951.9
645.83	39724.34
646.182	39543.78
646.535	39371.35
646.888	39276.67
647.24	39137.91
647.593	39528.18
647.945	39521.18
648.298	39255.42
648.65	39137.91
649.002	39099.72
649.355	39351.69
649.707	39089.55
650.059	39292.71
650.411	39845.24
650.763	39938.57
651.115	40273.7
651.467	40146.47
651.819	40141.5
652.171	40002.97
652.523	40035.97
652.875	40061.73
653.227	39840.49
653.578	40074.84
653.93	39886.14
654.282	39816.31
654.633	39772.02
654.985	39896.99
655.337	39860.38
655.688	39765.47
656.039	39951.68
656.391	39558.69
656.742	39610.67
657.094	39628.07
657.445	39742.42
657.796	39763.21
658.147	39637.11
658.498	39635.53
658.849	39841.62
659.2	39792.81
659.551	39654.28
659.902	39730.66
660.253	39716.43
660.604	39649.08
660.955	39459.71
661.306	39733.83
661.656	39532.93
662.007	39427.62
662.358	39485.25
662.708	39395.76
663.059	39444.34
663.409	39236.44
663.76	39487.05
664.11	39522.99
664.461	39569.54
664.811	39471.24
665.161	39398.24
665.511	39443.89
665.862	39488.86
666.212	39577.67
666.562	39650.44
666.912	39511.24
667.262	39499.94
667.612	39452.48
667.962	39459.03
668.312	39387.4
668.662	39647.73
669.011	39364.35
669.361	39341.97
669.711	39330.22
670.06	39303.56
670.41	39104.47
670.76	39059.95
671.109	39194.41
671.459	39292.26
671.808	39133.62
672.157	39219.49
672.507	38926.17
672.856	39071.25
673.205	39155.76
673.554	39180.62
673.904	39022.43
674.253	39113.73
674.602	39144.69
674.951	38500.87
675.3	38409.12
675.649	38952.61
675.998	38917.13
676.346	38847.52
676.695	39065.6
677.044	38716.68
677.393	38863.57
677.741	38954.41
678.09	38737.92
678.438	38797.36
678.787	38850.91
679.135	38771.82
679.484	38577.25
679.832	38685.04
680.181	38589.9
680.529	38683.01
680.877	38547.42
681.225	38440.75
681.573	38642.33
681.922	38380.64
682.27	38296.35
682.618	38376.12
682.966	38164.6
683.314	38238.73
683.661	38120.31
684.009	37989.24
684.357	38008.68
684.705	37928
685.053	38082.57
685.4	37896.14
685.748	37835.12
686.095	37771.17
686.443	37656.59
686.79	37527.33
687.138	37619.99
687.485	37595.58
687.832	37480.1
688.18	37511.51
688.527	37198.98
688.874	37179.77
689.221	37104.29
689.568	37011.19
689.915	36979.78
690.262	37044.63
690.609	36851.19
690.956	36661.14
691.303	36855.71
691.65	36506.34
691.997	36596.74
692.344	36297.31
692.69	36364.65
693.037	36353.58
693.383	36043.3
693.73	36322.39
694.077	36029.52
694.423	35953.59
694.769	35867.04
695.116	35920.6
695.462	35699.36
695.808	35714.05
696.155	35697.55
696.501	35543.43
696.847	35433.38
697.193	35169.65
697.539	35333.27
697.885	35052.37
698.231	35032.48
698.577	34981.86
698.923	34855.76
699.269	34873.84
699.614	34615.54
699.96	34545.94
700.306	34505.72
700.651	34349.56
700.997	34260.53
701.342	34197.48
701.688	34140.3
702.033	34127.42
702.379	34127.87
702.724	34012.85
703.069	33957.93
703.415	33585.97
703.76	33600.88
704.105	33573.99
704.45	33531.96
704.795	33333.09
705.14	33303.71
705.485	33227.78
705.83	33089.71
706.175	33173.32
706.52	33030.73
706.865	33033.44
707.209	32851.98
707.554	32794.12
707.899	32880
708.243	32740.34
708.588	32751.64
708.932	32442.72
709.277	32340.58
709.621	32558.65
709.966	32229.84
710.31	32202.73
710.654	32059.45
710.998	32139.9
711.342	32122.5
711.687	32097.64
712.031	31934.94
712.375	31750.99
712.719	31894.03
713.063	31687.49
713.407	31797.54
713.75	31506.93
714.094	31567.26
714.438	31457.66
714.782	31528.39
715.125	31302.19
715.469	31509.64
715.812	31260.83
716.156	31049.76
716.499	31104.22
716.843	31175.64
717.186	30887.06
717.53	31057.45
717.873	30868.07
718.216	30882.31
718.559	30874.85
718.902	30674.41
719.246	30615.2
719.589	30559.61
719.932	30477.57
720.275	30422.66
720.617	30383.34
720.96	30306.73
721.303	30410.01
721.646	30315.32
721.989	30135.89
722.331	30101.31
722.674	30140.63
723.016	30151.71
723.359	30073.07
723.701	30058.83
724.044	29923.01
724.386	29812.06
724.729	30039.17
725.071	29809.8
725.413	29793.52
725.755	29743.36
726.097	29613.87
726.439	29439.64
726.782	29618.39
727.124	29580.65
727.465	29508.33
727.807	29468.79
728.149	29353.54
728.491	29385.17
728.833	29279.41
729.175	29285.97
729.516	29109.47
729.858	29182.24
730.199	29024.28
730.541	29062.02
730.882	29032.41
731.224	29054.33
731.565	28849.59
731.906	28903.15
732.248	28984.05
732.589	28817.28
732.93	28652.09
733.271	28725.08
733.612	28729.15
733.953	28788.58
734.294	28634.68
734.635	28496.38
734.976	28666.55
735.317	28466.78
735.658	28387.91
735.999	28500.45
736.339	28294.13
736.68	28358.08
737.021	28372.77
737.361	28265.66
737.702	28294.13
738.042	28251.19
738.383	28084.64
738.723	28225.2
739.063	28066.34
739.404	28125.09
739.744	27954.48
740.084	27926
740.424	27997.87
740.764	27933.01
741.104	27995.83
741.444	27634.71
741.784	27839.45
742.124	27746.8
742.464	27649.17
742.804	27678.78
743.143	27507.71
743.483	27497.54
743.823	27412.8
744.162	27452.12
744.502	27357.43
744.841	27412.8
745.181	27418.9
745.52	27301.61
745.86	27305.91
746.199	27256.19
746.538	27236.08
746.877	27192.91
747.216	27133.93
747.556	27074.05
747.895	27059.59
748.234	27049.64
748.573	26948.4
748.911	26888.74
749.25	26776.88
749.589	26723.55
749.928	26770.55
750.267	26754.96
750.605	26691.01
750.944	26657.34
751.283	26515.87
751.621	26525.59
751.96	26442.88
752.298	26406.72
752.636	26453.95
752.975	26329.66
753.313	26210.34
753.651	26375.54
753.989	26134.19
754.327	25997.24
754.666	25979.84
755.004	26046.28
755.342	26023.91
755.679	25858.71
756.017	25761.31
756.355	25864.36
756.693	25690.13
757.031	25667.53
757.368	25531.04
757.706	25554.54
758.044	25569.23
758.381	25538.72
758.719	25364.94
759.056	25356.35
759.394	25219.63
759.731	25061.45
760.068	25170.82
760.405	25103.93
760.743	24963.37
761.08	24993.2
761.417	24846.76
761.754	24786.65
762.091	24788.46
762.428	24620.78
762.765	24478.18
763.102	24642.7
763.438	24448.13
763.775	24395.02
764.112	24306.89
764.449	24350.05
764.785	24216.72
765.122	24014.47
765.458	24016.05
765.795	23967.46
766.131	23795.49
766.467	23786.22
766.804	23655.61
767.14	23512.11
767.476	23487.7
767.812	23427.82
768.148	23473.92
768.485	23309.4
768.821	23250.19
769.157	23187.37
769.492	23156.18
769.828	23047.71
770.164	22830.09
770.5	22870.77
770.836	22928.85
771.171	22725.46
771.507	22576.77
771.842	22415.87
772.178	22536.77
772.513	22378.35
772.849	22363.89
773.184	22250.67
773.519	22208.19
773.855	22102.43
774.19	22005.48
774.525	21958.48
774.86	22021.53
775.195	21906.05
775.53	21827.63
775.865	21617.02
776.2	21474.42
776.535	21399.85
776.87	21438.26
777.205	21253.41
777.539	21161.89
777.874	21230.13
778.209	21062.23
778.543	20967.54
778.878	20955.34
779.212	20955.11
779.547	20899.3
779.881	20849.35
780.215	20631.96
780.55	20602.58
780.884	20643.03
781.218	20478.52
781.552	20469.02
781.886	20237.62
782.22	20239.65
782.554	20243.72
782.888	19982.71
783.222	19965.76
783.556	19891.19
783.889	19834.01
784.223	19707.46
784.557	19629.95
784.89	19655.49
785.224	19511.76
785.557	19428.83
785.891	19422.5
786.224	19391.31
786.558	19299.56
786.891	19102.96
787.224	19134.37
787.557	19103.86
787.891	18910.65
788.224	19028.16
788.557	18902.06
788.89	18894.38
789.223	18818.67
789.556	18678.79
789.888	18659.35
790.221	18555.63
790.554	18408.74
790.887	18507.27
791.219	18354.5
791.552	18335.75
791.884	18199.48
792.217	18212.13
792.549	18105.02
792.882	17935.08
793.214	17933.5
793.546	18005.36
793.879	17797.23
794.211	17648.99
794.543	17843.1
794.875	17740.28
795.207	17755.87
795.539	17627.29
795.871	17608.99
796.203	17457.35
796.535	17438.6
796.867	17348.88
797.198	17288.32
797.53	17237.7
797.862	17063.01
798.193	17194.53
798.525	17146.85
798.856	17102.78
799.188	16895.56
799.519	16834.09
799.85	16779.18
800.182	16770.82
800.513	16694.66
800.844	16656.24
801.175	16665.96
801.506	16669.8
801.837	16569.24
802.168	16463.93
802.499	16411.28
802.83	16329.02
803.161	16251.73
803.491	16226.42
803.822	16190.27
804.153	16239.98
804.483	16096.48
804.814	15919.99
805.145	15991.85
805.475	16066.43
805.805	15926.54
806.136	15944.62
806.466	15888.35
806.796	15874.57
807.126	15714.12
807.457	15682.48
807.787	15664.18
808.117	15636.83
808.447	15537.4
808.777	15606.1
809.107	15480.68
809.436	15487.23
809.766	15496.27
810.096	15380.34
810.426	15368.59
810.755	15354.81
811.085	15364.75
811.414	15249.05
811.744	15125.89
812.073	15025.78
812.403	15030.75
812.732	14978.09
813.061	14986.23
813.39	14964.99
813.719	14834.6
814.049	14910.07
814.378	14886.57
814.707	14707.82
815.036	14769.74
815.365	14715.73
815.693	14590.53
816.022	14578.11
816.351	14547.82
816.68	14515.06
817.008	14470.31
817.337	14358.22
817.665	14350.77
817.994	14409.3
818.322	14343.54
818.651	14286.59
818.979	14233.71
819.307	14269.19
819.636	14227.61
819.964	14139.47
820.292	14174.95
820.62	14165.91
820.948	14072.81
821.276	14234.16
821.604	14121.17
821.932	14125.24
822.259	14149.64
822.587	14052.24
822.915	14058.35
823.243	14083.88
823.57	13926.37
823.898	14003.88
824.225	14037.1
824.553	14042.53
824.88	14066.03
825.207	14002.98
825.535	14022.64
825.862	14084.79
826.189	13989.65
826.516	14013.6
826.843	14123.88
827.17	14096.76
827.497	14028.97
827.824	14113.03
828.151	14129.76
828.478	14008.85
828.805	14090.21
829.131	14096.99
829.458	14046.37
829.785	13949.42
830.111	13974.51
830.438	14055.63
830.764	13963.43
831.09	14096.31
831.417	13934.96
831.743	14023.77
832.069	13984.67
832.395	13882.08
832.722	13979.93
833.048	13917.33
833.374	13871.68
833.7	13834.85
834.026	13864.9
834.351	13907.16
834.677	13896.32
835.003	13809.54
835.329	13879.14
835.654	13894.28
835.98	13807.96
836.306	13701.74
836.631	13797.79
836.956	13771.8
837.282	13723.66
837.607	13645.25
837.932	13585.82
838.258	13685.02
838.583	13628.75
838.908	13566.61
839.233	13653.61
839.558	13529.32
839.883	13458.36
840.208	13514.4
840.533	13457
840.858	13432.6
841.182	13445.25
841.507	13370
841.832	13377.01
842.156	13328.42
842.481	13364.8
842.805	13252.94
843.13	13228.54
843.454	13137.24
843.778	13163.45
844.103	13137.01
844.427	13117.8
844.751	13119.16
845.075	13137.24
845.399	13039.16
845.723	12942.89
846.047	12954.65
846.371	12958.71
846.695	12908.32
847.019	12771.6
847.343	12723.46
847.666	12567.54
847.99	12708.1
848.313	12555.33
848.637	12490.48
848.96	12481.21
849.284	12451.16
849.607	12340.42
849.931	12352.18
850.254	12273.76
850.577	12123.03
850.9	12132.29
851.223	12137.94
851.546	12048.68
851.869	11990.38
852.192	11987.44
852.515	11896.82
852.838	11887.78
853.161	11862.47
853.483	11824.05
853.806	11725.75
854.129	11726.88
854.451	11706.77
854.774	11552.87
855.096	11628.13
855.419	11557.85
855.741	11528.69
856.063	11470.16
856.385	11459.54
856.708	11417.74
857.03	11367.79
857.352	11322.15
857.674	11312.88
857.996	11253.9
858.318	11251.64
858.64	11224.07
858.961	11186.33
859.283	11124.86
859.605	11043.96
859.926	11128.03
860.248	11200.57
860.57	11023.62
860.891	10929.39
861.212	10935.94
861.534	10910.86
861.855	10893.23
862.176	10930.74
862.498	10887.35
862.819	10915.83
863.14	10855.27
863.461	10811.42
863.782	10787.02
864.103	10744.08
864.424	10774.14
864.745	10695.04
865.065	10696.85
865.386	10605.55
865.707	10683.97
866.027	10617.53
866.348	10568.72
866.668	10588.15
866.989	10530.98
867.309	10507.7
867.63	10544.09
867.95	10557.42
868.27	10390.19
868.59	10547.48
868.91	10448.27
869.23	10467.03
869.55	10535.05
869.87	10507.93
870.19	10414.83
870.51	10401.27
870.83	10382.28
871.15	10354.71
871.469	10395.16
871.789	10349.97
872.109	10343.64
872.428	10302.29
872.748	10308.84
873.067	10289.86
873.386	10276.3
873.706	10245.34
874.025	10211.67
874.344	10200.14
874.663	10202.18
874.982	10162.85
875.301	10163.08
875.62	10116.3
875.939	10010.99
876.258	10113.36
876.577	9998.34
876.896	10072.69
877.214	10039.02
877.533	10088.05
877.852	9954.72
878.17	9979.13
878.489	10072.01
878.807	9953.59
879.125	9912.01
879.444	9932.8
879.762	9847.61
880.08	9850.32
880.398	9830.66
880.716	9895.29
881.034	9829.08
881.352	9846.48
881.67	9805.8
881.988	9797.89
882.306	9793.37
882.624	9743.66
882.941	9726.48
883.259	9675.41
883.577	9661.85
883.894	9637.67
884.212	9596.54
884.529	9630.89
884.846	9600.84
885.164	9525.58
885.481	9513.38
885.798	9520.16
886.115	9499.37
886.432	9394.29
886.75	9472.25
887.067	9393.16
887.383	9368.98
887.7	9407.62
888.017	9354.97
888.334	9354.97
888.651	9281.3
888.967	9256.44
889.284	9272.48
889.6	9223.67
889.917	9114.52
890.233	9228.87
890.55	9079.72
890.866	9173.5
891.182	9075.43
891.498	9060.96
891.815	8998.59
892.131	8963.11
892.447	9001.53
892.763	8884.24
893.079	8972.15
893.395	8980.06
893.71	8839.27
894.026	8883.11
894.342	8808.54
894.657	8766.51
894.973	8737.81
895.289	8689.22
895.604	8695.32
895.92	8709.11
896.235	8651.48
896.55	8599.96
896.865	8586.17
897.181	8557.92
897.496	8588.21
897.811	8516.8
898.126	8499.17
898.441	8460.3
898.756	8451.03
899.071	8400.64
899.386	8425.95
899.7	8414.43
900.015	8329.46
900.33	8226.18
900.644	8204.04
900.959	8245.84
901.273	8224.83
901.588	8267.54
901.902	8176.01
902.216	8147.31
902.531	8099.18
902.845	8077.03
903.159	7986.64
903.473	7993.65
903.787	7982.8
904.101	7955.23
904.415	7929.92
904.729	7865.51
905.042	7863.93
905.356	7783.03
905.67	7789.13
905.984	7785.29
906.297	7795.68
906.611	7669.13
906.924	7675.24
907.237	7637.95
907.551	7672.52
907.864	7613.99
908.177	7609.93
908.491	7532.87
908.804	7480.89
909.117	7392.31
909.43	7457.84
909.743	7345.53
910.056	7392.31
910.368	7313.66
910.681	7339.88
910.994	7311.4
911.307	7298.07
911.619	7156.83
911.932	7200.9
912.244	7140.79
912.557	7109.15
912.869	7088.81
913.181	7111.86
913.494	7074.12
913.806	7057.4
914.118	7014.24
914.43	6942.15
914.742	6926.33
915.054	6905.31
915.366	6861.92
915.678	6887.91
915.99	6785.32
916.302	6796.84
916.613	6702.61
916.925	6748.48
917.236	6718.2
917.548	6693.57
917.859	6716.84
918.171	6578.32
918.482	6636.39
918.794	6569.28
919.105	6536.96
919.416	6488.37
919.727	6490.41
920.038	6521.14
920.349	6443.63
920.66	6401.6
920.971	6370.19
921.282	6358.89
921.593	6315.5
921.903	6270.75
922.214	6294.03
922.525	6225.56
922.835	6180.59
923.146	6169.51
923.456	6141.94
923.767	6099.68
924.077	6131.1
924.387	6103.98
924.697	6054.71
925.008	6026.01
925.318	6029.63
925.628	5979.01
925.938	5957.32
926.248	5925.68
926.558	5899.46
926.867	5884.77
927.177	5847.71
927.487	5806.81
927.796	5779.47
928.106	5822.18
928.416	5741.28
928.725	5769.07
929.034	5675.29
929.344	5707.15
929.653	5717.77
929.962	5624.67
930.271	5602.75
930.581	5589.64
930.89	5612.24
931.199	5532.69
931.508	5514.39
931.817	5546.93
932.125	5491.79
932.434	5460.61
932.743	5412.02
933.051	5325.24
933.36	5417.44
933.669	5329.99
933.977	5360.27
934.286	5333.83
934.594	5355.97
934.902	5311.91
935.21	5238.01
935.519	5242.08
935.827	5168.41
936.135	5185.36
936.443	5162.76
936.751	5102.87
937.059	5139.48
937.367	5072.37
937.674	5082.31
937.982	5032.82
938.29	5032.59
938.597	5028.53
938.905	4925.93
939.213	4937.91
939.52	4911.47
939.827	4977.45
940.135	4909.21
940.442	4898.36
940.749	4943.1
941.056	4889.09
941.363	4813.84
941.67	4778.82
941.977	4773.39
942.284	4704.69
942.591	4730.68
942.898	4723.45
943.205	4678.7
943.511	4707.4
943.818	4692.72
944.125	4582.66
944.431	4600.06
944.738	4596.22
945.044	4575.88
945.35	4579.95
945.657	4519.61
945.963	4504.7
946.269	4512.61
946.575	4509.9
946.881	4452.72
947.187	4438.48
947.493	4403.68
947.799	4398.49
948.105	4378.37
948.41	4376.79
948.716	4346.28
949.022	4367.3
949.327	4326.62
949.633	4290.01
949.938	4282.78
950.244	4268.77
950.549	4239.17
950.854	4191.49
951.16	4192.39
951.465	4178.83
951.77	4141.09
952.075	4139.51
952.38	4128.66
952.685	4140.41
952.99	4109.45
953.294	4108.32
953.599	4065.61
953.904	4033.07
954.209	4009.12
954.513	3986.07
954.818	3989.23
955.122	3949.68
955.426	3958.72
955.731	3891.83
956.035	3909.69
956.339	3878.73
956.643	3894.77
956.948	3842.79
957.252	3843.92
957.556	3883.02
957.86	3800.31
958.163	3786.98
958.467	3812.74
958.771	3790.82
959.075	3733.42
959.378	3719.18
959.682	3697.49
959.985	3729.35
960.289	3662.69
960.592	3676.02
960.896	3612.07
961.199	3612.74
961.502	3645.74
961.805	3610.26
962.108	3586.76
962.411	3587.21
962.714	3537.49
963.017	3524.61
963.32	3543.37
963.623	3534.55
963.926	3549.02
964.228	3447.32
964.531	3481.22
964.833	3478.96
965.136	3452.07
965.438	3391.28
965.741	3391.51
966.043	3391.28
966.345	3354.9
966.648	3361.9
966.95	3388.12
967.252	3306.54
967.554	3319.64
967.856	3327.78
968.158	3320.32
968.46	3279.19
968.761	3244.62
969.063	3282.13
969.365	3253.43
969.666	3255.47
969.968	3210.49
970.269	3196.26
970.571	3169.37
970.872	3178.18
971.174	3165.3
971.475	3124.17
971.776	3106.77
972.077	3111.97
972.378	3118.52
972.679	3057.96
972.98	3096.37
973.281	3057.5
973.582	3036.94
973.883	3009.82
974.183	2978.41
974.484	3029.93
974.785	2972.53
975.085	2972.08
975.386	2951.52
975.686	2959.43
975.986	2944.29
976.287	2921.69
976.587	2873.1
976.887	2903.84
977.187	2902.03
977.487	2868.58
977.787	2861.35
978.087	2853.44
978.387	2824.52
978.687	2813.22
978.987	2806.21
979.286	2824.52
979.586	2791.3
979.885	2803.73
980.185	2766.44
980.484	2712.65
980.784	2751.75
981.083	2728.47
981.382	2753.33
981.682	2719.21
981.981	2700
982.28	2711.07
982.579	2703.62
982.878	2683.5
983.177	2694.8
983.475	2638.53
983.774	2622.26
984.073	2585.88
984.372	2577.29
984.67	2567.57
984.969	2582.94
985.267	2540.91
985.566	2585.65
985.864	2526.67
986.162	2530.06
986.461	2537.74
986.759	2552.21
987.057	2508.59
987.355	2453.45
987.653	2457.97
987.951	2494.58
988.249	2464.75
988.547	2444.41
988.844	2446
989.142	2405.32
989.44	2399.89
989.737	2386.56
990.035	2371.19
990.332	2385.88
990.63	2363.06
990.927	2370.97
991.224	2352.21
991.521	2329.39
991.819	2321.25
992.116	2308.37
992.413	2271.08
992.71	2288.94
993.006	2282.61
993.303	2252.1
993.6	2263.4
993.897	2250.29
994.193	2242.61
994.49	2229.73
994.787	2208.04
995.083	2206.23
995.379	2192.44
995.676	2184.76
995.972	2196.51
996.268	2182.05
996.565	2112.9
996.861	2141.6
997.157	2116.74
997.453	2122.84
997.749	2111.09
998.044	2118.32
998.34	2094.59
998.636	2061.15
998.932	2061.6
999.227	2046.46
999.523	2059.34
999.818	2013.69
1000.114	2035.16
1000.409	2003.52
1000.704	2027.7
1001	1980.92
1001.295	2024.31
1001.59	1961.04
1001.885	1966.01
1002.18	1937.08
1002.475	1956.06
1002.77	1925.56
1003.065	1927.36
1003.359	1932.11
1003.654	1909.06
1003.949	1867.71
1004.243	1872.9
1004.538	1873.35
1004.832	1866.12
1005.127	1855.28
1005.421	1815.96
1005.715	1823.64
1006.009	1823.41
1006.304	1795.84
1006.598	1825.67
1006.892	1817.31
1007.186	1790.42
1007.48	1769.18
1007.773	1747.03
1008.067	1762.62
1008.361	1747.93
1008.655	1739.35
1008.948	1708.61
1009.242	1749.06
1009.535	1710.65
1009.829	1696.41
1010.122	1702.96
1010.415	1673.36
1010.708	1661.61
1011.001	1634.04
1011.295	1632.91
1011.588	1625
1011.881	1626.81
1012.173	1615.06
1012.466	1610.76
1012.759	1603.53
1013.052	1608.05
1013.344	1564.21
1013.637	1578
1013.93	1582.97
1014.222	1567.37
1014.514	1536.64
1014.807	1548.62
1015.099	1549.52
1015.391	1522.63
1015.683	1536.64
1015.976	1485.12
1016.268	1525.12
1016.56	1497.09
1016.851	1446.7
1017.143	1474.5
1017.435	1455.29
1017.727	1479.69
1018.018	1448.73
1018.31	1437.89
1018.602	1425.91
1018.893	1408.73
1019.185	1373.03
1019.476	1392.46
1019.767	1389.07
1020.058	1387.04
1020.35	1395.63
1020.641	1359.24
1020.932	1368.96
1021.223	1360.6
1021.514	1331
1021.804	1298.23
1022.095	1340.94
1022.386	1319.7
1022.677	1322.86
1022.967	1304.33
1023.258	1301.39
1023.548	1265.24
1023.839	1264.11
1024.129	1298.68
1024.419	1237.21
1024.709	1247.83
1025	1239.47
1025.29	1226.14
1025.58	1238.34
1025.87	1207.38
1026.16	1207.61
1026.449	1215.97
1026.739	1225.01
1027.029	1183.88
1027.319	1191.11
1027.608	1184.56
1027.898	1167.38
1028.187	1150.21
1028.477	1145.24
1028.766	1163.54
1029.055	1128.97
1029.344	1116.99
1029.634	1106.82
1029.923	1091.45
1030.212	1122.41
1030.501	1085.35
1030.79	1076.31
1031.078	1090.78
1031.367	1052.36
1031.656	1077.44
1031.945	1083.54
1032.233	1054.62
1032.522	1043.77
1032.81	1048.07
1033.099	1030.21
1033.387	1048.07
1033.675	1020.27
1033.963	1015.07
1034.251	1030.89
1034.54	1005.13
1034.828	986.37
1035.116	1006.48
1035.403	996.32
1035.691	977.56
1035.979	945.92
1036.267	975.53
1036.554	983.21
1036.842	946.83
1037.129	965.36
1037.417	953.83
1037.704	932.59
1037.992	946.83
1038.279	917.67
1038.566	903.21
1038.853	903.21
1039.14	903.21
