Data from hue_190_FLMS001491_00011.txt Node
Date: Tue Feb 07 16:44:54 GMT 2017
User: dcchb
Spectrometer: FLMS00149
Trigger mode: 0
Integration Time (sec): 2.000000E-2
Scans to average: 10
Electric dark correction enabled: true
Nonlinearity correction enabled: false
Boxcar width: 0
XAxis mode: Wavelengths
Number of Pixels in Spectrum: 2048
>>>>>Begin Spectral Data<<<<<
341.393	-6.26
341.776	-6.26
342.16	-6.26
342.543	-64.11
342.927	-79.02
343.31	-56.65
343.693	-50.78
344.077	-62.75
344.46	-73.6
344.843	-50.32
345.226	-57.78
345.61	-23.88
345.993	-22.3
346.376	-5.35
346.759	0.52
347.142	28.09
347.525	42.1
347.908	67.41
348.291	80.29
348.674	86.85
349.057	98.15
349.44	126.17
349.823	133.4
350.206	167.07
350.588	188.54
350.971	207.52
351.354	223.79
351.737	244.81
352.119	257.01
352.502	250.91
352.884	258.82
353.267	268.99
353.65	304.7
354.032	291.14
354.414	304.7
354.797	305.6
355.179	315.09
355.562	342.89
355.944	314.64
356.326	317.8
356.709	306.73
357.091	322.77
357.473	320.06
357.855	339.72
358.238	346.28
358.62	332.94
359.002	336.33
359.384	337.69
359.766	334.75
360.148	346.95
360.53	329.78
360.912	359.38
361.294	331.36
361.676	323
362.057	301.53
362.439	338.82
362.821	328.2
363.203	321.87
363.584	314.64
363.966	318.48
364.348	320.06
364.729	324.13
365.111	308.31
365.493	318.71
365.874	313.28
366.256	304.7
366.637	316.45
367.019	322.1
367.4	325.71
367.781	300.63
368.163	301.98
368.544	324.81
368.925	299.95
369.306	316.67
369.688	299.95
370.069	310.57
370.45	320.97
370.831	294.07
371.212	313.96
371.593	306.05
371.974	318.93
372.355	312.6
372.736	308.31
373.117	298.82
373.498	313.96
373.879	309.67
374.26	308.31
374.641	302.89
375.021	328.2
375.402	322.1
375.783	311.7
376.163	330.46
376.544	332.04
376.925	297.46
377.305	319.84
377.686	325.26
378.066	334.98
378.447	316.22
378.827	304.47
379.208	323.23
379.588	315.77
379.968	315.09
380.349	320.97
380.729	323.23
381.109	324.13
381.489	336.56
381.87	333.62
382.25	356.22
382.63	346.28
383.01	335.66
383.39	325.94
383.77	358.25
384.15	344.69
384.53	357.58
384.91	373.39
385.29	338.37
385.67	351.47
386.049	353.51
386.429	352.6
386.809	344.92
387.189	343.56
387.568	337.24
387.948	339.5
388.328	324.36
388.707	355.32
389.087	364.58
389.466	353.51
389.846	383.11
390.225	352.6
390.605	382.43
390.984	384.47
391.363	363.22
391.743	358.93
392.122	352.38
392.501	368.42
392.881	375.2
393.26	378.14
393.639	356.22
394.018	385.37
394.397	379.72
394.776	391.7
395.155	369.1
395.534	386.05
395.913	380.63
396.292	393.73
396.671	403
397.05	394.64
397.429	397.12
397.808	396.67
398.186	394.41
398.565	391.25
398.944	405.03
399.323	404.13
399.701	395.31
400.08	409.1
400.458	404.13
400.837	425.14
401.215	411.81
401.594	404.58
401.972	386.05
402.351	410.68
402.729	429.66
403.107	424.24
403.486	419.95
403.864	425.82
404.242	446.84
404.62	462.66
404.999	445.03
405.377	457.91
405.755	465.37
406.133	437.12
406.511	465.37
406.889	474.18
407.267	483
407.645	489.32
408.023	474.63
408.401	490
408.779	489.55
409.156	493.62
409.534	506.72
409.912	507.63
410.29	530
410.667	537.68
411.045	556.21
411.422	534.97
411.8	537.23
412.178	566.16
412.555	560.51
412.933	572.94
413.31	587.85
413.687	577
414.065	581.75
414.442	595.54
414.819	592.37
415.197	623.11
415.574	618.13
415.951	642.77
416.328	657.68
416.705	655.19
417.082	661.07
417.46	661.3
417.837	692.03
418.214	678.02
418.591	668.3
418.967	684.57
419.344	706.27
419.721	695.65
420.098	725.48
420.475	711.01
420.852	736.1
421.228	751.24
421.605	744.91
421.982	797.11
422.358	790.33
422.735	803.21
423.111	803.67
423.488	855.87
423.864	836.21
424.241	864.45
424.617	891.12
424.994	880.95
425.37	894.28
425.746	903.1
426.123	933.15
426.499	928.63
426.875	946.71
427.251	949.88
427.627	985.13
428.003	985.58
428.379	994.62
428.756	1021.29
429.132	1029.42
429.507	1032.36
429.883	1034.17
430.259	1059.93
430.635	1061.96
431.011	1068.97
431.387	1112.58
431.763	1124.56
432.138	1117.33
432.514	1148.29
432.89	1180.15
433.265	1200.04
433.641	1170.21
434.016	1205.69
434.392	1247.72
434.767	1261.51
435.143	1298.79
435.518	1309.41
435.894	1327.95
436.269	1377.21
436.644	1375.85
437.02	1400.71
437.395	1413.37
437.77	1435.74
438.145	1464.66
438.52	1503.99
438.895	1482.29
439.271	1512.8
439.646	1536.98
440.021	1588.96
440.395	1584.66
440.77	1582.85
441.145	1644.77
441.52	1668.73
441.895	1653.13
442.27	1675.28
442.645	1683.87
443.019	1749.63
443.394	1718.44
443.769	1750.31
444.143	1751.44
444.518	1798.67
444.892	1787.59
445.267	1811.1
445.641	1830.98
446.016	1865.11
446.39	1846.58
446.764	1889.96
447.139	1877.99
447.513	1910.75
447.887	1918.66
448.262	1921.83
448.636	1934.48
449.01	1949.17
449.384	2030.07
449.758	2005.89
450.132	2036.85
450.506	2049.06
450.88	2079.79
451.254	2068.04
451.628	2147.58
452.002	2119.34
452.376	2130.18
452.75	2123.63
453.123	2196.85
453.497	2209.28
453.871	2249.28
454.244	2271.42
454.618	2281.37
454.992	2304.87
455.365	2313.46
455.739	2371.99
456.112	2401.59
456.486	2429.84
456.859	2448.59
457.232	2510.51
457.606	2493.34
457.979	2521.59
458.352	2567.23
458.725	2650.4
459.099	2653.79
459.472	2710.06
459.845	2722.26
460.218	2728.81
460.591	2781.69
460.964	2753.44
461.337	2849.94
461.71	2872.31
462.083	2937.85
462.456	2911.63
462.829	2958.41
463.201	2999.77
463.574	3007
463.947	3054.68
464.32	3160.67
464.692	3143.72
465.065	3149.14
465.438	3246.99
465.81	3238.18
466.183	3304.62
466.555	3372.41
466.928	3410.38
467.3	3409.92
467.672	3499.19
468.045	3578.73
468.417	3566.98
468.789	3634.55
469.161	3678.17
469.534	3756.36
469.906	3785.96
470.278	3840.42
470.65	3857.82
471.022	3970.36
471.394	4053.75
471.766	4024.82
472.138	4083.13
472.51	4147.31
472.882	4226.17
473.253	4260.75
473.625	4404.47
473.997	4451.03
474.369	4486.28
474.74	4535.77
475.112	4652.15
475.484	4707.29
475.855	4805.14
476.227	4858.93
476.598	4982.76
476.97	4989.09
477.341	5101.86
477.713	5223.89
478.084	5259.14
478.455	5400.15
478.827	5446.48
479.198	5571
479.569	5568.29
479.94	5749.75
480.311	5809.41
480.682	5961.5
481.053	6086.01
481.424	6152.23
481.795	6288.27
482.166	6306.57
482.537	6386.34
482.908	6513.57
483.279	6616.85
483.65	6756.05
484.021	6906.56
484.391	6933.9
484.762	6981.36
485.133	7072.43
485.503	7155.36
485.874	7306.32
486.244	7446.88
486.615	7572.75
486.985	7584.73
487.356	7746.31
487.726	7844.38
488.097	8016.58
488.467	8079.18
488.837	8203.24
489.207	8293.19
489.578	8422.67
489.948	8534.54
490.318	8563.91
490.688	8630.35
491.058	8761.65
491.428	8828.99
491.798	8937.24
492.168	9072.6
492.538	9078.02
492.908	9215.42
493.278	9358.92
493.648	9323.67
494.017	9463.78
494.387	9543.1
494.757	9566.15
495.126	9776.99
495.496	9695.41
495.866	9791
496.235	9899.25
496.605	9955.29
496.974	10024.21
497.344	10086.13
497.713	10127.26
498.082	10129.52
498.452	10280.48
498.821	10257.2
499.19	10284.32
499.559	10395.05
499.928	10461.72
500.298	10517.31
500.667	10601.83
501.036	10517.53
501.405	10617.42
501.774	10629.17
502.143	10675.27
502.512	10695.16
502.88	10796.85
503.249	10801.59
503.618	10847.24
503.987	10849.73
504.356	10941.48
504.724	11001.82
505.093	10968.37
505.462	10975.38
505.83	11035.49
506.199	11118.42
506.567	11155.94
506.936	11096.95
507.304	11272.32
507.672	11244.75
508.041	11294.01
508.409	11345.99
508.777	11370.85
509.145	11419.66
509.514	11401.13
509.882	11408.81
510.25	11515.7
510.618	11482.25
510.986	11469.15
511.354	11594.12
511.722	11552.08
512.09	11579.43
512.458	11592.76
512.826	11623.27
513.193	11690.84
513.561	11711.4
513.929	11743.26
514.297	11795.01
514.664	11817.39
515.032	11791.85
515.4	11812.87
515.767	11776.26
516.135	11902.58
516.502	11748.01
516.869	11928.34
517.237	11848.35
517.604	11847.89
517.972	11956.82
518.339	11947.1
518.706	11891.51
519.073	12013.09
519.44	11934.9
519.808	11977.38
520.175	11926.08
520.542	12048.57
520.909	11986.87
521.276	11975.57
521.643	12055.57
522.009	12037.95
522.376	12064.16
522.743	12080.43
523.11	12189.81
523.477	12183.93
523.843	12158.85
524.21	12319.29
524.577	12222.35
524.943	12239.97
525.31	12160.65
525.676	12349.12
526.043	12270.03
526.409	12256.7
526.776	12343.93
527.142	12216.92
527.508	12169.24
527.874	12246.53
528.241	12272.06
528.607	12156.36
528.973	12287.21
529.339	12147.77
529.705	12164.5
530.071	12239.3
530.437	12195.46
530.803	12185.06
531.169	12180.54
531.535	12080.66
531.901	12060.54
532.267	12084.5
532.632	12068
532.998	11992.75
533.364	11988.46
533.73	11993.65
534.095	12059.64
534.461	11971.96
534.826	11907.78
535.192	11959.3
535.557	11879.31
535.923	11772.64
536.288	11781.91
536.653	11755.92
537.019	11715.47
537.384	11645.41
537.749	11627.79
538.114	11615.13
538.479	11584.62
538.845	11475.25
539.21	11416.27
539.575	11409.94
539.94	11419.66
540.305	11369.04
540.67	11263.05
541.034	11255.37
541.399	11264.63
541.764	11163.39
542.129	11108.03
542.494	11045.88
542.858	11018.54
543.223	10995.94
543.587	10950.74
543.952	10920.46
544.316	10865.55
544.681	10802.5
545.045	10781.48
545.41	10764.08
545.774	10736.74
546.138	10627.14
546.503	10563.18
546.867	10549.17
547.231	10531.32
547.595	10448.84
547.959	10416.07
548.324	10410.42
548.688	10278.22
549.052	10280.25
549.416	10173.81
549.779	10135.17
550.143	10097.43
550.507	10167.49
550.871	10091.78
551.235	10058.11
551.599	10055.63
551.962	9933.82
552.326	9909.19
552.689	9925.23
553.053	9782.19
553.417	9737.44
553.78	9862.64
554.143	9728.85
554.507	9729.31
554.87	9644.56
555.234	9730.89
555.597	9597.11
555.96	9557.56
556.323	9553.94
556.686	9485.24
557.05	9458.13
557.413	9461.29
557.776	9417
558.139	9442.76
558.502	9378.81
558.865	9368.86
559.228	9404.12
559.59	9368.19
559.953	9255.65
560.316	9316.66
560.679	9313.95
561.041	9302.65
561.404	9281.18
561.767	9373.16
562.129	9337.23
562.492	9305.14
562.854	9285.02
563.217	9182.43
563.579	9341.97
563.941	9272.82
564.304	9274.63
564.666	9308.98
565.028	9237.79
565.39	9159.6
565.753	9278.92
566.115	9143.78
566.477	9239.83
566.839	9245.7
567.201	9220.39
567.563	9202.77
567.925	9237.12
568.287	9246.16
568.648	9139.72
569.01	9192.15
569.372	9195.99
569.734	9197.57
570.095	9265.59
570.457	9247.29
570.819	9194.86
571.18	9166.61
571.542	9239.83
571.903	9207.96
572.265	9258.58
572.626	9259.49
572.987	9245.7
573.349	9258.36
573.71	9242.54
574.071	9243.67
574.432	9240.28
574.794	9234.86
575.155	9288.19
575.516	9214.74
575.877	9173.61
576.238	9269.43
576.599	9223.1
576.96	9230.34
577.32	9227.85
577.681	9250.9
578.042	9168.42
578.403	9184.69
578.763	9221.98
579.124	9224.23
579.485	9233.05
579.845	9245.03
580.206	9192.82
580.566	9231.69
580.927	9153.95
581.287	9298.58
581.648	9193.28
582.008	9157.57
582.368	9191.24
582.728	9123.45
583.089	9138.14
583.449	9151.24
583.809	9158.93
584.169	9217.23
584.529	9119.6
584.889	9229.43
585.249	9112.6
585.609	9084.8
585.969	9089.55
586.329	9070.79
586.688	9102.2
587.048	9082.54
587.408	9036.67
587.768	9070.11
588.127	9029.21
588.487	9070.11
588.846	9014.75
589.206	9010
589.565	8979.27
589.925	9011.36
590.284	9002.55
590.643	9050
591.003	8986.5
591.362	9069.89
591.721	8939.72
592.08	8963.45
592.44	8990.12
592.799	8959.38
593.158	8909.89
593.517	8958.03
593.876	8915.32
594.235	8955.99
594.593	8943.34
594.952	8895.88
595.311	8877.35
595.67	8926.39
596.029	8943.11
596.387	8907.41
596.746	8970.91
597.104	8910.34
597.463	8821.53
597.822	8857.01
598.18	8773.4
598.538	8835.32
598.897	8868.99
599.255	8831.02
599.613	8953.06
599.972	8810.69
600.33	8869.67
600.688	8819.95
601.046	8802.33
601.404	8898.37
601.762	8865.15
602.12	8898.37
602.478	8852.49
602.836	8872.15
603.194	8883
603.552	8863.79
603.91	8849.33
604.268	8865.6
604.625	8757.13
604.983	8866.05
605.341	8805.26
605.698	8837.35
606.056	8870.35
606.413	8863.79
606.771	8858.37
607.128	8870.12
607.485	8844.36
607.843	8816.56
608.2	8829.44
608.557	8899.05
608.914	8838.03
609.272	8857.01
609.629	8824.25
609.986	8876
610.343	8845.71
610.7	8886.84
611.057	8861.31
611.414	8856.79
611.771	8837.58
612.127	8899.5
612.484	8885.71
612.841	8872.15
613.198	8874.64
613.554	8954.19
613.911	8938.82
614.267	8875.54
614.624	8899.05
614.98	8932.94
615.337	8948.99
615.693	8923.9
616.05	8979.27
616.406	8958.03
616.762	8949.67
617.118	8916.9
617.475	8877.35
617.831	8927.29
618.187	8994.64
618.543	8942.43
618.899	8995.31
619.255	8949.67
619.611	8962.55
619.967	8960.96
620.323	9023.56
620.678	8986.73
621.034	9004.13
621.39	8968.2
621.746	8934.75
622.101	9096.78
622.457	8994.18
622.812	8998.7
623.168	8983.56
623.523	9073.73
623.879	9051.36
624.234	8964.35
624.589	9021.75
624.945	8960.29
625.3	9023.34
625.655	9050
626.01	9039.83
626.365	8985.6
626.72	8970
627.075	8955.99
627.43	8940.17
627.785	9016.33
628.14	9039.61
628.495	8967.29
628.85	8989.44
629.205	8878.26
629.559	8960.74
629.914	8955.32
630.269	8965.94
630.623	8903.11
630.978	8867.41
631.332	8937.69
631.687	8940.63
632.041	8882.32
632.396	8895.66
632.75	8888.65
633.104	8874.64
633.459	8813.17
633.813	8820.18
634.167	8847.52
634.521	8809.78
634.875	8878.71
635.229	8808.2
635.583	8744.47
635.937	8799.84
636.291	8774.98
636.645	8831.7
636.999	8787.18
637.352	8683.46
637.706	8779.73
638.06	8757.35
638.413	8742.21
638.767	8637.36
639.121	8656.34
639.474	8639.84
639.828	8629.9
640.181	8631.71
640.534	8591.03
640.888	8579.73
641.241	8531.6
641.594	8609.79
641.947	8627.19
642.301	8598.49
642.654	8638.71
643.007	8627.64
643.36	8607.53
643.713	8633.29
644.066	8623.35
644.419	8558.04
644.771	8565.27
645.124	8464.25
645.477	8405.27
645.83	8366.86
646.182	8310.81
646.535	8314.43
646.888	8292.96
647.24	8282.56
647.593	8326.41
647.945	8310.13
648.298	8242.11
648.65	8285.05
649.002	8218.39
649.355	8289.8
649.707	8220.42
650.059	8293.64
650.411	8400.3
650.763	8363.24
651.115	8535.89
651.467	8496.12
651.819	8493.18
652.171	8471.03
652.523	8407.31
652.875	8410.7
653.227	8458.15
653.578	8497.02
653.93	8462.45
654.282	8461.77
654.633	8404.14
654.985	8454.76
655.337	8511.26
655.688	8426.97
656.039	8512.62
656.391	8470.58
656.742	8492.5
657.094	8454.76
657.445	8532.73
657.796	8443.01
658.147	8470.58
658.498	8466.74
658.849	8422
659.2	8487.53
659.551	8421.32
659.902	8499.06
660.253	8529.34
660.604	8515.78
660.955	8459.28
661.306	8468.32
661.656	8525.27
662.007	8506.97
662.358	8506.74
662.708	8553.52
663.059	8452.96
663.409	8418.61
663.76	8501.54
664.11	8558.04
664.461	8568.43
664.811	8515.1
665.161	8550.58
665.511	8472.39
665.862	8491.15
666.212	8539.96
666.562	8549.22
666.912	8527.98
667.262	8526.63
667.612	8457.48
667.962	8557.36
668.312	8507.42
668.662	8606.4
669.011	8515.1
669.361	8452.73
669.711	8504.03
670.06	8507.87
670.41	8511.71
670.76	8481.88
671.109	8522.33
671.459	8485.72
671.808	8484.59
672.157	8445.72
672.507	8459.06
672.856	8410.02
673.205	8459.28
673.554	8469.45
673.904	8444.37
674.253	8495.67
674.602	8411.83
674.951	8299.29
675.3	8365.05
675.649	8440.07
675.998	8421.77
676.346	8434.43
676.695	8442.11
677.044	8323.92
677.393	8341.77
677.741	8384.93
678.09	8348.1
678.438	8311.26
678.787	8308.55
679.135	8324.15
679.484	8232.17
679.832	8302.45
680.181	8318.5
680.529	8308.55
680.877	8246.63
681.225	8261.1
681.573	8280.08
681.922	8228.78
682.27	8208.89
682.618	8240.76
682.966	8164.83
683.314	8209.8
683.661	8117.82
684.009	8103.59
684.357	8109.46
684.705	8090.03
685.053	8121.44
685.4	8029.01
685.748	8029.46
686.095	8047.09
686.443	7932.97
686.79	7939.75
687.138	8005.28
687.485	7946.3
687.832	7977.49
688.18	7897.72
688.527	7925.06
688.874	7838.51
689.221	7811.39
689.568	7807.1
689.915	7784.95
690.262	7804.61
690.609	7736.14
690.956	7739.08
691.303	7725.07
691.65	7645.75
691.997	7645.97
692.344	7573.43
692.69	7607.78
693.037	7644.62
693.383	7535.69
693.73	7529.14
694.077	7561.23
694.423	7439.65
694.769	7488.46
695.116	7417.5
695.462	7435.13
695.808	7373.89
696.155	7387
696.501	7336.6
696.847	7259.54
697.193	7250.05
697.539	7276.94
697.885	7181.8
698.231	7203.95
698.577	7202.82
698.923	7239.65
699.269	7114.91
699.614	7053.9
699.96	7060.9
700.306	7019.1
700.651	6997.85
700.997	6999.43
701.342	6962.15
701.688	6923.5
702.033	6877.4
702.379	6893
702.724	6910.17
703.069	6902.94
703.415	6765.77
703.76	6834.02
704.105	6786.78
704.45	6775.49
704.795	6763.73
705.14	6690.97
705.485	6741.14
705.83	6664.75
706.175	6671.53
706.52	6724.41
706.865	6616.85
707.209	6637.86
707.554	6594.47
707.899	6562.16
708.243	6522.38
708.588	6519.22
708.932	6495.72
709.277	6520.35
709.621	6519.67
709.966	6441.94
710.31	6438.55
710.654	6436.29
710.998	6416.85
711.342	6346.8
711.687	6429.73
712.031	6338.21
712.375	6344.08
712.719	6289.62
713.063	6340.24
713.407	6353.8
713.75	6266.57
714.094	6214.14
714.438	6273.8
714.782	6278.55
715.125	6235.16
715.469	6283.75
715.812	6244.2
716.156	6132.56
716.499	6190.19
716.843	6261.37
717.186	6180.25
717.53	6189.29
717.873	6186.12
718.216	6191.77
718.559	6123.07
718.902	6120.14
719.246	6128.95
719.589	6114.71
719.932	6051.44
720.275	6079.46
720.617	6079.23
720.96	6069.74
721.303	6073.13
721.646	6156.74
721.989	6039.69
722.331	6063.41
722.674	6005.56
723.016	6078.55
723.359	6040.14
723.701	6068.61
724.044	6041.04
724.386	5968.73
724.729	6021.83
725.071	5996.3
725.413	6013.7
725.755	6000.14
726.097	5988.39
726.439	5921.27
726.782	5945.23
727.124	5998.78
727.465	6014.83
727.807	6004.21
728.149	5968.5
728.491	5978.44
728.833	5984.09
729.175	5990.2
729.516	6001.49
729.858	5930.99
730.199	5963.53
730.541	5927.6
730.882	5982.51
731.224	6029.97
731.565	6001.72
731.906	5961.95
732.248	5992.91
732.589	5902.74
732.93	5907.49
733.271	5946.13
733.612	5941.84
733.953	5968.5
734.294	5959.46
734.635	5944.32
734.976	5970.54
735.317	5953.13
735.658	5965.11
735.999	5982.51
736.339	5981.61
736.68	5983.19
737.021	6002.17
737.361	5959.91
737.702	6028.84
738.042	5986.58
738.383	6001.72
738.723	6079.46
739.063	5996.3
739.404	6046.69
739.744	6014.38
740.084	6016.18
740.424	6067.48
740.764	6074.26
741.104	6062.06
741.444	6074.94
741.784	6094.15
742.124	6133.02
742.464	6099.12
742.804	6177.54
743.143	6137.31
743.483	6243.75
743.823	6169.4
744.162	6238.55
744.502	6317.42
744.841	6282.39
745.181	6340.24
745.52	6308.83
745.86	6377.53
746.199	6415.27
746.538	6429.96
746.877	6490.07
747.216	6553.12
747.556	6506.57
747.895	6625.43
748.234	6685.77
748.573	6681.7
748.911	6807.35
749.25	6830.63
749.589	6814.35
749.928	6984.07
750.267	6978.64
750.605	7026.55
750.944	7087.79
751.283	7123.95
751.621	7294.79
751.96	7322.82
752.298	7405.07
752.636	7487.33
752.975	7566.43
753.313	7670.6
753.651	7777.95
753.989	7876.47
754.327	8016.58
754.666	8101.1
755.004	8202.11
755.342	8381.09
755.679	8556.46
756.017	8591.71
756.355	8750.35
756.693	8866.05
757.031	8986.28
757.368	9158.7
757.706	9229.43
758.044	9470.33
758.381	9594.17
758.719	9753.71
759.056	9963.42
759.394	10044.55
759.731	10237.54
760.068	10404.77
760.405	10512.34
760.743	10709.62
761.08	10783.06
761.417	11041.14
761.754	11155.26
762.091	11387.79
762.428	11514.12
762.765	11776.26
763.102	11970.15
763.438	12051.28
763.775	12274.55
764.112	12361.78
764.449	12573.75
764.785	12839.73
765.122	12935.78
765.458	13032.5
765.795	13308.42
766.131	13398.14
766.467	13550.45
766.804	13683.1
767.14	13801.06
767.476	13973.71
767.812	14048.51
768.148	14344.33
768.485	14401.05
768.821	14600.36
769.157	14733.24
769.492	14880.58
769.828	15066.57
770.164	15035.16
770.5	15133.46
770.836	15297.52
771.171	15455.71
771.507	15462.94
771.842	15510.62
772.178	15692.09
772.513	15794.91
772.849	16051.17
773.184	15986.54
773.519	16163.71
773.855	16128.01
774.19	16268.57
774.525	16269.7
774.86	16450.03
775.195	16522.8
775.53	16593.53
775.865	16643.02
776.2	16650.48
776.535	16572.06
776.87	16690.25
777.205	16700.87
777.539	16740.42
777.874	16890.7
778.209	16866.97
778.543	16916.91
778.878	17003.92
779.212	17025.84
779.547	17036.91
779.881	17155.55
780.215	17140.41
780.55	17265.83
780.884	17222.67
781.218	17208.66
781.552	17235.78
781.886	17297.92
782.22	17244.59
782.554	17182.22
782.888	17229.67
783.222	17119.62
783.556	17151.94
783.889	17200.3
784.223	17105.84
784.557	17138.83
784.89	17231.93
785.224	17195.32
785.557	17120.3
785.891	17169.11
786.224	17106.29
786.558	17186.74
786.891	17057.93
787.224	16995.56
787.557	17092.28
787.891	17071.03
788.224	17056.57
788.557	17034.2
788.89	17099.06
789.223	17066.06
789.556	17005.95
789.888	17104.03
790.221	17125.04
790.554	16829.68
790.887	16936.57
791.219	16897.25
791.552	16900.19
791.884	16830.36
792.217	16845.28
792.549	16815.9
792.882	16753.08
793.214	16683.02
793.546	16796.01
793.879	16758.5
794.211	16617.49
794.543	16655.45
794.875	16642.8
795.207	16740.87
795.539	16521.67
795.871	16606.41
796.203	16532.52
796.535	16439.86
796.867	16444.61
797.198	16396.02
797.53	16401.22
797.862	16264.05
798.193	16375.01
798.525	16186.76
798.856	16342.24
799.188	16189.02
799.519	16067.44
799.85	16022.93
800.182	16017.28
800.513	16011.4
800.844	16007.79
801.175	16078.29
801.506	16010.95
801.837	15778.64
802.168	15923.27
802.499	15850.5
802.83	15738.41
803.161	15799.2
803.491	15767.34
803.822	15729.37
804.153	15643.95
804.483	15679.21
804.814	15522.6
805.145	15507.23
805.475	15544.29
805.805	15476.05
806.136	15402.15
806.466	15483.73
806.796	15455.03
807.126	15346.33
807.457	15338.88
807.787	15312.66
808.117	15274.02
808.447	15191.99
808.777	15190.18
809.107	15142.72
809.436	15137.75
809.766	15210.52
810.096	15072.22
810.426	14926.91
810.755	15112.89
811.085	15050.97
811.414	15056.17
811.744	14930.3
812.073	14929.62
812.403	14983.86
812.732	14826.12
813.061	14856.18
813.39	14754.26
813.719	14759.46
814.049	14870.87
814.378	14851.43
814.707	14627.26
815.036	14697.54
815.365	14614.83
815.693	14481.5
816.022	14553.81
816.351	14503.42
816.68	14472.91
817.008	14503.19
817.337	14483.76
817.665	14403.99
817.994	14452.12
818.322	14335.51
818.651	14294.38
818.979	14246.48
819.307	14414.38
819.636	14218.91
819.964	14199.25
820.292	14230.43
820.62	14245.57
820.948	14197.44
821.276	14275.63
821.604	14247.83
821.932	14379.13
822.259	14274.27
822.587	14223.2
822.915	14187.95
823.243	14220.26
823.57	14251.67
823.898	14186.36
824.225	14233.82
824.553	14174.84
824.88	14197.89
825.207	14235.18
825.535	14254.16
825.862	14182.52
826.189	14203.99
826.516	14298.23
826.843	14289.41
827.17	14289.64
827.497	14236.98
827.824	14322.41
828.151	14318.79
828.478	14292.12
828.805	14321.95
829.131	14246.02
829.458	14195.4
829.785	14183.43
830.111	14273.14
830.438	14349.75
830.764	14262.75
831.09	14308.17
831.417	14167.38
831.743	14276.76
832.069	14280.15
832.395	14231.11
832.722	14258
833.048	14172.81
833.374	14224.78
833.7	14110.21
834.026	14169.87
834.351	14173.48
834.677	14123.32
835.003	14160.6
835.329	14140.04
835.654	14059.36
835.98	14044
836.306	14026.82
836.631	14053.03
836.956	14055.97
837.282	13955.86
837.607	13993.6
837.932	13971.91
838.258	14049.19
838.583	13958.35
838.908	13837.45
839.233	13961.74
839.558	13919.7
839.883	13795.64
840.208	13719.26
840.533	13841.06
840.858	13741.18
841.182	13777.56
841.507	13755.87
841.832	13694.63
842.156	13657.34
842.481	13696.89
842.805	13664.12
843.13	13545.48
843.454	13568.75
843.778	13562.65
844.103	13552.48
844.427	13394.97
844.751	13422.32
845.075	13423.9
845.399	13330.12
845.723	13285.15
846.047	13269.1
846.371	13218.48
846.695	13227.52
847.019	13146.17
847.343	13109.1
847.666	12909.56
847.99	12932.84
848.313	12951.14
848.637	12816.23
848.96	12820.98
849.284	12766.29
849.607	12734.43
849.931	12732.17
850.254	12662.56
850.577	12598.84
850.9	12436.13
851.223	12482.23
851.546	12413.53
851.869	12339.41
852.192	12396.81
852.515	12359.75
852.838	12284.72
853.161	12212.4
853.483	12127.21
853.806	12113.42
854.129	12069.81
854.451	12053.54
854.774	11985.97
855.096	11944.62
855.419	11928.12
855.741	11950.72
856.063	11866.65
856.385	11864.17
856.708	11790.5
857.03	11761.8
857.352	11718.86
857.674	11720.89
857.996	11608.8
858.318	11653.55
858.64	11590.73
858.961	11572.65
859.283	11491.75
859.605	11406.78
859.926	11584.85
860.248	11473.22
860.57	11337.4
860.891	11405.42
861.212	11383.95
861.534	11240.9
861.855	11220.57
862.176	11254.46
862.498	11298.53
862.819	11231.41
863.14	11298.08
863.461	11132.66
863.782	11168.36
864.103	11120.68
864.424	11103.28
864.745	11090.85
865.065	11085.2
865.386	10950.07
865.707	11019.44
866.027	11018.99
866.348	10950.74
866.668	10972.89
866.989	10942.61
867.309	10900.12
867.63	10973.12
867.95	10990.97
868.27	10804.53
868.59	10831.2
868.91	10858.09
869.23	10781.93
869.55	10697.42
869.87	10850.86
870.19	10757.53
870.51	10821.93
870.83	10746.23
871.15	10751.2
871.469	10684.99
871.789	10703.74
872.109	10646.34
872.428	10619.45
872.748	10646.57
873.067	10630.98
873.386	10642.73
873.706	10586.01
874.025	10483.86
874.344	10566.12
874.663	10583.07
874.982	10563.41
875.301	10485.44
875.62	10493.81
875.939	10464.43
876.258	10464.43
876.577	10503.75
876.896	10397.09
877.214	10357.31
877.533	10402.73
877.852	10299.23
878.17	10340.59
878.489	10327.93
878.807	10383.53
879.125	10253.81
879.444	10361.83
879.762	10288.84
880.08	10257.43
880.398	10245.45
880.716	10249.29
881.034	10236.86
881.352	10187.15
881.67	10109.41
881.988	10096.08
882.306	10031.67
882.624	10087.71
882.941	10010.65
883.259	10017.21
883.577	10043.2
883.894	9964.1
884.212	9941.96
884.529	9964.78
884.846	9959.36
885.164	9950.09
885.481	9865.8
885.798	9917.32
886.115	9782.86
886.432	9805.46
886.75	9755.52
887.067	9777.44
887.383	9768.18
887.7	9826.93
888.017	9743.77
888.334	9748.97
888.651	9625.81
888.967	9697.22
889.284	9601.17
889.6	9606.6
889.917	9500.39
890.233	9559.14
890.55	9452.25
890.866	9500.84
891.182	9454.51
891.498	9426.04
891.815	9363.21
892.131	9322.76
892.447	9335.42
892.763	9349.88
893.079	9276.21
893.395	9225.36
893.71	9279.83
894.026	9226.49
894.342	9142.2
894.657	9137.01
894.973	9065.82
895.289	9048.65
895.604	9085.93
895.92	9001.42
896.235	8963.45
896.55	8982.66
896.865	8924.81
897.181	8886.16
897.496	8866.96
897.811	8860.85
898.126	8769.78
898.441	8791.7
898.756	8685.27
899.071	8660.41
899.386	8711.48
899.7	8585.83
900.015	8496.12
900.33	8547.87
900.644	8497.93
900.959	8530.02
901.273	8483.46
901.588	8410.7
901.902	8386.52
902.216	8379.06
902.531	8299.51
902.845	8336.35
903.159	8281.21
903.473	8224.26
903.787	8246.41
904.101	8097.03
904.415	8191.49
904.729	8135.68
905.042	8149.69
905.356	8051.16
905.67	8083.25
905.984	8098.39
906.297	7967.54
906.611	7923.48
906.924	7921.44
907.237	7853.88
907.551	7887.09
907.864	7831.28
908.177	7771.84
908.491	7779.75
908.804	7776.36
909.117	7684.84
909.43	7627.44
909.743	7551.51
910.056	7560.78
910.368	7540.89
910.681	7492.3
910.994	7483.49
911.307	7457.28
911.619	7409.14
911.932	7404.4
912.244	7330.27
912.557	7369.37
912.869	7304.96
913.181	7270.39
913.494	7140.45
913.806	7254.34
914.118	7161.24
914.43	7169.83
914.742	7080.79
915.054	7114.23
915.366	7097.51
915.678	7050.96
915.99	6993.56
916.302	6997.85
916.613	6945.65
916.925	6950.62
917.236	6904.52
917.548	6908.36
917.859	6897.06
918.171	6851.87
918.482	6842.38
918.794	6748.82
919.105	6782.27
919.416	6723.96
919.727	6717.18
920.038	6658.2
920.349	6649.61
920.66	6628.14
920.971	6665.88
921.282	6563.06
921.593	6539.56
921.903	6490.75
922.214	6456.4
922.525	6424.76
922.835	6438.32
923.146	6405.55
923.456	6433.35
923.767	6368.26
924.077	6328.72
924.387	6350.41
924.697	6292.56
925.008	6201.26
925.318	6208.27
925.628	6251.21
925.938	6203.3
926.248	6121.49
926.558	6122.85
926.867	6056.18
927.177	6119.46
927.487	5993.13
927.796	6047.82
928.106	6011.44
928.416	5918.11
928.725	5956.3
929.034	5910.88
929.344	5924.89
929.653	5905.9
929.962	5796.75
930.271	5860.26
930.581	5788.84
930.89	5812.35
931.199	5735.29
931.508	5713.14
931.817	5707.94
932.125	5766.47
932.434	5666.14
932.743	5661.16
933.051	5545.24
933.36	5573.71
933.669	5520.6
933.977	5552.69
934.286	5526.7
934.594	5530.09
934.902	5447.61
935.21	5422.75
935.519	5453.71
935.827	5422.53
936.135	5425.01
936.443	5334.85
936.751	5356.09
937.059	5345.01
937.367	5302.98
937.674	5333.94
937.982	5274.28
938.29	5261.18
938.597	5238.8
938.905	5213.04
939.213	5143.89
939.52	5124.68
939.827	5098.02
940.135	5073.61
940.442	5100.5
940.749	5075.87
941.056	5080.61
941.363	5025.02
941.67	5044.68
941.977	4964.91
942.284	4888.98
942.591	4891.92
942.898	4891.69
943.205	4933.73
943.511	4850.11
943.818	4858.25
944.125	4788.42
944.431	4846.5
944.738	4804.69
945.044	4764.47
945.35	4741.87
945.657	4721.98
945.963	4677.69
946.269	4694.86
946.575	4657.8
946.881	4602.21
947.187	4612.6
947.493	4617.8
947.799	4568.31
948.105	4583.9
948.41	4545.49
948.716	4526.96
949.022	4449.22
949.327	4517.01
949.633	4470.91
949.938	4460.52
950.244	4445.38
950.549	4408.99
950.854	4392.5
951.16	4324.48
951.465	4367.19
951.77	4302.78
952.075	4318.38
952.38	4281.99
952.685	4285.16
952.99	4257.59
953.294	4209.68
953.599	4239.06
953.904	4199.73
954.209	4199.96
954.513	4175.33
954.818	4122.22
955.122	4169.45
955.426	4104.14
955.731	4115.22
956.035	4141.88
956.339	4068.66
956.643	4042.9
956.948	4049.91
957.252	3995.45
957.556	3979.4
957.86	4014.2
958.163	3950.93
958.467	3950.02
958.771	3926.52
959.075	3918.39
959.378	3863.02
959.682	3922.91
959.985	3886.07
960.289	3855.79
960.592	3835.45
960.896	3842
961.199	3773.98
961.502	3819.41
961.805	3757.94
962.108	3749.8
962.411	3738.05
962.714	3716.58
963.017	3671.61
963.32	3720.65
963.623	3676.58
963.926	3658.28
964.228	3644.95
964.531	3621.67
964.833	3605.63
965.136	3555.23
965.438	3571.95
965.741	3554.33
966.043	3512.52
966.345	3530.37
966.648	3503.93
966.95	3522.69
967.252	3501.67
967.554	3474.56
967.856	3453.54
968.158	3405.86
968.46	3411.05
968.761	3436.14
969.063	3392.52
969.365	3364.28
969.666	3341.9
969.968	3341.68
970.269	3341.68
970.571	3318.63
970.872	3304.62
971.174	3303.71
971.475	3284.73
971.776	3238.18
972.077	3242.02
972.378	3239.08
972.679	3221
972.98	3241.57
973.281	3171.74
973.582	3185.3
973.883	3158.63
974.183	3173.77
974.484	3098.75
974.785	3121.34
975.085	3138.75
975.386	3106.2
975.686	3085.87
975.986	3086.77
976.287	3050.16
976.587	3077.28
976.887	3022.82
977.187	3021.69
977.487	3022.36
977.787	3021.01
978.087	2954.12
978.387	2984.4
978.687	2975.13
978.987	2958.64
979.286	2916.6
979.586	2902.14
979.885	2903.05
980.185	2899.88
980.484	2868.02
980.784	2863.5
981.083	2861.24
981.382	2841.8
981.682	2825.53
981.981	2825.53
982.28	2834.12
982.579	2779.66
982.878	2769.26
983.177	2778.3
983.475	2720.68
983.774	2716.84
984.073	2728.81
984.372	2721.35
984.67	2694.92
984.969	2698.3
985.267	2680.45
985.566	2680.23
985.864	2653.56
986.162	2679.55
986.461	2661.24
986.759	2611.08
987.057	2576.05
987.355	2606.78
987.653	2571.53
987.951	2577.63
988.249	2571.75
988.547	2534.69
988.844	2526.11
989.142	2525.88
989.44	2513.68
989.737	2490.17
990.035	2478.88
990.332	2484.53
990.63	2468.03
990.927	2465.32
991.224	2471.64
991.521	2449.5
991.819	2427.35
992.116	2392.55
992.413	2401.36
992.71	2364.3
993.006	2373.34
993.303	2324.53
993.6	2356.62
993.897	2331.53
994.193	2329.27
994.49	2324.76
994.787	2285.89
995.083	2290.41
995.379	2284.3
995.676	2270.97
995.972	2252.44
996.268	2275.04
996.565	2225.55
996.861	2216.74
997.157	2260.35
997.453	2217.41
997.749	2183.29
998.044	2214.25
998.34	2173.12
998.636	2169.05
998.932	2161.14
999.227	2138.55
999.523	2138.09
999.818	2156.85
1000.114	2134.25
1000.409	2091.54
1000.704	2056.74
1001	2075.27
1001.295	2031.2
1001.59	2043.41
1001.885	2050.41
1002.18	2061.03
1002.475	2046.57
1002.77	2038.21
1003.065	2002.96
1003.359	1987.81
1003.654	2019.23
1003.949	1964.31
1004.243	1944.88
1004.538	1955.73
1004.832	1928.61
1005.127	1917.08
1005.421	1883.18
1005.715	1893.58
1006.009	1888.61
1006.304	1905.33
1006.598	1889.06
1006.892	1863.52
1007.186	1836.18
1007.48	1855.16
1007.773	1823.53
1008.067	1816.75
1008.361	1812
1008.655	1788.5
1008.948	1797.09
1009.242	1747.37
1009.535	1778.78
1009.829	1757.31
1010.122	1734.71
1010.415	1742.17
1010.708	1729.29
1011.001	1718.67
1011.295	1721.61
1011.588	1684.77
1011.881	1671.67
1012.173	1662.63
1012.466	1691.78
1012.759	1677.77
1013.052	1645.68
1013.344	1655.85
1013.637	1591.89
1013.93	1613.59
1014.222	1591.22
1014.514	1589.18
1014.807	1595.28
1015.099	1596.19
1015.391	1540.14
1015.683	1612.68
1015.976	1565.45
1016.268	1545.34
1016.56	1516.41
1016.851	1543.53
1017.143	1503.31
1017.435	1485.46
1017.727	1508.05
1018.018	1471.44
1018.31	1507.83
1018.602	1498.11
1018.893	1452.01
1019.185	1438.9
1019.476	1444.33
1019.767	1409.53
1020.058	1448.62
1020.35	1435.06
1020.641	1415.17
1020.932	1379.47
1021.223	1390.99
1021.514	1382.63
1021.804	1372.46
1022.095	1357.55
1022.386	1370.88
1022.677	1347.61
1022.967	1335.18
1023.258	1327.72
1023.548	1320.71
1023.839	1301.96
1024.129	1281.17
1024.419	1275.29
1024.709	1278.91
1025	1281.84
1025.29	1251.11
1025.58	1249.08
1025.87	1253.82
1026.16	1223.54
1026.449	1256.76
1026.739	1207.5
1027.029	1216.99
1027.319	1219.02
1027.608	1207.04
1027.898	1195.52
1028.187	1175.41
1028.477	1169.31
1028.766	1192.81
1029.055	1171.11
1029.344	1168.18
1029.634	1147.84
1029.923	1158.68
1030.212	1147.84
1030.501	1156.2
1030.79	1139.25
1031.078	1115.97
1031.367	1090.89
1031.656	1099.48
1031.945	1070.78
1032.233	1073.49
1032.522	1101.06
1032.81	1077.1
1033.099	1089.53
1033.387	1066.94
1033.675	1056.09
1033.963	1055.41
1034.251	1053.38
1034.54	1022.64
1034.828	1065.13
1035.116	1011.12
1035.403	1027.61
1035.691	1032.13
1035.979	991.91
1036.267	996.88
1036.554	999.37
1036.842	996.88
1037.129	970.44
1037.417	984.23
1037.704	946.71
1037.992	941.97
1038.279	930.22
1038.566	940.84
1038.853	940.84
1039.14	940.84
