Data from hue_36_FLMS001491_00035.txt Node
Date: Tue Feb 07 17:29:43 GMT 2017
User: dcchb
Spectrometer: FLMS00149
Trigger mode: 0
Integration Time (sec): 2.000000E-2
Scans to average: 10
Electric dark correction enabled: true
Nonlinearity correction enabled: false
Boxcar width: 0
XAxis mode: Wavelengths
Number of Pixels in Spectrum: 2048
>>>>>Begin Spectral Data<<<<<
341.393	-27.81
341.776	-27.81
342.16	-27.81
342.543	-50.86
342.927	-80.46
343.31	-77.98
343.693	-48.15
344.077	-76.4
344.46	-47.24
344.843	-49.73
345.226	-47.47
345.61	-45.21
345.993	-24.19
346.376	-0.47
346.759	18.06
347.142	18.29
347.525	29.14
347.908	49.48
348.291	82.7
348.674	92.19
349.057	126.99
349.44	119.08
349.823	120.21
350.206	159.08
350.588	190.04
350.971	213.99
351.354	219.19
351.737	235.46
352.119	234.78
352.502	272.75
352.884	286.76
353.267	272.52
353.65	287.66
354.032	271.17
354.414	285.18
354.797	297.61
355.179	292.63
355.562	304.84
355.944	321.33
356.326	338.51
356.709	329.92
357.091	327.66
357.473	347.1
357.855	333.54
358.238	325.63
358.62	347.77
359.002	351.84
359.384	336.25
359.766	337.83
360.148	350.71
360.53	319.75
360.912	321.33
361.294	329.92
361.676	326.76
362.057	326.98
362.439	335.34
362.821	329.69
363.203	326.98
363.584	325.4
363.966	299.64
364.348	339.41
364.729	310.49
365.111	305.06
365.493	338.73
365.874	325.63
366.256	336.02
366.637	315.46
367.019	304.61
367.4	318.17
367.781	301.9
368.163	309.81
368.544	314.1
368.925	331.73
369.306	310.94
369.688	312.07
370.069	321.79
370.45	312.29
370.831	307.55
371.212	295.12
371.593	339.19
371.974	308.9
372.355	319.98
372.736	320.43
373.117	324.27
373.498	320.66
373.879	314.55
374.26	298.74
374.641	321.79
375.021	301.9
375.402	316.81
375.783	331.73
376.163	308.45
376.544	318.17
376.925	345.51
377.305	328.34
377.686	320.88
378.066	326.76
378.447	315.23
378.827	311.16
379.208	317.94
379.588	323.82
379.968	336.25
380.349	318.85
380.729	342.8
381.109	295.57
381.489	350.49
381.87	339.41
382.25	339.19
382.63	335.8
383.01	348.45
383.39	338.28
383.77	344.61
384.15	336.93
384.53	343.48
384.91	331.05
385.29	352.07
385.67	345.97
386.049	340.99
386.429	331.28
386.809	361.33
387.189	352.52
387.568	339.86
387.948	333.31
388.328	351.16
388.707	341.9
389.087	353.2
389.466	357.26
389.846	370.37
390.225	348.45
390.605	348.9
390.984	377.38
391.363	375.34
391.743	364.04
392.122	356.59
392.501	366.53
392.881	366.53
393.26	363.59
393.639	361.11
394.018	346.19
394.397	370.82
394.776	352.29
395.155	354.55
395.534	354.33
395.913	392.07
396.292	358.62
396.671	378.06
397.05	380.54
397.429	394.78
397.808	370.6
398.186	371.28
398.565	395.91
398.944	376.93
399.323	383.25
399.701	386.42
400.08	364.72
400.458	368.56
400.837	381.44
401.215	391.84
401.594	400.88
401.972	397.04
402.351	398.85
402.729	411.05
403.107	379.64
403.486	393.2
403.864	390.48
404.242	399.75
404.62	388.45
404.999	401.33
405.377	385.06
405.755	416.92
406.133	427.09
406.511	399.07
406.889	410.37
407.267	390.26
407.645	412.63
408.023	428.22
408.401	412.86
408.779	418.96
409.156	423.25
409.534	442.69
409.912	425.29
410.29	453.76
410.667	443.82
411.045	430.26
411.422	431.61
411.8	428.9
412.178	438.39
412.555	461.44
412.933	457.83
413.31	456.25
413.687	462.8
414.065	471.61
414.442	455.34
414.819	449.92
415.197	479.97
415.574	455.57
415.951	477.94
416.328	469.58
416.705	478.84
417.082	461.22
417.46	459.41
417.837	494.66
418.214	491.95
418.591	475
418.967	498.5
419.344	482.01
419.721	501.44
420.098	509.13
420.475	484.27
420.852	506.41
421.228	500.09
421.605	484.49
421.982	503.7
422.358	492.63
422.735	518.16
423.111	511.16
423.488	516.13
423.864	518.39
424.241	554.32
424.617	558.39
424.994	532.4
425.37	542.12
425.746	511.16
426.123	532.63
426.499	529.46
426.875	536.47
427.251	530.14
427.627	538.05
428.003	568.56
428.379	567.65
428.756	571.95
429.132	568.78
429.507	562.46
429.883	578.95
430.259	582.8
430.635	580.31
431.011	578.5
431.387	601.1
431.763	598.61
432.138	594.32
432.514	600.65
432.89	606.07
433.265	618.95
433.641	609.01
434.016	602.91
434.392	596.13
434.767	648.33
435.143	620.76
435.518	643.58
435.894	629.8
436.269	637.03
436.644	668.67
437.02	646.97
437.395	652.17
437.77	675.22
438.145	666.18
438.52	667.31
438.895	667.54
439.271	658.27
439.646	679.29
440.021	717.71
440.395	700.76
440.77	690.36
441.145	691.49
441.52	692.85
441.895	702.34
442.27	724.26
442.645	721.32
443.019	698.05
443.394	691.04
443.769	762.23
444.143	715.22
444.518	737.37
444.892	712.28
445.267	715.67
445.641	752.06
446.016	729.46
446.39	738.5
446.764	765.16
447.139	744.6
447.513	762.9
447.887	774.65
448.262	789.34
448.636	763.13
449.01	776.01
449.384	757.25
449.758	776.91
450.132	788.21
450.506	781.43
450.88	802.9
451.254	818.04
451.628	813.98
452.002	790.02
452.376	826.4
452.75	814.43
453.123	820.3
453.497	829.12
453.871	855.1
454.244	839.96
454.618	861.43
454.992	843.13
455.365	856.01
455.739	890.58
456.112	907.31
456.486	910.02
456.859	917.93
457.232	931.26
457.606	921.32
457.979	912.5
458.352	918.15
458.725	957.7
459.099	948.66
459.472	970.58
459.845	973.75
460.218	995.67
460.591	989.34
460.964	1023.46
461.337	1020.75
461.71	1018.49
462.083	1038.83
462.456	1028.21
462.829	1049
463.201	1078.83
463.574	1060.3
463.947	1104.59
464.32	1080.41
464.692	1075.21
465.065	1120.41
465.438	1123.35
465.81	1146.4
466.183	1170.8
466.555	1181.2
466.928	1197.69
467.3	1192.04
467.672	1216.9
468.045	1274.53
468.417	1248.54
468.789	1267.3
469.161	1281.53
469.534	1318.37
469.906	1347.75
470.278	1349.78
470.65	1371.7
471.022	1403.34
471.394	1434.98
471.766	1450.12
472.138	1461.87
472.51	1537.57
472.882	1550.45
473.253	1564.92
473.625	1611.47
473.997	1621.64
474.369	1629.32
474.74	1686.5
475.112	1733.27
475.484	1760.17
475.855	1806.27
476.227	1811.69
476.598	1884.91
476.97	1932.14
477.341	1986.83
477.713	2008.97
478.084	2035.86
478.455	2134.84
478.827	2109.08
479.198	2209.87
479.569	2244.45
479.94	2352.47
480.311	2378.23
480.682	2442.18
481.053	2486.02
481.424	2558.34
481.795	2583.87
482.166	2689.63
482.537	2728.95
482.908	2828.16
483.279	2896.41
483.65	2968.95
484.021	3040.58
484.391	3131.65
484.762	3223.18
485.133	3266.34
485.503	3324.19
485.874	3416.39
486.244	3532.55
486.615	3635.6
486.985	3707.01
487.356	3780.9
487.726	3840.79
488.097	3978.19
488.467	4028.35
488.837	4179.31
489.207	4283.26
489.578	4371.4
489.948	4502.47
490.318	4548.11
490.688	4629.02
491.058	4779.52
491.428	4822.91
491.798	4892.74
492.168	5037.37
492.538	5159.17
492.908	5231.94
493.278	5353.52
493.648	5368.21
494.017	5544.25
494.387	5619.05
494.757	5712.15
495.126	5810.68
495.496	5818.59
495.866	5934.07
496.235	6073.27
496.605	6211.8
496.974	6193.95
497.344	6318.69
497.713	6442.98
498.082	6465.58
498.452	6639.59
498.821	6692.47
499.19	6781.05
499.559	6856.53
499.928	6953.48
500.298	7005
500.667	7102.85
501.036	7174.49
501.405	7261.72
501.774	7290.19
502.143	7400.24
502.512	7513.91
502.88	7557.08
503.249	7603.85
503.618	7705.09
503.987	7809.27
504.356	7882.04
504.724	7907.8
505.093	7996.39
505.462	8018.98
505.83	8136.72
506.199	8232.76
506.567	8357.05
506.936	8321.35
507.304	8475.02
507.672	8510.27
508.041	8601.79
508.409	8684.05
508.777	8804.95
509.145	8768.34
509.514	8832.52
509.882	8876.59
510.25	8926.76
510.618	9011.5
510.986	9026.19
511.354	9178.05
511.722	9269.57
512.09	9364.94
512.458	9312.28
512.826	9423.92
513.193	9496.01
513.561	9494.2
513.929	9564.48
514.297	9706.17
514.664	9798.37
515.032	9823
515.4	9904.58
515.767	9967.86
516.135	9973.96
516.502	9950.46
516.869	10199.27
517.237	10185.03
517.604	10152.94
517.972	10249.66
518.339	10362.65
518.706	10362.88
519.073	10377.79
519.44	10517.9
519.808	10587.05
520.175	10662.76
520.542	10746.14
520.909	10735.52
521.276	10786.37
521.643	10778.91
522.009	10956.76
522.376	11085.57
522.743	11056.19
523.11	11160.14
523.477	11189.97
523.843	11328.73
524.21	11444.88
524.577	11518.33
524.943	11580.47
525.31	11666.35
525.676	11714.71
526.043	11866.34
526.409	11790.64
526.776	11955.38
527.142	11997.86
527.508	12137.07
527.874	12128.71
528.241	12256.39
528.607	12258.87
528.973	12353.11
529.339	12419.09
529.705	12537.06
530.071	12526.21
530.437	12592.42
530.803	12659.54
531.169	12742.93
531.535	12804.85
531.901	12843.26
532.267	12808.01
532.632	12985.41
532.998	12983.37
533.364	13112.64
533.73	13190.6
534.095	13311.73
534.461	13274.89
534.826	13384.94
535.192	13379.3
535.557	13507.43
535.923	13511.04
536.288	13632.4
536.653	13574.32
537.019	13643.02
537.384	13643.69
537.749	13820.19
538.114	13826.74
538.479	13814.31
538.845	13891.82
539.21	13935.44
539.575	13944.25
539.94	14000.52
540.305	14150.35
540.67	14135.21
541.034	14254.3
541.399	14217.69
541.764	14326.61
542.129	14400.06
542.494	14383.11
542.858	14430.57
543.223	14489.1
543.587	14694.74
543.952	14590.56
544.316	14739.26
544.681	14659.71
545.045	14748.75
545.41	14861.29
545.774	14897.9
546.138	14911.23
546.503	14988.07
546.867	14966.82
547.231	15217.21
547.595	15079.82
547.959	15212.24
548.324	15301.28
548.688	15284.1
549.052	15348.73
549.416	15339.92
549.779	15350.54
550.143	15454.95
550.507	15581.72
550.871	15590.76
551.235	15549.18
551.599	15701.72
551.962	15778.78
552.326	15852.22
552.689	15927.25
553.053	15852
553.417	15950.53
553.78	16085.21
554.143	16064.65
554.507	16229.62
554.87	16226
555.234	16370.85
555.597	16320.23
555.96	16341.93
556.323	16379.89
556.686	16483.39
557.05	16543.51
557.413	16600.68
557.776	16591.87
558.139	16750.51
558.502	16739.66
558.865	16868.69
559.228	16915.7
559.59	16974.91
559.953	17013.55
560.316	17146.65
560.679	17122.47
561.041	17221.45
561.404	17306.65
561.767	17533.54
562.129	17341.9
562.492	17649.24
562.854	17482.46
563.217	17613.99
563.579	17801.1
563.941	17777.6
564.304	17793.64
564.666	17889.91
565.028	17983.02
565.39	18009.91
565.753	18043.58
566.115	18194.54
566.477	18275.21
566.839	18213.29
567.201	18385.49
567.563	18392.27
567.925	18514.75
568.287	18566.96
568.648	18588.42
569.01	18780.73
569.372	18907.74
569.734	18866.38
570.095	18885.37
570.457	19012.59
570.819	19003.1
571.18	19182.53
571.542	19313.15
571.903	19267.95
572.265	19316.09
572.626	19432.24
572.987	19476.54
573.349	19675.4
573.71	19591.11
574.071	19728.51
574.432	19908.84
574.794	20056.41
575.155	20037.88
575.516	20056.63
575.877	20291.66
576.238	20295.5
576.599	20427.25
576.96	20422.05
577.32	20560.12
577.681	20780.23
578.042	20807.57
578.403	20980
578.763	21162.82
579.124	21172.31
579.485	21403.49
579.845	21513.77
580.206	21683.94
580.566	21904.95
580.927	21938.84
581.287	22195.79
581.648	22186.52
582.008	22524.14
582.368	22599.62
582.728	22854.98
583.089	22852.27
583.449	22969.55
583.809	23186.72
584.169	23491.12
584.529	23495.19
584.889	23911.22
585.249	23891.79
585.609	24067.38
585.969	24448.38
586.329	24581.26
586.688	24769.96
587.048	24896.28
587.408	24937.41
587.768	25274.8
588.127	25497.39
588.487	25629.59
588.846	26002.01
589.206	26078.4
589.565	26340.76
589.925	26656.69
590.284	26816.91
590.643	27010.12
591.003	27241.08
591.362	27649.88
591.721	27724.23
592.08	27975.75
592.44	28154.95
592.799	28538.67
593.158	28526.69
593.517	28763.75
593.876	28958.32
594.235	29243.96
594.593	29469.04
594.952	29538.87
595.311	29810.95
595.67	30112.87
596.029	30492.97
596.387	30573.19
596.746	30849.57
597.104	30999.4
597.463	31174.76
597.822	31489.33
598.18	31552.83
598.538	31727.29
598.897	32115.53
599.255	32108.75
599.613	32702.18
599.972	32614.72
600.33	32861.49
600.688	32915.96
601.046	33189.85
601.404	33521.59
601.762	33507.35
602.12	33908.47
602.478	33917.29
602.836	34159.54
603.194	34150.95
603.552	34367.44
603.91	34359.53
604.268	34636.82
604.625	34793.87
604.983	35145.28
605.341	35032.06
605.698	35339.62
606.056	35480.18
606.413	35731.48
606.771	35725.15
607.128	35845.15
607.485	35944.13
607.843	36085.36
608.2	36303.21
608.557	36655.52
608.914	36493.94
609.272	36850.99
609.629	36963.99
609.986	37134.15
610.343	37039.46
610.7	37538.21
611.057	37539.34
611.414	37662.95
611.771	37848.48
612.127	37866.33
612.484	38148.59
612.841	38242.14
613.198	38248.02
613.554	38276.04
613.911	38544.28
614.267	38792.64
614.624	38749.93
614.98	38888.91
615.337	39044.83
615.693	39109.69
616.05	39250.48
616.406	39369.12
616.762	39343.81
617.118	39391.72
617.475	39559.17
617.831	39678.04
618.187	39665.16
618.543	39858.37
618.899	40115.09
619.255	40007.52
619.611	40163
619.967	40163.9
620.323	40350.11
620.678	40346.72
621.034	40211.81
621.39	40411.35
621.746	40378.59
622.101	40830.32
622.457	40745.58
622.812	40838.23
623.168	40788.29
623.523	40848.86
623.879	41086.59
624.234	40896.99
624.589	41035.52
624.945	41221.5
625.3	41100.37
625.655	41181.28
626.01	41220.37
626.365	41383.53
626.72	41276.41
627.075	41365.68
627.43	41360.93
627.785	41260.6
628.14	41395.73
628.495	41422.63
628.85	41484.32
629.205	41334.04
629.559	41569.51
629.914	41454.26
630.269	41687.48
630.623	41442.29
630.978	41468.95
631.332	41691.09
631.687	41822.16
632.041	41471.44
632.396	41530.42
632.75	41423.08
633.104	41642.05
633.459	41485.45
633.813	41453.81
634.167	41459.23
634.521	41371.55
634.875	41478.22
635.229	41564.32
635.583	41402.06
635.937	41467.37
636.291	41472.79
636.645	41378.11
636.999	41300.14
637.352	41474.83
637.706	41273.93
638.06	41527.26
638.413	41294.72
638.767	41270.77
639.121	41493.36
639.474	41075.97
639.828	41153.71
640.181	41179.47
640.534	41287.26
640.888	41109.41
641.241	41044.78
641.594	40951
641.947	41333.59
642.301	41194.61
642.654	41143.99
643.007	41193.93
643.36	41130.2
643.713	41083.88
644.066	41163.2
644.419	40837.56
644.771	40813.15
645.124	40498.81
645.477	40285.03
645.83	40156.22
646.182	40054.07
646.535	39898.37
646.888	39995.54
647.24	39690.47
647.593	40157.35
647.945	39896.34
648.298	39844.36
648.65	39588.78
649.002	39612.73
649.355	39777.25
649.707	39831.93
650.059	39877.81
650.411	40325.03
650.763	40307.85
651.115	40788.52
651.467	40647.28
651.819	40505.36
652.171	40503.33
652.523	40422.65
652.875	40432.6
653.227	40304.46
653.578	40634.4
653.93	40493.16
654.282	40369.55
654.633	40239.38
654.985	40359.6
655.337	40332.71
655.688	40378.13
656.039	40567.51
656.391	40170.91
656.742	40144.92
657.094	40321.19
657.445	40468.75
657.796	40338.36
658.147	40342.2
658.498	40221.53
658.849	40208.42
659.2	40194.41
659.551	40113.51
659.902	40243.67
660.253	40256.33
660.604	40215.65
660.955	40118.93
661.306	40171.13
661.656	40215.65
662.007	40231.92
662.358	40139.27
662.708	40036.9
663.059	40164.35
663.409	39796.68
663.76	40179.04
664.11	40238.25
664.461	40135.65
664.811	40077.35
665.161	40073.73
665.511	40035.77
665.862	40044.13
666.212	40117.58
666.562	40185.6
666.912	39958.48
667.262	40025.37
667.612	40064.7
667.962	40103.11
668.312	40052.94
668.662	40306.5
669.011	40173.84
669.361	39887.98
669.711	39917.35
670.06	40033.28
670.41	39738.6
670.76	39869.22
671.109	39858.15
671.459	39969.56
671.808	39710.58
672.157	39913.29
672.507	39727.98
672.856	39717.59
673.205	39821.99
673.554	39863.8
673.904	39800.75
674.253	39968.2
674.602	39673.97
674.951	39285.05
675.3	39191.27
675.649	39753.29
675.998	39706.29
676.346	39739.73
676.695	39777.92
677.044	39508.33
677.393	39711.26
677.741	39564.37
678.09	39495.44
678.438	39491.83
678.787	39446.63
679.135	39506.07
679.484	39174.32
679.832	39539.96
680.181	39272.63
680.529	39219.75
680.877	39146.75
681.225	39164.15
681.573	39419.74
681.922	39048.45
682.27	38968.68
682.618	38961.9
682.966	38918.06
683.314	38765.97
683.661	38846.2
684.009	38729.36
684.357	38517.84
684.705	38739.53
685.053	38603.04
685.4	38592.87
685.748	38440.56
686.095	38433.78
686.443	38314.01
686.79	38221.35
687.138	38238.98
687.485	38347.9
687.832	38114.69
688.18	38149.49
688.527	37964.41
688.874	38008.7
689.221	37863.4
689.568	37789.73
689.915	37591.77
690.262	37729.84
690.609	37488.72
690.956	37472.9
691.303	37401.26
691.65	37378.89
691.997	37232.68
692.344	37147.26
692.69	36911.11
693.037	37065.9
693.383	36734.39
693.73	36821.62
694.077	36686.7
694.423	36578.23
694.769	36506.37
695.116	36479.25
695.462	36356.77
695.808	36387.5
696.155	36368.3
696.501	35990
696.847	36016.89
697.193	35775.77
697.539	36004.01
697.885	35671.82
698.231	35645.38
698.577	35695.09
698.923	35602.89
699.269	35379.62
699.614	35432.73
699.96	35269.34
700.306	35310.02
700.651	34983.25
700.997	34954.55
701.342	34931.27
701.688	34905.96
702.033	34662.13
702.379	34735.34
702.724	34573.31
703.069	34677.27
703.415	34238.86
703.76	34419.42
704.105	34355.69
704.45	34368.12
704.795	33986.66
705.14	33939.66
705.485	34024.4
705.83	33844.07
706.175	33793.45
706.52	33850.4
706.865	33710.06
707.209	33508.71
707.554	33557.75
707.899	33644.07
708.243	33285.89
708.588	33407.02
708.932	33203.86
709.277	33112.56
709.621	33148.72
709.966	32871.89
710.31	33047.03
710.654	32618.34
710.998	32808.16
711.342	32828.5
711.687	32681.61
712.031	32601.39
712.375	32443.43
712.719	32565.01
713.063	32426.25
713.407	32592.58
713.75	32283.43
714.094	32325.69
714.438	32221.96
714.782	32220.83
715.125	32125.69
715.469	32089.76
715.812	31955.08
716.156	31798.92
716.499	31752.6
716.843	31799.38
717.186	31620.85
717.53	31694.97
717.873	31716.44
718.216	31527.74
718.559	31471.47
718.902	31333.85
719.246	31369.78
719.589	31278.71
719.932	31214.31
720.275	31066.06
720.617	31195.1
720.96	31014.54
721.303	31057.93
721.646	31014.76
721.989	30804.83
722.331	30965.5
722.674	30944.26
723.016	30792.4
723.359	30785.39
723.701	30891.6
724.044	30614.55
724.386	30326.42
724.729	30657.03
725.071	30452.52
725.413	30502.23
725.755	30477.6
726.097	30300.66
726.439	30262.24
726.782	30250.04
727.124	30311.51
727.465	30212.07
727.807	30146.76
728.149	30056.82
728.491	29963.27
728.833	30090.27
729.175	29884.62
729.516	29822.25
729.858	29784.97
730.199	29764.4
730.541	29755.14
730.882	29720.79
731.224	29807.11
731.565	29510.17
731.906	29478.08
732.248	29595.37
732.589	29443.73
732.93	29433.56
733.271	29337.75
733.612	29437.18
733.953	29473.34
734.294	29288.71
734.635	29219.33
734.976	29300.23
735.317	29083.97
735.658	29122.84
735.999	29086.23
736.339	29040.8
736.68	29187.24
737.021	28912.9
737.361	28865.67
737.702	29127.13
738.042	28972.33
738.383	28954.03
738.723	28951.99
739.063	28820.25
739.404	28841.04
739.744	28710.19
740.084	28727.59
740.424	28708.84
740.764	28559.46
741.104	28731.89
741.444	28376.87
741.784	28354.95
742.124	28370.54
742.464	28322.63
742.804	28399.47
743.143	28326.47
743.483	28307.94
743.823	28148.4
744.162	28086.93
744.502	28173.71
744.841	28050.32
745.181	28281.95
745.52	28075.63
745.86	28042.19
746.199	28013.26
746.538	27919.25
746.877	27965.13
747.216	27853.04
747.556	27863.89
747.895	27760.61
748.234	27669.31
748.573	27683.33
748.911	27588.41
749.25	27693.72
749.589	27434.29
749.928	27598.13
750.267	27701.4
750.605	27421.64
750.944	27360.17
751.283	27289.21
751.621	27331.02
751.96	27152.04
752.298	27241.08
752.636	27248.53
752.975	27059.84
753.313	26955.89
753.651	27101.65
753.989	26909.33
754.327	26804.7
754.666	26935.77
755.004	26773.52
755.342	26848.55
755.679	26713.41
756.017	26592.73
756.355	26684.26
756.693	26554.99
757.031	26513.41
757.368	26436.35
757.706	26355.68
758.044	26265.74
758.381	26285.4
758.719	26255.34
759.056	26235.23
759.394	26048.11
759.731	25879.08
760.068	25902.13
760.405	25868.01
760.743	25694.9
761.08	25912.75
761.417	25601.35
761.754	25657.16
762.091	25623.49
762.428	25536.94
762.765	25345.99
763.102	25385.31
763.438	25219.44
763.775	25096.28
764.112	25113.9
764.449	25272.09
764.785	25034.36
765.122	24897.18
765.458	24838.43
765.795	24740.35
766.131	24820.8
766.467	24673.69
766.804	24386.92
767.14	24386.69
767.476	24375.16
767.812	24282.29
768.148	24449.96
768.485	24134.49
768.821	23970.66
769.157	24054.95
769.492	24011.33
769.828	24006.59
770.164	23799.13
770.5	23685.92
770.836	23629.2
771.171	23499.03
771.507	23445.25
771.842	23251.35
772.178	23361.86
772.513	23260.39
772.849	23210.68
773.184	23061.53
773.519	23054.07
773.855	22923.22
774.19	22904.92
774.525	22807.07
774.86	22663.8
775.195	22741.99
775.53	22629.67
775.865	22475.33
776.2	22396.23
776.535	22226.52
776.87	22177.93
777.205	22056.36
777.539	21956.24
777.874	22101.33
778.209	21902.46
778.543	21842.35
778.878	21584.96
779.212	21672.41
779.547	21574.11
779.881	21530.04
780.215	21353.77
780.55	21482.81
780.884	21280.78
781.218	21278.3
781.552	21316.49
781.886	21008.7
782.22	21150.39
782.554	21024.52
782.888	20713.57
783.222	20679.89
783.556	20626.56
783.889	20566.9
784.223	20412.33
784.557	20344.54
784.89	20454.82
785.224	20293.24
785.557	20144.09
785.891	20095.05
786.224	20006.69
786.558	20032.23
786.891	19891.44
787.224	19835.85
787.557	19646.7
787.891	19696.42
788.224	19668.17
788.557	19641.73
788.89	19619.13
789.223	19588.85
789.556	19402.64
789.888	19373.26
790.221	19296.88
790.554	19129.2
790.887	19088.3
791.219	19109.99
791.552	18995.42
791.884	18926.72
792.217	18838.59
792.549	18776.89
792.882	18666.16
793.214	18643.34
793.546	18550.68
793.879	18492.16
794.211	18420.74
794.543	18450.8
794.875	18285.38
795.207	18404.47
795.539	18313.85
795.871	18259.17
796.203	18148.89
796.535	17966.07
796.867	17950.47
797.198	17986.63
797.53	17970.36
797.862	17799.52
798.193	17823.7
798.525	17706.19
798.856	17715.9
799.188	17499.19
799.519	17548.45
799.85	17465.74
800.182	17467.1
800.513	17372.41
800.844	17192.3
801.175	17323.15
801.506	17293.54
801.837	17172.64
802.168	17176.94
802.499	16990.5
802.83	16997.28
803.161	16961.57
803.491	16908.92
803.822	16928.35
804.153	16831.86
804.483	16686.33
804.814	16630.51
805.145	16581.02
805.475	16606.55
805.805	16537.4
806.136	16568.82
806.466	16514.13
806.796	16397.52
807.126	16375.15
807.457	16308.94
807.787	16322.27
808.117	16156.17
808.447	16122.05
808.777	16120.69
809.107	16131.54
809.436	16049.73
809.766	16017.19
810.096	15927.02
810.426	15900.58
810.755	15904.65
811.085	15832.79
811.414	15822.62
811.744	15634.83
812.073	15683.42
812.403	15680.25
812.732	15531.33
813.061	15532.91
813.39	15409.07
813.719	15504.66
814.049	15559.8
814.378	15486.13
814.707	15356.64
815.036	15390.77
815.365	15219.47
815.693	15124.11
816.022	15248.17
816.351	15085.24
816.68	15124.33
817.008	15187.16
817.337	15012.47
817.665	14981.96
817.994	15079.59
818.322	15020.16
818.651	14861.52
818.979	14867.62
819.307	14877.79
819.636	14893.38
819.964	14732.93
820.292	14809.31
820.62	14759.6
820.948	14742.42
821.276	14814.51
821.604	14696.55
821.932	14745.36
822.259	14700.39
822.587	14669.2
822.915	14554.63
823.243	14664.01
823.57	14633.95
823.898	14619.26
824.225	14507.4
824.553	14511.02
824.88	14608.64
825.207	14626.72
825.535	14615.87
825.862	14668.53
826.189	14595.53
826.516	14647.51
826.843	14720.05
827.17	14586.95
827.497	14701.07
827.824	14580.17
828.151	14578.81
828.478	14596.21
828.805	14657.23
829.131	14588.08
829.458	14633.73
829.785	14478.7
830.111	14500.62
830.438	14569.55
830.764	14572.94
831.09	14617.68
831.417	14450.23
831.743	14527.74
832.069	14522.99
832.395	14421.98
832.722	14464.01
833.048	14389.21
833.374	14443.67
833.7	14362.77
834.026	14421.53
834.351	14470.34
834.677	14448.42
835.003	14429.89
835.329	14413.39
835.654	14403
835.98	14279.38
836.306	14303.34
836.631	14316.22
836.956	14315.77
837.282	14292.94
837.607	14259.27
837.932	14165.49
838.258	14183.34
838.583	14154.42
838.908	14107.86
839.233	14107.64
839.558	14045.27
839.883	14070.35
840.208	14029.67
840.533	13971.82
840.858	13968.66
841.182	13917.81
841.507	13914.87
841.832	13895.67
842.156	13873.97
842.481	13852.5
842.805	13765.5
843.13	13788.32
843.454	13816.12
843.778	13663.13
844.103	13713.98
844.427	13576.35
844.751	13668.55
845.075	13638.95
845.399	13566.18
845.723	13408.67
846.047	13484.38
846.371	13440.08
846.695	13403.48
847.019	13307.88
847.343	13177.04
847.666	13130.94
847.99	13095.91
848.313	13136.82
848.637	13049.81
848.96	12911.28
849.284	13030.38
849.607	12925.52
849.931	12826.54
850.254	12727.33
850.577	12621.12
850.9	12652.76
851.223	12566.89
851.546	12582.25
851.869	12484.86
852.192	12570.28
852.515	12381.13
852.838	12391.3
853.161	12318.08
853.483	12289.15
853.806	12255.93
854.129	12263.62
854.451	12104.3
854.774	12130.51
855.096	12068.6
855.419	12084.87
855.741	11987.92
856.063	11867.7
856.385	11936.4
856.708	11769.85
857.03	11761.48
857.352	11818.88
857.674	11814.36
857.996	11710.86
858.318	11648.72
858.64	11632.45
858.961	11589.74
859.283	11583.41
859.605	11522.62
859.926	11542.96
860.248	11478.78
860.57	11423.87
860.891	11483.07
861.212	11395.84
861.534	11394.71
861.855	11353.36
862.176	11321.27
862.498	11312.46
862.819	11320.82
863.14	11313.59
863.461	11301.84
863.782	11208.73
864.103	11256.87
864.424	11107.72
864.745	11213.25
865.065	11135.74
865.386	11094.38
865.707	11106.59
866.027	11084.67
866.348	11082.63
866.668	11075.17
866.989	11015.74
867.309	10942.97
867.63	10935.74
867.95	10895.97
868.27	10883.77
868.59	10925.8
868.91	10846.03
869.23	10890.77
869.55	10856.42
869.87	10868.17
870.19	10837.89
870.51	10863.88
870.83	10864.56
871.15	10806.03
871.469	10721.51
871.789	10775.52
872.109	10763.77
872.428	10706.6
872.748	10729.87
873.067	10582.08
873.386	10642.64
873.706	10579.14
874.025	10642.87
874.344	10559.03
874.663	10642.42
874.982	10555.41
875.301	10576.2
875.62	10471.35
875.939	10524.45
876.258	10572.36
876.577	10435.42
876.896	10453.72
877.214	10425.7
877.533	10453.04
877.852	10414.85
878.17	10394.29
878.489	10371.01
878.807	10396.77
879.125	10268.19
879.444	10349.32
879.762	10269.32
880.08	10299.6
880.398	10256.89
880.716	10281.3
881.034	10259.6
881.352	10245.82
881.67	10246.72
881.988	10198.14
882.306	10139.15
882.624	10167.85
882.941	10072.04
883.259	10034.52
883.577	10058.03
883.894	9970.35
884.212	10005.15
884.529	9985.03
884.846	9964.24
885.164	9941.42
885.481	9840.18
885.798	9886.96
886.115	9879.27
886.432	9839.95
886.75	9787.98
887.067	9792.72
887.383	9799.95
887.7	9724.02
888.017	9738.49
888.334	9754.31
888.651	9671.6
888.967	9642.9
889.284	9612.16
889.6	9574.88
889.917	9543.01
890.233	9532.39
890.55	9523.58
890.866	9486.06
891.182	9458.95
891.498	9465.5
891.815	9408.1
892.131	9384.37
892.447	9335.33
892.763	9352.73
893.079	9297.37
893.395	9224.6
893.71	9231.16
894.026	9189.35
894.342	9198.39
894.657	9151.38
894.973	9133.08
895.289	9089.69
895.604	9064.38
895.92	9065.51
896.235	8956.13
896.55	8968.11
896.865	8915.23
897.181	8995
897.496	8884.72
897.811	8835.23
898.126	8858.06
898.441	8759.53
898.756	8805.18
899.071	8757.04
899.386	8792.75
899.7	8678.63
900.015	8657.84
900.33	8627.33
900.644	8560.89
900.959	8592.08
901.273	8522.02
901.588	8487.9
901.902	8467.11
902.216	8449.93
902.531	8423.72
902.845	8385.3
903.159	8281.35
903.473	8248.58
903.787	8266.89
904.101	8200.67
904.415	8202.71
904.729	8183.05
905.042	8157.29
905.356	8131.98
905.67	8102.82
905.984	8101.02
906.297	8030.51
906.611	7990.96
906.924	8031.87
907.237	7942.15
907.551	7957.74
907.864	7901.7
908.177	7923.62
908.491	7882.72
908.804	7814.02
909.117	7701.03
909.43	7723.85
909.743	7680.91
910.056	7674.59
910.368	7647.24
910.681	7611.31
910.994	7529.73
911.307	7526.57
911.619	7448.38
911.932	7535.83
912.244	7393.24
912.557	7396.4
912.869	7363.41
913.181	7379.23
913.494	7351.66
913.806	7269.63
914.118	7210.19
914.43	7242.28
914.742	7167.93
915.054	7121.83
915.366	7185.56
915.678	7105.11
915.99	7071.89
916.302	6995.96
916.613	7007.71
916.925	6993.7
917.236	6921.84
917.548	6915.74
917.859	6884.78
918.171	6868.73
918.482	6866.7
918.794	6854.04
919.105	6792.35
919.416	6743.99
919.727	6775.4
920.038	6705.57
920.349	6700.15
920.66	6619.02
920.971	6622.86
921.282	6597.55
921.593	6540.6
921.903	6502.41
922.214	6505.58
922.525	6459.25
922.835	6435.97
923.146	6447.27
923.456	6385.81
923.767	6330.44
924.077	6316.88
924.387	6311.68
924.697	6301.52
925.008	6294.51
925.318	6235.3
925.628	6212.48
925.938	6188.52
926.248	6155.3
926.558	6144.23
926.867	6123.44
927.177	6088.19
927.487	6066.49
927.796	5992.82
928.106	6028.08
928.416	5987.17
928.725	5964.57
929.034	5952.37
929.344	5930
929.653	5904.69
929.962	5895.2
930.271	5823.11
930.581	5856.1
930.89	5772.94
931.199	5794.41
931.508	5769.55
931.817	5714.64
932.125	5736.11
932.434	5728.87
932.743	5626.96
933.051	5641.65
933.36	5578.82
933.669	5536.79
933.977	5547.86
934.286	5473.97
934.594	5503.8
934.902	5456.79
935.21	5429
935.519	5476.9
935.827	5413.63
936.135	5366.62
936.443	5305.61
936.751	5334.99
937.059	5329.56
937.367	5299.73
937.674	5242.79
937.982	5285.27
938.29	5195.33
938.597	5194.2
938.905	5146.29
939.213	5138.16
939.52	5121.43
939.827	5116.91
940.135	5059.97
940.442	5005.5
940.749	5014.09
941.056	5036.92
941.363	4980.42
941.67	4967.54
941.977	4963.02
942.284	4910.59
942.591	4950.82
942.898	4894.55
943.205	4898.16
943.511	4837.6
943.818	4830.82
944.125	4767.09
944.431	4791.05
944.738	4792.85
945.044	4733.19
945.35	4722.12
945.657	4691.39
945.963	4692.29
946.269	4662.69
946.575	4662.24
946.881	4623.37
947.187	4590.6
947.493	4590.15
947.799	4552.86
948.105	4549.02
948.41	4496.82
948.716	4485.74
949.022	4481.68
949.327	4476.93
949.633	4439.19
949.938	4431.06
950.244	4460.89
950.549	4388.8
950.854	4421.34
951.16	4401.45
951.465	4306.99
951.77	4335.01
952.075	4287.78
952.38	4265.18
952.685	4270.61
952.99	4260.66
953.294	4236.71
953.599	4233.55
953.904	4188.35
954.209	4165.3
954.513	4183.15
954.818	4184.51
955.122	4123.27
955.426	4074.91
955.731	4085.08
956.035	4100.44
956.339	4021.8
956.643	4022.25
956.948	4007.56
957.252	3989.94
957.556	3957.4
957.86	3965.08
958.163	3990.62
958.467	3918.3
958.771	3929.83
959.075	3906.78
959.378	3863.39
959.682	3877.62
959.985	3846.44
960.289	3843.27
960.592	3841.92
960.896	3804.86
961.199	3797.85
961.502	3783.39
961.805	3759.21
962.108	3723.28
962.411	3746.1
962.714	3673.11
963.017	3669.95
963.32	3672.43
963.623	3668.14
963.926	3657.74
964.228	3624.75
964.531	3598.76
964.833	3575.94
965.136	3605.31
965.438	3603.28
965.741	3512.21
966.043	3528.48
966.345	3509.95
966.648	3464.3
966.95	3452.1
967.252	3446.45
967.554	3453.68
967.856	3387.92
968.158	3440.8
968.46	3360.58
968.761	3366.9
969.063	3337.75
969.365	3336.4
969.666	3356.06
969.968	3323.06
970.269	3281.93
970.571	3304.08
970.872	3287.58
971.174	3224.76
971.475	3241.26
971.776	3235.83
972.077	3240.8
972.378	3188.83
972.679	3215.49
972.98	3204.42
973.281	3168.94
973.582	3139.56
973.883	3147.47
974.183	3126.68
974.484	3125.55
974.785	3089.17
975.085	3102.96
975.386	3094.14
975.686	3070.87
975.986	3036.74
976.287	3017.53
976.587	2971.21
976.887	2974.37
977.187	3026.57
977.487	3029.06
977.787	2959
978.087	2939.8
978.387	2947.25
978.687	2976.18
978.987	2912.23
979.286	2900.02
979.586	2899.34
979.885	2880.14
980.185	2848.05
980.484	2859.35
980.784	2862.74
981.083	2836.75
981.382	2843.98
981.682	2761.95
981.981	2777.77
982.28	2802.17
982.579	2763.3
982.878	2786.81
983.177	2759.24
983.475	2759.01
983.774	2730.54
984.073	2710.65
984.372	2686.24
984.67	2690.31
984.969	2687.15
985.267	2680.82
985.566	2661.84
985.864	2639.46
986.162	2644.21
986.461	2631.1
986.759	2598.11
987.057	2574.83
987.355	2590.65
987.653	2593.14
987.951	2556.53
988.249	2559.69
988.547	2531.44
988.844	2527.83
989.142	2500.94
989.44	2505.46
989.737	2504.55
990.035	2475.4
990.332	2453.71
990.63	2465.01
990.927	2463.42
991.224	2423.65
991.521	2443.09
991.819	2404.67
992.116	2392.01
992.413	2385.01
992.71	2333.71
993.006	2370.32
993.303	2338
993.6	2350.21
993.897	2305.91
994.193	2326.93
994.49	2291.9
994.787	2299.59
995.083	2247.16
995.379	2320.38
995.676	2274.05
995.972	2251.68
996.268	2223.2
996.565	2227.72
996.861	2232.7
997.157	2207.84
997.453	2203.32
997.749	2196.54
998.044	2191.57
998.34	2201.28
998.636	2189.08
998.932	2148.18
999.227	2123.09
999.523	2086.94
999.818	2090.1
1000.114	2078.12
1000.409	2112.92
1000.704	2072.7
1001	2090.1
1001.295	2063.89
1001.59	2057.33
1001.885	2063.43
1002.18	2044.68
1002.475	2017.79
1002.77	1987.5
1003.065	2002.19
1003.359	1978.46
1003.654	1959.48
1003.949	1965.36
1004.243	1980.72
1004.538	1918.81
1004.832	1913.16
1005.127	1928.97
1005.421	1908.41
1005.715	1880.84
1006.009	1891.24
1006.304	1900.95
1006.598	1897.34
1006.892	1867.96
1007.186	1836.77
1007.48	1822.76
1007.773	1831.8
1008.067	1821.18
1008.361	1813.95
1008.655	1827.28
1008.948	1809.66
1009.242	1754.74
1009.535	1728.98
1009.829	1751.58
1010.122	1744.35
1010.415	1745.02
1010.708	1698.25
1011.001	1722.65
1011.295	1681.3
1011.588	1679.04
1011.881	1664.8
1012.173	1674.07
1012.466	1647.85
1012.759	1678.59
1013.052	1676.33
1013.344	1628.87
1013.637	1627.74
1013.93	1631.81
1014.222	1615.08
1014.514	1629.32
1014.807	1570.57
1015.099	1569.89
1015.391	1589.55
1015.683	1562.2
1015.976	1569.21
1016.268	1520.85
1016.56	1544.58
1016.851	1502.77
1017.143	1492.6
1017.435	1500.74
1017.727	1501.64
1018.018	1469.78
1018.31	1462.32
1018.602	1450.57
1018.893	1461.42
1019.185	1432.72
1019.476	1473.17
1019.767	1429.78
1020.058	1434.07
1020.35	1418.25
1020.641	1397.92
1020.932	1410.57
1021.223	1383.45
1021.514	1396.79
1021.804	1349.78
1022.095	1379.84
1022.386	1350.91
1022.677	1342.1
1022.967	1332.15
1023.258	1308.2
1023.548	1299.39
1023.839	1327.63
1024.129	1306.17
1024.419	1298.93
1024.709	1283.79
1025	1278.37
1025.29	1259.61
1025.58	1275.88
1025.87	1248.54
1026.16	1251.7
1026.449	1250.8
1026.739	1228.43
1027.029	1257.81
1027.319	1220.07
1027.608	1204.25
1027.898	1188.2
1028.187	1183.68
1028.477	1196.56
1028.766	1160.63
1029.055	1163.12
1029.344	1152.95
1029.634	1142.1
1029.923	1159.73
1030.212	1112.5
1030.501	1146.17
1030.79	1124.25
1031.078	1136
1031.367	1101.43
1031.656	1084.03
1031.945	1108.66
1032.233	1113.4
1032.522	1085.61
1032.81	1049
1033.099	1074.31
1033.387	1044.03
1033.675	1065.49
1033.963	1037.7
1034.251	1046.06
1034.54	1030.02
1034.828	1016.23
1035.116	1033.86
1035.403	987.98
1035.691	1001.09
1035.979	987.76
1036.267	968.1
1036.554	994.31
1036.842	975.55
1037.129	1006.97
1037.417	967.42
1037.704	961.99
1037.992	971.49
1038.279	959.51
1038.566	953.63
1038.853	953.63
1039.14	953.63
