Data from hue_290_FLMS001491_00020.txt Node
Date: Tue Feb 07 15:52:24 GMT 2017
User: dcchb
Spectrometer: FLMS00149
Trigger mode: 0
Integration Time (sec): 2.000000E-2
Scans to average: 10
Electric dark correction enabled: true
Nonlinearity correction enabled: false
Boxcar width: 0
XAxis mode: Wavelengths
Number of Pixels in Spectrum: 2048
>>>>>Begin Spectral Data<<<<<
341.393	-17.15
341.776	-17.15
342.16	-17.15
342.543	-71.61
342.927	-77.71
343.31	-70.03
343.693	-61.44
344.077	-54.66
344.46	-61.89
344.843	-64.15
345.226	-34.77
345.61	-32.74
345.993	-21.89
346.376	-3.59
346.759	4.1
347.142	32.12
347.525	33.02
347.908	61.95
348.291	68.95
348.674	91.33
349.057	113.7
349.44	147.37
349.823	144.21
350.206	160.7
350.588	181.49
350.971	198.22
351.354	215.16
351.737	211.55
352.119	245.22
352.502	239.12
352.884	270.3
353.267	267.59
353.65	290.64
354.032	275.5
354.414	311.66
354.797	311.88
355.179	326.12
355.562	325.67
355.944	301.04
356.326	317.31
356.709	343.75
357.091	324.09
357.473	338.78
357.855	331.54
358.238	330.87
358.62	322.28
359.002	313.92
359.384	338.78
359.766	313.47
360.148	351.43
360.53	318.66
360.912	339
361.294	298.78
361.676	305.78
362.057	306.01
362.439	328.83
362.821	330.19
363.203	311.43
363.584	315.5
363.966	315.95
364.348	315.5
364.729	318.89
365.111	316.86
365.493	334.03
365.874	316.63
366.256	324.54
366.637	320.92
367.019	306.69
367.4	301.94
367.781	309.4
368.163	316.18
368.544	303.75
368.925	285.44
369.306	303.98
369.688	304.88
370.069	302.17
370.45	301.04
370.831	306.23
371.212	295.61
371.593	301.94
371.974	321.6
372.355	291.77
372.736	300.59
373.117	315.73
373.498	288.38
373.879	282.96
374.26	301.49
374.641	306.46
375.021	308.27
375.402	300.13
375.783	323.18
376.163	317.99
376.544	311.88
376.925	312.79
377.305	306.91
377.686	309.62
378.066	326.57
378.447	326.35
378.827	336.06
379.208	320.92
379.588	327.48
379.968	316.86
380.349	326.35
380.729	339.68
381.109	316.4
381.489	321.83
381.87	332.45
382.25	318.66
382.63	341.04
383.01	334.03
383.39	321.38
383.77	331.32
384.15	319.57
384.53	325.22
384.91	324.09
385.29	329.96
385.67	326.12
386.049	323.64
386.429	352.34
386.809	325.44
387.189	322.96
387.568	335.16
387.948	336.06
388.328	339.68
388.707	348.49
389.087	339
389.466	359.79
389.846	354.82
390.225	354.82
390.605	350.3
390.984	351.88
391.363	346.46
391.743	352.11
392.122	366.35
392.501	369.74
392.881	353.69
393.26	364.76
393.639	371.54
394.018	373.8
394.397	382.84
394.776	369.51
395.155	368.15
395.534	368.15
395.913	374.71
396.292	371.32
396.671	387.81
397.05	380.81
397.429	389.85
397.808	401.15
398.186	392.33
398.565	388.27
398.944	386.46
399.323	386.68
399.701	375.39
400.08	400.47
400.458	390.07
400.837	400.24
401.215	410.64
401.594	397.08
401.972	403.18
402.351	413.8
402.729	405.89
403.107	418.32
403.486	422.39
403.864	391.2
404.242	414.25
404.62	429.4
404.999	413.35
405.377	419.68
405.755	438.43
406.133	449.96
406.511	434.59
406.889	458.1
407.267	433.69
407.645	454.03
408.023	440.02
408.401	450.64
408.779	444.99
409.156	456.51
409.534	477.53
409.912	490.18
410.29	470.75
410.667	508.49
411.045	496.96
411.422	508.26
411.8	496.74
412.178	534.48
412.555	528.38
412.933	524.53
413.31	521.14
413.687	530.64
414.065	549.17
414.442	566.79
414.819	567.24
415.197	548.04
415.574	572.22
415.951	599.79
416.328	605.21
416.705	579.67
417.082	628.26
417.46	602.72
417.837	616.28
418.214	629.16
418.591	653.34
418.967	632.55
419.344	651.31
419.721	668.49
420.098	655.83
420.475	685.21
420.852	653.34
421.228	690.86
421.605	663.74
421.982	700.12
422.358	699.9
422.735	708.26
423.111	723.17
423.488	745.09
423.864	740.8
424.241	749.84
424.617	776.28
424.994	771.31
425.37	772.44
425.746	774.02
426.123	761.59
426.499	790.52
426.875	823.06
427.251	828.48
427.627	831.64
428.003	834.13
428.379	858.54
428.756	865.99
429.132	843.62
429.507	868.93
429.883	885.2
430.259	929.04
430.635	914.35
431.011	920
431.387	913
431.763	962.71
432.138	967.69
432.514	969.95
432.89	949.61
433.265	992.77
433.641	1016.5
434.016	1014.24
434.392	1040.23
434.767	1022.83
435.143	1051.98
435.518	1067.12
435.894	1095.59
436.269	1075.93
436.644	1074.12
437.02	1118.19
437.395	1105.99
437.77	1128.59
438.145	1150.96
438.52	1169.72
438.895	1185.31
439.271	1171.52
439.646	1189.83
440.021	1220.34
440.395	1221.47
440.77	1197.28
441.145	1245.65
441.52	1277.51
441.895	1216.72
442.27	1236.15
442.645	1244.29
443.019	1283.16
443.394	1258.98
443.769	1287.9
444.143	1269.15
444.518	1288.13
444.892	1276.6
445.267	1314.34
445.641	1283.38
446.016	1308.69
446.39	1328.58
446.764	1330.61
447.139	1326.32
447.513	1343.04
447.887	1329.03
448.262	1331.29
448.636	1334.91
449.01	1323.16
449.384	1363.16
449.758	1369.48
450.132	1396.6
450.506	1402.03
450.88	1404.96
451.254	1355.92
451.628	1397.73
452.002	1426.66
452.376	1426.88
452.75	1424.85
453.123	1449.03
453.497	1442.7
453.871	1436.6
454.244	1488.35
454.618	1488.58
454.992	1498.97
455.365	1530.84
455.739	1529.48
456.112	1554.11
456.486	1541.23
456.859	1538.97
457.232	1562.93
457.606	1572.64
457.979	1590.72
458.352	1600.21
458.725	1615.35
459.099	1649.93
459.472	1654.22
459.845	1660.78
460.218	1661.91
460.591	1669.14
460.964	1674.11
461.337	1707.33
461.71	1717.95
462.083	1746.87
462.456	1752.75
462.829	1764.73
463.201	1763.15
463.574	1749.59
463.947	1785.52
464.32	1846.76
464.692	1858.06
465.065	1865.74
465.438	1880.43
465.81	1864.16
466.183	1894.89
466.555	1933.31
466.928	1916.59
467.3	1936.25
467.672	1932.41
468.045	1981.67
468.417	2004.72
468.789	2014.89
469.161	2025.06
469.534	2037.71
469.906	2095.79
470.278	2079.97
470.65	2084.72
471.022	2145.28
471.394	2158.16
471.766	2142.8
472.138	2175.34
472.51	2190.71
472.882	2236.35
473.253	2200.87
473.625	2271.83
473.997	2330.14
474.369	2261.89
474.74	2340.76
475.112	2366.07
475.484	2373.53
475.855	2438.83
476.227	2408.1
476.598	2496.46
476.97	2509.11
477.341	2517.02
477.713	2547.76
478.084	2570.36
478.455	2601.77
478.827	2604.71
479.198	2678.6
479.569	2655.78
479.94	2717.47
480.311	2755.44
480.682	2826.17
481.053	2832.04
481.424	2867.98
481.795	2888.31
482.166	2905.94
482.537	2920.63
482.908	3016.22
483.279	3004.92
483.65	3026.84
484.021	3081.53
484.391	3106.84
484.762	3112.71
485.133	3144.58
485.503	3191.36
485.874	3222.77
486.244	3228.19
486.615	3292.82
486.985	3341.86
487.356	3347.06
487.726	3349.32
488.097	3450.11
488.467	3417.79
488.837	3485.59
489.207	3492.59
489.578	3572.82
489.948	3594.74
490.318	3620.95
490.688	3625.02
491.058	3708.86
491.428	3680.84
491.798	3715.64
492.168	3726.26
492.538	3787.27
492.908	3789.76
493.278	3864.56
493.648	3840.38
494.017	3892.58
494.387	3909.08
494.757	3883.09
495.126	3932.35
495.496	3936.65
495.866	4000.83
496.235	3984.78
496.605	4058
496.974	4052.58
497.344	4093.03
497.713	4104.78
498.082	4146.13
498.452	4163.99
498.821	4170.99
499.19	4138.45
499.559	4182.29
499.928	4195.4
500.298	4224.32
500.667	4233.82
501.036	4243.98
501.405	4272.46
501.774	4255.96
502.143	4290.31
502.512	4316.07
502.88	4314.72
503.249	4357.88
503.618	4342.06
503.987	4348.61
504.356	4420.7
504.724	4387.94
505.093	4382.06
505.462	4415.05
505.83	4427.71
506.199	4446.92
506.567	4531.43
506.936	4505.45
507.304	4567.14
507.672	4552.45
508.041	4559.46
508.409	4577.99
508.777	4588.83
509.145	4640.13
509.514	4584.54
509.882	4616.4
510.25	4648.72
510.618	4655.05
510.986	4708.61
511.354	4688.04
511.722	4721.94
512.09	4710.41
512.458	4740.24
512.826	4772.56
513.193	4846.91
513.561	4804.65
513.929	4781.37
514.297	4826.79
514.664	4825.89
515.032	4824.31
515.4	4856.4
515.767	4842.16
516.135	4868.37
516.502	4864.08
516.869	4928.49
517.237	4889.62
517.604	4897.3
517.972	4947.69
518.339	4959.9
518.706	4987.47
519.073	4943.63
519.44	5005.09
519.808	5034.92
520.175	5019.56
520.542	5054.13
520.909	5081.02
521.276	5062.95
521.643	5086.67
522.009	5093
522.376	5125.09
522.743	5153.79
523.11	5174.13
523.477	5241.7
523.843	5232.43
524.21	5251.19
524.577	5298.87
524.943	5312.43
525.31	5332.32
525.676	5342.49
526.043	5365.54
526.409	5357.85
526.776	5428.81
527.142	5430.85
527.508	5460.68
527.874	5483.73
528.241	5543.39
528.607	5491.18
528.973	5509.94
529.339	5549.26
529.705	5571.41
530.071	5525.53
530.437	5603.72
530.803	5668.35
531.169	5690.05
531.535	5705.64
531.901	5670.39
532.267	5690.95
532.632	5727.56
532.998	5731.4
533.364	5753.78
533.73	5764.62
534.095	5799.88
534.461	5815.69
534.826	5815.02
535.192	5828.8
535.557	5904.73
535.923	5879.42
536.288	5898.63
536.653	5883.49
537.019	5922.13
537.384	5923.94
537.749	5954.9
538.114	5976.59
538.479	6016.82
538.845	6003.71
539.21	6040.1
539.575	6009.14
539.94	6058.4
540.305	6091.62
540.67	6039.87
541.034	6123.26
541.399	6130.49
541.764	6153.09
542.129	6136.59
542.494	6163.48
542.858	6155.12
543.223	6146.31
543.587	6215.91
543.952	6266.3
544.316	6222.46
544.681	6239.86
545.045	6251.39
545.41	6322.12
545.774	6262.46
546.138	6310.14
546.503	6314.21
546.867	6282.8
547.231	6427.2
547.595	6396.24
547.959	6387.2
548.324	6407.09
548.688	6405.28
549.052	6438.95
549.416	6468.11
549.779	6413.19
550.143	6478.28
550.507	6535.45
550.871	6486.41
551.235	6522.12
551.599	6528.22
551.962	6606.86
552.326	6550.14
552.689	6567.54
553.053	6571.15
553.417	6569.57
553.78	6664.71
554.143	6609.57
554.507	6620.65
554.87	6671.04
555.234	6714.43
555.597	6689.8
555.96	6684.6
556.323	6719.17
556.686	6704.48
557.05	6731.83
557.413	6755.1
557.776	6758.95
558.139	6848.66
558.502	6821.09
558.865	6826.52
559.228	6863.58
559.59	6847.76
559.953	6822.67
560.316	6992.39
560.679	6966.17
561.041	6978.83
561.404	6973.86
561.767	6996.91
562.129	6989.22
562.492	7050.24
562.854	7078.26
563.217	7029.9
563.579	7061.99
563.941	7126.62
564.304	7151.7
564.666	7146.73
565.028	7180.63
565.39	7182.44
565.753	7271.93
566.115	7221.31
566.477	7230.57
566.839	7222.66
567.201	7355.32
567.563	7359.83
567.925	7437.8
568.287	7391.92
568.648	7387.86
569.01	7473.05
569.372	7465.14
569.734	7511.7
570.095	7532.49
570.457	7583.56
570.819	7589.89
571.18	7601.18
571.542	7650.45
571.903	7652.26
572.265	7718.92
572.626	7728.41
572.987	7733.84
573.349	7730.45
573.71	7839.82
574.071	7812.7
574.432	7883.89
574.794	7866.04
575.155	7972.47
575.516	7979.93
575.877	8040.49
576.238	8109.65
576.599	8148.51
576.96	8162.53
577.32	8229.42
577.681	8247.95
578.042	8329.53
578.403	8383.08
578.763	8424.21
579.124	8468.96
579.485	8527.71
579.845	8602.74
580.206	8664.43
580.566	8721.83
580.927	8818.1
581.287	8876.86
581.648	8917.53
582.008	9058.55
582.368	9098.77
582.728	9148.26
583.089	9259.67
583.449	9361.36
583.809	9458.76
584.169	9513.22
584.529	9600.68
584.889	9746.66
585.249	9756.16
585.609	9848.36
585.969	9974.68
586.329	10092.42
586.688	10263.26
587.048	10319.98
587.408	10435.46
587.768	10534.89
588.127	10594.78
588.487	10793.64
588.846	10997.48
589.206	11060.53
589.565	11124.26
589.925	11304.59
590.284	11368.77
590.643	11534.41
591.003	11681.98
591.362	11877.23
591.721	11978.92
592.08	12134.85
592.44	12229.09
592.799	12349.99
593.158	12528.29
593.517	12649.19
593.876	12863.19
594.235	12912.23
594.593	13102.06
594.952	13257.98
595.311	13312.22
595.67	13478.54
596.029	13690.52
596.387	13741.36
596.746	13924.86
597.104	14056.38
597.463	14144.97
597.822	14344.28
598.18	14401.46
598.538	14548.57
598.897	14600.32
599.255	14632.86
599.613	15062.46
599.972	14966.87
600.33	15153.3
600.688	15271.49
601.046	15400.98
601.404	15588.54
601.762	15641.42
602.12	15806.39
602.478	15979.72
602.836	16030.57
603.194	15976.11
603.552	16173.16
603.91	16182.2
604.268	16424.23
604.625	16390.78
604.983	16640.27
605.341	16644.11
605.698	16683.43
606.056	16755.07
606.413	16919.36
606.771	16990.09
607.128	17158
607.485	17077.09
607.843	17268.27
608.2	17385.56
608.557	17539.23
608.914	17460.59
609.272	17664.2
609.629	17753.91
609.986	17813.35
610.343	17840.24
610.7	18047.92
611.057	18131.3
611.414	18137.86
611.771	18226.67
612.127	18312.09
612.484	18382.14
612.841	18512.76
613.198	18507.34
613.554	18398.87
613.911	18712.76
614.267	18643.61
614.624	18816.93
614.98	18845.41
615.337	18963.6
615.693	18919.08
616.05	18980.09
616.406	19159.52
616.762	19042.47
617.118	19219.18
617.475	19251.95
617.831	19338.95
618.187	19333.53
618.543	19284.72
618.899	19511.15
619.255	19511.15
619.611	19506.63
619.967	19612.17
620.323	19660.3
620.678	19649.68
621.034	19597.25
621.39	19681.77
621.746	19790.47
622.101	19915.66
622.457	19849.9
622.812	19917.47
623.168	19995.89
623.523	19944.36
623.879	20120.63
624.234	19889
624.589	20079.05
624.945	20029.78
625.3	20157.01
625.655	20065.94
626.01	20120.63
626.365	20185.94
626.72	20117.92
627.075	20150.46
627.43	20241.76
627.785	20140.29
628.14	20325.37
628.495	20182.77
628.85	20213.73
629.205	20185.03
629.559	20292.15
629.914	20184.58
630.269	20224.58
630.623	20255.77
630.978	20135.77
631.332	20232.26
631.687	20282.66
632.041	20193.62
632.396	20254.41
632.75	20152.27
633.104	20331.25
633.459	20220.51
633.813	20203.79
634.167	20084.02
634.521	20194.3
634.875	20230.91
635.229	20131.25
635.583	20133.06
635.937	20076.79
636.291	20097.35
636.645	20164.7
636.999	20098.26
637.352	20188.42
637.706	19995.21
638.06	20059.84
638.413	20130.35
638.767	20045.15
639.121	20109.33
639.474	20004.25
639.828	20007.19
640.181	20027.07
640.534	19994.76
640.888	20016.45
641.241	19854.42
641.594	19982.78
641.947	19986.85
642.301	20079.95
642.654	19979.62
643.007	19978.49
643.36	19980.29
643.713	20045.6
644.066	20092.16
644.419	19889.67
644.771	19721.32
645.124	19532.4
645.477	19543.47
645.83	19503.24
646.182	19374.66
646.535	19311.38
646.888	19487.65
647.24	19254.66
647.593	19456.69
647.945	19383.02
648.298	19416.92
648.65	19303.25
649.002	19262.8
649.355	19328.56
649.707	19301.44
650.059	19478.84
650.411	19670.47
650.763	19601.55
651.115	19760.19
651.467	19764.03
651.819	19805.84
652.171	19665.27
652.523	19700.98
652.875	19727.19
653.227	19544.83
653.578	19838.38
653.93	19649.68
654.282	19630.02
654.633	19606.52
654.985	19588.44
655.337	19635.44
655.688	19709.57
656.039	19838.6
656.391	19627.76
656.742	19694.43
657.094	19700.98
657.445	19819.62
657.796	19693.97
658.147	19744.37
658.498	19721.09
658.849	19740.75
659.2	19800.19
659.551	19655.56
659.902	19818.26
660.253	19793.18
660.604	19756.8
660.955	19666.18
661.306	19770.36
661.656	19637.7
662.007	19925.15
662.358	19828.21
662.708	19806.74
663.059	19743.24
663.409	19705.72
663.76	19824.37
664.11	19853.97
664.461	19843.8
664.811	19753.41
665.161	19854.65
665.511	19904.14
665.862	19813.74
666.212	19887.41
666.562	19968.99
666.912	19956.79
667.262	19816
667.612	19849.68
667.962	19786.4
668.312	19809.22
668.662	19933.29
669.011	19903.91
669.361	19745.27
669.711	19795.21
670.06	19718.38
670.41	19851.71
670.76	19742.11
671.109	19868.43
671.459	19717.93
671.808	19784.82
672.157	19833.86
672.507	19655.1
672.856	19740.75
673.205	19713.63
673.554	19756.57
673.904	19691.04
674.253	19786.85
674.602	19700.53
674.951	19392.06
675.3	19272.29
675.649	19592.73
675.998	19606.29
676.346	19609.91
676.695	19646.97
677.044	19461.44
677.393	19474.09
677.741	19669.79
678.09	19452.4
678.438	19455.11
678.787	19467.54
679.135	19472.06
679.484	19300.09
679.832	19370.14
680.181	19245.62
680.529	19353.87
680.877	19285.85
681.225	19296.47
681.573	19312.51
681.922	19207.66
682.27	19090.15
682.618	19158.62
682.966	19050.15
683.314	19105.74
683.661	19087.44
684.009	18925.63
684.357	18921.11
684.705	18962.92
685.053	18911.85
685.4	18915.92
685.748	18766.54
686.095	18692.87
686.443	18648.35
686.79	18697.62
687.138	18678.86
687.485	18674.11
687.832	18628.69
688.18	18696.49
688.527	18543.5
688.874	18491.07
689.221	18417.4
689.568	18344.4
689.915	18405.19
690.262	18353.22
690.609	18326.55
690.956	18223.05
691.303	18158.42
691.65	18122.72
691.997	18118.2
692.344	17997.97
692.69	17962.27
693.037	17967.69
693.383	17876.85
693.73	17901.25
694.077	17734.7
694.423	17694.25
694.769	17769.96
695.116	17612.67
695.462	17658.55
695.808	17501.04
696.155	17504.2
696.501	17492.22
696.847	17434.82
697.193	17381.49
697.539	17398.89
697.885	17113.25
698.231	17157.32
698.577	17096.08
698.923	17146.24
699.269	16975.85
699.614	16863.77
699.96	16867.38
700.306	16864.67
700.651	16672.13
700.997	16629.65
701.342	16600.27
701.688	16613.6
702.033	16570.44
702.379	16528.18
702.724	16530.67
703.069	16528.41
703.415	16274.4
703.76	16328.64
704.105	16249.54
704.45	16206.38
704.795	16067.63
705.14	16070.34
705.485	16023.79
705.83	15892.94
706.175	15972.94
706.52	15923.68
706.865	15881.42
707.209	15798.48
707.554	15776.34
707.899	15790.8
708.243	15745.15
708.588	15599.62
708.932	15633.52
709.277	15589.45
709.621	15542.67
709.966	15487.76
710.31	15513.07
710.654	15404.37
710.998	15465.61
711.342	15462.22
711.687	15285.95
712.031	15306.97
712.375	15176.35
712.719	15271.27
713.063	15196.46
713.407	15221.1
713.75	15112.63
714.094	15125.73
714.438	15018.62
714.782	15036.02
715.125	14992.18
715.469	14974.78
715.812	14898.62
716.156	14851.16
716.499	14919.41
716.843	14778.62
717.186	14819.53
717.53	14723.03
717.873	14865.63
718.216	14819.53
718.559	14752.18
718.902	14639.42
719.246	14668.57
719.589	14558.74
719.932	14519.65
720.275	14532.3
720.617	14610.49
720.96	14594.45
721.303	14564.17
721.646	14469.48
721.989	14426.77
722.331	14522.81
722.674	14531.4
723.016	14495.92
723.359	14475.13
723.701	14414.11
724.044	14390.84
724.386	14240.78
724.729	14353.1
725.071	14275.13
725.413	14339.76
725.755	14303.83
726.097	14337.96
726.439	14174.34
726.782	14242.82
727.124	14242.37
727.465	14123.05
727.807	14280.1
728.149	14177.96
728.491	14076.72
728.833	14205.53
729.175	14213.44
729.516	14145.65
729.858	14159.43
730.199	14132.09
730.541	14094.12
730.882	14050.05
731.224	14169.83
731.565	14063.16
731.906	14101.58
732.248	14090.51
732.589	13997.4
732.93	13986.55
733.271	14101.35
733.612	14102.26
733.953	14011.86
734.294	14060.68
734.635	14023.39
734.976	14120.11
735.317	13949.72
735.658	14008.02
735.999	14003.5
736.339	13975.71
736.68	14023.39
737.021	13961.02
737.361	13994.69
737.702	13942.71
738.042	14081.92
738.383	13948.14
738.723	13982.71
739.063	13928.93
739.404	14030.39
739.744	14014.35
740.084	13989.04
740.424	14013.45
740.764	14015.03
741.104	14033.11
741.444	13989.72
741.784	13986.1
742.124	14051.41
742.464	14112.43
742.804	14079.43
743.143	14058.87
743.483	14131.18
743.823	14041.47
744.162	14109.49
744.502	14148.36
744.841	14142.03
745.181	14206.43
745.52	14200.56
745.86	14245.98
746.199	14239.88
746.538	14355.58
746.877	14377.5
747.216	14338.63
747.556	14487.78
747.895	14566.2
748.234	14497.05
748.573	14458.18
748.911	14642.13
749.25	14636.48
749.589	14724.84
749.928	14773.2
750.267	14826.53
750.605	14892.97
750.944	14940.88
751.283	14946.08
751.621	15135.45
751.96	15133.64
752.298	15236.92
752.636	15354.88
752.975	15225.16
753.313	15396.23
753.651	15568.43
753.989	15591.03
754.327	15678.26
754.666	15680.75
755.004	15805.94
755.342	15885.94
755.679	16031.47
756.017	15935.2
756.355	16221.97
756.693	16333.38
757.031	16367.06
757.368	16446.6
757.706	16549.42
758.044	16600.72
758.381	16814.05
758.719	16750.55
759.056	17034.38
759.394	16993.25
759.731	17069.18
760.068	17168.16
760.405	17323.64
760.743	17350.76
761.08	17532.45
761.417	17564.99
761.754	17696.74
762.091	17813.57
762.428	17823.51
762.765	17862.84
763.102	18042.04
763.438	18023.06
763.775	18116.84
764.112	18211.53
764.449	18352.77
764.785	18411.3
765.122	18338.53
765.458	18465.53
765.795	18605.64
766.131	18654
766.467	18639.31
766.804	18680.89
767.14	18696.03
767.476	18743.04
767.812	18730.38
768.148	18799.08
768.485	18848.8
768.821	18763.38
769.157	18907.33
769.492	18884.5
769.828	18997.49
770.164	18931.28
770.5	18997.72
770.836	19036.14
771.171	18917.95
771.507	19076.14
771.842	18976.48
772.178	19056.02
772.513	19072.52
772.849	19000.88
773.184	18984.39
773.519	19019.19
773.855	19028.91
774.19	18973.31
774.525	18970.38
774.86	19068.68
775.195	18933.99
775.53	18904.84
775.865	18887.22
776.2	18840.21
776.535	18722.02
776.87	18801.79
777.205	18741.23
777.539	18759.31
777.874	18748.69
778.209	18644.28
778.543	18613.1
778.878	18595.02
779.212	18479.99
779.547	18433.67
779.881	18569.94
780.215	18468.24
780.55	18506.89
780.884	18357.96
781.218	18451.97
781.552	18388.47
781.886	18343.05
782.22	18235.48
782.554	18190.74
782.888	18095.37
783.222	18023.74
783.556	18004.75
783.889	18032.32
784.223	17938.09
784.557	17964.75
784.89	17989.84
785.224	17802.72
785.557	17737.64
785.891	17704.2
786.224	17733.8
786.558	17676.17
786.891	17628.49
787.224	17520.7
787.557	17532.67
787.891	17509.17
788.224	17499.23
788.557	17474.82
788.89	17382.17
789.223	17369.97
789.556	17342.4
789.888	17260.82
790.221	17231.21
790.554	17010.43
790.887	17050.2
791.219	17006.36
791.552	17010.88
791.884	16888.4
792.217	16918.45
792.549	16887.04
792.882	16728.85
793.214	16648.18
793.546	16720.27
793.879	16515.75
794.211	16530.89
794.543	16503.78
794.875	16501.97
795.207	16590.78
795.539	16411.57
795.871	16475.98
796.203	16235.08
796.535	16151.92
796.867	16205.7
797.198	16115.54
797.53	16145.14
797.862	16100.17
798.193	16105.82
798.525	15937.91
798.856	15902.89
799.188	15892.04
799.519	15752.61
799.85	15756
800.182	15682.33
800.513	15671.93
800.844	15523.24
801.175	15646.85
801.506	15580.86
801.837	15525.5
802.168	15517.13
802.499	15519.39
802.83	15322.56
803.161	15292.51
803.491	15338.38
803.822	15378.38
804.153	15215.45
804.483	15210.25
804.814	15062.68
805.145	15062.46
805.475	14979.3
805.805	14977.94
806.136	14969.35
806.466	14983.59
806.796	14949.69
807.126	14788.79
807.457	14809.13
807.787	14786.76
808.117	14734.56
808.447	14677.38
808.777	14692.75
809.107	14650.49
809.436	14549.25
809.766	14561.91
810.096	14509.93
810.426	14493.21
810.755	14455.47
811.085	14438.29
811.414	14422.02
811.744	14334.79
812.073	14304.51
812.403	14306.32
812.732	14241.01
813.061	14287.79
813.39	14137.51
813.719	14193.78
814.049	14210.95
814.378	14257.05
814.707	14093.67
815.036	14069.49
815.365	13975.71
815.693	13838.99
816.022	13912.88
816.351	13848.25
816.68	13777.52
817.008	13899.1
817.337	13737.52
817.665	13679.67
817.994	13695.71
818.322	13675.37
818.651	13572.78
818.979	13613.68
819.307	13622.72
819.636	13619.11
819.964	13431.31
820.292	13509.73
820.62	13557.86
820.948	13461.6
821.276	13573
821.604	13397.87
821.932	13505.89
822.259	13434.7
822.587	13449.84
822.915	13419.11
823.243	13434.93
823.57	13435.16
823.898	13414.36
824.225	13269.06
824.553	13450.52
824.88	13397.42
825.207	13453.23
825.535	13341.82
825.862	13407.36
826.189	13352.67
826.516	13439
826.843	13488.71
827.17	13422.27
827.497	13522.84
827.824	13373.01
828.151	13479.45
828.478	13507.02
828.805	13500.69
829.131	13443.74
829.458	13397.64
829.785	13352.45
830.111	13366.46
830.438	13420.01
830.764	13399.68
831.09	13449.39
831.417	13309.96
831.743	13391.77
832.069	13365.33
832.395	13356.29
832.722	13414.14
833.048	13362.39
833.374	13310.64
833.7	13306.35
834.026	13267.02
834.351	13342.5
834.677	13267.25
835.003	13316.74
835.329	13277.65
835.654	13212.34
835.98	13102.73
836.306	13159.91
836.631	13093.92
836.956	13159.46
837.282	13155.84
837.607	13151.09
837.932	13134.37
838.258	13047.59
838.583	13058.44
838.908	13010.08
839.233	13008.05
839.558	12946.81
839.883	12997.43
840.208	12903.87
840.533	12865.68
840.858	12890.31
841.182	12867.94
841.507	12863.64
841.832	12792.23
842.156	12774.83
842.481	12744.78
842.805	12772.8
843.13	12732.57
843.454	12703.2
843.778	12631.56
844.103	12701.39
844.427	12589.53
844.751	12614.16
845.075	12532.35
845.399	12507.5
845.723	12412.36
846.047	12441.74
846.371	12340.72
846.695	12368.52
847.019	12277.67
847.343	12202.42
847.666	12165.36
847.99	12033.61
848.313	12127.39
848.637	11966.04
848.96	11967.17
849.284	11909.32
849.607	11917
849.931	11766.5
850.254	11816.44
850.577	11738.02
850.9	11663.68
851.223	11654.86
851.546	11555.2
851.869	11577.35
852.192	11588.42
852.515	11376.68
852.838	11357.24
853.161	11345.04
853.483	11351.14
853.806	11291.93
854.129	11263.46
854.451	11228.21
854.774	11136.68
855.096	11115.22
855.419	11141.43
855.741	11060.53
856.063	11093.52
856.385	11045.84
856.708	10950.02
857.03	10875.67
857.352	10904.83
857.674	10863.47
857.996	10847.43
858.318	10811.72
858.64	10775.11
858.961	10800.65
859.283	10664.15
859.605	10670.93
859.926	10699.41
860.248	10654.44
860.57	10579.86
860.891	10606.53
861.212	10508.45
861.534	10560.65
861.855	10487.21
862.176	10483.82
862.498	10476.59
862.819	10487.66
863.14	10431.84
863.461	10415.8
863.782	10382.81
864.103	10395.24
864.424	10338.74
864.745	10387.78
865.065	10277.95
865.386	10248.35
865.707	10235.92
866.027	10268.46
866.348	10239.98
866.668	10277.95
866.989	10179.2
867.309	10183.94
867.63	10121.57
867.95	10180.78
868.27	10092.42
868.59	10135.58
868.91	10105.07
869.23	10092.64
869.55	9968.58
869.87	10108.24
870.19	10029.14
870.51	10010.84
870.83	10068.92
871.15	9979.43
871.469	9917.28
871.789	10025.98
872.109	9953.44
872.428	9895.81
872.748	9915.7
873.067	9873.67
873.386	9929.94
873.706	9902.14
874.025	9812.43
874.344	9832.99
874.663	9774.69
874.982	9790.73
875.301	9747.34
875.62	9722.71
875.939	9726.1
876.258	9712.54
876.577	9576.5
876.896	9744.86
877.214	9632.09
877.533	9731.98
877.852	9632.32
878.17	9627.8
878.489	9621.47
878.807	9639.55
879.125	9617.63
879.444	9617.63
879.762	9501.25
880.08	9537.18
880.398	9496.05
880.716	9479.1
881.034	9488.37
881.352	9538.53
881.67	9427.13
881.988	9428.03
882.306	9374.47
882.624	9381.48
882.941	9312.78
883.259	9299.22
883.577	9334.25
883.894	9322.95
884.212	9332.66
884.529	9243.63
884.846	9179.45
885.164	9207.7
885.481	9134.48
885.798	9142.84
886.115	9109.17
886.432	9086.57
886.75	9062.84
887.067	9087.25
887.383	9015.84
887.7	9056.51
888.017	8947.14
888.334	9010.86
888.651	8908.72
888.967	8935.61
889.284	8934.48
889.6	8915.95
889.917	8809.29
890.233	8827.14
890.55	8757.09
890.866	8739.91
891.182	8762.28
891.498	8667.14
891.815	8647.26
892.131	8679.35
892.447	8600.25
892.763	8643.42
893.079	8605
893.395	8546.7
893.71	8543.98
894.026	8572.68
894.342	8516.64
894.657	8447.72
894.973	8425.12
895.289	8400.71
895.604	8372.69
895.92	8321.39
896.235	8241.62
896.55	8283.65
896.865	8241.85
897.181	8266.7
897.496	8266.25
897.811	8218.34
898.126	8145.58
898.441	8149.87
898.756	8133.15
899.071	8051.12
899.386	8049.99
899.7	8041.17
900.015	7965.69
900.33	7911.91
900.644	7942.87
900.959	7946.26
901.273	7828.75
901.588	7880.5
901.902	7804.34
902.216	7719.37
902.531	7707.85
902.845	7745.14
903.159	7712.82
903.473	7665.36
903.787	7660.84
904.101	7549.43
904.415	7630.34
904.729	7543.78
905.042	7536.55
905.356	7499.27
905.67	7514.63
905.984	7471.92
906.297	7412.71
906.611	7397.57
906.924	7384.69
907.237	7355.99
907.551	7363.22
907.864	7276.67
908.177	7304.24
908.491	7226.5
908.804	7145.15
909.117	7135.21
909.43	7124.81
909.743	7105.83
910.056	7084.81
910.368	7019.05
910.681	7045.94
910.994	6970.92
911.307	6952.84
911.619	6895.21
911.932	6932.5
912.244	6863.58
912.557	6842.56
912.869	6770.92
913.181	6780.64
913.494	6774.54
913.806	6684.6
914.118	6726.41
914.43	6639.85
914.742	6582.91
915.054	6599.4
915.366	6604.83
915.678	6543.59
915.99	6632.62
916.302	6527.77
916.613	6499.29
916.925	6453.87
917.236	6488.45
917.548	6370.26
917.859	6412.97
918.171	6380.65
918.482	6283.93
918.794	6266.53
919.105	6257.26
919.416	6232.86
919.727	6228.79
920.038	6193.09
920.349	6173.2
920.66	6125.52
920.971	6169.36
921.282	6124.61
921.593	6003.49
921.903	6045.52
922.214	6048
922.525	5990.38
922.835	5942.24
923.146	5920.55
923.456	5928.46
923.767	5908.35
924.077	5926.65
924.387	5851.85
924.697	5811.63
925.008	5802.14
925.318	5807.79
925.628	5757.17
925.938	5771.63
926.248	5705.19
926.558	5709.03
926.867	5689.82
927.177	5637.39
927.487	5630.84
927.796	5583.38
928.106	5576.6
928.416	5567.34
928.725	5561.46
929.034	5485.76
929.344	5470.17
929.653	5450.96
929.962	5401.47
930.271	5381.58
930.581	5421.81
930.89	5335.26
931.199	5334.8
931.508	5331.41
931.817	5300.45
932.125	5312.2
932.434	5217.29
932.743	5201.93
933.051	5186.78
933.36	5191.53
933.669	5159.67
933.977	5104.98
934.286	5151.98
934.594	5054.13
934.902	5017.98
935.21	5017.52
935.519	4987.24
935.827	5023.17
936.135	4937.75
936.443	4921.25
936.751	4910.41
937.059	4911.54
937.367	4853.01
937.674	4865.66
937.982	4850.75
938.29	4780.92
938.597	4811.65
938.905	4777.76
939.213	4763.97
939.52	4727.59
939.827	4780.69
940.135	4686.46
940.442	4679.91
940.749	4683.75
941.056	4688.49
941.363	4584.99
941.67	4608.04
941.977	4602.17
942.284	4586.57
942.591	4543.86
942.898	4520.36
943.205	4505.22
943.511	4484.2
943.818	4474.49
944.125	4420.7
944.431	4421.61
944.738	4435.39
945.044	4428.16
945.35	4379.8
945.657	4359.01
945.963	4345
946.269	4283.31
946.575	4280.37
946.881	4267.26
947.187	4297.54
947.493	4242.85
947.799	4258.22
948.105	4239.01
948.41	4185.91
948.716	4186.58
949.022	4204.44
949.327	4145.91
949.633	4130.54
949.938	4075.85
950.244	4124.67
950.549	4068.85
950.854	3997.21
951.16	4070.66
951.465	4003.31
951.77	3958.57
952.075	3998.34
952.38	3979.58
952.685	3971.45
952.99	3956.76
953.294	3927.61
953.599	3887.84
953.904	3836.99
954.209	3841.28
954.513	3855.29
954.818	3834.28
955.122	3799.7
955.426	3761.06
955.731	3757.44
956.035	3781.4
956.339	3752.25
956.643	3751.57
956.948	3754.96
957.252	3728.07
957.556	3667.28
957.86	3676.09
958.163	3657.79
958.467	3638.12
958.771	3667.73
959.075	3629.54
959.378	3588.41
959.682	3597.67
959.985	3569.65
960.289	3539.37
960.592	3529.88
960.896	3530.78
961.199	3528.52
961.502	3516.32
961.805	3449.88
962.108	3453.72
962.411	3437.23
962.714	3433.38
963.017	3393.61
963.32	3407.85
963.623	3362.88
963.926	3354.74
964.228	3387.28
964.531	3337.57
964.833	3347.51
965.136	3286.04
965.438	3326.72
965.741	3261.64
966.043	3281.3
966.345	3268.19
966.648	3247.63
966.95	3219.15
967.252	3224.8
967.554	3232.94
967.856	3155.65
968.158	3185.93
968.46	3147.52
968.761	3093.05
969.063	3148.87
969.365	3135.99
969.666	3086.05
969.968	3110.45
970.269	3020.97
970.571	3081.98
970.872	3050.12
971.174	3023.23
971.475	3046.28
971.776	2997.01
972.077	3014.64
972.378	2981.64
972.679	2981.42
972.98	2960.18
973.281	2954.53
973.582	2946.62
973.883	2884.47
974.183	2881.53
974.484	2911.82
974.785	2917.01
975.085	2858.71
975.386	2866.62
975.686	2817.58
975.986	2822.33
976.287	2842.21
976.587	2801.76
976.887	2815.55
977.187	2766.51
977.487	2790.24
977.787	2747.07
978.087	2773.74
978.387	2766.74
978.687	2725.38
978.987	2703.69
979.286	2681.31
979.586	2698.04
979.885	2661.65
980.185	2667.98
980.484	2646.51
980.784	2663.24
981.083	2641.77
981.382	2642.22
981.682	2637.02
981.981	2575.33
982.28	2550.02
982.579	2577.36
982.878	2568.55
983.177	2520.19
983.475	2524.26
983.774	2515.89
984.073	2489.68
984.372	2505.05
984.67	2522.9
984.969	2464.14
985.267	2476.8
985.566	2426.18
985.864	2446.97
986.162	2428.66
986.461	2384.6
986.759	2404.71
987.057	2426.63
987.355	2390.7
987.653	2356.58
987.951	2373.98
988.249	2366.97
988.547	2368.33
988.844	2328.1
989.142	2344.37
989.44	2293.3
989.737	2316.35
990.035	2298.5
990.332	2260.08
990.63	2270.48
990.927	2260.53
991.224	2279.52
991.521	2230.25
991.819	2228.9
992.116	2211.04
992.413	2198.39
992.71	2210.82
993.006	2198.39
993.303	2168.78
993.6	2160.65
993.897	2149.35
994.193	2176.02
994.49	2157.49
994.787	2095.11
995.083	2101.67
995.379	2091.05
995.676	2105.74
995.972	2080.88
996.268	2047.88
996.565	2065.74
996.861	2056.7
997.157	2016.47
997.453	2029.81
997.749	2032.97
998.044	2022.12
998.34	1992.74
998.636	2020.54
998.932	1975.8
999.227	1967.89
999.523	1980.99
999.818	1936.93
1000.114	1945.74
1000.409	1926.98
1000.704	1905.06
1001	1928.11
1001.295	1909.13
1001.59	1875.91
1001.885	1901
1002.18	1882.69
1002.475	1858.96
1002.77	1836.14
1003.065	1815.35
1003.359	1837.95
1003.654	1834.78
1003.949	1826.19
1004.243	1806.31
1004.538	1757.95
1004.832	1793.43
1005.127	1789.13
1005.421	1764.28
1005.715	1754.11
1006.009	1740.32
1006.304	1754.56
1006.598	1711.62
1006.892	1752.98
1007.186	1693.32
1007.48	1721.56
1007.773	1662.13
1008.067	1688.8
1008.361	1663.71
1008.655	1638.63
1008.948	1652.19
1009.242	1668.01
1009.535	1665.52
1009.829	1614.22
1010.122	1635.69
1010.415	1606.31
1010.708	1593.66
1011.001	1604.51
1011.295	1569.93
1011.588	1569.25
1011.881	1554.79
1012.173	1538.97
1012.466	1532.19
1012.759	1537.84
1013.052	1529.48
1013.344	1486.09
1013.637	1507.11
1013.93	1496.94
1014.222	1503.27
1014.514	1466.66
1014.807	1469.37
1015.099	1469.82
1015.391	1446.77
1015.683	1448.35
1015.976	1444.28
1016.268	1442.25
1016.56	1416.71
1016.851	1428.24
1017.143	1418.52
1017.435	1412.42
1017.727	1370.61
1018.018	1385.3
1018.31	1383.95
1018.602	1376.04
1018.893	1345.98
1019.185	1378.3
1019.476	1364.96
1019.767	1317.06
1020.058	1342.82
1020.35	1317.96
1020.641	1322.03
1020.932	1311.41
1021.223	1278.64
1021.514	1255.14
1021.804	1282.25
1022.095	1258.07
1022.386	1270.73
1022.677	1242.93
1022.967	1226.66
1023.258	1220.56
1023.548	1221.47
1023.839	1203.39
1024.129	1227.79
1024.419	1209.26
1024.709	1182.82
1025	1182.37
1025.29	1184.18
1025.58	1179.43
1025.87	1169.04
1026.16	1157.96
1026.449	1156.83
1026.739	1151.18
1027.029	1105.08
1027.319	1110.28
1027.608	1120.9
1027.898	1103.73
1028.187	1097.63
1028.477	1111.64
1028.766	1091.3
1029.055	1078.87
1029.344	1083.16
1029.634	1044.97
1029.923	1068.7
1030.212	1057.4
1030.501	1035.03
1030.79	1054.92
1031.078	1056.5
1031.367	1030.28
1031.656	1030.28
1031.945	1023.05
1032.233	1028.48
1032.522	1015.59
1032.81	989.83
1033.099	994.13
1033.387	990.28
1033.675	976.73
1033.963	997.52
1034.251	960.91
1034.54	961.81
1034.828	965.65
1035.116	908.7
1035.403	922.26
1035.691	923.85
1035.979	929.95
1036.267	936.73
1036.554	905.77
1036.842	914.81
1037.129	902.83
1037.417	916.16
1037.704	904.19
1037.992	915.94
1038.279	890.85
1038.566	874.58
1038.853	874.58
1039.14	874.58
