Data from hue_20_FLMS001491_7.txt Node
Date: Mon Feb 06 15:33:33 GMT 2017
User: dcchb
Spectrometer: FLMS00149
Trigger mode: 0
Integration Time (sec): 2.000000E-2
Scans to average: 10
Electric dark correction enabled: true
Nonlinearity correction enabled: false
Boxcar width: 0
XAxis mode: Wavelengths
Number of Pixels in Spectrum: 2048
>>>>>Begin Spectral Data<<<<<
341.393	-9.6
341.776	-9.6
342.16	-9.6
342.543	-45.31
342.927	-72.2
343.31	-79.88
343.693	-59.55
344.077	-82.82
344.46	-68.13
344.843	-57.29
345.226	-41.02
345.61	-15.93
345.993	2.15
346.376	-4.18
346.759	-5.54
347.142	27.68
347.525	34.01
347.908	52.09
348.291	85.99
348.674	99.32
349.057	113.1
349.44	125.99
349.823	141.35
350.206	173.67
350.588	188.58
350.971	203.5
351.354	184.06
351.737	234.01
352.119	225.42
352.502	262.93
352.884	288.47
353.267	308.81
353.65	293.21
354.032	295.47
354.414	296.38
354.797	293.21
355.179	318.3
355.562	324.85
355.944	304.96
356.326	347.45
356.709	320.1
357.091	336.15
357.473	336.38
357.855	304.96
358.238	336.83
358.62	343.15
359.002	328.92
359.384	331.18
359.766	341.35
360.148	332.99
360.53	327.56
360.912	334.79
361.294	336.6
361.676	325.3
362.057	352.19
362.439	318.07
362.821	328.01
363.203	320.56
363.584	318.52
363.966	298.86
364.348	297.96
364.729	305.42
365.111	334.79
365.493	295.7
365.874	291.86
366.256	313.1
366.637	295.47
367.019	288.47
367.4	324.17
367.781	293.66
368.163	296.6
368.544	312.87
368.925	315.58
369.306	311.29
369.688	329.14
370.069	295.25
370.45	307.68
370.831	314.23
371.212	297.96
371.593	302.93
371.974	311.52
372.355	310.39
372.736	318.75
373.117	297.05
373.498	307.68
373.879	319.65
374.26	324.17
374.641	318.75
375.021	304.51
375.402	328.01
375.783	314.46
376.163	323.27
376.544	321.91
376.925	316.04
377.305	321.23
377.686	312.2
378.066	333.21
378.447	319.65
378.827	333.66
379.208	328.24
379.588	312.42
379.968	305.42
380.349	343.15
380.729	351.52
381.109	328.24
381.489	346.32
381.87	343.15
382.25	334.12
382.63	343.61
383.01	328.92
383.39	318.97
383.77	338.86
384.15	329.82
384.53	332.08
384.91	338.41
385.29	338.41
385.67	327.11
386.049	341.12
386.429	347.67
386.809	338.41
387.189	347
387.568	353.1
387.948	343.15
388.328	327.11
388.707	354.91
389.087	346.09
389.466	368.24
389.846	358.07
390.225	375.02
390.605	361.69
390.984	353.55
391.363	352.42
391.743	358.75
392.122	354.68
392.501	363.49
392.881	368.92
393.26	358.52
393.639	356.26
394.018	354.45
394.397	364.4
394.776	377.73
395.155	355.36
395.534	378.86
395.913	360.33
396.292	372.31
396.671	378.86
397.05	370.72
397.429	376.37
397.808	377.05
398.186	382.02
398.565	362.14
398.944	375.02
399.323	377.05
399.701	384.74
400.08	400.78
400.458	385.87
400.837	375.92
401.215	382.7
401.594	385.87
401.972	385.64
402.351	401.01
402.729	387
403.107	378.63
403.486	364.4
403.864	413.21
404.242	397.62
404.62	384.96
404.999	405.98
405.377	399.65
405.755	395.13
406.133	399.65
406.511	411.4
406.889	403.49
407.267	392.65
407.645	402.36
408.023	389.26
408.401	401.46
408.779	421.12
409.156	410.72
409.534	405.53
409.912	446.2
410.29	416.15
410.667	440.55
411.045	420.67
411.422	422.47
411.8	447.56
412.178	426.77
412.555	430.38
412.933	430.16
413.31	443.04
413.687	453.21
414.065	450.95
414.442	429.93
414.819	462.47
415.197	457.28
415.574	483.04
415.951	485.52
416.328	469.03
416.705	462.7
417.082	466.77
417.46	451.4
417.837	473.32
418.214	470.38
418.591	471.51
418.967	460.44
419.344	474.45
419.721	467.9
420.098	498.4
420.475	491.63
420.852	469.48
421.228	498.4
421.605	511.74
421.982	489.37
422.358	522.13
422.735	495.47
423.111	482.59
423.488	500.44
423.864	539.53
424.241	512.19
424.617	515.35
424.994	516.26
425.37	521.46
425.746	540.21
426.123	517.84
426.499	514.45
426.875	532.75
427.251	518.74
427.627	528.91
428.003	536.6
428.379	554.22
428.756	542.47
429.132	567.56
429.507	572.3
429.883	554.45
430.259	565.97
430.635	545.41
431.011	569.59
431.387	561.45
431.763	572.3
432.138	574.79
432.514	608.23
432.89	607.55
433.265	616.82
433.641	576.6
434.016	619.76
434.392	600.1
434.767	629.02
435.143	625.41
435.518	625.18
435.894	633.77
436.269	618.63
436.644	615.01
437.02	636.03
437.395	631.28
437.77	677.16
438.145	669.25
438.52	638.51
438.895	685.52
439.271	666.08
439.646	681.23
440.021	692.3
440.395	655.24
440.77	678.74
441.145	653.2
441.52	684.39
441.895	694.33
442.27	683.03
442.645	694.78
443.019	695.24
443.394	695.46
443.769	712.64
444.143	715.35
444.518	727.33
444.892	721.22
445.267	713.77
445.641	727.78
446.016	725.74
446.39	742.92
446.764	749.92
447.139	743.82
447.513	722.81
447.887	726.2
448.262	751.28
448.636	739.53
449.01	768.68
449.384	743.37
449.758	769.13
450.132	781.34
450.506	773.88
450.88	779.75
451.254	784.73
451.628	766.87
452.002	779.98
452.376	791.28
452.75	815.68
453.123	814.55
453.497	813.42
453.871	823.59
454.244	843.03
454.618	845.51
454.992	850.71
455.365	850.71
455.739	850.03
456.112	882.58
456.486	879.86
456.859	866.08
457.232	881.9
457.606	890.26
457.979	903.37
458.352	915.8
458.725	929.13
459.099	923.7
459.472	925.96
459.845	944.95
460.218	953.53
460.591	992.86
460.964	961.44
461.337	977.94
461.71	1003.48
462.083	996.47
462.456	997.6
462.829	990.37
463.201	1039.63
463.574	1037.37
463.947	1047.32
464.32	1060.2
464.692	1058.39
465.065	1069.69
465.438	1104.94
465.81	1097.49
466.183	1115.34
466.555	1124.6
466.928	1131.38
467.3	1145.39
467.672	1149.24
468.045	1145.85
468.417	1177.94
468.789	1191.95
469.161	1170.93
469.534	1196.92
469.906	1250.48
470.278	1253.64
470.65	1265.39
471.022	1290.93
471.394	1325.05
471.766	1300.42
472.138	1285.95
472.51	1364.82
472.882	1363.92
473.253	1350.81
473.625	1359.17
473.997	1434.43
474.369	1462.22
474.74	1464.71
475.112	1475.78
475.484	1500.86
475.855	1519.4
476.227	1521.88
476.598	1577.02
476.97	1606.17
477.341	1652.27
477.713	1627.19
478.084	1685.27
478.455	1721.65
478.827	1757.58
479.198	1771.59
479.569	1794.87
479.94	1841.19
480.311	1836.9
480.682	1882.55
481.053	1946.05
481.424	1953.73
481.795	1966.84
482.166	2028.99
482.537	2070.79
482.908	2108.31
483.279	2132.71
483.65	2182.43
484.021	2200.73
484.391	2263.1
484.762	2317.57
485.133	2311.92
485.503	2331.13
485.874	2359.37
486.244	2416.32
486.615	2455.42
486.985	2474.85
487.356	2512.59
487.726	2569.08
488.097	2619.71
488.467	2669.2
488.837	2710.1
489.207	2745.8
489.578	2796.2
489.948	2833.71
490.318	2852.24
490.688	2856.99
491.058	2952.35
491.428	2992.8
491.798	3012.46
492.168	3084.1
492.538	3099.47
492.908	3134.49
493.278	3180.59
493.648	3163.65
494.017	3231.44
494.387	3251.55
494.757	3293.59
495.126	3318.22
495.496	3373.13
495.866	3343.53
496.235	3398.67
496.605	3491.32
496.974	3497.42
497.344	3521.83
497.713	3541.71
498.082	3579
498.452	3580.81
498.821	3614.71
499.19	3615.16
499.559	3732.9
499.928	3694.48
500.298	3715.04
500.667	3755.95
501.036	3731.09
501.405	3790.52
501.774	3836.4
502.143	3828.03
502.512	3887.02
502.88	3907.13
503.249	3904.19
503.618	3938.54
503.987	3960.91
504.356	3985.54
504.724	3980.8
505.093	4050.85
505.462	4049.5
505.83	4059.44
506.199	4088.82
506.567	4144.41
506.936	4151.64
507.304	4192.09
507.672	4218.08
508.041	4182.83
508.409	4228.25
508.777	4235.48
509.145	4295.14
509.514	4317.29
509.882	4300.56
510.25	4368.13
510.618	4342.82
510.986	4374.01
511.354	4403.84
511.722	4437.06
512.09	4460.11
512.458	4491.29
512.826	4533.1
513.193	4496.72
513.561	4535.36
513.929	4590.73
514.297	4582.59
514.664	4612.42
515.032	4618.3
515.4	4650.16
515.767	4661.23
516.135	4724.51
516.502	4651.29
516.869	4733.77
517.237	4764.51
517.604	4710.05
517.972	4752.53
518.339	4759.99
518.706	4819.65
519.073	4766.77
519.44	4874.56
519.808	4917.27
520.175	4858.52
520.542	4921.34
520.909	4933.54
521.276	4972.19
521.643	4974.22
522.009	5001.79
522.376	5071.17
522.743	5048.34
523.11	5088.34
523.477	5120.66
523.843	5134.44
524.21	5143.48
524.577	5188
524.943	5202.91
525.31	5257.6
525.676	5301.22
526.043	5324.49
526.409	5316.58
526.776	5384.15
527.142	5347.09
527.508	5401.33
527.874	5446.75
528.241	5525.39
528.607	5509.8
528.973	5528.1
529.339	5553.19
529.705	5601.32
530.071	5640.19
530.437	5626.18
530.803	5687.65
531.169	5736.23
531.535	5728.55
531.901	5757.02
532.267	5727.42
532.632	5783.46
532.998	5846.96
533.364	5840.64
533.73	5823.46
534.095	5951.59
534.461	5936.91
534.826	5963.57
535.192	5930.35
535.557	6007.41
535.923	6040.86
536.288	6000.18
536.653	6056.45
537.019	6063.23
537.384	6065.72
537.749	6151.14
538.114	6097.58
538.479	6163.34
538.845	6168.09
539.21	6161.98
539.575	6237.92
539.94	6281.3
540.305	6325.14
540.67	6298.48
541.034	6332.6
541.399	6382.09
541.764	6320.62
542.129	6387.97
542.494	6437.46
542.858	6427.51
543.223	6468.19
543.587	6512.48
543.952	6503.9
544.316	6514.97
544.681	6563.33
545.045	6563.78
545.41	6628.64
545.774	6627.51
546.138	6636.32
546.503	6683.78
546.867	6717.9
547.231	6748.18
547.595	6719.48
547.959	6841.74
548.324	6779.6
548.688	6838.35
549.052	6839.03
549.416	6917.9
549.779	6883.55
550.143	6952.47
550.507	6948.4
550.871	6985.01
551.235	6975.52
551.599	7082.86
551.962	7053.03
552.326	7061.85
552.689	7087.16
553.053	7025.24
553.417	7083.99
553.78	7194.95
554.143	7184.33
554.507	7198.57
554.87	7197.66
555.234	7295.97
555.597	7214.39
555.96	7276.76
556.323	7316.3
556.686	7327.83
557.05	7387.04
557.413	7405.57
557.776	7367.15
558.139	7472.46
558.502	7429.3
558.865	7474.04
559.228	7594.94
559.59	7573.93
559.953	7533.25
560.316	7620.25
560.679	7659.35
561.041	7728.95
561.404	7700.25
561.767	7733.47
562.129	7722.85
562.492	7802.17
562.854	7774.82
563.217	7752.23
563.579	7808.27
563.941	7885.1
564.304	7908.61
564.666	7954.25
565.028	8008.49
565.39	7966.68
565.753	8025.66
566.115	8020.24
566.477	8053.91
566.839	8118.54
567.201	8182.95
567.563	8165.77
567.925	8212.33
568.287	8263.85
568.648	8249.39
569.01	8314.02
569.372	8371.87
569.734	8343.4
570.095	8344.53
570.457	8431.76
570.819	8472.88
571.18	8496.16
571.542	8576.38
571.903	8572.99
572.265	8610.06
572.626	8643.95
572.987	8698.64
573.349	8713.78
573.71	8820.22
574.071	8830.62
574.432	8845.53
574.794	8971.4
575.155	9005.07
575.516	8988.13
575.877	9037.84
576.238	9093.21
576.599	9154.22
576.96	9259.98
577.32	9282.58
577.681	9382.47
578.042	9393.09
578.403	9498.39
578.763	9574.78
579.124	9692.29
579.485	9804.6
579.845	9850.02
580.206	9847.99
580.566	10019.51
580.927	10121.88
581.287	10221.54
581.648	10303.57
582.008	10465.37
582.368	10515.32
582.728	10724.12
583.089	10808.87
583.449	10966.38
583.809	11142.87
584.169	11283.43
584.529	11450.89
584.889	11638
585.249	11778.79
585.609	11903.53
585.969	12125.67
586.329	12348.04
586.688	12439.33
587.048	12669.16
587.408	12788.25
587.768	13023.95
588.127	13172.42
588.487	13411.96
588.846	13763.14
589.206	13854.89
589.565	14098.05
589.925	14429.56
590.284	14651.48
590.643	14823.45
591.003	15081.3
591.362	15367.39
591.721	15522.19
592.08	15822.97
592.44	16165.56
592.799	16432.45
593.158	16650.97
593.517	16951.76
593.876	17225.42
594.235	17432.2
594.593	17829.93
594.952	18098.85
595.311	18335.9
595.67	18624.93
596.029	18977.92
596.387	19228.53
596.746	19581.29
597.104	19818.35
597.463	20083.65
597.822	20477.99
598.18	20593.7
598.538	20877.3
598.897	21374.47
599.255	21514.12
599.613	22147.33
599.972	22196.59
600.33	22441.56
600.688	22743.02
601.046	23063.91
601.404	23426.16
601.762	23624.58
602.12	24030.89
602.478	24319.93
602.836	24428.17
603.194	24644.21
603.552	25182.73
603.91	25133.46
604.268	25539.78
604.625	25798.76
604.983	26134.34
605.341	26171.18
605.698	26614.55
606.056	26890.93
606.413	27123.47
606.771	27436.91
607.128	27629.89
607.485	27755.77
607.843	28012.03
608.2	28286.37
608.557	28636.65
608.914	28718.91
609.272	29187.82
609.629	29427.36
609.986	29628.03
610.343	29635.27
610.7	30161.58
611.057	30187.34
611.414	30377.62
611.771	30697.84
612.127	30926.53
612.484	31162.68
612.841	31366.29
613.198	31421.66
613.554	31685.61
613.911	31872.72
614.267	32134.41
614.624	32214.63
614.98	32443.55
615.337	32773.04
615.693	32814.39
616.05	32785.47
616.406	33211.44
616.762	33307.71
617.118	33341.84
617.475	33620.25
617.831	33746.34
618.187	33855.04
618.543	34121.02
618.899	34322.15
619.255	34412.09
619.611	34469.49
619.967	34634
620.323	34951.06
620.678	34879.65
621.034	34915.58
621.39	34909.03
621.746	35038.97
622.101	35549.91
622.457	35287.09
622.812	35554.88
623.168	35586.52
623.523	35812.05
623.879	36007.98
624.234	35883.92
624.589	35896.8
624.945	36219.27
625.3	36247.52
625.655	36279.16
626.01	36381.3
626.365	36612.03
626.72	36547.85
627.075	36563.9
627.43	36648.19
627.785	36640.05
628.14	36950.33
628.495	36901.06
628.85	36842.53
629.205	36979.93
629.559	37225.12
629.914	36993.26
630.269	37111.23
630.623	36983.32
630.978	37092.47
631.332	37298.79
631.687	37305.12
632.041	37094.73
632.396	37273.94
632.75	37065.13
633.104	37261.28
633.459	37294.95
633.813	37251.79
634.167	37276.2
634.521	37369.75
634.875	37312.58
635.229	37316.65
635.583	37221.73
635.937	37418.34
636.291	37272.58
636.645	37296.31
636.999	37131.57
637.352	37402.97
637.706	37102.19
638.06	37524.78
638.413	37283.65
638.767	37243.2
639.121	37334.72
639.474	37154.84
639.828	37283.2
640.181	37330.2
640.534	37365.91
640.888	37119.81
641.241	37184.9
641.594	37253.37
641.947	37393.48
642.301	37183.54
642.654	37241.85
643.007	37243.65
643.36	37277.1
643.713	37190.55
644.066	37351.22
644.419	37245.24
644.771	36797.56
645.124	36569.77
645.477	36554.86
645.83	36378.37
646.182	36229.67
646.535	36130.24
646.888	36188.31
647.24	36018.6
647.593	36288.65
647.945	36130.69
648.298	35844.14
648.65	35945.16
649.002	35814.54
649.355	36086.4
649.707	36015.21
650.059	36192.61
650.411	36598.25
650.763	36591.92
651.115	36968.63
651.467	36840.05
651.819	36967.28
652.171	36761.41
652.523	36783.55
652.875	36758.92
653.227	36641.18
653.578	36968.86
653.93	36778.13
654.282	36663.78
654.633	36630.79
654.985	36651.8
655.337	36664.69
655.688	36568.42
656.039	36675.31
656.391	36428.53
656.742	36627.17
657.094	36468.76
657.445	36683.89
657.796	36550.34
658.147	36513.73
658.498	36480.06
658.849	36549.66
659.2	36436.67
659.551	36423.34
659.902	36672.82
660.253	36542.88
660.604	36528.87
660.955	36376.56
661.306	36463.79
661.656	36405.71
662.007	36617
662.358	36503.11
662.708	36371.36
663.059	36457.46
663.409	36140.63
663.76	36566.38
664.11	36336.11
664.461	36438.02
664.811	36438.93
665.161	36500.85
665.511	36387.4
665.862	36362.32
666.212	36534.75
666.562	36408.42
666.912	36344.24
667.262	36366.39
667.612	36350.12
667.962	36400.06
668.312	36403.45
668.662	36519.6
669.011	36358.03
669.361	36334.3
669.711	36366.16
670.06	36330.91
670.41	36247.75
670.76	36179.5
671.109	36363
671.459	36309.89
671.808	36159.39
672.157	36412.71
672.507	36118.49
672.856	36046.4
673.205	36138.37
673.554	36195.09
673.904	36063.35
674.253	36422.88
674.602	36168.2
674.951	35706.97
675.3	35446.86
675.649	36054.53
675.998	36015.89
676.346	36037.13
676.695	36180.86
677.044	35756.91
677.393	35952.84
677.741	35872.16
678.09	35856.12
678.438	35875.33
678.787	35813.41
679.135	35864.71
679.484	35607.09
679.832	35639.85
680.181	35603.02
680.529	35693.64
680.877	35553.08
681.225	35493.19
681.573	35797.82
681.922	35528.9
682.27	35408.22
682.618	35396.92
682.966	35365.28
683.314	35470.14
683.661	35223.37
684.009	35207.32
684.357	35088.68
684.705	34942.02
685.053	35110.83
685.4	34918.97
685.748	34693.66
686.095	34820.67
686.443	34715.58
686.79	34631.07
687.138	34762.81
687.485	34795.58
687.832	34544.74
688.18	34480.34
688.527	34435.82
688.874	34378.87
689.221	34325.76
689.568	34285.09
689.915	34177.75
690.262	34191.76
690.609	33986.11
690.956	33940.46
691.303	33906.57
691.65	33793.8
691.997	33857.75
692.344	33576.41
692.69	33709.28
693.037	33552.45
693.383	33365.79
693.73	33528.27
694.077	33276.98
694.423	33197.21
694.769	33319.91
695.116	33179.81
695.462	32954.27
695.808	32881.06
696.155	33001.73
696.501	32725.13
696.847	32768.97
697.193	32544.12
697.539	32560.16
697.885	32360.62
698.231	32305.03
698.577	32212.6
698.923	32236.1
699.269	32073.17
699.614	31898.48
699.96	31907.75
700.306	31965.37
700.651	31739.62
700.997	31790.46
701.342	31742.78
701.688	31592.73
702.033	31527.87
702.379	31500.75
702.724	31466.86
703.069	31385.73
703.415	31026.19
703.76	31116.13
704.105	31134.21
704.45	30970.15
704.795	30926.08
705.14	30742.36
705.485	30749.36
705.83	30581
706.175	30570.16
706.52	30485.87
706.865	30423.27
707.209	30471.18
707.554	30278.86
707.899	30336.72
708.243	30193.44
708.588	30219.21
708.932	29852.21
709.277	29931.53
709.621	29934.24
709.966	29724.3
710.31	29796.17
710.654	29567.92
710.998	29670.29
711.342	29677.98
711.687	29566.57
712.031	29384.65
712.375	29421.03
712.719	29305.11
713.063	29406.57
713.407	29440.02
713.75	29178.55
714.094	29179.46
714.438	29088.61
714.782	29105.34
715.125	29107.6
715.469	29012.91
715.812	28823.08
716.156	28735.18
716.499	28749.19
716.843	28808.62
717.186	28545.13
717.53	28758.68
717.873	28803.2
718.216	28574.05
718.559	28459.25
718.902	28272.14
719.246	28280.05
719.589	28198.69
719.932	28195.3
720.275	28023.1
720.617	28038.92
720.96	28066.27
721.303	27997.12
721.646	28056.55
721.989	27807.52
722.331	27839.83
722.674	27834.41
723.016	27894.75
723.359	27831.02
723.701	27807.74
724.044	27646.17
724.386	27486.85
724.729	27697.24
725.071	27582.21
725.413	27512.61
725.755	27564.59
726.097	27439.62
726.439	27245.05
726.782	27204.14
727.124	27351.94
727.465	27178.16
727.807	27195.1
728.149	27160.3
728.491	27139.06
728.833	27116.46
729.175	27065.16
729.516	26889.12
729.858	27014.54
730.199	26828.56
730.541	26845.96
730.882	26910.82
731.224	26937.71
731.565	26751.95
731.906	26789.69
732.248	26782.01
732.589	26649.13
732.93	26465.41
733.271	26587.66
733.612	26594.44
733.953	26507.89
734.294	26444.39
734.635	26402.13
734.976	26403.94
735.317	26252.98
735.658	26225.41
735.999	26316.94
736.339	26196.03
736.68	26331.85
737.021	26242.59
737.361	26147.45
737.702	26246.43
738.042	26122.59
738.383	25996.04
738.723	26034
739.063	25898.19
739.404	26070.39
739.744	26003.72
740.084	25836.04
740.424	25830.62
740.764	25842.15
741.104	25756.27
741.444	25827.23
741.784	25524.41
742.124	25635.37
742.464	25545.2
742.804	25488.03
743.143	25499.56
743.483	25526.45
743.823	25373.01
744.162	25337.53
744.502	25427.47
744.841	25328.94
745.181	25340.46
745.52	25331.65
745.86	25320.13
746.199	25236.96
746.538	25107.93
746.877	25211.43
747.216	25201.71
747.556	25086.69
747.895	25075.84
748.234	24965.11
748.573	25045.1
748.911	24974.15
749.25	25077.87
749.589	24888.72
749.928	24835.17
750.267	24857.99
750.605	24765.79
750.944	24770.31
751.283	24713.36
751.621	24814.6
751.96	24594.27
752.298	24558.34
752.636	24504.1
752.975	24493.48
753.313	24402.86
753.651	24494.84
753.989	24331.68
754.327	24343.2
754.666	24209.65
755.004	24158.57
755.342	24205.13
755.679	24134.85
756.017	24068.18
756.355	23968.75
756.693	23947.28
757.031	23869.77
757.368	23791.35
757.706	23933.27
758.044	23844.46
758.381	23879.03
758.719	23664.12
759.056	23666.38
759.394	23632.26
759.731	23518.14
760.068	23506.84
760.405	23348.65
760.743	23336.45
761.08	23328.54
761.417	23200.41
761.754	23197.24
762.091	23116.79
762.428	23070.24
762.765	22887.42
763.102	22972.84
763.438	22893.07
763.775	22753.86
764.112	22696.47
764.449	22794.54
764.785	22617.6
765.122	22567.66
765.458	22437.49
765.795	22375.12
766.131	22404.72
766.467	22227.78
766.804	22127.89
767.14	22105.29
767.476	22054.22
767.812	21950.04
768.148	21977.84
768.485	21892.19
768.821	21770.84
769.157	21744.63
769.492	21639.09
769.828	21596.38
770.164	21357.97
770.5	21375.14
770.836	21355.48
771.171	21205.21
771.507	21182.61
771.842	21041.37
772.178	21056.06
772.513	20976.28
772.849	20917.08
773.184	20857.19
773.519	20838.66
773.855	20768.83
774.19	20695.16
774.525	20579.68
774.86	20480.03
775.195	20386.24
775.53	20390.54
775.865	20341.95
776.2	20231.67
776.535	20030.77
776.87	20092.69
777.205	20047.04
777.539	19944.67
777.874	19882.53
778.209	19731.12
778.543	19712.59
778.878	19562.99
779.212	19627.62
779.547	19528.64
779.881	19519.37
780.215	19408.42
780.55	19432.37
780.884	19232.83
781.218	19110.57
781.552	19182.21
781.886	19060.85
782.22	19054.98
782.554	18898.37
782.888	18764.14
783.222	18714.42
783.556	18593.52
783.889	18612.96
784.223	18514.2
784.557	18464.49
784.89	18438.27
785.224	18322.8
785.557	18294.32
785.891	18257.03
786.224	18083.71
786.558	18137.49
786.891	17928.68
787.224	17915.8
787.557	17874.9
787.891	17819.76
788.224	17843.26
788.557	17729.36
788.89	17712.87
789.223	17710.61
789.556	17502.48
789.888	17502.03
790.221	17433.55
790.554	17255.03
790.887	17297.51
791.219	17242.82
791.552	17216.38
791.884	17069.72
792.217	17073.79
792.549	16970.29
792.882	16893
793.214	16833.12
793.546	16763.06
793.879	16806.45
794.211	16633.12
794.543	16720.8
794.875	16606.23
795.207	16672.67
795.539	16452.34
795.871	16502.73
796.203	16407.14
796.535	16191.1
796.867	16293.02
797.198	16239.91
797.53	16210.76
797.862	16049.63
798.193	16168.05
798.525	15998.79
798.856	15990.88
799.188	15823.43
799.519	15799.47
799.85	15784.33
800.182	15866.36
800.513	15675.86
800.844	15608.97
801.175	15663.66
801.506	15598.57
801.837	15538.91
802.168	15441.06
802.499	15395.19
802.83	15343.44
803.161	15380.5
803.491	15345.02
803.822	15367.39
804.153	15144.12
804.483	15048.76
804.814	15024.58
805.145	15030.9
805.475	14996.33
805.805	14931.25
806.136	15038.36
806.466	14931.02
806.796	14868.42
807.126	14627.07
807.457	14767.18
807.787	14727.18
808.117	14626.17
808.447	14588.43
808.777	14649.22
809.107	14488.77
809.436	14506.17
809.766	14520.86
810.096	14457.36
810.426	14387.53
810.755	14369
811.085	14335.56
811.414	14362.67
811.744	14142.34
812.073	14231.83
812.403	14187.54
812.732	14106.41
813.061	14042.91
813.39	14056.01
813.719	13917.71
814.049	13984.38
814.378	13973.08
814.707	13954.77
815.036	13919.52
815.365	13846.98
815.693	13729.24
816.022	13715.68
816.351	13571.73
816.68	13558.17
817.008	13696.48
817.337	13570.15
817.665	13568.34
817.994	13435.24
818.322	13560.66
818.651	13420.33
818.979	13435.01
819.307	13475.24
819.636	13390.27
819.964	13274.57
820.292	13373.77
820.62	13279.76
820.948	13323.38
821.276	13348.69
821.604	13287.22
821.932	13291.51
822.259	13315.24
822.587	13244.51
822.915	13220.1
823.243	13216.04
823.57	13229.14
823.898	13261.91
824.225	13266.88
824.553	13166.09
824.88	13214.91
825.207	13313.21
825.535	13152.31
825.862	13226.21
826.189	13137.17
826.516	13218.75
826.843	13235.7
827.17	13216.04
827.497	13232.53
827.824	13229.82
828.151	13274.34
828.478	13136.72
828.805	13318.86
829.131	13152.08
829.458	13139.65
829.785	12985.31
830.111	13076.38
830.438	13134
830.764	13155.47
831.09	13192.31
831.417	13053.1
831.743	13094.23
832.069	13098.53
832.395	13014.69
832.722	13119.09
833.048	13029.83
833.374	12997.06
833.7	13006.78
834.026	13047
834.351	12992.54
834.677	13061.24
835.003	13078.19
835.329	13005.87
835.654	12897.4
835.98	12850.85
836.306	12969.49
836.631	12841.58
836.956	12957.51
837.282	12902.6
837.607	12841.58
837.932	12748.48
838.258	12803.62
838.583	12848.59
838.908	12748.48
839.233	12680.68
839.558	12725.2
839.883	12698.99
840.208	12685.43
840.533	12624.87
840.858	12643.17
841.182	12633.45
841.507	12612.66
841.832	12549.16
842.156	12509.61
842.481	12600.23
842.805	12459.67
843.13	12458.99
843.454	12447.92
843.778	12422.16
844.103	12390.3
844.427	12284.99
844.751	12289.06
845.075	12280.24
845.399	12257.42
845.723	12204.31
846.047	12121.83
846.371	12120.02
846.695	12173.35
847.019	11957.54
847.343	11916.86
847.666	11832.12
847.99	11901.04
848.313	11885
848.637	11714.61
848.96	11692.91
849.284	11758.9
849.607	11624.89
849.931	11601.62
850.254	11498.57
850.577	11505.35
850.9	11369.31
851.223	11327.72
851.546	11332.02
851.869	11201.85
852.192	11284.11
852.515	11219.25
852.838	11055.42
853.161	11130.44
853.483	11071.46
853.806	11047.28
854.129	10997.56
854.451	10987.17
854.774	10962.08
855.096	10938.58
855.419	10859.26
855.741	10832.37
856.063	10750.34
856.385	10779.04
856.708	10710.11
857.03	10648.42
857.352	10735.65
857.674	10678.48
857.996	10598.7
858.318	10536.33
858.64	10541.98
858.961	10523
859.283	10475.09
859.605	10453.4
859.926	10421.99
860.248	10467.18
860.57	10357.81
860.891	10395.32
861.212	10302.21
861.534	10301.09
861.855	10226.51
862.176	10292.95
862.498	10244.82
862.819	10280.52
863.14	10167.3
863.461	10180.41
863.782	10166.4
864.103	10225.61
864.424	10128.21
864.745	10133.63
865.065	10037.36
865.386	10055.89
865.707	10044.59
866.027	10033.97
866.348	10050.24
866.668	10040.07
866.989	9994.65
867.309	9873.07
867.63	9940.42
867.95	9885.5
868.27	9843.47
868.59	9868.1
868.91	9830.14
869.23	9865.39
869.55	9750.14
869.87	9793.08
870.19	9823.13
870.51	9773.19
870.83	9755.11
871.15	9690.25
871.469	9687.77
871.789	9798.95
872.109	9756.47
872.428	9639.63
872.748	9664.04
873.067	9638.05
873.386	9676.92
873.706	9654.1
874.025	9628.33
874.344	9524.83
874.663	9557.15
874.982	9532.29
875.301	9511.5
875.62	9495
875.939	9475.8
876.258	9471.28
876.577	9404.16
876.896	9419.07
877.214	9386.31
877.533	9427.66
877.852	9374.78
878.17	9429.02
878.489	9427.66
878.807	9344.05
879.125	9350.15
879.444	9365.52
879.762	9312.18
880.08	9271.28
880.398	9232.64
880.716	9204.84
881.034	9283.26
881.352	9188.35
881.67	9162.58
881.988	9225.86
882.306	9229.93
882.624	9133.21
882.941	9136.14
883.259	9107.67
883.577	9121.68
883.894	9101.57
884.212	8982.93
884.529	9030.38
884.846	9083.72
885.164	9021.12
885.481	8934.12
885.798	8958.07
886.115	8934.34
886.432	8889.14
886.75	8910.39
887.067	8868.81
887.383	8808.02
887.7	8838.52
888.017	8788.81
888.334	8779.09
888.651	8837.17
888.967	8740.22
889.284	8665.2
889.6	8681.47
889.917	8638.3
890.233	8616.16
890.55	8593.11
890.866	8578.64
891.182	8558.53
891.498	8568.48
891.815	8537.52
892.131	8492.77
892.447	8445.99
892.763	8408.48
893.079	8412.1
893.395	8354.02
893.71	8351.31
894.026	8358.76
894.342	8278.09
894.657	8239.44
894.973	8229.05
895.289	8237.18
895.604	8163.97
895.92	8162.38
896.235	8105.66
896.55	8119
896.865	8152.89
897.181	8027.25
897.496	8038.55
897.811	8006.68
898.126	7994.25
898.441	7967.14
898.756	8009.39
899.071	7926.46
899.386	7859.79
899.7	7888.04
900.015	7832.45
900.33	7784.99
900.644	7747.48
900.959	7770.3
901.273	7741.38
901.588	7704.09
901.902	7652.79
902.216	7657.09
902.531	7580.03
902.845	7573.93
903.159	7493.25
903.473	7486.24
903.787	7403.31
904.101	7459.58
904.415	7411.9
904.729	7396.75
905.042	7333.71
905.356	7291.22
905.67	7311.11
905.984	7284.89
906.297	7316.76
906.611	7187.49
906.924	7171.45
907.237	7217.32
907.551	7180.04
907.864	7131.9
908.177	7124.67
908.491	7056.2
908.804	7041.74
909.117	7045.58
909.43	6972.36
909.743	6921.29
910.056	6964.68
910.368	6884.23
910.681	6866.15
910.994	6798.8
911.307	6819.14
911.619	6765.81
911.932	6831.35
912.244	6721.29
912.557	6713.83
912.869	6646.27
913.181	6663.21
913.494	6638.81
913.806	6624.57
914.118	6583.89
914.43	6523.11
914.742	6537.57
915.054	6531.47
915.366	6466.38
915.678	6464.8
915.99	6429.77
916.302	6462.54
916.613	6432.26
916.925	6364.69
917.236	6329.89
917.548	6273.39
917.859	6297.8
918.171	6225.03
918.482	6196.11
918.794	6197.92
919.105	6179.61
919.416	6109.33
919.727	6085.6
920.038	6088.77
920.349	6004.93
920.66	6013.97
920.971	5999.73
921.282	5948.43
921.593	5926.06
921.903	5929.9
922.214	5914.31
922.525	5841.32
922.835	5853.07
923.146	5789.11
923.456	5796.12
923.767	5792.5
924.077	5762.45
924.387	5721.32
924.697	5722.45
925.008	5688.55
925.318	5697.59
925.628	5631.15
925.938	5627.76
926.248	5638.83
926.558	5545.05
926.867	5544.83
927.177	5485.62
927.487	5545.96
927.796	5465.28
928.106	5405.17
928.416	5474.55
928.725	5405.39
929.034	5390.03
929.344	5403.13
929.653	5365.85
929.962	5304.83
930.271	5253.31
930.581	5285.4
930.89	5235.68
931.199	5240.43
931.508	5190.48
931.817	5201.11
932.125	5193.87
932.434	5163.82
932.743	5097.61
933.051	5105.97
933.36	5109.81
933.669	5014.9
933.977	4998.4
934.286	4992.98
934.594	4981.22
934.902	4947.33
935.21	4907.1
935.519	4933.09
935.827	4886.09
936.135	4850.15
936.443	4822.36
936.751	4793.89
937.059	4849.48
937.367	4803.15
937.674	4790.04
937.982	4775.35
938.29	4794.11
938.597	4789.37
938.905	4669.37
939.213	4691.52
939.52	4674.34
939.827	4644.28
940.135	4612.2
940.442	4616.94
940.749	4593.44
941.056	4590.95
941.363	4471.63
941.67	4502.14
941.977	4499.88
942.284	4483.38
942.591	4468.02
942.898	4435.7
943.205	4487.23
943.511	4387.34
943.818	4371.75
944.125	4360.45
944.431	4363.16
944.738	4348.02
945.044	4309.15
945.35	4283.62
945.657	4273.22
945.963	4280.68
946.269	4275.48
946.575	4223.05
946.881	4209.95
947.187	4185.77
947.493	4200.45
947.799	4174.92
948.105	4167.91
948.41	4160
948.716	4120.91
949.022	4100.8
949.327	4064.41
949.633	4029.84
949.938	4057.18
950.244	4031.87
950.549	3965.88
950.854	3952.33
951.16	3960.91
951.465	3924.76
951.77	3936.51
952.075	3921.82
952.38	3908.48
952.685	3891.08
952.99	3870.75
953.294	3866.68
953.599	3828.49
953.904	3843.4
954.209	3741.48
954.513	3790.07
954.818	3746.23
955.122	3733.12
955.426	3743.97
955.731	3710.52
956.035	3682.05
956.339	3687.93
956.643	3659.45
956.948	3609.06
957.252	3647.25
957.556	3641.6
957.86	3642.05
958.163	3625.33
958.467	3520.92
958.771	3566.35
959.075	3562.96
959.378	3530.19
959.682	3539.91
959.985	3492.68
960.289	3536.07
960.592	3505.33
960.896	3460.36
961.199	3413.81
961.502	3459.01
961.805	3422.17
962.108	3401.61
962.411	3385.33
962.714	3394.83
963.017	3360.93
963.32	3361.38
963.623	3334.94
963.926	3303.08
964.228	3330.87
964.531	3335.17
964.833	3288.39
965.136	3255.62
965.438	3265.34
965.741	3275.51
966.043	3189.86
966.345	3217.88
966.648	3178.56
966.95	3178.33
967.252	3165
967.554	3152.8
967.856	3109.41
968.158	3125.23
968.46	3112.57
968.761	3090.2
969.063	3103.76
969.365	3050.2
969.666	3058.56
969.968	3041.39
970.269	3016.3
970.571	3009.3
970.872	2976.53
971.174	2949.87
971.475	2959.81
971.776	2953.93
972.077	2930.88
972.378	2915.97
972.679	2907.83
972.98	2909.42
973.281	2913.26
973.582	2891.11
973.883	2866.48
974.183	2861.51
974.484	2824.22
974.785	2825.35
975.085	2834.84
975.386	2837.33
975.686	2791.68
975.986	2824.45
976.287	2758.91
976.587	2749.42
976.887	2777.44
977.187	2744.9
977.487	2745.13
977.787	2660.38
978.087	2686.82
978.387	2667.16
978.687	2691.12
978.987	2692.47
979.286	2627.39
979.586	2638.46
979.885	2642.76
980.185	2634.17
980.484	2592.14
980.784	2617.22
981.083	2542.42
981.382	2591.68
981.682	2556.88
981.981	2513.49
982.28	2527.73
982.579	2524.34
982.878	2529.99
983.177	2486.6
983.475	2522.98
983.774	2514.85
984.073	2483.89
984.372	2457.9
984.67	2456.77
984.969	2420.16
985.267	2425.36
985.566	2447.73
985.864	2436.21
986.162	2369.99
986.461	2409.99
986.759	2348.07
987.057	2369.54
987.355	2363.21
987.653	2318.24
987.951	2331.8
988.249	2335.19
988.547	2320.96
988.844	2288.19
989.142	2297.91
989.44	2266.49
989.737	2249.55
990.035	2246.83
990.332	2237.57
990.63	2282.99
990.927	2233.73
991.224	2234.4
991.521	2188.53
991.819	2203.44
992.116	2204.8
992.413	2193.28
992.71	2138.59
993.006	2156.67
993.303	2158.25
993.6	2168.64
993.897	2113.28
994.193	2113.5
994.49	2153.05
994.787	2129.77
995.083	2087.74
995.379	2080.28
995.676	2090.68
995.972	2084.8
996.268	2075.76
996.565	2071.02
996.861	2011.36
997.157	2045.26
997.453	2006.39
997.749	1981.53
998.044	1953.51
998.34	1981.53
998.636	1980.85
998.932	1977.24
999.227	1958.71
999.523	1954.64
999.818	1939.72
1000.114	1919.84
1000.409	1917.35
1000.704	1893.85
1001	1888.65
1001.295	1875.09
1001.59	1875.77
1001.885	1853.17
1002.18	1873.74
1002.475	1840.74
1002.77	1858.6
1003.065	1827.18
1003.359	1832.16
1003.654	1846.17
1003.949	1793.06
1004.243	1812.49
1004.538	1782.21
1004.832	1749.67
1005.127	1767.52
1005.421	1737.69
1005.715	1760.29
1006.009	1748.77
1006.304	1726.62
1006.598	1713.06
1006.892	1694.76
1007.186	1664.93
1007.48	1710.8
1007.773	1669.9
1008.067	1666.06
1008.361	1665.38
1008.655	1652.95
1008.948	1654.08
1009.242	1644.82
1009.535	1640.75
1009.829	1600.07
1010.122	1621.99
1010.415	1633.74
1010.708	1575.89
1011.001	1541.09
1011.295	1560.3
1011.588	1560.52
1011.881	1566.4
1012.173	1532.5
1012.466	1555.55
1012.759	1553.74
1013.052	1523.46
1013.344	1508.1
1013.637	1505.38
1013.93	1484.37
1014.222	1490.24
1014.514	1468.32
1014.807	1443.92
1015.099	1473.29
1015.391	1456.12
1015.683	1445.72
1015.976	1450.02
1016.268	1421.32
1016.56	1427.19
1016.851	1420.87
1017.143	1370.7
1017.435	1364.6
1017.727	1389.68
1018.018	1396.69
1018.31	1390.36
1018.602	1317.37
1018.893	1360.53
1019.185	1352.39
1019.476	1308.55
1019.767	1320.3
1020.058	1327.08
1020.35	1313.3
1020.641	1311.04
1020.932	1286.41
1021.223	1281.21
1021.514	1247.31
1021.804	1267.42
1022.095	1249.8
1022.386	1259.06
1022.677	1263.36
1022.967	1245.73
1023.258	1236.92
1023.548	1243.92
1023.839	1212.51
1024.129	1204.6
1024.419	1220.65
1024.709	1174.77
1025	1179.29
1025.29	1176.58
1025.58	1148.56
1025.87	1154.66
1026.16	1143.13
1026.449	1165.73
1026.739	1165.51
1027.029	1132.06
1027.319	1149.46
1027.608	1115.56
1027.898	1135
1028.187	1110.59
1028.477	1119.41
1028.766	1084.38
1029.055	1090.71
1029.344	1073.98
1029.634	1049.12
1029.923	1071.27
1030.212	1042.57
1030.501	1029.01
1030.79	1024.04
1031.078	1040.76
1031.367	1017.94
1031.656	1040.31
1031.945	1045.96
1032.233	1029.92
1032.522	1015.23
1032.81	993.99
1033.099	1003.48
1033.387	973.87
1033.675	977.71
1033.963	980.65
1034.251	977.94
1034.54	956.92
1034.828	937.26
1035.116	959.18
1035.403	944.72
1035.691	953.53
1035.979	937.04
1036.267	924.83
1036.554	912.41
1036.842	916.47
1037.129	898.85
1037.417	903.59
1037.704	926.87
1037.992	896.36
1038.279	897.49
1038.566	851.39
1038.853	851.39
1039.14	851.39
