Data from hue_22_FLMS001491_00026.txt Node
Date: Tue Feb 07 17:09:52 GMT 2017
User: dcchb
Spectrometer: FLMS00149
Trigger mode: 0
Integration Time (sec): 2.000000E-2
Scans to average: 10
Electric dark correction enabled: true
Nonlinearity correction enabled: false
Boxcar width: 0
XAxis mode: Wavelengths
Number of Pixels in Spectrum: 2048
>>>>>Begin Spectral Data<<<<<
341.393	-21.84
341.776	-21.84
342.16	-21.84
342.543	-46.47
342.927	-67.94
343.31	-69.74
343.693	-68.16
344.077	-44.21
344.46	-77.88
344.843	-48.05
345.226	-50.31
345.61	-25.45
345.993	-19.35
346.376	-12.8
346.759	21.78
347.142	8.67
347.525	37.37
347.908	56.13
348.291	77.14
348.674	96.13
349.057	118.73
349.44	130.93
349.823	150.82
350.206	160.76
350.588	202.79
350.971	188.78
351.354	216.8
351.737	232.17
352.119	242.34
352.502	268.78
352.884	286.18
353.267	284.15
353.65	305.84
354.032	297.48
354.414	301.32
354.797	319.17
355.179	328.44
355.562	327.31
355.944	326.4
356.326	333.18
356.709	356.91
357.091	357.14
357.473	331.15
357.855	342.67
358.238	336.35
358.62	349.91
359.002	346.29
359.384	343.13
359.766	328.66
360.148	334.09
360.53	352.84
360.912	334.09
361.294	342.45
361.676	343.8
362.057	308.78
362.439	331.38
362.821	321.88
363.203	334.77
363.584	333.86
363.966	334.31
364.348	322.79
364.729	322.56
365.111	335.67
365.493	317.82
365.874	326.18
366.256	318.04
366.637	309.23
367.019	319.4
367.4	315.1
367.781	331.38
368.163	327.31
368.544	338.61
368.925	304.94
369.306	316.01
369.688	304.03
370.069	328.66
370.45	316.01
370.831	316.23
371.212	307.2
371.593	327.99
371.974	321.66
372.355	324.37
372.736	309.46
373.117	318.27
373.498	330.02
373.879	316.46
374.26	316.01
374.641	312.84
375.021	309.68
375.402	306.07
375.783	311.71
376.163	326.4
376.544	313.07
376.925	318.27
377.305	330.7
377.686	326.86
378.066	342.9
378.447	350.58
378.827	349.91
379.208	338.61
379.588	333.41
379.968	348.78
380.349	352.17
380.729	357.14
381.109	328.66
381.489	343.8
381.87	351.49
382.25	342.45
382.63	346.74
383.01	337.7
383.39	339.96
383.77	360.75
384.15	371.83
384.53	349.45
384.91	353.3
385.29	372.73
385.67	351.49
386.049	365.5
386.429	357.82
386.809	363.47
387.189	357.14
387.568	342
387.948	357.59
388.328	368.66
388.707	370.7
389.087	363.69
389.466	353.75
389.846	373.63
390.225	379.06
390.605	362.79
390.984	363.69
391.363	349.23
391.743	368.21
392.122	356.23
392.501	380.87
392.881	372.96
393.26	363.24
393.639	397.36
394.018	374.54
394.397	372.96
394.776	368.44
395.155	397.59
395.534	373.18
395.913	380.64
396.292	396.46
396.671	405.72
397.05	382.67
397.429	395.78
397.808	410.92
398.186	376.35
398.565	388.32
398.944	369.79
399.323	408.66
399.701	413.63
400.08	389.23
400.458	400.75
400.837	406.4
401.215	380.87
401.594	398.04
401.972	402.11
402.351	412.05
402.729	413.86
403.107	414.54
403.486	398.27
403.864	413.41
404.242	417.7
404.62	437.81
404.999	429
405.377	435.55
405.755	432.39
406.133	432.39
406.511	424.48
406.889	415.22
407.267	433.07
407.645	433.29
408.023	420.86
408.401	449.34
408.779	449.56
409.156	452.05
409.534	458.6
409.912	427.64
410.29	435.1
410.667	446.63
411.045	458.38
411.422	472.61
411.8	475.78
412.178	459.28
412.555	452.95
412.933	473.97
413.31	477.13
413.687	498.38
414.065	483.69
414.442	455.44
414.819	480.75
415.197	499.96
415.574	464.48
415.951	502.9
416.328	487.08
416.705	528.43
417.082	495.44
417.46	497.25
417.837	511.48
418.214	508.77
418.591	522.78
418.967	534.99
419.344	481.88
419.721	518.94
420.098	518.72
420.475	523.91
420.852	525.49
421.228	508.09
421.605	528.21
421.982	523.69
422.358	522.33
422.735	536.12
423.111	551.48
423.488	541.99
423.864	537.47
424.241	543.8
424.617	567.08
424.994	564.36
425.37	564.36
425.746	585.15
426.123	580.18
426.499	572.05
426.875	579.28
427.251	580.41
427.627	574.31
428.003	611.82
428.379	588.54
428.756	597.58
429.132	607.3
429.507	595.1
429.883	596.45
430.259	629.22
430.635	619.5
431.011	624.93
431.387	629.45
431.763	654.3
432.138	636
432.514	655.89
432.89	656.11
433.265	654.76
433.641	650.24
434.016	656.34
434.392	685.72
434.767	710.12
435.143	702.89
435.518	681.42
435.894	682.1
436.269	706.51
436.644	690.24
437.02	723.91
437.395	702.44
437.77	716.22
438.145	719.84
438.52	740.63
438.895	747.64
439.271	739.05
439.646	755.55
440.021	769.33
440.395	753.74
440.77	746.51
441.145	754.87
441.52	765.04
441.895	783.12
442.27	771.82
442.645	761.42
443.019	777.24
443.394	784.7
443.769	768.2
444.143	796.9
444.518	801.42
444.892	782.66
445.267	790.8
445.641	823.11
446.016	817.01
446.39	812.27
446.764	831.48
447.139	807.97
447.513	820.63
447.887	811.81
448.262	836.22
448.636	859.5
449.01	838.03
449.384	832.15
449.758	862.43
450.132	843
450.506	876.67
450.88	879.61
451.254	885.49
451.628	889.78
452.002	886.39
452.376	884.36
452.75	914.41
453.123	909.89
453.497	928.65
453.871	913.96
454.244	928.87
454.618	949.89
454.992	951.7
455.365	956.9
455.739	961.64
456.112	1008.19
456.486	975.65
456.859	980.4
457.232	1007.06
457.606	1026.05
457.979	1012.71
458.352	1044.58
458.725	1029.89
459.099	1075.76
459.472	1075.31
459.845	1049.1
460.218	1069.89
460.591	1107.17
460.964	1120.73
461.337	1103.33
461.71	1137.23
462.083	1147.63
462.456	1151.24
462.829	1160.73
463.201	1212.03
463.574	1186.04
463.947	1191.47
464.32	1213.61
464.692	1231.01
465.065	1233.27
465.438	1261.75
465.81	1245.93
466.183	1259.49
466.555	1271.92
466.928	1313.27
467.3	1300.16
467.672	1350.56
468.045	1384.68
468.417	1372.25
468.789	1358.47
469.161	1396.88
469.534	1407.96
469.906	1439.37
470.278	1448.41
470.65	1468.97
471.022	1488.86
471.394	1513.04
471.766	1523.66
472.138	1567.05
472.51	1576.77
472.882	1596.2
473.253	1600.72
473.625	1640.49
473.997	1698.57
474.369	1689.08
474.74	1689.76
475.112	1737.89
475.484	1758.23
475.855	1829.64
476.227	1816.08
476.598	1885.91
476.97	1894.95
477.341	1902.41
477.713	1956.19
478.084	1951.67
478.455	2020.82
478.827	2026.7
479.198	2104.21
479.569	2103.98
479.94	2164.55
480.311	2226.47
480.682	2230.08
481.053	2289.52
481.424	2326.58
481.795	2374.26
482.166	2421.94
482.537	2463.07
482.908	2503.07
483.279	2510.75
483.65	2590.3
484.021	2596.4
484.391	2662.61
484.762	2694.93
485.133	2718.88
485.503	2788.26
485.874	2787.58
486.244	2866.68
486.615	2910.74
486.985	2987.12
487.356	3045.2
487.726	3070.74
488.097	3111.87
488.467	3111.64
488.837	3228.93
489.207	3245.88
489.578	3301.92
489.948	3351.86
490.318	3392.09
490.688	3489.71
491.058	3475.25
491.428	3547.34
491.798	3528.81
492.168	3651.74
492.538	3703.49
492.908	3710.95
493.278	3747.33
493.648	3813.32
494.017	3836.37
494.387	3880.21
494.757	3952.98
495.126	4000.21
495.496	3984.16
495.866	4014.89
496.235	4021.67
496.605	4112.52
496.974	4123.37
497.344	4171.5
497.713	4213.31
498.082	4257.15
498.452	4286.3
498.821	4295.34
499.19	4344.83
499.559	4379.4
499.928	4401.1
500.298	4420.53
500.667	4536.69
501.036	4463.24
501.405	4510.47
501.774	4554.54
502.143	4590.92
502.512	4572.62
502.88	4653.52
503.249	4609
503.618	4692.39
503.987	4730.36
504.356	4739.62
504.724	4744.82
505.093	4754.31
505.462	4832.27
505.83	4824.82
506.199	4850.13
506.567	4913.4
506.936	4893.29
507.304	4998.82
507.672	5020.52
508.041	5001.08
508.409	5065.04
508.777	5083.34
509.145	5110.68
509.514	5104.13
509.882	5167.18
510.25	5183
510.618	5184.81
510.986	5149.78
511.354	5239.72
511.722	5304.35
512.09	5345.03
512.458	5344.58
512.826	5342.77
513.193	5320.62
513.561	5398.36
513.929	5418.7
514.297	5409.66
514.664	5477.68
515.032	5498.02
515.4	5514.52
515.767	5536.66
516.135	5600.16
516.502	5568.98
516.869	5632.93
517.237	5648.07
517.604	5654.85
517.972	5673.83
518.339	5732.82
518.706	5725.81
519.073	5728.97
519.44	5746.6
519.808	5781.85
520.175	5832.25
520.542	5900.49
520.909	5919.93
521.276	5882.42
521.643	5919.93
522.009	5981.4
522.376	5979.59
522.743	6003.32
523.11	6083.31
523.477	6074.5
523.843	6101.39
524.21	6187.49
524.577	6205.35
524.943	6274.27
525.31	6252.12
525.676	6324.89
526.043	6384.32
526.409	6341.84
526.776	6505.22
527.142	6430.2
527.508	6480.59
527.874	6499.8
528.241	6542.06
528.607	6567.82
528.973	6620.7
529.339	6626.8
529.705	6753.81
530.071	6674.26
530.437	6743.41
530.803	6781.6
531.169	6850.3
531.535	6847.81
531.901	6846.46
532.267	6848.94
532.632	6975.95
532.998	6996.74
533.364	6998.77
533.73	7002.16
534.095	7046.91
534.461	7103.4
534.826	7165.09
535.192	7166.68
535.557	7263.62
535.923	7263.62
536.288	7290.97
536.653	7257.75
537.019	7292.32
537.384	7220.01
537.749	7335.26
538.114	7398.53
538.479	7415.48
538.845	7421.58
539.21	7426.56
539.575	7474.24
539.94	7519.21
540.305	7557.4
540.67	7508.36
541.034	7602.82
541.399	7626.32
541.764	7656.83
542.129	7625.19
542.494	7747.45
542.858	7757.85
543.223	7711.97
543.587	7817.51
543.952	7826.32
544.316	7862.93
544.681	7882.82
545.045	7927.79
545.41	7979.54
545.774	8035.35
546.138	8003.94
546.503	8044.39
546.867	8033.77
547.231	8156.25
547.595	8101.57
547.959	8202.81
548.324	8208
548.688	8243.26
549.052	8253.88
549.416	8273.54
549.779	8299.3
550.143	8275.35
550.507	8368.68
550.871	8424.04
551.235	8370.03
551.599	8437.83
551.962	8510.82
552.326	8511.95
552.689	8539.75
553.053	8486.87
553.417	8496.13
553.78	8575
554.143	8532.97
554.507	8654.55
554.87	8720.08
555.234	8784.03
555.597	8720.99
555.96	8777.71
556.323	8770.7
556.686	8781.1
557.05	8881.66
557.413	8883.92
557.776	8921.43
558.139	8987.19
558.502	9047.76
558.865	8948.55
559.228	9071.71
559.59	9067.87
559.953	9074.2
560.316	9189.9
560.679	9225.38
561.041	9225.15
561.404	9221.54
561.767	9311.03
562.129	9288.88
562.492	9390.8
562.854	9399.16
563.217	9383.57
563.579	9411.81
563.941	9447.75
564.304	9541.3
564.666	9555.54
565.028	9604.35
565.39	9609.55
565.753	9690.9
566.115	9617.68
566.477	9715.76
566.839	9739.04
567.201	9815.42
567.563	9811.58
567.925	9945.59
568.287	9884.34
568.648	9921.41
569.01	9999.82
569.372	10025.58
569.734	10023.1
570.095	10139.03
570.457	10081.85
570.819	10210.89
571.18	10159.59
571.542	10251.79
571.903	10260.83
572.265	10374.95
572.626	10419.7
572.987	10483.65
573.349	10437.78
573.71	10473.71
574.071	10536.53
574.432	10610.88
574.794	10783.3
575.155	10829.4
575.516	10765.9
575.877	10859.01
576.238	10968.16
576.599	11014.48
576.96	11111.21
577.32	11140.36
577.681	11279.34
578.042	11377.41
578.403	11450.41
578.763	11462.61
579.124	11629.84
579.485	11720
579.845	11818.31
580.206	11828.25
580.566	11996.83
580.927	12128.13
581.287	12209.48
581.648	12364.28
582.008	12473.43
582.368	12583.71
582.728	12803.82
583.089	12913.64
583.449	13107.08
583.809	13263.24
584.169	13405.38
584.529	13525.6
584.889	13794.07
585.249	13956.33
585.609	14063.44
585.969	14315.19
586.329	14493.71
586.688	14719.92
587.048	14888.51
587.408	15171.89
587.768	15355.61
588.127	15609.17
588.487	15823.62
588.846	16154.91
589.206	16382.7
589.565	16558.29
589.925	16938.4
590.284	17186.53
590.643	17390.14
591.003	17813.85
591.362	18014.98
591.721	18289.55
592.08	18588.07
592.44	18758.46
592.799	19141.95
593.158	19348.28
593.517	19652.45
593.876	20014.02
594.235	20225.99
594.593	20597.28
594.952	20934.9
595.311	21125.18
595.67	21611.95
596.029	22000.18
596.387	22246.73
596.746	22610.34
597.104	22900.95
597.463	23001.29
597.822	23527.83
598.18	23753.36
598.538	23993.35
598.897	24455.49
599.255	24618.19
599.613	25305.18
599.972	25360.32
600.33	25706.98
600.688	25983.58
601.046	26377.7
601.404	26585.15
601.762	27003.89
602.12	27357.11
602.478	27664.22
602.836	28034.83
603.194	28079.12
603.552	28462.61
603.91	28663.74
604.268	29151.18
604.625	29363.83
604.983	29741.22
605.341	29755.91
605.698	30084.27
606.056	30665.95
606.413	30806.05
606.771	31236.1
607.128	31397
607.485	31524
607.843	31855.07
608.2	32184.55
608.557	32544.77
608.914	32499.57
609.272	33022.04
609.629	33297.06
609.986	33596.94
610.343	33611.63
610.7	33997.38
611.057	34182.01
611.414	34355.57
611.771	34696.35
612.127	34923.91
612.484	35189.67
612.841	35257.46
613.198	35468.53
613.554	35592.37
613.911	36066.03
614.267	36153.03
614.624	36383.53
614.98	36525
615.337	36820.59
615.693	36894.71
616.05	37094.02
616.406	37486.33
616.762	37522.71
617.118	37737.4
617.475	37804.06
617.831	38111.17
618.187	38200.44
618.543	38322.92
618.899	38730.59
619.255	38811.72
619.611	38918.61
619.967	39274.31
620.323	39378.71
620.678	39244.02
621.034	39337.36
621.39	39423.23
621.746	39461.65
622.101	40074.29
622.457	39849.21
622.812	40052.14
623.168	40160.38
623.523	40237.22
623.879	40453.26
624.234	40479.02
624.589	40633.37
624.945	40729.18
625.3	40944.09
625.655	40897.09
626.01	40928.05
626.365	41090.98
626.72	41050.53
627.075	41163.97
627.43	41187.25
627.785	41217.98
628.14	41389.5
628.495	41354.48
628.85	41490.75
629.205	41337.98
629.559	41645.77
629.914	41470.86
630.269	41610.97
630.623	41657.07
630.978	41539.56
631.332	41867.68
631.687	42037.62
632.041	41792.43
632.396	41908.36
632.75	41946.78
633.104	41868.81
633.459	41999.66
633.813	41896.84
634.167	41897.74
634.521	42014.57
634.875	42171.63
635.229	42048.7
635.583	41799.89
635.937	42032.43
636.291	42011.64
636.645	42073.78
636.999	41970.05
637.352	42089.15
637.706	41919.43
638.06	41987.23
638.413	41999.43
638.767	41930.73
639.121	41901.81
639.474	41859.78
639.828	41894.35
640.181	41909.04
640.534	41903.16
640.888	42012.99
641.241	41735.03
641.594	41914.69
641.947	41928.47
642.301	41908.14
642.654	41959.66
643.007	41824.52
643.36	41889.6
643.713	41827.23
644.066	41994.01
644.419	41758.08
644.771	41682.6
645.124	41309.51
645.477	41153.13
645.83	40808.5
646.182	40828.62
646.535	40781.84
646.888	40890.76
647.24	40460.94
647.593	40810.09
647.945	40832.46
648.298	40641.73
648.65	40463.43
649.002	40464.11
649.355	40508.17
649.707	40544.1
650.059	40798.11
650.411	41224.99
650.763	41234.25
651.115	41722.38
651.467	41478.32
651.819	41418.66
652.171	41527.13
652.523	41374.82
652.875	41292.78
653.227	41054.6
653.578	41556.05
653.93	41373.91
654.282	41408.49
654.633	41280.36
654.985	41338.88
655.337	41219.57
655.688	41407.81
656.039	41502.72
656.391	41243.75
656.742	41317.87
657.094	41224.99
657.445	41552.21
657.796	41339.56
658.147	41163.75
658.498	41188.61
658.849	41344.99
659.2	41224.09
659.551	41201.26
659.902	41271.32
660.253	41143.86
660.604	41218.21
660.955	41011.66
661.306	41244.65
661.656	41131.43
662.007	41210.3
662.358	41224.76
662.708	41131.88
663.059	41166.91
663.409	40731.67
663.76	41131.88
664.11	41108.38
664.461	41170.98
664.811	41219.11
665.161	41069.97
665.511	41087.82
665.862	41053.69
666.212	41170.75
666.562	41245.1
666.912	41068.16
667.262	41165.1
667.612	41037.2
667.962	41232.67
668.312	41036.97
668.662	41130.53
669.011	40975.28
669.361	41057.99
669.711	40999.91
670.06	40924.66
670.41	40918.78
670.76	40810.76
671.109	40936.86
671.459	41055.73
671.808	40805.11
672.157	40973.02
672.507	40719.47
672.856	40822.51
673.205	40796.75
673.554	40954.94
673.904	40761.95
674.253	40941.38
674.602	40959.91
674.951	40234.28
675.3	40081.29
675.649	40739.35
675.998	40691.67
676.346	40689.86
676.695	40709.75
677.044	40411.9
677.393	40625.91
677.741	40684.21
678.09	40543.65
678.438	40450.77
678.787	40495.74
679.135	40608.73
679.484	40187.73
679.832	40395.41
680.181	40212.36
680.529	40395.18
680.877	40142.31
681.225	40303.21
681.573	40394.95
681.922	40102.99
682.27	39962.42
682.618	40081.06
682.966	39994.06
683.314	40068.64
683.661	39896.89
684.009	39743.9
684.357	39723.56
684.705	39618.93
685.053	39740.73
685.4	39582.09
685.748	39418.94
686.095	39380.52
686.443	39309.33
686.79	39261.43
687.138	39384.81
687.485	39439.95
687.832	39192.27
688.18	39279.05
688.527	39091.03
688.874	38952.28
689.221	39013.07
689.568	38780.99
689.915	38797.26
690.262	38820.98
690.609	38607.88
690.956	38531.5
691.303	38504.61
691.65	38505.96
691.997	38342.81
692.344	38034.79
692.69	38137.39
693.037	38090.38
693.383	37837.51
693.73	37924.96
694.077	37691.52
694.423	37710.96
694.769	37541.02
695.116	37420.57
695.462	37375.37
695.808	37280.91
696.155	37475.26
696.501	37229.84
696.847	37123.4
697.193	36973.58
697.539	37074.82
697.885	36659.46
698.231	36567.71
698.577	36814.48
698.923	36588.5
699.269	36440.93
699.614	36302.18
699.96	36232.13
700.306	36213.6
700.651	36097.89
700.997	35910.78
701.342	35965.69
701.688	35861.51
702.033	35799.82
702.379	35814.51
702.724	35693.38
703.069	35714.63
703.415	35205.26
703.76	35329.33
704.105	35381.75
704.45	35250.91
704.795	35050.46
705.14	35031.93
705.485	35056.56
705.83	34857.02
706.175	34953.74
706.52	34791.49
706.865	34671.94
707.209	34580.64
707.554	34424.26
707.899	34608.44
708.243	34182.69
708.588	34170.94
708.932	34053.2
709.277	34168.23
709.621	34171.62
709.966	33787.44
710.31	33883.49
710.654	33646.88
710.998	33845.97
711.342	33631.97
711.687	33738.63
712.031	33520.56
712.375	33330.73
712.719	33504.29
713.063	33435.59
713.407	33509.71
713.75	33207.35
714.094	33340.45
714.438	33151.53
714.782	33135.71
715.125	33070.63
715.469	33115.82
715.812	32777.75
716.156	32737.53
716.499	32645.33
716.843	32836.74
717.186	32543.18
717.53	32722.84
717.873	32749.96
718.216	32510.87
718.559	32465.9
718.902	32168.5
719.246	32384.32
719.589	32330.99
719.932	32097.09
720.275	32032.46
720.617	32019.58
720.96	32077.89
721.303	32001.5
721.646	31943.43
721.989	31784.79
722.331	31862.07
722.674	31780.94
723.016	31779.59
723.359	31591.12
723.701	31598.8
724.044	31437.9
724.386	31324.68
724.729	31436.09
725.071	31289.88
725.413	31284.23
725.755	31341.86
726.097	31167.85
726.439	31069.78
726.782	31027.07
727.124	31304.35
727.465	31042.88
727.807	31001.98
728.149	30987.29
728.491	30912.04
728.833	30992.94
729.175	30867.3
729.516	30756.11
729.858	30805.83
730.199	30783.68
730.541	30805.38
730.882	30596.12
731.224	30698.03
731.565	30412.84
731.906	30536.91
732.248	30554.31
732.589	30238.61
732.93	30358.83
733.271	30290.14
733.612	30251.04
733.953	30266.18
734.294	30234.09
734.635	30047.2
734.976	30252.17
735.317	29871.16
735.658	29951.61
735.999	29981.44
736.339	29920.65
736.68	29969.69
737.021	29978.96
737.361	29662.13
737.702	29998.84
738.042	29677.04
738.383	29720.89
738.723	29765.86
739.063	29578.29
739.404	29699.19
739.744	29674.78
740.084	29431.85
740.424	29565.41
740.764	29464.85
741.104	29405.19
741.444	29356.15
741.784	29350.73
742.124	29329.48
742.464	29379.2
742.804	29227.34
743.143	29276.38
743.483	29132.88
743.823	29072.54
744.162	29014.92
744.502	28988.93
744.841	28984.18
745.181	29029.6
745.52	28832.32
745.86	28907.35
746.199	28889.04
746.538	28819.44
746.877	28780.8
747.216	28799.55
747.556	28784.41
747.895	28748.71
748.234	28687.01
748.573	28546.23
748.911	28512.33
749.25	28581.71
749.589	28351.2
749.928	28448.15
750.267	28441.37
750.605	28326.35
750.944	28334.71
751.283	28230.08
751.621	28281.6
751.96	28155.05
752.298	28138.33
752.636	28131.1
752.975	27977.43
753.313	27890.88
753.651	27901.27
753.989	27840.93
754.327	27661.28
754.666	27645.01
755.004	27570.21
755.342	27725.46
755.679	27709.19
756.017	27466.48
756.355	27543.77
756.693	27268.52
757.031	27437.33
757.368	27184.45
757.706	27181.97
758.044	27174.06
758.381	27241.4
758.719	27167.96
759.056	27159.6
759.394	26990.79
759.731	26847.74
760.068	26846.84
760.405	26644.81
760.743	26683
761.08	26729.55
761.417	26575.21
761.754	26437.81
762.091	26421.99
762.428	26412.05
762.765	26137.7
763.102	26326.17
763.438	26094.09
763.775	25976.35
764.112	25957.82
764.449	26009.12
764.785	25880.99
765.122	25707.66
765.458	25616.81
765.795	25542.01
766.131	25522.58
766.467	25482.8
766.804	25349.7
767.14	25199.65
767.476	25170.5
767.812	25071.29
768.148	25040.56
768.485	24877.85
768.821	24915.14
769.157	24712.43
769.492	24723.73
769.828	24758.76
770.164	24595.14
770.5	24463.17
770.836	24492.77
771.171	24271.54
771.507	24198.77
771.842	24050.53
772.178	24117.87
772.513	24043.97
772.849	23955.61
773.184	23751.32
773.519	23817.09
773.855	23600.14
774.19	23619.12
774.525	23580.26
774.86	23436.76
775.195	23525.34
775.53	23397.89
775.865	23168.06
776.2	23093.94
776.535	22899.37
776.87	22916.09
777.205	22928.3
777.539	22683.1
777.874	22739.15
778.209	22603.11
778.543	22526.05
778.878	22371.47
779.212	22423.22
779.547	22304.58
779.881	22275.43
780.215	22089.9
780.55	22234.53
780.884	21980.07
781.218	21893.07
781.552	21905.27
781.886	21698.05
782.22	21639.06
782.554	21519.29
782.888	21398.17
783.222	21421.22
783.556	21327.21
783.889	21177.83
784.223	21125.18
784.557	21037.95
784.89	21151.39
785.224	21011.28
785.557	20883.83
785.891	20792.53
786.224	20721.12
786.558	20770.16
786.891	20464.18
787.224	20426.44
787.557	20374.01
787.891	20322.71
788.224	20286.33
788.557	20368.59
788.89	20221.7
789.223	20187.12
789.556	19907.81
789.888	20004.98
790.221	19993.01
790.554	19785.33
790.887	19820.13
791.219	19711.43
791.552	19649.29
791.884	19583.3
792.217	19529.74
792.549	19409.29
792.882	19342.4
793.214	19201.84
793.546	19311.22
793.879	19137.43
794.211	19131.11
794.543	19056.76
794.875	19020.38
795.207	19049.98
795.539	18870.55
795.871	18968.63
796.203	18738.35
796.535	18573.38
796.867	18581.07
797.198	18549.43
797.53	18522.31
797.862	18378.36
798.193	18408.64
798.525	18289.77
798.856	18247.74
799.188	18097.69
799.519	18021.76
799.85	18025.83
800.182	17994.19
800.513	17916.22
800.844	17801.2
801.175	17918.03
801.506	17873.74
801.837	17721.65
802.168	17726.62
802.499	17660.41
802.83	17609.57
803.161	17497.25
803.491	17508.55
803.822	17499.06
804.153	17409.57
804.483	17410.25
804.814	17211.84
805.145	17137.49
805.475	17137.49
805.805	17042.57
806.136	17091.61
806.466	17073.99
806.796	17033.31
807.126	16885.06
807.457	16923.48
807.787	16918.28
808.117	16706.54
808.447	16654.79
808.777	16691.17
809.107	16648.23
809.436	16647.56
809.766	16574.11
810.096	16488.69
810.426	16418.41
810.755	16426.77
811.085	16411.63
811.414	16366.66
811.744	16247.57
812.073	16255.25
812.403	16159.66
812.732	16036.5
813.061	16070.4
813.39	16068.59
813.719	15998.99
814.049	16074.01
814.378	15866.33
814.707	15877.18
815.036	15923.51
815.365	15830.63
815.693	15654.59
816.022	15763.51
816.351	15821.14
816.68	15624.08
817.008	15572.56
817.337	15434.26
817.665	15437.42
817.994	15476.74
818.322	15527.59
818.651	15370.3
818.979	15397.42
819.307	15416.18
819.636	15356.52
819.964	15230.42
820.292	15278.78
820.62	15283.07
820.948	15188.84
821.276	15235.39
821.604	15194.94
821.932	15207.14
822.259	15228.61
822.587	15195.62
822.915	15137.54
823.243	15203.75
823.57	15058.22
823.898	15129.4
824.225	15109.97
824.553	15039.24
824.88	15121.95
825.207	15209.18
825.535	15102.74
825.862	15152
826.189	15100.48
826.516	15145.68
826.843	15206.69
827.17	15207.59
827.497	15207.37
827.824	15114.04
828.151	15133.25
828.478	15057.32
828.805	15224.09
829.131	15094.15
829.458	15071.78
829.785	14997.43
830.111	15039.24
830.438	15145.45
830.764	15025.23
831.09	15068.62
831.417	15043.98
831.743	15040.14
832.069	15075.17
832.395	14968.96
832.722	15029.52
833.048	14913.82
833.374	14915.62
833.7	14878.79
834.026	14840.82
834.351	14890.09
834.677	14875.85
835.003	14792.01
835.329	14822.97
835.654	14850.32
835.98	14717.21
836.306	14794.5
836.631	14796.53
836.956	14783.2
837.282	14812.12
837.607	14645.12
837.932	14715.86
838.258	14696.2
838.583	14588.85
838.908	14659.13
839.233	14643.09
839.558	14553.37
839.883	14474.96
840.208	14470.66
840.533	14434.06
840.858	14481.29
841.182	14410.33
841.507	14501.62
841.832	14315.41
842.156	14318.35
842.481	14364.23
842.805	14299.6
843.13	14389.54
843.454	14209.43
843.778	14106.38
844.103	14188.64
844.427	14123.1
844.751	14118.13
845.075	13975.76
845.399	13990
845.723	13950.68
846.047	13955.2
846.371	13901.41
846.695	13825.48
847.019	13717.46
847.343	13707.97
847.666	13517.92
847.99	13573.97
848.313	13549.78
848.637	13489.22
848.96	13380.52
849.284	13276.35
849.607	13368.77
849.931	13292.84
850.254	13238.83
850.577	13174.65
850.9	13035.45
851.223	13018.27
851.546	12946.64
851.869	12851.27
852.192	12867.09
852.515	12842.91
852.838	12740.77
853.161	12753.42
853.483	12656.48
853.806	12618.51
854.129	12606.31
854.451	12628.91
854.774	12547.33
855.096	12419.42
855.419	12474.33
855.741	12439.31
856.063	12388.01
856.385	12370.38
856.708	12264.85
857.03	12230.27
857.352	12182.36
857.674	12163.15
857.996	12128.81
858.318	12096.49
858.64	12103.5
858.961	12032.54
859.283	12015.36
859.605	11979.66
859.926	11929.94
860.248	11933.56
860.57	11810.17
860.891	11920.9
861.212	11737.86
861.534	11803.62
861.855	11718.42
862.176	11748.25
862.498	11785.54
862.819	11755.26
863.14	11670.06
863.461	11626.45
863.782	11570.85
864.103	11618.76
864.424	11572.66
864.745	11596.16
865.065	11506.45
865.386	11513.45
865.707	11468.71
866.027	11550.97
866.348	11416.06
866.668	11459.67
866.989	11387.36
867.309	11374.7
867.63	11341.26
867.95	11379.22
868.27	11324.53
868.59	11276.4
868.91	11259
869.23	11263.07
869.55	11206.12
869.87	11333.35
870.19	11251.77
870.51	11214.25
870.83	11179
871.15	11112.33
871.469	11135.16
871.789	11166.34
872.109	11123.63
872.428	11024.43
872.748	11100.81
873.067	11044.54
873.386	11016.52
873.706	11058.33
874.025	10970.64
874.344	10842.51
874.663	10957.54
874.982	10903.75
875.301	10958.44
875.62	10950.98
875.939	10888.84
876.258	10894.71
876.577	10823.53
876.896	10824.43
877.214	10747.37
877.533	10792.12
877.852	10747.6
878.17	10729.52
878.489	10762.74
878.807	10727.49
879.125	10648.84
879.444	10667.37
879.762	10598.68
880.08	10656.53
880.398	10631.9
880.716	10595.96
881.034	10536.98
881.352	10630.31
881.67	10517.32
881.988	10599.58
882.306	10500.37
882.624	10489.07
882.941	10463.99
883.259	10329.76
883.577	10390.32
883.894	10367.95
884.212	10382.18
884.529	10381.51
884.846	10311.23
885.164	10338.57
885.481	10289.08
885.798	10303.32
886.115	10151.46
886.432	10197.33
886.75	10096.54
887.067	10157.11
887.383	10167.28
887.7	10136.32
888.017	10029.88
888.334	10071.91
888.651	10049.54
888.967	10016.32
889.284	9958.47
889.6	9955.76
889.917	9878.24
890.233	9912.82
890.55	9830.56
890.866	9861.29
891.182	9862.88
891.498	9725.7
891.815	9691.81
892.131	9689.55
892.447	9661.07
892.763	9602.32
893.079	9682.99
893.395	9616.1
893.71	9575.2
894.026	9509.21
894.342	9493.85
894.657	9412.27
894.973	9384.47
895.289	9480.97
895.604	9438.03
895.92	9292.5
896.235	9254.08
896.55	9269.22
896.865	9268.32
897.181	9232.84
897.496	9233.29
897.811	9126.85
898.126	9146.28
898.441	9056.57
898.756	9115.33
899.071	9069.45
899.386	9015.89
899.7	8934.09
900.015	8867.87
900.33	8837.14
900.644	8825.16
900.959	8817.71
901.273	8848.89
901.588	8737.71
901.902	8783.13
902.216	8738.61
902.531	8713.98
902.845	8677.6
903.159	8596.92
903.473	8577.26
903.787	8609.8
904.101	8551.72
904.415	8485.06
904.729	8544.04
905.042	8388.79
905.356	8400.77
905.67	8386.08
905.984	8363.71
906.297	8315.35
906.611	8309.47
906.924	8247.1
907.237	8243.26
907.551	8262.47
907.864	8225.41
908.177	8146.31
908.491	8168.68
908.804	8105.86
909.117	8026.54
909.43	7944.06
909.743	7946.32
910.056	7980.67
910.368	7925.53
910.681	7833.55
910.994	7820.9
911.307	7852.99
911.619	7788.58
911.932	7751.97
912.244	7719.88
912.557	7715.36
912.869	7590.17
913.181	7585.42
913.494	7584.29
913.806	7533.45
914.118	7497.06
914.43	7474.69
914.742	7476.05
915.054	7488.93
915.366	7446.89
915.678	7413.45
915.99	7336.39
916.302	7273.57
916.613	7255.94
916.925	7249.39
917.236	7264.53
917.548	7126.45
917.859	7215.04
918.171	7148.15
918.482	7107.02
918.794	7070.41
919.105	7083.97
919.416	7023.18
919.727	7010.07
920.038	6983.63
920.349	6920.58
920.66	6885.1
920.971	6876.06
921.282	6853.01
921.593	6771.43
921.903	6838.32
922.214	6723.3
922.525	6681.72
922.835	6719.68
923.146	6669.97
923.456	6664.99
923.767	6633.36
924.077	6605.56
924.387	6533.47
924.697	6484.43
925.008	6529.4
925.318	6490.76
925.628	6439.69
925.938	6446.02
926.248	6353.59
926.558	6359.92
926.867	6340.26
927.177	6291.44
927.487	6281.28
927.796	6187.49
928.106	6204.89
928.416	6180.49
928.725	6165.12
929.034	6137.32
929.344	6096.42
929.653	6096.87
929.962	6022.07
930.271	6072.24
930.581	5966.93
930.89	5980.27
931.199	5914.51
931.508	5928.29
931.817	5954.5
932.125	5868.18
932.434	5911.34
932.743	5841.97
933.051	5849.65
933.36	5765.13
933.669	5755.41
933.977	5771.01
934.286	5776.66
934.594	5722.87
934.902	5641.74
935.21	5619.82
935.519	5650.78
935.827	5620.95
936.135	5570.11
936.443	5566.49
936.751	5486.04
937.059	5503.89
937.367	5469.09
937.674	5504.35
937.982	5414.63
938.29	5401.3
938.597	5415.54
938.905	5305.03
939.213	5336.67
939.52	5326.95
939.827	5275.88
940.135	5231.81
940.442	5237.24
940.749	5209.44
941.056	5202.89
941.363	5141.64
941.67	5138.93
941.977	5118.59
942.284	5055.09
942.591	5079.27
942.898	5093.74
943.205	5038.37
943.511	5023
943.818	5028.88
944.125	4971.93
944.431	4985.94
944.738	4932.61
945.044	4925.15
945.35	4916.34
945.657	4849.9
945.963	4844.25
946.269	4844.7
946.575	4787.08
946.881	4773.74
947.187	4753.63
947.493	4726.29
947.799	4743.46
948.105	4694.42
948.41	4668.89
948.716	4696.23
949.022	4687.19
949.327	4646.74
949.633	4587.08
949.938	4632.73
950.244	4618.04
950.549	4536.24
950.854	4505.73
951.16	4454.66
951.465	4488.55
951.77	4467.99
952.075	4416.69
952.38	4437.48
952.685	4414.88
952.99	4380.76
953.294	4348.9
953.599	4350.7
953.904	4326.07
954.209	4294.89
954.513	4345.28
954.818	4281.55
955.122	4284.27
955.426	4210.82
955.731	4225.06
956.035	4199.75
956.339	4188.68
956.643	4145.29
956.948	4097.38
957.252	4143.48
957.556	4126.98
957.86	4082.01
958.163	4098.28
958.467	4092.41
958.771	4046.53
959.075	4056.48
959.378	3987.55
959.682	4023.71
959.985	3958.4
960.289	3933.99
960.592	3931.73
960.896	3918.85
961.199	3921.34
961.502	3861.45
961.805	3845.63
962.108	3858.74
962.411	3805.18
962.714	3808.8
963.017	3795.69
963.32	3813.54
963.623	3757.5
963.926	3778.52
964.228	3748.46
964.531	3722.92
964.833	3712.08
965.136	3660.78
965.438	3664.85
965.741	3642.25
966.043	3668.24
966.345	3617.39
966.648	3616.71
966.95	3602.02
967.252	3555.47
967.554	3527
967.856	3568.35
968.158	3521.57
968.46	3520.44
968.761	3478.19
969.063	3486.77
969.365	3455.59
969.666	3461.01
969.968	3445.19
970.269	3411.29
970.571	3398.41
970.872	3406.55
971.174	3425.76
971.475	3373.56
971.776	3367.68
972.077	3357.51
972.378	3311.41
972.679	3330.39
972.98	3305.31
973.281	3272.09
973.582	3295.59
973.883	3258.3
974.183	3222.82
974.484	3220.57
974.785	3214.92
975.085	3229.6
975.386	3179.89
975.686	3187.35
975.986	3149.61
976.287	3143.5
976.587	3115.03
976.887	3080.68
977.187	3130.17
977.487	3104.86
977.787	3063.96
978.087	3074.35
978.387	3066.22
978.687	3103.28
978.987	3043.85
979.286	3042.94
979.586	2957.97
979.885	2965.43
980.185	2986.67
980.484	2946.45
980.784	2952.78
981.083	2906.22
981.382	2898.54
981.682	2906.67
981.981	2905.32
982.28	2856.05
982.579	2846.56
982.878	2889.73
983.177	2865.09
983.475	2849.05
983.774	2808.82
984.073	2794.36
984.372	2766.57
984.67	2744.19
984.969	2813.34
985.267	2743.06
985.566	2718.88
985.864	2743.29
986.162	2703.97
986.461	2710.75
986.759	2675.04
987.057	2680.01
987.355	2707.81
987.653	2656.74
987.951	2652.67
988.249	2628.26
988.547	2620.13
988.844	2598.43
989.142	2612.9
989.44	2605.44
989.737	2574.93
990.035	2570.19
990.332	2563.18
990.63	2540.81
990.927	2520.47
991.224	2493.58
991.521	2476.4
991.819	2471.43
992.116	2486.8
992.413	2458.33
992.71	2433.24
993.006	2402.28
993.303	2407.71
993.6	2414.03
993.897	2422.39
994.193	2398.44
994.49	2364.54
994.787	2404.54
995.083	2397.76
995.379	2335.39
995.676	2352.57
995.972	2313.02
996.268	2319.57
996.565	2312.11
996.861	2272.79
997.157	2293.13
997.453	2280.25
997.749	2276.64
998.044	2250.2
998.34	2212.23
998.636	2221.04
998.932	2216.52
999.227	2178.78
999.523	2197.09
999.818	2157.32
1000.114	2198.67
1000.409	2137.66
1000.704	2156.64
1001	2149.41
1001.295	2119.13
1001.59	2117.32
1001.885	2098.79
1002.18	2103.08
1002.475	2054.49
1002.77	2086.36
1003.065	2049.07
1003.359	2040.71
1003.654	2045.91
1003.949	2004.33
1004.243	2003.42
1004.538	1996.87
1004.832	1957.32
1005.127	1983.31
1005.421	1957.77
1005.715	1990.99
1006.009	1939.02
1006.304	1978.34
1006.598	1926.36
1006.892	1878.23
1007.186	1869.19
1007.48	1893.37
1007.773	1920.03
1008.067	1933.14
1008.361	1868.51
1008.655	1856.53
1008.948	1849.53
1009.242	1827.61
1009.535	1809.08
1009.829	1796.42
1010.122	1781.05
1010.415	1775.41
1010.708	1770.21
1011.001	1776.08
1011.295	1761.85
1011.588	1748.06
1011.881	1735.86
1012.173	1760.26
1012.466	1697.22
1012.759	1706.03
1013.052	1702.64
1013.344	1654.96
1013.637	1642.3
1013.93	1669.19
1014.222	1676.2
1014.514	1631
1014.807	1635.75
1015.099	1615.64
1015.391	1599.59
1015.683	1647.27
1015.976	1633.49
1016.268	1588.07
1016.56	1580.61
1016.851	1554.17
1017.143	1563.43
1017.435	1558.01
1017.727	1511.91
1018.018	1533.6
1018.31	1521.85
1018.602	1525.24
1018.893	1511.23
1019.185	1484.79
1019.476	1487.28
1019.767	1484.57
1020.058	1469.88
1020.35	1465.81
1020.641	1449.09
1020.932	1422.42
1021.223	1443.66
1021.514	1425.58
1021.804	1409.54
1022.095	1389.2
1022.386	1408.18
1022.677	1384.23
1022.967	1384.23
1023.258	1351.69
1023.548	1347.62
1023.839	1374.51
1024.129	1348.52
1024.419	1343.33
1024.709	1311.69
1025	1323.67
1025.29	1303.33
1025.58	1279.15
1025.87	1313.5
1026.16	1293.16
1026.449	1280.5
1026.739	1271.24
1027.029	1259.49
1027.319	1248.41
1027.608	1257
1027.898	1220.84
1028.187	1252.26
1028.477	1225.14
1028.766	1170
1029.055	1199.15
1029.344	1195.99
1029.634	1170.22
1029.923	1175.2
1030.212	1171.35
1030.501	1185.14
1030.79	1174.52
1031.078	1156.21
1031.367	1158.02
1031.656	1129.77
1031.945	1098.81
1032.233	1109.43
1032.522	1099.49
1032.81	1095.65
1033.099	1089.1
1033.387	1094.97
1033.675	1103.78
1033.963	1061.53
1034.251	1064.24
1034.54	1042.54
1034.828	1066.5
1035.116	1066.95
1035.403	1065.14
1035.691	1014.52
1035.979	1026.27
1036.267	1024.24
1036.554	1000.51
1036.842	1018.36
1037.129	983.79
1037.417	979.27
1037.704	1003.45
1037.992	993.5
1038.279	988.08
1038.566	994.63
1038.853	994.63
1039.14	994.63
