Data from hue_40_FLMS001491_7.txt Node
Date: Mon Feb 06 15:07:22 GMT 2017
User: dcchb
Spectrometer: FLMS00149
Trigger mode: 0
Integration Time (sec): 2.000000E-2
Scans to average: 10
Electric dark correction enabled: true
Nonlinearity correction enabled: false
Boxcar width: 0
XAxis mode: Wavelengths
Number of Pixels in Spectrum: 2048
>>>>>Begin Spectral Data<<<<<
341.393	-21.07
341.776	-21.07
342.16	-21.07
342.543	-57.23
342.927	-59.94
343.31	-63.56
343.693	-57.46
344.077	-75.99
344.46	-87.74
344.843	-55.65
345.226	-44.8
345.61	-24.46
345.993	-22.2
346.376	0.62
346.759	16.89
347.142	29.1
347.525	39.49
347.908	46.27
348.291	73.61
348.674	110.68
349.057	115.19
349.44	120.17
349.823	130.79
350.206	166.72
350.588	212.14
350.971	201.97
351.354	216.21
351.737	228.64
352.119	236.1
352.502	259.15
352.884	258.69
353.267	273.83
353.65	295.08
354.032	312.25
354.414	301.86
354.797	333.27
355.179	319.71
355.562	283.55
355.944	325.81
356.326	335.75
356.709	322.87
357.091	311.57
357.473	360.39
357.855	319.48
358.238	342.76
358.62	322.19
359.002	337.79
359.384	343.66
359.766	338.69
360.148	352.7
360.53	348.63
360.912	337.11
361.294	342.76
361.676	333.72
362.057	335.08
362.439	335.53
362.821	324.91
363.203	331.01
363.584	323.78
363.966	330.1
364.348	332.36
364.729	310.67
365.111	328.52
365.493	324.68
365.874	316.55
366.256	317.45
366.637	320.39
367.019	329.65
367.4	324.23
367.781	308.18
368.163	307.96
368.544	312.25
368.925	302.31
369.306	323.78
369.688	310.44
370.069	317.22
370.45	318.35
370.831	316.32
371.212	301.63
371.593	324.91
371.974	306.83
372.355	297.56
372.736	309.54
373.117	318.13
373.498	321.97
373.879	320.39
374.26	327.17
374.641	298.92
375.021	311.12
375.402	317.22
375.783	316.32
376.163	325.81
376.544	318.13
376.925	336.88
377.305	309.09
377.686	330.33
378.066	317.68
378.447	348.41
378.827	333.95
379.208	328.07
379.588	343.21
379.968	326.04
380.349	330.33
380.729	335.75
381.109	341.63
381.489	361.06
381.87	341.18
382.25	329.43
382.63	341.63
383.01	330.33
383.39	347.28
383.77	355.19
384.15	353.15
384.53	345.02
384.91	366.49
385.29	354.06
385.67	360.16
386.049	368.3
386.429	370.33
386.809	367.39
387.189	357.9
387.568	355.64
387.948	364.45
388.328	350.44
388.707	358.8
389.087	332.82
389.466	355.87
389.846	367.84
390.225	371.46
390.605	353.83
390.984	361.52
391.363	364.23
391.743	364.45
392.122	377.33
392.501	372.14
392.881	375.98
393.26	379.14
393.639	380.5
394.018	371.69
394.397	374.17
394.776	392.25
395.155	375.53
395.534	384.11
395.913	364.91
396.292	382.08
396.671	390.67
397.05	386.37
397.429	385.92
397.808	390.89
398.186	385.47
398.565	385.7
398.944	399.26
399.323	389.09
399.701	386.83
400.08	397
400.458	414.85
400.837	395.19
401.215	406.49
401.594	415.75
401.972	424.57
402.351	382.53
402.729	399.93
403.107	428.86
403.486	430.89
403.864	414.4
404.242	426.37
404.62	412.81
404.999	409.2
405.377	426.82
405.755	418.69
406.133	434.96
406.511	429.31
406.889	426.37
407.267	432.25
407.645	442.87
408.023	451.23
408.401	449.65
408.779	455.98
409.156	451.23
409.534	441.51
409.912	451.46
410.29	463.66
410.667	456.43
411.045	453.72
411.422	459.37
411.8	477.67
412.178	473.6
412.555	475.64
412.933	450.55
413.31	501.85
413.687	490.78
414.065	480.83
414.442	475.41
414.819	458.01
415.197	478.57
415.574	501.63
415.951	497.56
416.328	502.98
416.705	478.8
417.082	502.53
417.46	499.82
417.837	511.12
418.214	503.43
418.591	504.56
418.967	503.89
419.344	498.91
419.721	520.83
420.098	530.55
420.475	535.52
420.852	538.69
421.228	547.73
421.605	537.1
421.982	562.41
422.358	561.28
422.735	528.52
423.111	553.38
423.488	530.55
423.864	561.74
424.241	584.11
424.617	581.17
424.994	538.46
425.37	558.57
425.746	532.81
426.123	588.18
426.499	584.33
426.875	585.01
427.251	597.89
427.627	592.47
428.003	618.68
428.379	607.84
428.756	609.19
429.132	602.19
429.507	618.23
429.883	624.33
430.259	620.72
430.635	645.8
431.011	622.75
431.387	652.58
431.763	638.12
432.138	639.7
432.514	653.49
432.89	650.77
433.265	649.64
433.641	681.28
434.016	681.51
434.392	673.82
434.767	688.29
435.143	698.91
435.518	690.77
435.894	702.3
436.269	694.84
436.644	723.99
437.02	708.17
437.395	717.89
437.77	727.61
438.145	720.15
438.52	743.43
438.895	724.44
439.271	745.91
439.646	759.92
440.021	782.75
440.395	749.08
440.77	768.74
441.145	775.97
441.52	788.62
441.895	767.61
442.27	791.79
442.645	774.39
443.019	805.57
443.394	811
443.769	811.9
444.143	817.55
444.518	818
444.892	803.76
445.267	809.41
445.641	810.77
446.016	830.2
446.39	806.48
446.764	838.11
447.139	848.73
447.513	841.05
447.887	818.68
448.262	849.19
448.636	832.46
449.01	844.44
449.384	874.04
449.758	900.03
450.132	861.16
450.506	898
450.88	872.01
451.254	882.63
451.628	892.8
452.002	916.98
452.376	937.09
452.75	943.87
453.123	919.69
453.497	937.32
453.871	954.95
454.244	965.57
454.618	947.49
454.992	980.48
455.365	963.08
455.739	996.75
456.112	1014.15
456.486	1027.71
456.859	1031.78
457.232	1046.7
457.606	1039.01
457.979	1040.59
458.352	1081.05
458.725	1085.11
459.099	1090.99
459.472	1118.33
459.845	1113.81
460.218	1115.62
460.591	1141.83
460.964	1136.64
461.337	1150.2
461.71	1169.4
462.083	1213.24
462.456	1213.24
462.829	1233.13
463.201	1203.75
463.574	1240.36
463.947	1250.08
464.32	1267.48
464.692	1290.76
465.065	1314.03
465.438	1289.4
465.81	1350.87
466.183	1358.78
466.555	1379.34
466.928	1402.39
467.3	1414.82
467.672	1422.5
468.045	1436.06
468.417	1443.75
468.789	1481.49
469.161	1472.67
469.534	1523.29
469.906	1538.43
470.278	1569.39
470.65	1598.77
471.022	1596.29
471.394	1643.29
471.766	1669.96
472.138	1693.68
472.51	1723.74
472.882	1770.97
473.253	1770.07
473.625	1819.78
473.997	1831.31
474.369	1889.16
474.74	1925.77
475.112	1947.01
475.484	1982.26
475.855	2055.26
476.227	2052.54
476.598	2116.95
476.97	2158.76
477.341	2205.54
477.713	2265.19
478.084	2332.09
478.455	2401.24
478.827	2404.85
479.198	2498.86
479.569	2537.96
479.94	2595.36
480.311	2648.24
480.682	2717.61
481.053	2826.76
481.424	2879.87
481.795	2963.71
482.166	3004.84
482.537	3069.47
482.908	3149.01
483.279	3207.99
483.65	3299.29
484.021	3423.36
484.391	3486.63
484.762	3571.83
485.133	3656.8
485.503	3723.91
485.874	3791.48
486.244	3858.15
486.615	3988.09
486.985	4068.09
487.356	4162.55
487.726	4215.65
488.097	4360.73
488.467	4452.03
488.837	4575.87
489.207	4660.16
489.578	4727.73
489.948	4832.13
490.318	4996.87
490.688	5046.82
491.058	5140.15
491.428	5235.29
491.798	5311.67
492.168	5485
492.538	5562.96
492.908	5613.36
493.278	5799.34
493.648	5831.65
494.017	5922.05
494.387	6102.16
494.757	6192.55
495.126	6277.74
495.496	6312.77
495.866	6460.11
496.235	6545.53
496.605	6639.54
496.974	6759.09
497.344	6856.94
497.713	6941.68
498.082	7002.7
498.452	7137.83
498.821	7225.06
499.19	7286.76
499.559	7387.09
499.928	7496.7
500.298	7612.4
500.667	7705.05
501.036	7696.69
501.405	7795.67
501.774	7884.26
502.143	8066.17
502.512	8060.3
502.88	8220.97
503.249	8247.86
503.618	8364.47
503.987	8406.5
504.356	8445.15
504.724	8495.99
505.093	8586.16
505.462	8698.02
505.83	8768.75
506.199	8935.75
506.567	9052.13
506.936	9032.93
507.304	9180.49
507.672	9177.78
508.041	9255.29
508.409	9353.14
508.777	9450.77
509.145	9541.61
509.514	9619.8
509.882	9680.37
510.25	9659.58
510.618	9807.82
510.986	9884.43
511.354	9922.85
511.722	10029.96
512.09	10116.06
512.458	10130.52
512.826	10265.44
513.193	10295.94
513.561	10378.2
513.929	10449.61
514.297	10578.42
514.664	10599.21
515.032	10664.3
515.4	10779.55
515.767	10850.73
516.135	10869.71
516.502	10834.91
516.869	11039.2
517.237	11104.51
517.604	11075.36
517.972	11223.6
518.339	11358.74
518.706	11410.72
519.073	11380.21
519.44	11388.8
519.808	11572.29
520.175	11609.81
520.542	11827.66
520.909	11811.16
521.276	11817.03
521.643	11984.26
522.009	11972.28
522.376	12072.39
522.743	12202.56
523.11	12303.35
523.477	12386.96
523.843	12480.29
524.21	12558.48
524.577	12649.78
524.943	12714.19
525.31	12797.12
525.676	12897.68
526.043	12935.2
526.409	13071.46
526.776	13220.84
527.142	13230.1
527.508	13342.19
527.874	13359.37
528.241	13501.96
528.607	13533.15
528.973	13631.9
529.339	13643.2
529.705	13753.93
530.071	13853.36
530.437	13991.44
530.803	14018.11
531.169	14113.24
531.535	14053.81
531.901	14208.61
532.267	14219.46
532.632	14314.37
532.998	14259.23
533.364	14481.82
533.73	14515.95
534.095	14632.78
534.461	14683.85
534.826	14684.76
535.192	14774.92
535.557	14885.88
535.923	14989.61
536.288	15020.79
536.653	15019.89
537.019	15091.98
537.384	15126.1
537.749	15256.72
538.114	15254.68
538.479	15310.95
538.845	15409.48
539.21	15351.86
539.575	15485.19
539.94	15550.04
540.305	15643.83
540.67	15543.26
541.034	15693.09
541.399	15756.14
541.764	15781.68
542.129	15880.43
542.494	15923.59
542.858	15925.63
543.223	15990.26
543.587	16124.27
543.952	16178.73
544.316	16281.55
544.681	16281.32
545.045	16311.15
545.41	16416.69
545.774	16423.92
546.138	16492.17
546.503	16650.35
546.867	16596.57
547.231	16700.52
547.595	16762.21
547.959	16813.96
548.324	16851.93
548.688	16908.2
549.052	16974.19
549.416	16948.88
549.779	17060.06
550.143	17112.94
550.507	17216.89
550.871	17267.96
551.235	17257.34
551.599	17478.35
551.962	17416.89
552.326	17488.98
552.689	17642.19
553.053	17513.16
553.417	17620.72
553.78	17799.48
554.143	17695.52
554.507	17803.32
554.87	17901.39
555.234	18010.32
555.597	17929.19
555.96	17996.31
556.323	18212.35
556.686	18205.57
557.05	18315.17
557.413	18325.56
557.776	18387.26
558.139	18469.06
558.502	18578.44
558.865	18584.31
559.228	18630.64
559.59	18734.59
559.953	18773.01
560.316	18904.98
560.679	18924.42
561.041	19149.72
561.404	19263.84
561.767	19303.39
562.129	19184.75
562.492	19429.04
562.854	19408.02
563.217	19427
563.579	19522.37
563.941	19624.74
564.304	19730.05
564.666	19872.64
565.028	19850.95
565.39	19913.32
565.753	19964.62
566.115	20078.74
566.477	20158.28
566.839	20123.26
567.201	20241.9
567.563	20280.31
567.925	20453.87
568.287	20431.5
568.648	20563.47
569.01	20739.96
569.372	20793.52
569.734	20786.52
570.095	20807.31
570.457	20913.07
570.819	21055.89
571.18	21118.03
571.542	21231.7
571.903	21466.72
572.265	21432.83
572.626	21482.32
572.987	21537.23
573.349	21584.69
573.71	21753.72
574.071	21876.43
574.432	21835.75
574.794	22189.64
575.155	22179.7
575.516	22129.98
575.877	22299.7
576.238	22360.26
576.599	22426.25
576.96	22627.15
577.32	22661.95
577.681	22806.8
578.042	22940.36
578.403	23041.37
578.763	23078.66
579.124	23218.09
579.485	23435.71
579.845	23615.59
580.206	23632.99
580.566	23743.73
580.927	23971.29
581.287	24179.19
581.648	24206.09
582.008	24457.83
582.368	24478.62
582.728	24607.43
583.089	24742.34
583.449	24957.03
583.809	24973.07
584.169	25334.19
584.529	25341.88
584.889	25650.57
585.249	25725.14
585.609	25899.38
585.969	26123.55
586.329	26219.59
586.688	26525.12
587.048	26705
587.408	26627.72
587.768	26926.69
588.127	27088.95
588.487	27301.15
588.846	27606.45
589.206	27639.22
589.565	27805.77
589.925	28066.78
590.284	28286.43
590.643	28453.88
591.003	28757.83
591.362	28843.7
591.721	29117.82
592.08	29252.28
592.44	29428.1
592.799	29576.57
593.158	29829.67
593.517	29891.36
593.876	30097.01
594.235	30305.14
594.593	30452.7
594.952	30701.74
595.311	30770.66
595.67	30971.56
596.029	31362.96
596.387	31547.14
596.746	31679.56
597.104	31660.35
597.463	31861.03
597.822	32142.6
598.18	32256.72
598.538	32367
598.897	32597.5
599.255	32649.48
599.613	33262.8
599.972	33020.09
600.33	33354.55
600.688	33447.2
601.046	33665.72
601.404	33976.45
601.762	33820.75
602.12	34125.15
602.478	34298.25
602.836	34423.45
603.194	34348.87
603.552	34449.66
603.91	34710.44
604.268	34906.6
604.625	35080.38
604.983	35231.11
605.341	35260.26
605.698	35530.53
606.056	35657.99
606.413	35821.6
606.771	35917.42
607.128	36017.08
607.485	35901.82
607.843	36103.85
608.2	36465.88
608.557	36657.51
608.914	36641.47
609.272	36962.14
609.629	36982.7
609.986	37196.48
610.343	37120.32
610.7	37299.98
611.057	37519.86
611.414	37589.01
611.771	37580.88
612.127	37783.81
612.484	37855.9
612.841	37954.2
613.198	37941.32
613.554	38099.28
613.911	38513.06
614.267	38447.29
614.624	38464.47
614.98	38688.87
615.337	38941.07
615.693	38778.36
616.05	38762.31
616.406	39012.25
616.762	38927.06
617.118	39094.51
617.475	38983.55
617.831	39261.28
618.187	39363.43
618.543	39467.83
618.899	39743.76
619.255	39663.99
619.611	39680.48
619.967	39969.97
620.323	39919.57
620.678	39935.62
621.034	39957.08
621.39	40009.06
621.746	40035.28
622.101	40526.11
622.457	40234.82
622.812	40103.3
623.168	40341.26
623.523	40497.64
623.879	40496.28
624.234	40327.24
624.589	40508.26
624.945	40681.36
625.3	40698.76
625.655	40520.69
626.01	40847.68
626.365	40808.59
626.72	40761.13
627.075	40844.97
627.43	40857.85
627.785	40734.47
628.14	40886.78
628.495	40854.69
628.85	40922.03
629.205	40869.83
629.559	41046.32
629.914	40868.47
630.269	40972.2
630.623	40925.2
630.978	40896.04
631.332	41013.78
631.687	41026.44
632.041	40895.14
632.396	40853.78
632.75	40767.01
633.104	40985.08
633.459	40923.84
633.813	40577.86
634.167	40826.44
634.521	40905.53
634.875	40964.74
635.229	40942.14
635.583	40630.74
635.937	40735.82
636.291	40751.41
636.645	40824.63
636.999	40753.9
637.352	40816.95
637.706	40574.02
638.06	40651.76
638.413	40618.08
638.767	40610.85
639.121	40564.75
639.474	40360.01
639.828	40389.39
640.181	40549.39
640.534	40365.89
640.888	40377.64
641.241	40295.83
641.594	40428.03
641.947	40393.91
642.301	40317.3
642.654	40326.11
643.007	40256.96
643.36	40296.29
643.713	40296.51
644.066	40399.33
644.419	40167.47
644.771	39972.23
645.124	39749.41
645.477	39490.66
645.83	39343.54
646.182	39161.85
646.535	39121.4
646.888	39152.13
647.24	38964.79
647.593	39149.2
647.945	39082.31
648.298	38919.15
648.65	38933.16
649.002	38956.66
649.355	38915.76
649.707	38912.82
650.059	38936.09
650.411	39562.07
650.763	39494.5
651.115	39875.28
651.467	39805.22
651.819	39793.25
652.171	39715.96
652.523	39587.83
652.875	39562.29
653.227	39480.26
653.578	39668.96
653.93	39622.4
654.282	39480.49
654.633	39361.85
654.985	39357.55
655.337	39478.91
655.688	39506.48
656.039	39449.75
656.391	39288.85
656.742	39283.88
657.094	39215.86
657.445	39480.04
657.796	39371.34
658.147	39247.27
658.498	39273.49
658.849	39393.71
659.2	39318.23
659.551	39116.2
659.902	39435.52
660.253	39271.68
660.604	39364.78
660.955	39093.38
661.306	39287.72
661.656	39175.86
662.007	39169.76
662.358	39149.42
662.708	39216.99
663.059	39151.68
663.409	38871.24
663.76	39156.88
664.11	39164.34
664.461	39323.43
664.811	39140.84
665.161	39174.05
665.511	38958.69
665.862	39009.31
666.212	39216.09
666.562	39256.54
666.912	39289.31
667.262	39140.16
667.612	39093.83
667.962	39123.43
668.312	39124.79
668.662	39176.31
669.011	38951.46
669.361	38893.38
669.711	38948.07
670.06	38914.17
670.41	38882.08
670.76	38738.81
671.109	39075.3
671.459	38915.08
671.808	38748.3
672.157	38978.58
672.507	38659.04
672.856	38769.32
673.205	38854.52
673.554	38867.17
673.904	38716.67
674.253	38951.24
674.602	38679.83
674.951	38161.2
675.3	38085.72
675.649	38593.28
675.998	38600.96
676.346	38587.18
676.695	38832.14
677.044	38290.01
677.393	38467.63
677.741	38549.21
678.09	38558.03
678.438	38431.02
678.787	38421.31
679.135	38491.59
679.484	38208.2
679.832	38318.48
680.181	38170.01
680.529	38331.37
680.877	38019.51
681.225	38175.44
681.573	38256.79
681.922	38040.98
682.27	37864.48
682.618	37911.72
682.966	37919.4
683.314	38035.33
683.661	37797.37
684.009	37658.84
684.357	37626.75
684.705	37706.07
685.053	37681.89
685.4	37580.88
685.748	37318.74
686.095	37418.17
686.443	37243.71
686.79	37101.79
687.138	37183.6
687.485	37233.54
687.832	37107.89
688.18	37148.57
688.527	36965.53
688.874	36926.88
689.221	36804.4
689.568	36802.37
689.915	36641.69
690.262	36664.06
690.609	36680.11
690.956	36434.69
691.303	36452.32
691.65	36379.33
691.997	36155.83
692.344	36075.83
692.69	35939.79
693.037	36086.9
693.383	35712
693.73	35954.93
694.077	35692.56
694.423	35608.5
694.769	35559.23
695.116	35410.31
695.462	35364.21
695.808	35248.06
696.155	35356.75
696.501	35158.12
696.847	35143.65
697.193	34963.09
697.539	35037.21
697.885	34665.47
698.231	34622.54
698.577	34614.17
698.923	34613.04
699.269	34532.59
699.614	34324.01
699.96	34287.4
700.306	34330.11
700.651	34123.11
700.997	34019.84
701.342	33966.28
701.688	33907.98
702.033	33718.83
702.379	33725.84
702.724	33621.88
703.069	33683.8
703.415	33185.29
703.76	33350.71
704.105	33327.88
704.45	33156.13
704.795	33189.58
705.14	32901.45
705.485	32936.03
705.83	32796.6
706.175	32808.12
706.52	32765.64
706.865	32681.12
707.209	32570.39
707.554	32636.6
707.899	32531.07
708.243	32429.15
708.588	32306.44
708.932	32073.22
709.277	32065.54
709.621	32095.37
709.966	31873.91
710.31	32065.99
710.654	31730.41
710.998	31864.87
711.342	31760.46
711.687	31764.76
712.031	31627.81
712.375	31482.73
712.719	31529.74
713.063	31476.63
713.407	31565.44
713.75	31405.45
714.094	31240.25
714.438	31169.97
714.782	31249.29
715.125	31124.32
715.469	31154.38
715.812	30952.12
716.156	30869.41
716.499	31028.73
716.843	30886.59
717.186	30667.61
717.53	30727.72
717.873	30616.09
718.216	30671.91
718.559	30568.63
718.902	30251.35
719.246	30342.2
719.589	30196.44
719.932	30349.2
720.275	30256.32
720.617	30172.48
720.96	30095.42
721.303	30011.81
721.646	30107.63
721.989	29763.68
722.331	29994.41
722.674	29779.27
723.016	29893.17
723.359	29725.49
723.701	29902.89
724.044	29634.87
724.386	29562.56
724.729	29628.32
725.071	29610.01
725.413	29487.3
725.755	29467.87
726.097	29341.09
726.439	29284.15
726.782	29200.31
727.124	29351.26
727.465	29187.65
727.807	29101.55
728.149	28972.29
728.491	29046.19
728.833	29031.95
729.175	29096.81
729.516	28934.78
729.858	28907.88
730.199	28851.84
730.541	28708.57
730.882	28763.48
731.224	28821.56
731.565	28589.25
731.906	28713.09
732.248	28782.69
732.589	28505.41
732.93	28435.58
733.271	28501.34
733.612	28430.83
733.953	28426.54
734.294	28200.78
734.635	28186.1
734.976	28268.35
735.317	28093.89
735.658	28152.65
735.999	28191.29
736.339	28005.99
736.68	28171.63
737.021	27995.37
737.361	27871.98
737.702	28065.19
738.042	28043.73
738.383	27843.51
738.723	27969.83
739.063	27825.2
739.404	27830.85
739.744	27852.77
740.084	27693.9
740.424	27691.87
740.764	27581.37
741.104	27802.15
741.444	27522.84
741.784	27352.44
742.124	27336.4
742.464	27506.11
742.804	27298.89
743.143	27338.89
743.483	27377.53
743.823	27136.63
744.162	27157.65
744.502	27246.46
744.841	27197.65
745.181	27307.02
745.52	27108.38
745.86	27111.1
746.199	27012.57
746.538	26889.41
746.877	26912.23
747.216	26934.38
747.556	26859.58
747.895	26844.66
748.234	26627.27
748.573	26648.06
748.911	26721.5
749.25	26578.91
749.589	26367.39
749.928	26455.29
750.267	26528.29
750.605	26468.17
750.944	26324.9
751.283	26323.77
751.621	26288.52
751.96	26186.37
752.298	26123.55
752.636	26203.32
752.975	26072.25
753.313	25981.41
753.651	26030.22
753.989	25946.61
754.327	25777.34
754.666	25691.02
755.004	25729.44
755.342	25774.41
755.679	25668.65
756.017	25546.39
756.355	25647.4
756.693	25404.47
757.031	25535.09
757.368	25340.75
757.706	25357.47
758.044	25161.77
758.381	25191.82
758.719	25209.45
759.056	25151.15
759.394	24937.37
759.731	24931.27
760.068	24907.99
760.405	24784.6
760.743	24636.81
761.08	24732.4
761.417	24595.91
761.754	24537.38
762.091	24516.59
762.428	24453.31
762.765	24322.24
763.102	24267.55
763.438	24093.77
763.775	24076.15
764.112	24097.61
764.449	24113.21
764.785	23947.56
765.122	23875.93
765.458	23743.95
765.795	23792.09
766.131	23757.28
766.467	23547.57
766.804	23439.33
767.14	23349.61
767.476	23422.6
767.812	23225.55
768.148	23173.8
768.485	23012.9
768.821	22960.47
769.157	22943.97
769.492	22917.53
769.828	22935.16
770.164	22643.42
770.5	22680.93
770.836	22626.47
771.171	22610.2
771.507	22432.35
771.842	22293.14
772.178	22335.85
772.513	22266.25
772.849	22187.38
773.184	22052.7
773.519	22107.16
773.855	21844.57
774.19	21812.48
774.525	21751.69
774.86	21675.53
775.195	21710.56
775.53	21565.03
775.865	21511.92
776.2	21267.41
776.535	21185.15
776.87	21144.7
777.205	21033.97
777.539	20974.76
777.874	21006.62
778.209	20857.25
778.543	20743.13
778.878	20600.53
779.212	20728.66
779.547	20566.18
779.881	20616.58
780.215	20464.94
780.55	20463.36
780.884	20336.58
781.218	20289.35
781.552	20329.58
781.886	20195.34
782.22	20049.13
782.554	19950.38
782.888	19725.98
783.222	19756.71
783.556	19647.11
783.889	19594.68
784.223	19441.01
784.557	19480.79
784.89	19472.65
785.224	19316.72
785.557	19245.54
785.891	19180.68
786.224	19131.42
786.558	19204.64
786.891	18997.18
787.224	18809.17
787.557	18914.47
787.891	18733.69
788.224	18805.55
788.557	18715.61
788.89	18633.58
789.223	18660.02
789.556	18536.63
789.888	18486.24
790.221	18384.77
790.554	18242.63
790.887	18218.22
791.219	18173.25
791.552	18127.6
791.884	18067.27
792.217	17996.31
792.549	17966.02
792.882	17734.84
793.214	17754.05
793.546	17821.4
793.879	17634.96
794.211	17621.18
794.543	17684
794.875	17546.6
795.207	17618.01
795.539	17391.58
795.871	17471.12
796.203	17287.4
796.535	17152.49
796.867	17232.48
797.198	17151.58
797.53	17115.88
797.862	17113.84
798.193	17020.51
798.525	16901.65
798.856	16896.45
799.188	16762.89
799.519	16707.98
799.85	16685.38
800.182	16641.54
800.513	16655.78
800.844	16457.36
801.175	16548.21
801.506	16501.2
801.837	16390.47
802.168	16292.62
802.499	16371.49
802.83	16206.52
803.161	16119.75
803.491	16169.69
803.822	16065.51
804.153	15987.77
804.483	15891.28
804.814	15816.93
805.145	15952.74
805.475	15831.39
805.805	15750.94
806.136	15722.02
806.466	15731.51
806.796	15730.83
807.126	15567.44
807.457	15520.67
807.787	15537.39
808.117	15476.82
808.447	15356.15
808.777	15383.95
809.107	15347.79
809.436	15313.21
809.766	15315.7
810.096	15232.09
810.426	15167.68
810.755	15179.43
811.085	15216.27
811.414	15074.8
811.744	15002.49
812.073	15018.76
812.403	14957.52
812.732	14843.62
813.061	14856.5
813.39	14744.19
813.719	14746.67
814.049	14793.45
814.378	14671.65
814.707	14656.96
815.036	14718.65
815.365	14522.27
815.693	14554.59
816.022	14504.19
816.351	14405.21
816.68	14354.82
817.008	14368.38
817.337	14276.63
817.665	14204.32
817.994	14270.08
818.322	14348.94
818.651	14202.73
818.979	14134.49
819.307	14168.16
819.636	14066.69
819.964	14026.92
820.292	14098.56
820.62	14121.15
820.948	13986.69
821.276	14065.79
821.604	14007.94
821.932	14012.46
822.259	14049.97
822.587	13995.28
822.915	13894.49
823.243	13978.11
823.57	13853.59
823.898	13940.82
824.225	13878.22
824.553	13957.32
824.88	13900.59
825.207	13936.98
825.535	13895.17
825.862	13886.36
826.189	13788.06
826.516	14038.44
826.843	14007.26
827.17	13952.57
827.497	13928.62
827.824	13852.91
828.151	13975.62
828.478	14016.98
828.805	13991.67
829.131	13926.36
829.458	13856.75
829.785	13830.54
830.111	13842.29
830.438	13974.27
830.764	13830.31
831.09	13891.33
831.417	13785.34
831.743	13851.1
832.069	13836.87
832.395	13855.85
832.722	13839.35
833.048	13817.66
833.374	13772.46
833.7	13655.63
834.026	13772.01
834.351	13722.52
834.677	13799.35
835.003	13711
835.329	13695.85
835.654	13717.77
835.98	13565.24
836.306	13714.84
836.631	13521.62
836.956	13632.81
837.282	13646.14
837.607	13592.35
837.932	13449.76
838.258	13482.75
838.583	13478.46
838.908	13443.21
839.233	13487.27
839.558	13492.02
839.883	13407.95
840.208	13376.99
840.533	13333.6
840.858	13293.38
841.182	13365.02
841.507	13298.8
841.832	13285.47
842.156	13194.62
842.481	13154.4
842.805	13193.04
843.13	13047.06
843.454	13026.95
843.778	13056.78
844.103	13009.54
844.427	12955.08
844.751	12916.44
845.075	12895.88
845.399	12907.85
845.723	12815.88
846.047	12816.1
846.371	12729.1
846.695	12764.81
847.019	12663.11
847.343	12609.78
847.666	12572.95
847.99	12439.62
848.313	12487.07
848.637	12413.18
848.96	12400.3
849.284	12339.05
849.607	12199.17
849.931	12161.21
850.254	12064.03
850.577	12055.22
850.9	11953.75
851.223	11976.13
851.546	11897.48
851.869	11924.83
852.192	11877.37
852.515	11793.31
852.838	11760.31
853.161	11721.44
853.483	11666.76
853.806	11654.78
854.129	11642.8
854.451	11556.25
854.774	11494.1
855.096	11572.29
855.419	11434.45
855.741	11468.34
856.063	11426.54
856.385	11356.71
856.708	11272.19
857.03	11247.56
857.352	11229.7
857.674	11199.88
857.996	11210.04
858.318	11113.1
858.64	11231.74
858.961	11055.02
859.283	11164.62
859.605	10962.59
859.926	11035.59
860.248	10953.33
860.57	10947.9
860.891	10957.62
861.212	10823.16
861.534	10805.76
861.855	10807.57
862.176	10847.12
862.498	10782.26
862.819	10820.9
863.14	10701.36
863.461	10713.79
863.782	10681.24
864.103	10687.12
864.424	10651.87
864.745	10612.55
865.065	10580
865.386	10572.77
865.707	10527.8
866.027	10521.7
866.348	10552.43
866.668	10566.22
866.989	10485.09
867.309	10423.85
867.63	10459.56
867.95	10403.06
868.27	10344.53
868.59	10422.04
868.91	10396.96
869.23	10388.82
869.55	10286.68
869.87	10361.48
870.19	10305.44
870.51	10270.63
870.83	10295.72
871.15	10210.97
871.469	10267.24
871.789	10241.93
872.109	10266.79
872.428	10111.32
872.748	10224.99
873.067	10157.42
873.386	10213.01
873.706	10168.72
874.025	10112.67
874.344	10093.01
874.663	10132.56
874.982	10081.71
875.301	10018.89
875.62	10011.88
875.939	9964.2
876.258	9993.81
876.577	9975.05
876.896	9975.5
877.214	9888.72
877.533	9910.42
877.852	9916.74
878.17	9925.11
878.489	9943.41
878.807	9876.75
879.125	9890.53
879.444	9817.99
879.762	9786.58
880.08	9766.92
880.398	9727.15
880.716	9763.53
881.034	9775.51
881.352	9750.87
881.67	9652.57
881.988	9717.88
882.306	9687.37
882.624	9699.58
882.941	9604.66
883.259	9596.3
883.577	9558.34
883.894	9559.01
884.212	9522.18
884.529	9484.89
884.846	9408.51
885.164	9462.07
885.481	9437.44
885.798	9430.88
886.115	9325.57
886.432	9354.5
886.75	9313.82
887.067	9383.43
887.383	9230.44
887.7	9348.85
888.017	9183.43
888.334	9233.37
888.651	9199.02
888.967	9222.53
889.284	9133.49
889.6	9177.1
889.917	9050.33
890.233	9063.89
890.55	9087.39
890.866	9072.7
891.182	8971.01
891.498	8973.04
891.815	8966.04
892.131	8866.15
892.447	8957.9
892.763	8881.29
893.079	8817.79
893.395	8734.86
893.71	8769.88
894.026	8836.77
894.342	8727.62
894.657	8698.25
894.973	8714.97
895.289	8657.57
895.604	8666.16
895.92	8630.45
896.235	8574.18
896.55	8530.11
896.865	8538.93
897.181	8552.49
897.496	8504.8
897.811	8473.17
898.126	8411.25
898.441	8334.64
898.756	8337.8
899.071	8401.08
899.386	8340.29
899.7	8244.92
900.015	8241.99
900.33	8192.95
900.644	8172.61
900.959	8125.38
901.273	8060.75
901.588	8075.89
901.902	8077.7
902.216	7984.82
902.531	8028.66
902.845	8035.89
903.159	7933.07
903.473	7954.99
903.787	7864.82
904.101	7841.55
904.415	7875.44
904.729	7870.7
905.042	7805.16
905.356	7753.64
905.67	7746.41
905.984	7689.46
906.297	7668.67
906.611	7690.36
906.924	7605.62
907.237	7544.15
907.551	7567.65
907.864	7545.06
908.177	7538.05
908.491	7518.39
908.804	7468.9
909.117	7406.75
909.43	7335.12
909.743	7289.92
910.056	7315.23
910.368	7283.82
910.681	7199.53
910.994	7226.65
911.307	7166.31
911.619	7125.18
911.932	7181.9
912.244	7074.33
912.557	7042.92
912.869	6998.18
913.181	7059.64
913.494	7001.79
913.806	6947.78
914.118	6953.21
914.43	6884.51
914.742	6883.38
915.054	6832.08
915.366	6771.29
915.678	6807.22
915.99	6744.85
916.302	6721.35
916.613	6716.15
916.925	6690.16
917.236	6703.27
917.548	6597.74
917.859	6611.75
918.171	6569.71
918.482	6544.63
918.794	6489.72
919.105	6452.88
919.416	6461.24
919.727	6433.9
920.038	6404.52
920.349	6368.14
920.66	6332.66
920.971	6324.97
921.282	6343.51
921.593	6303.28
921.903	6239.33
922.214	6222.38
922.525	6210.63
922.835	6169.27
923.146	6113.91
923.456	6128.82
923.767	6102.83
924.077	6043.63
924.387	6022.84
924.697	6014.02
925.008	5992.33
925.318	5986.9
925.628	6007.47
925.938	5925.44
926.248	5882.95
926.558	5856.29
926.867	5842.5
927.177	5824.42
927.487	5774.25
927.796	5764.31
928.106	5705.33
928.416	5722.73
928.725	5686.8
929.034	5671.21
929.344	5676.18
929.653	5652.22
929.962	5601.6
930.271	5588.05
930.581	5536.07
930.89	5501.04
931.199	5492
931.508	5502.85
931.817	5481.61
932.125	5435.96
932.434	5431.44
932.743	5370.2
933.051	5362.97
933.36	5343.76
933.669	5292.23
933.977	5320.26
934.286	5244.78
934.594	5265.34
934.902	5212.69
935.21	5222.41
935.519	5235.29
935.827	5214.5
936.135	5159.13
936.443	5065.8
936.751	5068.74
937.059	5085.46
937.367	5065.57
937.674	5057.66
937.982	5064.44
938.29	4993.03
938.597	5011.34
938.905	4977.89
939.213	4929.98
939.52	4893.15
939.827	4896.31
940.135	4855.86
940.442	4853.38
940.749	4843.43
941.056	4844.56
941.363	4768.86
941.67	4729.31
941.977	4719.59
942.284	4694.28
942.591	4648.86
942.898	4694.51
943.205	4679.59
943.511	4634.62
943.818	4586.94
944.125	4545.59
944.431	4574.06
944.738	4546.94
945.044	4491.8
945.35	4500.39
945.657	4464.68
945.963	4439.37
946.269	4427.17
946.575	4432.14
946.881	4396.66
947.187	4414.74
947.493	4432.82
947.799	4376.78
948.105	4317.12
948.41	4309.21
948.716	4357.12
949.022	4294.07
949.327	4262.43
949.633	4261.3
949.938	4247.74
950.244	4237.8
950.549	4159.38
950.854	4207.06
951.16	4145.37
951.465	4137.91
951.77	4135.43
952.075	4067.18
952.38	4073.96
952.685	4032.38
952.99	4026.5
953.294	4073.51
953.599	3998.26
953.904	3967.52
954.209	3981.53
954.513	3970.46
954.818	3937.02
955.122	3956.68
955.426	3881.2
955.731	3881.88
956.035	3883.01
956.339	3856.57
956.643	3887.98
956.948	3820.18
957.252	3809.79
957.556	3830.8
957.86	3808.43
958.163	3746.06
958.467	3734.31
958.771	3737.25
959.075	3737.92
959.378	3742.67
959.682	3683.46
959.985	3684.82
960.289	3677.81
960.592	3643.46
960.896	3619.51
961.199	3624.48
961.502	3607.31
961.805	3582.67
962.108	3533.18
962.411	3531.15
962.714	3529.34
963.017	3498.83
963.32	3535.9
963.623	3507.65
963.926	3482.56
964.228	3477.59
964.531	3474.2
964.833	3415.9
965.136	3403.47
965.438	3406.18
965.741	3390.59
966.043	3346.07
966.345	3359.4
966.648	3353.3
966.95	3338.39
967.252	3325.73
967.554	3319.4
967.856	3273.08
968.158	3265.39
968.46	3254.32
968.761	3254.55
969.063	3219.07
969.365	3192.18
969.666	3238.28
969.968	3144.95
970.269	3165.06
970.571	3123.93
970.872	3130.71
971.174	3138.84
971.475	3129.58
971.776	3126.64
972.077	3071.73
972.378	3093.65
972.679	3051.16
972.98	3058.17
973.281	3031.05
973.582	3001.9
973.883	3015.68
974.183	2994.22
974.484	2975.91
974.785	2967.78
975.085	2944.95
975.386	2936.36
975.686	2946.08
975.986	2923.93
976.287	2907.44
976.587	2862.24
976.887	2911.51
977.187	2872.18
977.487	2872.86
977.787	2837.83
978.087	2852.07
978.387	2809.36
978.687	2795.58
978.987	2784.73
979.286	2802.13
979.586	2742.02
979.885	2724.62
980.185	2725.3
980.484	2737.95
980.784	2720.55
981.083	2714.22
981.382	2740.21
981.682	2684.62
981.981	2662.25
982.28	2647.56
982.579	2661.79
982.878	2672.42
983.177	2617.05
983.475	2629.7
983.774	2554
984.073	2591.74
984.372	2582.93
984.67	2586.77
984.969	2565.53
985.267	2565.53
985.566	2549.03
985.864	2524.17
986.162	2506.32
986.461	2510.61
986.759	2482.59
987.057	2450.5
987.355	2473.55
987.653	2482.36
987.951	2421.57
988.249	2423.16
988.547	2429.71
988.844	2392.2
989.142	2416.83
989.44	2375.7
989.737	2379.77
990.035	2370.5
990.332	2387.68
990.63	2384.06
990.927	2363.95
991.224	2296.15
991.521	2347.45
991.819	2323.72
992.116	2295.25
992.413	2321.01
992.71	2240.79
993.006	2290.96
993.303	2265.65
993.6	2274.01
993.897	2225.42
994.193	2234.69
994.49	2241.24
994.787	2233.33
995.083	2186.33
995.379	2191.52
995.676	2210.96
995.972	2172.32
996.268	2164.18
996.565	2115.82
996.861	2144.75
997.157	2139.77
997.453	2140.23
997.749	2106.78
998.044	2083.96
998.34	2085.31
998.636	2082.15
998.932	2086.44
999.227	2045.77
999.523	2043.05
999.818	2007.35
1000.114	2012.77
1000.409	2003.05
1000.704	1971.64
1001	1993.34
1001.295	1974.81
1001.59	1957.41
1001.885	1969.61
1002.18	1944.07
1002.475	1943.85
1002.77	1917.86
1003.065	1924.19
1003.359	1931.19
1003.654	1876.96
1003.949	1882.83
1004.243	1896.39
1004.538	1870.4
1004.832	1847.8
1005.127	1867.69
1005.421	1838.77
1005.715	1795.83
1006.009	1837.86
1006.304	1814.59
1006.598	1780.24
1006.892	1771.42
1007.186	1784.3
1007.48	1777.07
1007.773	1758.77
1008.067	1734.81
1008.361	1739.78
1008.655	1706.11
1008.948	1703.4
1009.242	1657.53
1009.535	1698.43
1009.829	1683.06
1010.122	1685.55
1010.415	1691.88
1010.708	1637.87
1011.001	1629.05
1011.295	1640.35
1011.588	1635.38
1011.881	1613.91
1012.173	1599
1012.466	1606.68
1012.759	1604.65
1013.052	1580.69
1013.344	1608.49
1013.637	1570.52
1013.93	1564.2
1014.222	1543.41
1014.514	1540.92
1014.807	1524.65
1015.099	1528.26
1015.391	1488.94
1015.683	1534.82
1015.976	1523.52
1016.268	1509.06
1016.56	1454.37
1016.851	1486.23
1017.143	1432.67
1017.435	1471.54
1017.727	1443.07
1018.018	1443.3
1018.31	1424.76
1018.602	1405.78
1018.893	1438.78
1019.185	1415.27
1019.476	1399
1019.767	1392.45
1020.058	1370.53
1020.35	1383.64
1020.641	1345.44
1020.932	1350.64
1021.223	1317.2
1021.514	1335.73
1021.804	1338.67
1022.095	1294.15
1022.386	1323.07
1022.677	1323.07
1022.967	1277.2
1023.258	1283.75
1023.548	1257.31
1023.839	1249.18
1024.129	1265.22
1024.419	1284.2
1024.709	1230.42
1025	1234.94
1025.29	1241.49
1025.58	1221.15
1025.87	1181.38
1026.16	1185.22
1026.449	1197.65
1026.739	1185.45
1027.029	1171.89
1027.319	1166.01
1027.608	1174.15
1027.898	1173.92
1028.187	1143.64
1028.477	1130.31
1028.766	1157.43
1029.055	1131.89
1029.344	1117.43
1029.634	1102.74
1029.923	1126.47
1030.212	1095.06
1030.501	1108.61
1030.79	1075.85
1031.078	1093.93
1031.367	1097.77
1031.656	1073.59
1031.945	1060.48
1032.233	1060.93
1032.522	1013.02
1032.81	1040.82
1033.099	1041.27
1033.387	1024.32
1033.675	1015.51
1033.963	981.61
1034.251	1018.9
1034.54	1044.66
1034.828	981.16
1035.116	1016.19
1035.403	1011.89
1035.691	966.92
1035.979	992.01
1036.267	956.75
1036.554	963.31
1036.842	934.61
1037.129	954.04
1037.417	931.22
1037.704	928.73
1037.992	920.6
1038.279	915.63
1038.566	899.58
1038.853	899.58
1039.14	899.58
