Data from hue_350_FLMS001491_53.txt Node
Date: Mon Feb 06 15:38:13 GMT 2017
User: dcchb
Spectrometer: FLMS00149
Trigger mode: 0
Integration Time (sec): 2.000000E-2
Scans to average: 10
Electric dark correction enabled: true
Nonlinearity correction enabled: false
Boxcar width: 0
XAxis mode: Wavelengths
Number of Pixels in Spectrum: 2048
>>>>>Begin Spectral Data<<<<<
341.393	-17.73
341.776	-17.73
342.16	-17.73
342.543	-67.67
342.927	-63.6
343.31	-60.89
343.693	-67.67
344.077	-51.4
344.46	-62.02
344.843	-61.34
345.226	-38.06
345.61	-25.86
345.993	-13.66
346.376	-2.13
346.759	-2.81
347.142	22.5
347.525	34.48
347.908	60.01
348.291	61.14
348.674	92.33
349.057	115.38
349.44	149.95
349.823	153.12
350.206	154.47
350.588	173.68
350.971	224.75
351.354	210.07
351.737	244.19
352.119	253
352.502	281.93
352.884	286.67
353.267	277.41
353.65	280.8
354.032	293.23
354.414	321.47
354.797	311.98
355.179	316.28
355.562	335.26
355.944	333.45
356.326	321.7
356.709	330.51
357.091	312.66
357.473	345.43
357.855	356.73
358.238	348.14
358.62	340.46
359.002	322.83
359.384	330.06
359.766	354.69
360.148	346.56
360.53	327.8
360.912	334.36
361.294	331.64
361.676	357.41
362.057	326.9
362.439	342.72
362.821	315.15
363.203	326.22
363.584	341.14
363.966	334.58
364.348	320.12
364.729	305.43
365.111	322.83
365.493	313.11
365.874	329.61
366.256	330.29
366.637	311.53
367.019	297.29
367.4	318.99
367.781	323.06
368.163	314.24
368.544	321.02
368.925	325.32
369.306	326.67
369.688	311.76
370.069	310.63
370.45	309.72
370.831	310.63
371.212	317.86
371.593	311.98
371.974	308.37
372.355	318.08
372.736	296.62
373.117	315.37
373.498	314.92
373.879	313.79
374.26	317.41
374.641	284.87
375.021	313.79
375.402	329.16
375.783	318.54
376.163	338.2
376.544	297.97
376.925	327.8
377.305	328.48
377.686	315.15
378.066	321.47
378.447	340.91
378.827	315.15
379.208	333.68
379.588	333.9
379.968	339.78
380.349	318.08
380.729	341.81
381.109	329.84
381.489	348.59
381.87	346.11
382.25	328.93
382.63	329.61
383.01	335.03
383.39	328.93
383.77	342.04
384.15	322.83
384.53	338.42
384.91	353.34
385.29	335.03
385.67	360.8
386.049	355.6
386.429	350.63
386.809	355.37
387.189	348.82
387.568	362.83
387.948	358.54
388.328	359.89
388.707	358.08
389.087	370.29
389.466	352.89
389.846	374.81
390.225	358.08
390.605	371.87
390.984	356.05
391.363	364.86
391.743	378.2
392.122	352.66
392.501	367.8
392.881	366.45
393.26	370.96
393.639	357.41
394.018	349.95
394.397	343.85
394.776	365.77
395.155	348.37
395.534	360.12
395.913	371.87
396.292	385.43
396.671	363.06
397.05	375.26
397.429	379.1
397.808	378.87
398.186	364.64
398.565	377.74
398.944	371.87
399.323	364.86
399.701	389.5
400.08	378.65
400.458	384.75
400.837	381.13
401.215	369.16
401.594	397.86
401.972	388.14
402.351	396.05
402.729	400.79
403.107	381.13
403.486	411.42
403.864	409.38
404.242	407.35
404.62	397.63
404.999	408.25
405.377	402.38
405.755	401.25
406.133	400.79
406.511	405.09
406.889	419.33
407.267	413.68
407.645	429.95
408.023	437.4
408.401	412.55
408.779	429.27
409.156	432.21
409.534	441.92
409.912	428.82
410.29	428.59
410.667	439.44
411.045	441.7
411.422	451.19
411.8	437.86
412.178	450.96
412.555	445.09
412.933	452.09
413.31	450.28
413.687	456.84
414.065	479.44
414.442	471.98
414.819	465.88
415.197	473.56
415.574	466.56
415.951	467.23
416.328	505.2
416.705	480.11
417.082	498.65
417.46	487.35
417.837	483.05
418.214	502.49
418.591	497.52
418.967	497.29
419.344	494.13
419.721	521.92
420.098	525.31
420.475	493.67
420.852	529.38
421.228	510.4
421.605	523.96
421.982	531.86
422.358	537.06
422.735	543.62
423.111	527.34
423.488	540.45
423.864	552.2
424.241	556.72
424.617	553.11
424.994	549.49
425.37	541.58
425.746	565.99
426.123	562.82
426.499	556.95
426.875	590.85
427.251	587.23
427.627	565.99
428.003	591.52
428.379	571.19
428.756	585.2
429.132	580.45
429.507	587.91
429.883	596.04
430.259	597.63
430.635	600.56
431.011	594.91
431.387	634.01
431.763	648.25
432.138	632.2
432.514	650.73
432.89	639.43
433.265	642.14
433.641	645.99
434.016	659.54
434.392	668.13
434.767	678.75
435.143	667.91
435.518	688.24
435.894	686.44
436.269	672.65
436.644	671.3
437.02	686.21
437.395	688.47
437.77	683.72
438.145	721.69
438.52	704.52
438.895	720.33
439.271	719.66
439.646	716.49
440.021	749.03
440.395	728.24
440.77	719.43
441.145	737.28
441.52	785.42
441.895	752.65
442.27	754.01
442.645	758.53
443.019	755.36
443.394	758.07
443.769	810.5
444.143	772.31
444.518	766.21
444.892	758.98
445.267	801.91
445.641	765.53
446.016	787.9
446.39	819.54
446.764	817.28
447.139	791.74
447.513	801.91
447.887	798.3
448.262	790.16
448.636	783.61
449.01	829.03
449.384	830.16
449.758	810.95
450.132	822.25
450.506	825.64
450.88	813.21
451.254	841.46
451.628	832.87
452.002	829.71
452.376	858.41
452.75	876.26
453.123	873.55
453.497	870.16
453.871	873.78
454.244	898.41
454.618	870.39
454.992	901.35
455.365	896.83
455.739	926.43
456.112	905.64
456.486	937.5
456.859	925.75
457.232	951.29
457.606	929.82
457.979	918.97
458.352	953.1
458.725	967.56
459.099	982.47
459.472	1005.3
459.845	1000.55
460.218	1009.37
460.591	1024.73
460.964	1025.41
461.337	1033.09
461.71	1033.55
462.083	1029.7
462.456	1054.34
462.829	1036.03
463.201	1076.48
463.574	1064.05
463.947	1087.78
464.32	1085.3
464.692	1108.12
465.065	1078.52
465.438	1108.12
465.81	1145.63
466.183	1142.92
466.555	1175.46
466.928	1168.01
467.3	1174.79
467.672	1193.77
468.045	1209.81
468.417	1216.82
468.789	1215.69
469.161	1231.96
469.534	1278.29
469.906	1270.6
470.278	1299.98
470.65	1303.37
471.022	1324.84
471.394	1326.19
471.766	1336.14
472.138	1358.74
472.51	1398.51
472.882	1408
473.253	1399.86
473.625	1409.81
473.997	1465.17
474.369	1471.73
474.74	1482.35
475.112	1490.71
475.484	1575.68
475.855	1558.96
476.227	1558.96
476.598	1602.12
476.97	1611.84
477.341	1653.64
477.713	1639.18
478.084	1683.7
478.455	1737.93
478.827	1737.48
479.198	1802.34
479.569	1808.22
479.94	1857.25
480.311	1867.87
480.682	1909.91
481.053	1934.31
481.424	1957.82
481.795	2023.35
482.166	2022.22
482.537	2016.57
482.908	2077.36
483.279	2131.14
483.65	2111.03
484.021	2170.92
484.391	2206.85
484.762	2257.24
485.133	2243.01
485.503	2311.48
485.874	2363.23
486.244	2364.58
486.615	2412.72
486.985	2451.59
487.356	2496.33
487.726	2510.34
488.097	2523.22
488.467	2561.64
488.837	2631.7
489.207	2625.14
489.578	2692.71
489.948	2686.84
490.318	2730
490.688	2770.45
491.058	2827.62
491.428	2820.17
491.798	2845.48
492.168	2902.88
492.538	2900.39
492.908	2953.72
493.278	3015.19
493.648	3027.84
494.017	3058.13
494.387	3075.53
494.757	3122.08
495.126	3145.81
495.496	3132.7
495.866	3234.62
496.235	3211.79
496.605	3233.04
496.974	3290.89
497.344	3295.86
497.713	3304.22
498.082	3295.63
498.452	3356.2
498.821	3379.7
499.19	3376.76
499.559	3347.38
499.928	3433.94
500.298	3494.27
500.667	3473.03
501.036	3500.15
501.405	3490.66
501.774	3499.02
502.143	3555.06
502.512	3522.75
502.88	3587.38
503.249	3608.39
503.618	3623.53
503.987	3640.48
504.356	3681.61
504.724	3647.71
505.093	3700.37
505.462	3728.16
505.83	3718.45
506.199	3740.59
506.567	3738.33
506.936	3748.96
507.304	3820.59
507.672	3851.78
508.041	3823.53
508.409	3850.2
508.777	3871.44
509.145	3902.85
509.514	3874.15
509.882	3909.63
510.25	3899.23
510.618	3894.94
510.986	3902.85
511.354	3944.2
511.722	4012
512.09	4038.89
512.458	4041.38
512.826	4045.22
513.193	4073.69
513.561	4065.78
513.929	4074.14
514.297	4133.58
514.664	4132.9
515.032	4074.14
515.4	4164.76
515.767	4153.01
516.135	4186.01
516.502	4138.32
516.869	4178.1
517.237	4178.55
517.604	4167.48
517.972	4209.73
518.339	4249.73
518.706	4245.67
519.073	4210.86
519.44	4244.08
519.808	4336.96
520.175	4268.26
520.542	4338.77
520.909	4347.13
521.276	4303.97
521.643	4374.02
522.009	4393.91
522.376	4467.35
522.743	4431.2
523.11	4461.25
523.477	4483.85
523.843	4496.28
524.21	4560.91
524.577	4567.24
524.943	4577.18
525.31	4615.6
525.676	4618.31
526.043	4629.38
526.409	4650.4
526.776	4756.84
527.142	4653.56
527.508	4703.73
527.874	4750.96
528.241	4784.86
528.607	4748.48
528.973	4838.87
529.339	4828.7
529.705	4850.4
530.071	4871.86
530.437	4917.96
530.803	4913.9
531.169	4919.09
531.535	4972.2
531.901	5025.76
532.267	4997.06
532.632	5002.48
532.998	5063.27
533.364	5066.43
533.73	5138.3
534.095	5143.95
534.461	5168.13
534.826	5168.35
535.192	5174.68
535.557	5232.76
535.923	5188.47
536.288	5206.32
536.653	5264.4
537.019	5189.14
537.384	5249.48
537.749	5305.3
538.114	5311.85
538.479	5314.79
538.845	5331.51
539.21	5364.96
539.575	5368.35
539.94	5441.34
540.305	5453.09
540.67	5431.17
541.034	5526.54
541.399	5501.9
541.764	5541.22
542.129	5556.59
542.494	5528.8
542.858	5562.92
543.223	5658.51
543.587	5593.88
543.952	5644.72
544.316	5730.82
544.681	5663.93
545.045	5714.78
545.41	5740.54
545.774	5722.46
546.138	5767.66
546.503	5771.73
546.867	5773.76
547.231	5812.86
547.595	5894.21
547.959	5833.87
548.324	5889.46
548.688	5925.62
549.052	5923.59
549.416	5992.06
549.779	5971.04
550.143	5992.74
550.507	6015.79
550.871	6020.53
551.235	6066.41
551.599	6122.68
551.962	6155.22
552.326	6102.79
552.689	6147.99
553.053	6125.39
553.417	6129.68
553.78	6242.67
554.143	6179.63
554.507	6269.57
554.87	6253.97
555.234	6319.73
555.597	6308.44
555.96	6307.98
556.323	6391.37
556.686	6342.56
557.05	6407.19
557.413	6354.99
557.776	6396.34
558.139	6432.27
558.502	6467.75
558.865	6484.02
559.228	6435.89
559.59	6506.17
559.953	6510.92
560.316	6571.25
560.679	6558.37
561.041	6583.68
561.404	6603.34
561.767	6752.04
562.129	6650.57
562.492	6664.81
562.854	6750.01
563.217	6739.61
563.579	6728.76
563.941	6780.06
564.304	6785.94
564.666	6845.14
565.028	6832.04
565.39	6865.03
565.753	6883.34
566.115	6911.13
566.477	6918.36
566.839	6929.44
567.201	7016.21
567.563	6983.67
567.925	7003.33
568.287	7092.82
568.648	7077.91
569.01	7117.91
569.372	7117
569.734	7165.14
570.095	7227.28
570.457	7250.78
570.819	7239.71
571.18	7319.03
571.542	7293.04
571.903	7361.74
572.265	7396.54
572.626	7410.55
572.987	7463.66
573.349	7493.94
573.71	7565.13
574.071	7542.3
574.432	7650.77
574.794	7700.94
575.155	7701.17
575.516	7766.25
575.877	7865.68
576.238	7906.36
576.599	7989.52
576.96	8036.07
577.32	8112.91
577.681	8166.92
578.042	8300.7
578.403	8340.02
578.763	8392
579.124	8455.72
579.485	8577.53
579.845	8703.85
580.206	8746.11
580.566	8850.74
580.927	8941.36
581.287	9062.04
581.648	9201.47
582.008	9342.03
582.368	9508.35
582.728	9655.01
583.089	9796.03
583.449	9913.99
583.809	10041.9
584.169	10284.38
584.529	10424.94
584.889	10684.82
585.249	10771.14
585.609	10858.6
585.969	11163.68
586.329	11270.79
586.688	11518.24
587.048	11731.12
587.408	11912.58
587.768	12116.64
588.127	12360.48
588.487	12554.37
588.846	12825.1
589.206	13031.42
589.565	13297.63
589.925	13578.98
590.284	13726.32
590.643	14048.57
591.003	14331.95
591.362	14588.67
591.721	14842.45
592.08	15108.88
592.44	15442.88
592.799	15688.3
593.158	15947.96
593.517	16220.72
593.876	16529.86
594.235	16777.09
594.593	17115.16
594.952	17480.8
595.311	17651.87
595.67	17907.23
596.029	18246.88
596.387	18670.6
596.746	18987.2
597.104	19133.64
597.463	19476.23
597.822	19865.14
598.18	20061.07
598.538	20417.22
598.897	20818.34
599.255	20896.53
599.613	21547.58
599.972	21586.68
600.33	21959.55
600.688	22160
601.046	22590.72
601.404	22912.74
601.762	23009.01
602.12	23521.77
602.478	23691.93
602.836	23975.77
603.194	24182.54
603.552	24572.59
603.91	24752.24
604.268	24958.34
604.625	25109.52
604.983	25674.71
605.341	25704.76
605.698	26151.3
606.056	26349.04
606.413	26725.98
606.771	27031.05
607.128	27085.06
607.485	27335.23
607.843	27441.89
608.2	27966.17
608.557	28260.4
608.914	28326.61
609.272	28617
609.629	28851.8
609.986	29168.4
610.343	29189.19
610.7	29753.24
611.057	29882.05
611.414	29979.45
611.771	30175.83
612.127	30458.54
612.484	30580.79
612.841	30802.71
613.198	30884.29
613.554	31088.8
613.911	31423.26
614.267	31460.99
614.624	31725.39
614.98	31892.62
615.337	32150.92
615.693	32366.51
616.05	32288.54
616.406	32808.98
616.762	32729.66
617.118	33015.53
617.475	33081.29
617.831	33362.87
618.187	33442.19
618.543	33657.55
618.899	33967.82
619.255	33944.09
619.611	34033.36
619.967	34297.08
620.323	34492.78
620.678	34393.57
621.034	34423.4
621.39	34600.57
621.746	34649.84
622.101	35070.62
622.457	34991.75
622.812	35207.79
623.168	35287.79
623.523	35415.24
623.879	35434.9
624.234	35426.31
624.589	35521.9
624.945	35613.2
625.3	35847.77
625.655	35884.61
626.01	36010.71
626.365	36045.51
626.72	36102.68
627.075	36155.56
627.43	36160.53
627.785	36147.88
628.14	36207.76
628.495	36424.71
628.85	36439.39
629.205	36268.55
629.559	36566.17
629.914	36596.45
630.269	36623.8
630.623	36609.33
630.978	36607.98
631.332	36767.3
631.687	36753.06
632.041	36603.01
632.396	36830.57
632.75	36684.36
633.104	36901.3
633.459	36657.24
633.813	36753.06
634.167	36648.66
634.521	36859.27
634.875	36858.37
635.229	36965.93
635.583	36678.26
635.937	36664.47
636.291	36707.86
636.645	36846.39
636.999	36784.7
637.352	36916.9
637.706	36545.61
638.06	36886.16
638.413	36728.65
638.767	36869.21
639.121	36838.48
639.474	36682.78
639.828	36868.08
640.181	36782.66
640.534	36810.68
640.888	36739.73
641.241	36596.23
641.594	36676.45
641.947	36801.65
642.301	36719.84
642.654	36674.19
643.007	36764.13
643.36	36680.74
643.713	36647.07
644.066	36788.99
644.419	36604.14
644.771	36324.37
645.124	35914.66
645.477	36121.66
645.83	35793.54
646.182	35673.31
646.535	35576.82
646.888	35702.24
647.24	35414.34
647.593	35809.36
647.945	35650.72
648.298	35564.16
648.65	35432.19
649.002	35318.52
649.355	35428.12
649.707	35391.51
650.059	35535.92
650.411	36063.59
650.763	36058.61
651.115	36525.72
651.467	36365.95
651.819	36363.69
652.171	36226.07
652.523	36348.32
652.875	36217.93
653.227	36067.43
653.578	36272.17
653.93	36286.4
654.282	36029.91
654.633	35921.22
654.985	36116.01
655.337	36142.45
655.688	36138.16
656.039	36242.79
656.391	35836.92
656.742	36014.77
657.094	36001.67
657.445	36148.1
657.796	35868.79
658.147	36043.7
658.498	35923.48
658.849	36101.1
659.2	35950.14
659.551	35877.38
659.902	36092.06
660.253	35901.78
660.604	36108.56
660.955	35848.9
661.306	35972.06
661.656	35864.04
662.007	35852.97
662.358	35873.99
662.708	35920.76
663.059	35963.25
663.409	35730.04
663.76	35976.13
664.11	35935.23
664.461	35877.83
664.811	35887.09
665.161	35875.79
665.511	35737.72
665.862	35863.82
666.212	35885.51
666.562	35880.54
666.912	35959.63
667.262	35767.1
667.612	35804.16
667.962	35900.88
668.312	35866.75
668.662	35899.97
669.011	35847.32
669.361	35852.97
669.711	35692.52
670.06	35604.39
670.41	35746.98
670.76	35619.76
671.109	35748.34
671.459	35693.2
671.808	35637.38
672.157	35704.27
672.507	35457.95
672.856	35491.17
673.205	35473.32
673.554	35666.53
673.904	35529.59
674.253	35751.73
674.602	35631.96
674.951	35042.6
675.3	34974.35
675.649	35509.48
675.998	35464.51
676.346	35438.52
676.695	35504.28
677.044	35321.23
677.393	35585.41
677.741	35490.27
678.09	35230.84
678.438	35269.93
678.787	35375.47
679.135	35280.33
679.484	35118.07
679.832	35105.64
680.181	35102.03
680.529	35158.98
680.877	34989.72
681.225	34985.87
681.573	35084.18
681.922	34806.67
682.27	34865.2
682.618	34853.9
682.966	34695.94
683.314	34862.71
683.661	34859.32
684.009	34451.42
684.357	34530.74
684.705	34402.16
685.053	34456.4
685.4	34338.43
685.748	34269.73
686.095	34277.87
686.443	34223.63
686.79	34253.69
687.138	34314.03
687.485	34112.9
687.832	34081.49
688.18	34119.91
688.527	33896.19
688.874	33813.7
689.221	33893.93
689.568	33611.22
689.915	33741.39
690.262	33640.82
690.609	33544.33
690.956	33434.73
691.303	33432.24
691.65	33306.14
691.997	33350.66
692.344	33025.7
692.69	33161.52
693.037	33108.86
693.383	32757.01
693.73	33048.98
694.077	32710
694.423	32693.5
694.769	32611.47
695.116	32541.42
695.462	32479.05
695.808	32370.35
696.155	32455.32
696.501	32241.54
696.847	32246.74
697.193	32119.06
697.539	32107.98
697.885	31948.44
698.231	31789.8
698.577	31834.77
698.923	31782.34
699.269	31554.78
699.614	31379.42
699.96	31480.88
700.306	31368.12
700.651	31285.41
700.997	31112.98
701.342	31144.84
701.688	31056.49
702.033	30976.49
702.379	30940.56
702.724	30861.01
703.069	30825.53
703.415	30519.1
703.76	30550.28
704.105	30609.49
704.45	30462.15
704.795	30460.57
705.14	30242.95
705.485	30356.17
705.83	30157.07
706.175	30189.62
706.52	30078.88
706.865	29914.59
707.209	29978.55
707.554	29826.91
707.899	29880.25
708.243	29755.5
708.588	29821.04
708.932	29540.82
709.277	29544.66
709.621	29450.43
709.966	29305.8
710.31	29328.62
710.654	29084.33
710.998	29222.41
711.342	29166.82
711.687	29249.75
712.031	28960.5
712.375	28925.47
712.719	28895.86
713.063	28861.74
713.407	28907.39
713.75	28736.77
714.094	28717.56
714.438	28526.83
714.782	28695.64
715.125	28441.41
715.469	28438.93
715.812	28407.97
716.156	28272.15
716.499	28287.07
716.843	28305.37
717.186	28126.62
717.53	28245.94
717.873	28160.97
718.216	27964.82
718.559	27955.1
718.902	27708.55
719.246	27862.67
719.589	27780.64
719.932	27699.96
720.275	27709.91
720.617	27602.11
720.96	27580.64
721.303	27600.98
721.646	27715.78
721.989	27393.98
722.331	27391.27
722.674	27388.56
723.016	27277.6
723.359	27331.84
723.701	27415
724.044	27384.04
724.386	27057.27
724.729	27217.72
725.071	27184.72
725.413	27088.68
725.755	27019.76
726.097	26911.96
726.439	26780.67
726.782	26868.8
727.124	26869.25
727.465	26690.27
727.807	26755.81
728.149	26665.41
728.491	26584.51
728.833	26692.08
729.175	26634.91
729.516	26529.83
729.858	26638.3
730.199	26616.6
730.541	26438.75
730.882	26365.99
731.224	26451.86
731.565	26353.78
731.906	26245.31
732.248	26343.84
732.589	26099.1
732.93	26014.81
733.271	26050.74
733.612	26045.09
733.953	26190.17
734.294	26048.03
734.635	25946.11
734.976	25963.06
735.317	25829.73
735.658	25819.79
735.999	25892.1
736.339	25784.08
736.68	25835.38
737.021	25808.49
737.361	25600.13
737.702	25661.37
738.042	25627.93
738.383	25575.05
738.723	25615.72
739.063	25652.56
739.404	25685.55
739.744	25396.75
740.084	25349.07
740.424	25436.97
740.764	25337.31
741.104	25481.94
741.444	25290.08
741.784	25247.6
742.124	25153.14
742.464	25228.39
742.804	25220.48
743.143	25157.88
743.483	25128.73
743.823	24872.92
744.162	24937.78
744.502	25032.92
744.841	24827.27
745.181	24924.44
745.52	24744.79
745.86	24864.56
746.199	24804.22
746.538	24761.51
746.877	24778.68
747.216	24744.79
747.556	24671.12
747.895	24756.31
748.234	24644.45
748.573	24598.12
748.911	24505.92
749.25	24563.1
749.589	24352.93
749.928	24396.77
750.267	24330.11
750.605	24274.29
750.944	24313.61
751.283	24215.31
751.621	24281.75
751.96	24095.54
752.298	24110.45
752.636	24107.52
752.975	24023
753.313	23902.32
753.651	24145.71
753.989	23813.06
754.327	23811.25
754.666	23752.72
755.004	23685.61
755.342	23801.08
755.679	23659.39
756.017	23535.78
756.355	23740.75
756.693	23467.76
757.031	23561.54
757.368	23400.19
757.706	23363.58
758.044	23245.84
758.381	23389.57
758.719	23114.32
759.056	23215.34
759.394	23109.58
759.731	22988.68
760.068	22935.12
760.405	22981.22
760.743	22893.99
761.08	22790.94
761.417	22673.88
761.754	22662.13
762.091	22602.02
762.428	22595.01
762.765	22354.79
763.102	22460.55
763.438	22310.5
763.775	22191.18
764.112	22284.06
764.449	22195.93
764.785	22223.27
765.122	21924.07
765.458	21965.2
765.795	21844.52
766.131	21918.19
766.467	21764.53
766.804	21731.99
767.14	21551.42
767.476	21652.21
767.812	21478.66
768.148	21552.55
768.485	21458.77
768.821	21331.77
769.157	21300.58
769.492	21174.94
769.828	21182.4
770.164	21038.9
770.5	21003.64
770.836	20902.18
771.171	20810.2
771.507	20750.77
771.842	20532.47
772.178	20649.3
772.513	20551
772.849	20534.73
773.184	20416.99
773.519	20392.13
773.855	20307.62
774.19	20145.36
774.525	20094.51
774.86	20051.13
775.195	20122.08
775.53	19948.98
775.865	19889.1
776.2	19753.96
776.535	19574.75
776.87	19610.23
777.205	19551.25
777.539	19549.67
777.874	19486.85
778.209	19348.54
778.543	19203.92
778.878	19115.56
779.212	19198.04
779.547	19016.35
779.881	18976.58
780.215	18854.09
780.55	18925.05
780.884	18794.21
781.218	18801.89
781.552	18842.34
781.886	18576.36
782.22	18543.82
782.554	18498.17
782.888	18237.61
783.222	18260.89
783.556	18197.61
783.889	18162.14
784.223	18059.54
784.557	17982.03
784.89	18061.57
785.224	17851.18
785.557	17820.22
785.891	17735.93
786.224	17653.9
786.558	17695.71
786.891	17462.04
787.224	17497.97
787.557	17482.38
787.891	17344.98
788.224	17376.39
788.557	17262.05
788.89	17330.97
789.223	17264.08
789.556	17057.53
789.888	17095.27
790.221	16940.25
790.554	16957.2
790.887	16954.48
791.219	16809.85
791.552	16777.99
791.884	16703.19
792.217	16654.15
792.549	16674.72
792.882	16464.55
793.214	16508.62
793.546	16464.78
793.879	16381.62
794.211	16271.11
794.543	16380.04
794.875	16220.49
795.207	16295.97
795.539	16040.61
795.871	16061.17
796.203	16008.97
796.535	15972.14
796.867	15953.15
797.198	15876.77
797.53	15863.21
797.862	15772.59
798.193	15766.94
798.525	15674.74
798.856	15742.99
799.188	15430.91
799.519	15414.86
799.85	15487.18
800.182	15523.11
800.513	15308.43
800.844	15140.52
801.175	15279.73
801.506	15168.09
801.837	15181.65
802.168	15098.49
802.499	15024.59
802.83	14979.85
803.161	14910.92
803.491	14931.03
803.822	14923.58
804.153	14831.6
804.483	14729.23
804.814	14743.02
805.145	14723.81
805.475	14623.25
805.805	14621.44
806.136	14631.61
806.466	14669.12
806.796	14479.07
807.126	14410.37
807.457	14449.24
807.787	14462.57
808.117	14334.89
808.447	14290.82
808.777	14293.08
809.107	14301.9
809.436	14223.26
809.766	14166.08
810.096	14115.91
810.426	14026.65
810.755	14087.21
811.085	14019.65
811.414	13956.82
811.744	13852.42
812.073	13866.88
812.403	13817.16
812.732	13820.78
813.061	13757.73
813.39	13785.3
813.719	13649.94
814.049	13665.53
814.378	13719.99
814.707	13580.34
815.036	13476.38
815.365	13548.02
815.693	13334.01
816.022	13425.08
816.351	13349.61
816.68	13291.53
817.008	13369.49
817.337	13317.29
817.665	13176.96
817.994	13227.8
818.322	13317.07
818.651	13126.11
818.979	13096.73
819.307	13167.46
819.636	13149.39
819.964	13096.05
820.292	13107.58
820.62	13030.29
820.948	13073
821.276	12976.28
821.604	12993.23
821.932	12994.36
822.259	12986
822.587	13018.99
822.915	12925.66
823.243	12995.49
823.57	12920.24
823.898	12936.51
824.225	12907.58
824.553	12932.22
824.88	12919.11
825.207	12863.97
825.535	12888.83
825.862	12984.19
826.189	12864.65
826.516	12901.71
826.843	13027.58
827.17	12929.05
827.497	13014.93
827.824	12987.36
828.151	12934.25
828.478	12920.01
828.805	12929.73
829.131	12862.84
829.458	12867.59
829.785	12803.18
830.111	12825.78
830.438	12852.9
830.764	12875.27
831.09	12815.38
831.417	12844.99
831.743	12897.42
832.069	12909.17
832.395	12884.76
832.722	12776.51
833.048	12819.9
833.374	12821.03
833.7	12766.35
834.026	12791.43
834.351	12782.16
834.677	12679.57
835.003	12790.53
835.329	12771.77
835.654	12681.6
835.98	12652.45
836.306	12636.86
836.631	12562.28
836.956	12667.14
837.282	12591.21
837.607	12586.46
837.932	12467.6
838.258	12533.36
838.583	12508.27
838.908	12451.55
839.233	12509.18
839.558	12474.15
839.883	12405.22
840.208	12384.89
840.533	12425.79
840.858	12380.82
841.182	12353.02
841.507	12392.8
841.832	12326.36
842.156	12281.61
842.481	12261.27
842.805	12270.99
843.13	12222.18
843.454	12139.47
843.778	12151.9
844.103	12095.18
844.427	12143.76
844.751	12043.2
845.075	12052.69
845.399	12047.49
845.723	11962.52
846.047	11942.86
846.371	11877.78
846.695	11907.61
847.019	11777.9
847.343	11704.45
847.666	11599.6
847.99	11572.48
848.313	11532.93
848.637	11530.9
848.96	11517.56
849.284	11453.16
849.607	11392.6
849.931	11399.15
850.254	11299.72
850.577	11252.71
850.9	11169.55
851.223	11097.46
851.546	11016.79
851.869	11044.36
852.192	11029.22
852.515	10957.35
852.838	10923.68
853.161	10886.39
853.483	10809.33
853.806	10761.43
854.129	10828.54
854.451	10696.34
854.774	10653.86
855.096	10746.51
855.419	10623.58
855.741	10618.83
856.063	10550.36
856.385	10549.91
856.708	10506.74
857.03	10458.84
857.352	10458.61
857.674	10394.43
857.996	10389.68
858.318	10265.17
858.64	10309.69
858.961	10283.92
859.283	10257.71
859.605	10215.9
859.926	10215.68
860.248	10188.11
860.57	10176.58
860.891	10120.76
861.212	10137.94
861.534	10084.16
861.855	10000.54
862.176	10029.69
862.498	10070.14
862.819	10085.29
863.14	9949.47
863.461	9902.47
863.782	9912.41
864.103	9959.19
864.424	9862.24
864.745	9888.23
865.065	9845.52
865.386	9825.63
865.707	9706.54
866.027	9845.07
866.348	9774.79
866.668	9813.2
866.989	9784.95
867.309	9667.44
867.63	9712.19
867.95	9757.38
868.27	9599.65
868.59	9658.18
868.91	9583.83
869.23	9644.62
869.55	9621.8
869.87	9657.73
870.19	9607.11
870.51	9565.3
870.83	9571.4
871.15	9556.03
871.469	9430.16
871.789	9494.57
872.109	9446.66
872.428	9457.28
872.748	9429.26
873.067	9525.98
873.386	9434
873.706	9422.48
874.025	9358.3
874.344	9362.59
874.663	9396.49
874.982	9331.63
875.301	9397.17
875.62	9325.98
875.939	9241.69
876.258	9287.11
876.577	9307.9
876.896	9260.45
877.214	9190.62
877.533	9274.23
877.852	9183.39
878.17	9223.16
878.489	9212.77
878.807	9167.12
879.125	9131.86
879.444	9154.46
879.762	9131.64
880.08	9154.24
880.398	9052.54
880.716	9083.05
881.034	9039.21
881.352	9044.64
881.67	8990.17
881.988	8979.1
882.306	8962.6
882.624	8943.39
882.941	8904.07
883.259	8898.88
883.577	8853
883.894	8859.56
884.212	8824.75
884.529	8905.66
884.846	8783.17
885.164	8753.12
885.481	8778.43
885.798	8804.64
886.115	8673.57
886.432	8772.1
886.75	8686
887.067	8683.29
887.383	8635.38
887.7	8678.77
888.017	8546.8
888.334	8604.65
888.651	8543.63
888.967	8557.87
889.284	8571.65
889.6	8434.71
889.917	8436.29
890.233	8443.97
890.55	8411.43
890.866	8441.04
891.182	8443.52
891.498	8321.72
891.815	8315.16
892.131	8329.85
892.447	8322.62
892.763	8284.66
893.079	8167.82
893.395	8213.47
893.71	8212.79
894.026	8082.17
894.342	8096.19
894.657	8110.87
894.973	8104.55
895.289	8034.49
895.604	8083.76
895.92	8004.89
896.235	7933.25
896.55	7884.44
896.865	7942.29
897.181	7876.08
897.496	7888.28
897.811	7824.1
898.126	7803.54
898.441	7822.75
898.756	7753.14
899.071	7752.24
899.386	7748.4
899.7	7645.12
900.015	7660.94
900.33	7618.91
900.644	7539.59
900.959	7575.07
901.273	7543.88
901.588	7560.15
901.902	7452.13
902.216	7485.58
902.531	7503.88
902.845	7420.95
903.159	7356.09
903.473	7343.44
903.787	7275.42
904.101	7289.88
904.415	7293.49
904.729	7218.02
905.042	7202.2
905.356	7171.24
905.67	7160.84
905.984	7161.07
906.297	7067.06
906.611	7107.96
906.924	7108.41
907.237	6981.19
907.551	6987.51
907.864	6999.49
908.177	6952.03
908.491	6933.28
908.804	6950.23
909.117	6838.14
909.43	6777.35
909.743	6837.24
910.056	6763.34
910.368	6800.17
910.681	6742.77
910.994	6711.82
911.307	6696
911.619	6627.98
911.932	6674.98
912.244	6591.59
912.557	6525.61
912.869	6559.73
913.181	6525.61
913.494	6492.39
913.806	6481.76
914.118	6420.52
914.43	6432.95
914.742	6416.91
915.054	6379.17
915.366	6327.42
915.678	6283.58
915.99	6303.01
916.302	6268.66
916.613	6241.54
916.925	6230.02
917.236	6205.16
917.548	6176.46
917.859	6182.34
918.171	6110.7
918.482	6085.62
918.794	6076.35
919.105	6038.61
919.416	6055.11
919.727	5990.7
920.038	6015.56
920.349	5982.34
920.66	5883.36
920.971	5896.92
921.282	5838.62
921.593	5857.15
921.903	5789.81
922.214	5794.33
922.525	5805.4
922.835	5769.92
923.146	5747.09
923.456	5676.14
923.767	5682.69
924.077	5665.51
924.387	5619.64
924.697	5579.64
925.008	5593.88
925.318	5590.26
925.628	5549.81
925.938	5493.32
926.248	5458.97
926.558	5428.68
926.867	5445.18
927.177	5417.61
927.487	5382.13
927.796	5352.3
928.106	5332.64
928.416	5315.47
928.725	5310.04
929.034	5262.14
929.344	5277.28
929.653	5242.7
929.962	5215.81
930.271	5198.41
930.581	5177.17
930.89	5178.3
931.199	5107.56
931.508	5075.93
931.817	5141.23
932.125	5095.81
932.434	5059.2
932.743	5023.72
933.051	4973.56
933.36	4967.91
933.669	4938.75
933.977	4843.39
934.286	4916.83
934.594	4899.89
934.902	4835.03
935.21	4846.1
935.519	4803.16
935.827	4840.9
936.135	4816.27
936.443	4735.6
936.751	4727.23
937.059	4742.6
937.367	4703.96
937.674	4663.73
937.982	4693.11
938.29	4655.15
938.597	4677.74
938.905	4591.87
939.213	4592.77
939.52	4548.03
939.827	4581.7
940.135	4532.66
940.442	4534.47
940.749	4520.46
941.056	4480.69
941.363	4452.21
941.67	4480.46
941.977	4447.47
942.284	4426.9
942.591	4353.23
942.898	4352.78
943.205	4348.04
943.511	4340.8
943.818	4324.31
944.125	4284.53
944.431	4239.56
944.738	4248.15
945.044	4211.77
945.35	4197.3
945.657	4174.25
945.963	4214.48
946.269	4143.52
946.575	4142.39
946.881	4134.03
947.187	4054.48
947.493	4102.17
947.799	4106.01
948.105	4071.66
948.41	4006.35
948.716	4044.77
949.022	4005.22
949.327	4007.71
949.633	3957.99
949.938	3939.01
950.244	3945.33
950.549	3907.14
950.854	3893.36
951.16	3870.08
951.465	3851.78
951.77	3833.47
952.075	3786.69
952.38	3797.09
952.685	3827.15
952.99	3786.02
953.294	3787.15
953.599	3726.81
953.904	3733.59
954.209	3756.64
954.513	3734.94
954.818	3641.39
955.122	3698.79
955.426	3701.27
955.731	3644.1
956.035	3663.53
956.339	3594.38
956.643	3641.16
956.948	3560.49
957.252	3601.84
957.556	3572.24
957.86	3509.19
958.163	3532.24
958.467	3501.5
958.771	3481.17
959.075	3491.79
959.378	3455.63
959.682	3466.7
959.985	3444.33
960.289	3438
960.592	3405.91
960.896	3393.03
961.199	3360.72
961.502	3349.87
961.805	3366.14
962.108	3348.29
962.411	3293.37
962.714	3298.35
963.017	3307.61
963.32	3256.54
963.623	3288.85
963.926	3261.06
964.228	3223.09
964.531	3206.37
964.833	3213.38
965.136	3195.07
965.438	3204.79
965.741	3155.75
966.043	3156.2
966.345	3130.67
966.648	3145.13
966.95	3120.72
967.252	3106.94
967.554	3075.75
967.856	3072.36
968.158	3048.41
968.46	3089.31
968.761	3040.5
969.063	3037.56
969.365	2973.83
969.666	3019.03
969.968	2973.16
970.269	2966.15
970.571	2924.57
970.872	2929.99
971.174	2941.52
971.475	2947.39
971.776	2863.55
972.077	2889.09
972.378	2873.27
972.679	2850
972.98	2852.71
973.281	2838.47
973.582	2842.54
973.883	2812.26
974.183	2816.78
974.484	2835.08
974.785	2763.9
975.085	2766.83
975.386	2758.02
975.686	2698.14
975.986	2726.38
976.287	2759.83
976.587	2688.42
976.887	2718.93
977.187	2702.2
977.487	2640.96
977.787	2683.9
978.087	2650
978.387	2653.84
978.687	2666.5
978.987	2610.45
979.286	2633.05
979.586	2596.67
979.885	2620.4
980.185	2601.64
980.484	2565.48
980.784	2536.33
981.083	2526.16
981.382	2528.65
981.682	2514.41
981.981	2509.44
982.28	2495.43
982.579	2464.7
982.878	2472.15
983.177	2442.55
983.475	2461.53
983.774	2450.68
984.073	2444.13
984.372	2434.41
984.67	2430.35
984.969	2396
985.267	2372.49
985.566	2380.63
985.864	2361.87
986.162	2346.28
986.461	2350.57
986.759	2359.84
987.057	2336.11
987.355	2315.77
987.653	2305.83
987.951	2304.25
988.249	2275.77
988.547	2292.72
988.844	2273.51
989.142	2227.64
989.44	2246.4
989.737	2216.79
990.035	2212.72
990.332	2193.52
990.63	2221.99
990.927	2192.39
991.224	2190.58
991.521	2188.09
991.819	2181.54
992.116	2149
992.413	2159.17
992.71	2149.9
993.006	2142.44
993.303	2140.18
993.6	2142.44
993.897	2095.21
994.193	2083.69
994.49	2114.42
994.787	2102.22
995.083	2080.3
995.379	2060.86
995.676	2023.58
995.972	2019.96
996.268	2010.92
996.565	2024.25
996.861	1991.71
997.157	1980.19
997.453	1989.91
997.749	1977.02
998.044	1946.06
998.34	1959.17
998.636	1960.08
998.932	1985.39
999.227	1942.45
999.523	1914.65
999.818	1880.98
1000.114	1902.45
1000.409	1903.81
1000.704	1859.74
1001	1870.13
1001.295	1841.89
1001.59	1829.68
1001.885	1851.38
1002.18	1796.46
1002.475	1793.07
1002.77	1821.55
1003.065	1798.05
1003.359	1786.29
1003.654	1785.16
1003.949	1785.16
1004.243	1760.98
1004.538	1725.73
1004.832	1766.18
1005.127	1736.13
1005.421	1715.11
1005.715	1705.17
1006.009	1705.39
1006.304	1702.91
1006.598	1685.05
1006.892	1670.37
1007.186	1663.59
1007.48	1674.66
1007.773	1668.56
1008.067	1647.09
1008.361	1610.03
1008.655	1617.71
1008.948	1617.94
1009.242	1607.99
1009.535	1582.01
1009.829	1594.89
1010.122	1582.46
1010.415	1605.06
1010.708	1558.73
1011.001	1572.06
1011.295	1540.2
1011.588	1515.34
1011.881	1516.02
1012.173	1493.65
1012.466	1514.89
1012.759	1523.02
1013.052	1506.53
1013.344	1501.1
1013.637	1480.54
1013.93	1488.68
1014.222	1463.37
1014.514	1432.41
1014.807	1438.06
1015.099	1433.76
1015.391	1422.46
1015.683	1432.86
1015.976	1423.14
1016.268	1430.82
1016.56	1384.95
1016.851	1396.02
1017.143	1397.38
1017.435	1365.29
1017.727	1393.08
1018.018	1374.33
1018.31	1329.58
1018.602	1350.37
1018.893	1336.36
1019.185	1316.7
1019.476	1303.14
1019.767	1276.48
1020.058	1313.76
1020.35	1309.02
1020.641	1270.15
1020.932	1293.65
1021.223	1268.57
1021.514	1291.39
1021.804	1266.76
1022.095	1245.74
1022.386	1241.68
1022.677	1259.3
1022.967	1228.34
1023.258	1212.07
1023.548	1220.66
1023.839	1211.39
1024.129	1159.42
1024.419	1189.93
1024.709	1175.92
1025	1194.22
1025.29	1159.64
1025.58	1171.17
1025.87	1156.71
1026.16	1124.17
1026.449	1168.91
1026.739	1126.65
1027.029	1107.22
1027.319	1100.21
1027.608	1113.77
1027.898	1099.99
1028.187	1057.73
1028.477	1086.2
1028.766	1082.81
1029.055	1050.49
1029.344	1097.5
1029.634	1063.6
1029.923	1064.51
1030.212	1051.85
1030.501	1038.74
1030.79	1035.81
1031.078	1016.15
1031.367	1010.5
1031.656	1051.62
1031.945	999.87
1032.233	1006.88
1032.522	1005.75
1032.81	1001.91
1033.099	1000.78
1033.387	1006.65
1033.675	951.29
1033.963	971.4
1034.251	947.22
1034.54	922.36
1034.828	945.41
1035.116	944.96
1035.403	933.21
1035.691	951.74
1035.979	916.71
1036.267	911.52
1036.554	911.97
1036.842	908.8
1037.129	909.93
1037.417	909.71
1037.704	892.31
1037.992	882.59
1038.279	875.36
1038.566	864.96
1038.853	864.96
1039.14	864.96
