Data from hue_240_FLMS001491_00099.txt Node
Date: Tue Feb 07 16:36:13 GMT 2017
User: dcchb
Spectrometer: FLMS00149
Trigger mode: 0
Integration Time (sec): 2.000000E-2
Scans to average: 10
Electric dark correction enabled: true
Nonlinearity correction enabled: false
Boxcar width: 0
XAxis mode: Wavelengths
Number of Pixels in Spectrum: 2048
>>>>>Begin Spectral Data<<<<<
341.393	-19.8
341.776	-19.8
342.16	-19.8
342.543	-73.81
342.927	-58.44
343.31	-50.31
343.693	-71.1
344.077	-61.16
344.46	-67.03
344.843	-65.45
345.226	-44.66
345.61	-20.48
345.993	-16.19
346.376	8.45
346.759	-2.18
347.142	30.37
347.525	44.15
347.908	22.46
348.291	98.39
348.674	87.09
349.057	107.65
349.44	141.1
349.823	105.84
350.206	167.54
350.588	183.36
350.971	176.58
351.354	209.12
351.737	229.01
352.119	240.53
352.502	253.19
352.884	251.83
353.267	275.56
353.65	266.07
354.032	279.4
354.414	300.19
354.797	304.48
355.179	316.69
355.562	299.74
355.944	333.64
356.326	328.44
356.709	322.11
357.091	318.72
357.473	339.28
357.855	322.56
358.238	319.85
358.62	328.89
359.002	335.67
359.384	330.7
359.766	333.18
360.148	313.75
360.53	312.62
360.912	317.59
361.294	325.27
361.676	313.97
362.057	330.25
362.439	310.59
362.821	319.85
363.203	324.6
363.584	313.52
363.966	322.79
364.348	314.43
364.729	321.43
365.111	329.34
365.493	317.82
365.874	301.09
366.256	283.47
366.637	300.42
367.019	291.6
367.4	312.39
367.781	315.1
368.163	311.71
368.544	296.35
368.925	310.13
369.306	289.57
369.688	306.74
370.069	295.67
370.45	284.37
370.831	306.29
371.212	300.64
371.593	306.29
371.974	306.74
372.355	303.13
372.736	299.51
373.117	294.99
373.498	290.92
373.879	311.26
374.26	300.19
374.641	324.82
375.021	318.49
375.402	303.81
375.783	302
376.163	310.36
376.544	284.6
376.925	314.43
377.305	320.98
377.686	307.87
378.066	312.39
378.447	325.5
378.827	330.7
379.208	319.17
379.588	340.87
379.968	334.77
380.349	328.66
380.729	313.52
381.109	320.53
381.489	330.02
381.87	363.92
382.25	312.84
382.63	329.34
383.01	345.39
383.39	345.84
383.77	323.69
384.15	331.15
384.53	334.99
384.91	340.64
385.29	337.93
385.67	332.51
386.049	332.05
386.429	335.67
386.809	330.92
387.189	339.74
387.568	339.96
387.948	344.48
388.328	349
388.707	348.1
389.087	356.01
389.466	354.65
389.846	340.87
390.225	361.88
390.605	353.07
390.984	343.8
391.363	348.1
391.743	376.57
392.122	370.47
392.501	361.43
392.881	383.8
393.26	352.39
393.639	377.93
394.018	375.89
394.397	377.02
394.776	359.4
395.155	395.78
395.534	352.17
395.913	381.32
396.292	379.74
396.671	381.77
397.05	390.58
397.429	381.77
397.808	389
398.186	378.83
398.565	394.65
398.944	374.09
399.323	398.04
399.701	394.88
400.08	414.99
400.458	401.88
400.837	412.5
401.215	403.24
401.594	392.84
401.972	389.91
402.351	418.83
402.729	415.22
403.107	442.56
403.486	441.66
403.864	415.44
404.242	425.61
404.62	432.84
404.999	431.49
405.377	430.13
405.755	440.07
406.133	436.68
406.511	457.02
406.889	466.29
407.267	451.6
407.645	449.56
408.023	459.96
408.401	476.23
408.779	489.79
409.156	471.03
409.534	490.02
409.912	484.59
410.29	494.08
410.667	497.92
411.045	463.58
411.422	496.12
411.8	528.66
412.178	525.04
412.555	512.39
412.933	515.55
413.31	556.23
413.687	566.4
414.065	583.57
414.442	554.87
414.819	557.58
415.197	555.55
415.574	568.21
415.951	589.22
416.328	595.32
416.705	586.51
417.082	579.5
417.46	596.91
417.837	622.67
418.214	619.5
418.591	626.51
418.967	623.57
419.344	610.92
419.721	645.27
420.098	645.94
420.475	653.63
420.852	681.65
421.228	666.28
421.605	688.43
421.982	681.87
422.358	687.75
422.735	706.51
423.111	727.07
423.488	710.57
423.864	718.48
424.241	751.7
424.617	760.29
424.994	754.64
425.37	750.57
425.746	761.87
426.123	800.97
426.499	772.72
426.875	767.75
427.251	814.98
427.627	819.05
428.003	821.98
428.379	847.29
428.756	833.74
429.132	871.7
429.507	851.59
429.883	864.69
430.259	883.9
430.635	884.81
431.011	885.03
431.387	917.12
431.763	938.59
432.138	914.64
432.514	974.3
432.89	968.19
433.265	997.12
433.641	982.43
434.016	1009.1
434.392	1024.92
434.767	1045.48
435.143	1078.93
435.518	1040.06
435.894	1066.95
436.269	1102.43
436.644	1093.16
437.02	1145.14
437.395	1120.96
437.77	1171.81
438.145	1163.22
438.52	1191.47
438.895	1187.62
439.271	1191.92
439.646	1222.43
440.021	1235.31
440.395	1250
440.77	1231.46
441.145	1271.24
441.52	1278.92
441.895	1273.72
442.27	1296.1
442.645	1299.26
443.019	1328.64
443.394	1317.34
443.769	1376.09
444.143	1328.64
444.518	1356.43
444.892	1389.65
445.267	1356.43
445.641	1401.18
446.016	1391.69
446.39	1445.47
446.764	1396.21
447.139	1398.47
447.513	1461.06
447.887	1447.5
448.262	1458.8
448.636	1478.69
449.01	1489.31
449.384	1497.67
449.758	1518.24
450.132	1521.63
450.506	1544
450.88	1528.18
451.254	1534.28
451.628	1557.56
452.002	1597.78
452.376	1597.33
452.75	1607.05
453.123	1588.74
453.497	1624.22
453.871	1664.67
454.244	1679.81
454.618	1688.18
454.992	1717.55
455.365	1702.19
455.739	1763.43
456.112	1774.73
456.486	1762.52
456.859	1783.99
457.232	1834.39
457.606	1808.85
457.979	1834.39
458.352	1854.27
458.725	1903.54
459.099	1895.18
459.472	1940.37
459.845	1935.4
460.218	1971.56
460.591	1993.03
460.964	2008.39
461.337	2053.36
461.71	2036.87
462.083	2099.69
462.456	2101.05
462.829	2120.93
463.201	2122.97
463.574	2154.83
463.947	2187.82
464.32	2220.37
464.692	2213.13
465.065	2263.75
465.438	2247.71
465.81	2305.33
466.183	2304.88
466.555	2393.24
466.928	2399.8
467.3	2406.12
467.672	2451.32
468.045	2503.75
468.417	2491.32
468.789	2516.4
469.161	2509.62
469.534	2576.74
469.906	2607.47
470.278	2604.31
470.65	2644.76
471.022	2670.3
471.394	2729.28
471.766	2765.21
472.138	2770.63
472.51	2808.82
472.882	2861.93
473.253	2898.09
473.625	2903.29
473.997	2979.44
474.369	3024.19
474.74	3050.4
475.112	3105.09
475.484	3146.67
475.855	3207.46
476.227	3255.59
476.598	3323.16
476.97	3332.88
477.341	3341.01
477.713	3421.46
478.084	3406.77
478.455	3493.55
478.827	3520.22
479.198	3647.45
479.569	3666.66
479.94	3706.88
480.311	3750.95
480.682	3792.98
481.053	3896.03
481.424	3966.53
481.795	4001.34
482.166	4046.53
482.537	4078.17
482.908	4190.48
483.279	4211.5
483.65	4217.83
484.021	4291.27
484.391	4364.26
484.762	4431.38
485.133	4429.12
485.503	4461.44
485.874	4599.51
486.244	4594.54
486.615	4672.73
486.985	4721.54
487.356	4788.89
487.726	4825.27
488.097	4912.5
488.467	4950.46
488.837	4940.29
489.207	5065.04
489.578	5163.34
489.948	5179.16
490.318	5214.86
490.688	5277.23
491.058	5297.8
491.428	5399.26
491.798	5445.82
492.168	5535.31
492.538	5494.18
492.908	5554.06
493.278	5635.64
493.648	5669.54
494.017	5763.1
494.387	5761.29
494.757	5775.53
495.126	5851.68
495.496	5884.68
495.866	5942.3
496.235	5950.44
496.605	6037.21
496.974	6017.78
497.344	6086.93
497.713	6119.25
498.082	6116.76
498.452	6236.53
498.821	6244.89
499.19	6158.79
499.559	6285.12
499.928	6293.25
500.298	6296.19
500.667	6330.77
501.036	6384.32
501.405	6436.98
501.774	6425.23
502.143	6496.41
502.512	6513.36
502.88	6587.71
503.249	6532.34
503.618	6577.54
503.987	6629.06
504.356	6615.73
504.724	6664.99
505.093	6715.84
505.462	6667.03
505.83	6731.89
506.199	6788.15
506.567	6879
506.936	6841.03
507.304	6896.17
507.672	6920.81
508.041	6936.4
508.409	6920.13
508.777	6969.39
509.145	7051.42
509.514	6985.89
509.882	7058.43
510.25	7097.3
510.618	7089.16
510.986	7117.41
511.354	7151.31
511.722	7189.95
512.09	7251.19
512.458	7262.94
512.826	7253
513.193	7301.59
513.561	7341.59
513.929	7381.13
514.297	7399.21
514.664	7344.52
515.032	7427.01
515.4	7461.58
515.767	7459.55
516.135	7490.96
516.502	7420.45
516.869	7595.59
517.237	7572.54
517.604	7544.52
517.972	7602.14
518.339	7666.1
518.706	7616.38
519.073	7577.06
519.44	7658.87
519.808	7664.06
520.175	7694.35
520.542	7788.35
520.909	7804.4
521.276	7753.33
521.643	7817.28
522.009	7825.64
522.376	7847.56
522.743	7904.74
523.11	7921.46
523.477	7923.49
523.843	7964.85
524.21	8031.29
524.577	8071.28
524.943	8096.14
525.31	8088.23
525.676	8148.35
526.043	8146.54
526.409	8174.79
526.776	8257.04
527.142	8242.35
527.508	8192.41
527.874	8258.62
528.241	8297.95
528.607	8260.43
528.973	8293.43
529.339	8290.26
529.705	8378.17
530.071	8403.03
530.437	8386.98
530.803	8393.76
531.169	8388.11
531.535	8373.2
531.901	8401.67
532.267	8433.31
532.632	8421.56
532.998	8380.2
533.364	8448.22
533.73	8441.22
534.095	8443.93
534.461	8518.96
534.826	8513.99
535.192	8475.79
535.557	8570.25
535.923	8519.41
536.288	8491.16
536.653	8492.29
537.019	8530.48
537.384	8469.01
537.749	8522.57
538.114	8495.45
538.479	8520.09
538.845	8533.87
539.21	8529.13
539.575	8471.05
539.94	8471.95
540.305	8582.46
540.67	8487.55
541.034	8554.66
541.399	8481.67
541.764	8420.88
542.129	8518.28
542.494	8530.26
542.858	8529.58
543.223	8485.51
543.587	8496.81
543.952	8474.44
544.316	8501.1
544.681	8485.96
545.045	8424.95
545.41	8513.76
545.774	8477.6
546.138	8485.51
546.503	8490.26
546.867	8468.56
547.231	8543.81
547.595	8542.91
547.959	8493.42
548.324	8489.81
548.688	8478.28
549.052	8427.89
549.416	8464.04
549.779	8472.86
550.143	8409.58
550.507	8485.51
550.871	8454.78
551.235	8454.78
551.599	8516.02
551.962	8544.94
552.326	8546.98
552.689	8540.88
553.053	8441.67
553.417	8465.4
553.78	8551.5
554.143	8481.22
554.507	8464.95
554.87	8527.77
555.234	8592.4
555.597	8533.87
555.96	8530.93
556.323	8583.59
556.686	8473.53
557.05	8587.88
557.413	8557.6
557.776	8519.18
558.139	8663.59
558.502	8588.56
558.865	8607.32
559.228	8607.77
559.59	8666.3
559.953	8640.54
560.316	8680.08
560.679	8671.95
561.041	8668.11
561.404	8658.61
561.767	8752.17
562.129	8737.26
562.492	8758.72
562.854	8811.83
563.217	8645.28
563.579	8767.09
563.941	8842.79
564.304	8848.44
564.666	8908.1
565.028	8849.57
565.39	8848.44
565.753	8962.11
566.115	8945.61
566.477	8998.49
566.839	8927.76
567.201	9007.53
567.563	9020.86
567.925	9153.06
568.287	9038.94
568.648	9163.91
569.01	9117.13
569.372	9188.77
569.734	9085.72
570.095	9156.45
570.457	9175.21
570.819	9233.29
571.18	9243.91
571.542	9269.67
571.903	9295.89
572.265	9290.91
572.626	9370.69
572.987	9410.01
573.349	9303.79
573.71	9388.54
574.071	9407.97
574.432	9441.64
574.794	9512.6
575.155	9476.9
575.516	9430.12
575.877	9499.27
576.238	9491.59
576.599	9525.03
576.96	9580.17
577.32	9584.24
577.681	9649.1
578.042	9691.13
578.403	9771.58
578.763	9678.7
579.124	9681.41
579.485	9701.07
579.845	9760.51
580.206	9699.72
580.566	9728.42
580.927	9771.35
581.287	9789.88
581.648	9784.01
582.008	9790.79
582.368	9780.17
582.728	9833.72
583.089	9801.18
583.449	9926.38
583.809	9869.88
584.169	9839.6
584.529	9894.06
584.889	9899.94
585.249	9842.09
585.609	9852.26
585.969	10002.76
586.329	9920.05
586.688	9902.88
587.048	9929.99
587.408	9861.97
587.768	9972.25
588.127	9967.51
588.487	9922.31
588.846	10054.96
589.206	9994.17
589.565	9989.43
589.925	10007.05
590.284	9979.26
590.643	10026.49
591.003	10080.27
591.362	10105.81
591.721	10018.35
592.08	10011.57
592.44	10061.52
592.799	10058.35
593.158	10053.38
593.517	10038.01
593.876	10112.59
594.235	10075.53
594.593	10064.9
594.952	10137.22
595.311	10136.54
595.67	10074.17
596.029	10162.08
596.387	10157.33
596.746	10144.9
597.104	10172.92
597.463	10114.4
597.822	10153.04
598.18	10129.54
598.538	10195.97
598.897	10129.99
599.255	10129.99
599.613	10215.41
599.972	10205.92
600.33	10245.24
600.688	10173.6
601.046	10268.52
601.404	10280.49
601.762	10253.37
602.12	10235.3
602.478	10264.9
602.836	10344.45
603.194	10170.21
603.552	10292.02
603.91	10256.54
604.268	10244.34
604.625	10228.29
604.983	10258.8
605.341	10252.47
605.698	10374.5
606.056	10280.49
606.413	10328.17
606.771	10365.46
607.128	10334.73
607.485	10307.16
607.843	10279.14
608.2	10374.05
608.557	10349.42
608.914	10358.91
609.272	10339.7
609.629	10428.51
609.986	10471.9
610.343	10438.45
610.7	10447.49
611.057	10423.77
611.414	10410.21
611.771	10478.23
612.127	10489.3
612.484	10469.41
612.841	10498.34
613.198	10512.35
613.554	10442.97
613.911	10583.76
614.267	10561.84
614.624	10508.73
614.98	10522.75
615.337	10602.97
615.693	10519.13
616.05	10577.43
616.406	10582.18
616.762	10579.92
617.118	10557.1
617.475	10583.31
617.831	10641.16
618.187	10590.31
618.543	10612.69
618.899	10726.36
619.255	10676.64
619.611	10655.17
619.967	10719.8
620.323	10692.68
620.678	10686.58
621.034	10586.93
621.39	10636.42
621.746	10611.33
622.101	10747.6
622.457	10563.2
622.812	10697.2
623.168	10665.12
623.523	10683.65
623.879	10706.7
624.234	10649.75
624.589	10708.73
624.945	10609.07
625.3	10669.41
625.655	10618.34
626.01	10664.89
626.365	10665.57
626.72	10642.29
627.075	10739.69
627.43	10633.93
627.785	10676.64
628.14	10647.71
628.495	10654.49
628.85	10616.3
629.205	10551.9
629.559	10630.99
629.914	10582.18
630.269	10638.9
630.623	10506.02
630.978	10548.73
631.332	10539.69
631.687	10616.75
632.041	10520.94
632.396	10579.92
632.75	10481.62
633.104	10529.3
633.459	10407.49
633.813	10422.64
634.167	10450.21
634.521	10486.14
634.875	10447.04
635.229	10433.26
635.583	10398.46
635.937	10381.51
636.291	10406.36
636.645	10377.44
636.999	10464.89
637.352	10438.68
637.706	10323.2
638.06	10345.35
638.413	10313.26
638.767	10305.8
639.121	10307.38
639.474	10200.04
639.828	10273.03
640.181	10222.64
640.534	10285.92
640.888	10233.71
641.241	10208.86
641.594	10244.11
641.947	10214.51
642.301	10191.91
642.654	10237.56
643.007	10211.12
643.36	10327.5
643.713	10150.33
644.066	10154.17
644.419	10121.63
644.771	10108.52
645.124	9955.3
645.477	9914.4
645.83	9959.82
646.182	9868.98
646.535	9794.4
646.888	9830.33
647.24	9821.07
647.593	9878.92
647.945	9759.15
648.298	9704.69
648.65	9708.76
649.002	9668.76
649.355	9773.61
649.707	9849.09
650.059	9850.45
650.411	9985.13
650.763	9971.57
651.115	10017.45
651.467	10024.23
651.819	9906.26
652.171	9972.93
652.523	9988.3
652.875	9937.9
653.227	9881.63
653.578	9992.59
653.93	9962.76
654.282	9895.64
654.633	9936.77
654.985	9852.03
655.337	9964.57
655.688	10007.73
656.039	9944.46
656.391	9845.48
656.742	9947.39
657.094	9856.77
657.445	9933.16
657.796	9916.66
658.147	9919.37
658.498	9889.09
658.849	9914.63
659.2	9866.72
659.551	9879.37
659.902	9961.63
660.253	9945.81
660.604	9905.36
660.955	9865.59
661.306	9883.89
661.656	9857.45
662.007	9957.79
662.358	9904.68
662.708	9957.79
663.059	9908.75
663.409	9864.68
663.76	9867.62
664.11	9915.08
664.461	9910.56
664.811	9849.32
665.161	9955.08
665.511	9848.41
665.862	9852.71
666.212	9942.65
666.562	9931.8
666.912	9802.09
667.262	9845.02
667.612	9914.4
667.962	9934.29
668.312	9796.66
668.662	9885.25
669.011	9900.84
669.361	9884.12
669.711	9938.35
670.06	9814.52
670.41	9819.49
670.76	9860.84
671.109	9822.43
671.459	9842.76
671.808	9821.75
672.157	9842.76
672.507	9770.45
672.856	9735.65
673.205	9795.76
673.554	9806.15
673.904	9818.36
674.253	9794.86
674.602	9800.96
674.951	9620.17
675.3	9610
675.649	9785.36
675.998	9728.64
676.346	9781.75
676.695	9725.93
677.044	9678.7
677.393	9681.86
677.741	9758.92
678.09	9651.81
678.438	9657.91
678.787	9724.35
679.135	9626.27
679.484	9613.62
679.832	9672.6
680.181	9624.69
680.529	9554.86
680.877	9594.86
681.225	9617.91
681.573	9621.07
681.922	9565.93
682.27	9459.05
682.618	9549.44
682.966	9477.35
683.314	9505.15
683.661	9460.17
684.009	9367.07
684.357	9357.8
684.705	9350.12
685.053	9377.47
685.4	9352.16
685.748	9348.77
686.095	9317.81
686.443	9246.17
686.79	9242.55
687.138	9290.24
687.485	9244.36
687.832	9248.43
688.18	9207.07
688.527	9144.25
688.874	9154.65
689.221	9110.13
689.568	9091.37
689.915	9040.53
690.262	9064.03
690.609	9105.38
690.956	9030.81
691.303	8974.99
691.65	8925.05
691.997	8953.07
692.344	8868.33
692.69	8868.55
693.037	8886.4
693.383	8820.64
693.73	8814.77
694.077	8722.79
694.423	8744.71
694.769	8683.7
695.116	8633.08
695.462	8660.65
695.808	8624.49
696.155	8648.22
696.501	8605.73
696.847	8607.54
697.193	8555.79
697.539	8550.59
697.885	8464.49
698.231	8379.98
698.577	8432.18
698.923	8410.71
699.269	8376.81
699.614	8297.72
699.96	8298.17
700.306	8356.02
700.651	8252.75
700.997	8284.84
701.342	8206.87
701.688	8147.67
702.033	8182.92
702.379	8192.86
702.724	8120.32
703.069	8110.61
703.415	8072.19
703.76	8073.32
704.105	8076.93
704.45	8004.62
704.795	7947.22
705.14	7890.95
705.485	7935.92
705.83	7908.58
706.175	7894.57
706.52	7885.53
706.865	7895.02
707.209	7910.61
707.554	7876.94
707.899	7808.69
708.243	7794.91
708.588	7701.35
708.932	7752.65
709.277	7688.7
709.621	7764.17
709.966	7690.28
710.31	7644.86
710.654	7612.54
710.998	7658.19
711.342	7594.91
711.687	7521.92
712.031	7611.86
712.375	7529.83
712.719	7511.98
713.063	7502.26
713.407	7530.06
713.75	7472.88
714.094	7473.56
714.438	7407.35
714.782	7419.32
715.125	7418.19
715.469	7418.19
715.812	7397.86
716.156	7342.04
716.499	7334.13
716.843	7340
717.186	7339.55
717.53	7277.18
717.873	7311.53
718.216	7342.94
718.559	7269.95
718.902	7234.02
719.246	7186.56
719.589	7276.96
719.932	7192.66
720.275	7233.34
720.617	7170.74
720.96	7199.22
721.303	7163.51
721.646	7192.44
721.989	7107.02
722.331	7130.97
722.674	7103.85
723.016	7136.17
723.359	7130.52
723.701	7161.25
724.044	7126.68
724.386	7077.86
724.729	7070.86
725.071	7055.27
725.413	7043.52
725.755	7040.58
726.097	7029.96
726.439	7003.06
726.782	7002.39
727.124	7039.22
727.465	7025.66
727.807	6967.81
728.149	7002.39
728.491	6955.16
728.833	7022.05
729.175	6963.97
729.516	6980.24
729.858	6966.68
730.199	6982.95
730.541	6920.81
730.882	6917.87
731.224	6972.1
731.565	6952.22
731.906	6944.76
732.248	6992.44
732.589	6920.13
732.93	6842.84
733.271	6933.69
733.612	6883.07
733.953	6900.92
734.294	6953.8
734.635	6884.2
734.976	6950.41
735.317	6906.34
735.658	6905.89
735.999	6916.51
736.339	6927.36
736.68	6972.1
737.021	6939.34
737.361	6891.88
737.702	6904.76
738.042	6871.09
738.383	6901.6
738.723	6976.62
739.063	6926.23
739.404	6886.46
739.744	6888.94
740.084	6883.07
740.424	6930.3
740.764	6880.36
741.104	6921.48
741.444	6964.65
741.784	6942.95
742.124	6890.98
742.464	6939.34
742.804	6896.17
743.143	6931.43
743.483	6900.69
743.823	7002.61
744.162	6981.37
744.502	7011.2
744.841	6975.04
745.181	7019.56
745.52	7030.86
745.86	7033.8
746.199	7045.32
746.538	7044.87
746.877	7074.48
747.216	7111.76
747.556	7144.98
747.895	7135.72
748.234	7220.69
748.573	7252.32
748.911	7292.55
749.25	7329.84
749.589	7318.99
749.928	7291.19
750.267	7375.48
750.605	7382.72
750.944	7402.6
751.283	7482.6
751.621	7615.48
751.96	7586.55
752.298	7654.57
752.636	7722.59
752.975	7740.67
753.313	7795.13
753.651	7864.28
753.989	7939.31
754.327	7973.21
754.666	8046.88
755.004	8190.38
755.342	8194.45
755.679	8289.13
756.017	8255.91
756.355	8462.24
756.693	8494.1
757.031	8592.63
757.368	8640.31
757.706	8676.01
758.044	8781.77
758.381	8819.51
758.719	8913.75
759.056	9039.4
759.394	9165.49
759.731	9139.96
760.068	9272.61
760.405	9349.9
760.743	9344.92
761.08	9518.25
761.417	9578.82
761.754	9683.45
762.091	9783.78
762.428	9844.57
762.765	9895.64
763.102	9962.31
763.438	10068.97
763.775	10128.41
764.112	10304.67
764.449	10417.89
764.785	10452.69
765.122	10538.79
765.458	10536.08
765.795	10650.43
766.131	10756.41
766.467	10719.8
766.804	10779.24
767.14	10905.79
767.476	10983.75
767.812	10955.28
768.148	11025.11
768.485	11121.83
768.821	11181.49
769.157	11229.17
769.492	11294.03
769.828	11379.67
770.164	11257.42
770.5	11393.68
770.836	11414.25
771.171	11448.82
771.507	11540.35
771.842	11457.86
772.178	11578.31
772.513	11696.5
772.849	11669.61
773.184	11658.31
773.519	11707.12
773.855	11780.79
774.19	11722.71
774.525	11773.11
774.86	11851.07
775.195	11807.46
775.53	11847
775.865	11811.53
776.2	11785.76
776.535	11821.02
776.87	11861.92
777.205	11819.66
777.539	11859.43
777.874	11918.64
778.209	11806.1
778.543	11825.08
778.878	11820.11
779.212	11821.02
779.547	11857.17
779.881	11941.24
780.215	11865.76
780.55	11858.76
780.884	11886.1
781.218	11881.81
781.552	11964.29
781.886	11820.34
782.22	11864.86
782.554	11802.94
782.888	11720.23
783.222	11736.05
783.556	11775.14
783.889	11767.23
784.223	11671.42
784.557	11673.45
784.89	11745.76
785.224	11679.55
785.557	11564.98
785.891	11645.43
786.224	11642.26
786.558	11694.69
786.891	11557.75
787.224	11474.59
787.557	11522.04
787.891	11446.79
788.224	11604.3
788.557	11529.05
788.89	11411.54
789.223	11453.57
789.556	11339.22
789.888	11374.7
790.221	11313.46
790.554	11300.13
790.887	11325.21
791.219	11313.23
791.552	11333.12
791.884	11298.77
792.217	11302.16
792.549	11158.66
792.882	11143.75
793.214	11111.66
793.546	11193.24
793.879	11137.42
794.211	11029.85
794.543	11095.39
794.875	11066.91
795.207	11092.45
795.539	11073.24
795.871	11024.2
796.203	10909.18
796.535	10872.34
796.867	10893.36
797.198	10886.8
797.53	10848.16
797.862	10767.49
798.193	10804.55
798.525	10784.66
798.856	10647.49
799.188	10679.35
799.519	10622.4
799.85	10600.94
800.182	10562.07
800.513	10583.08
800.844	10503.99
801.175	10605.91
801.506	10606.81
801.837	10401.85
802.168	10493.82
802.499	10498.57
802.83	10373.15
803.161	10355.74
803.491	10342.64
803.822	10348.06
804.153	10313.26
804.483	10301.06
804.814	10241.85
805.145	10248.18
805.475	10240.27
805.805	10142.87
806.136	10176.31
806.466	10194.17
806.796	10218.57
807.126	10021.97
807.457	10039.82
807.787	10059.48
808.117	10018.13
808.447	10027.39
808.777	10000.05
809.107	9932.93
809.436	9904.46
809.766	9960.27
810.096	9844.12
810.426	9850.9
810.755	9818.58
811.085	9815.19
811.414	9847.06
811.744	9761.64
812.073	9755.31
812.403	9704.69
812.732	9659.72
813.061	9653.62
813.39	9598.93
813.719	9657.68
814.049	9601.41
814.378	9614.07
814.707	9635.31
815.036	9612.04
815.365	9510.12
815.693	9393.96
816.022	9526.84
816.351	9471.7
816.68	9347.64
817.008	9422.66
817.337	9375.43
817.665	9352.83
817.994	9416.56
818.322	9439.84
818.651	9291.37
818.979	9312.38
819.307	9367.75
819.636	9346.73
819.964	9279.16
820.292	9310.57
820.62	9348.09
820.948	9246.17
821.276	9303.57
821.604	9260.18
821.932	9299.05
822.259	9291.37
822.587	9202.1
822.915	9201.2
823.243	9295.43
823.57	9228.32
823.898	9177.02
824.225	9238.49
824.553	9176.79
824.88	9219.05
825.207	9187.41
825.535	9246.17
825.862	9225.6
826.189	9227.64
826.516	9214.53
826.843	9222.22
827.17	9245.72
827.497	9294.08
827.824	9262.21
828.151	9284.81
828.478	9266.96
828.805	9231.25
829.131	9272.61
829.458	9223.35
829.785	9192.84
830.111	9201.88
830.438	9304.7
830.764	9220.63
831.09	9188.77
831.417	9216.11
831.743	9208.43
832.069	9200.29
832.395	9172.27
832.722	9248.43
833.048	9224.47
833.374	9243.23
833.7	9215.66
834.026	9161.2
834.351	9097.25
834.677	9171.82
835.003	9173.85
835.329	9150.8
835.654	9205.72
835.98	9132.73
836.306	9097.7
836.631	9107.42
836.956	9107.19
837.282	9149.45
837.607	9153.29
837.932	9056.34
838.258	9106.74
838.583	9028.55
838.908	8977.93
839.233	8998.04
839.558	9034.42
839.883	8982.22
840.208	8931.15
840.533	8909.23
840.858	8936.57
841.182	8919.17
841.507	8913.75
841.832	8890.25
842.156	8864.94
842.481	8833.07
842.805	8845.5
843.13	8783.13
843.454	8846.63
843.778	8736.8
844.103	8761.21
844.427	8751.72
844.751	8767.54
845.075	8716.01
845.399	8693.87
845.723	8582.01
846.047	8622.46
846.371	8577.26
846.695	8596.47
847.019	8523.02
847.343	8479.41
847.666	8455
847.99	8407.1
848.313	8397.38
848.637	8341.11
848.96	8370.71
849.284	8317.15
849.607	8257.72
849.931	8227.21
850.254	8186.08
850.577	8163.49
850.9	8098.63
851.223	8122.58
851.546	8060.44
851.869	8071.28
852.192	8049.14
852.515	8023.38
852.838	7931.85
853.161	7970.95
853.483	7953.77
853.806	7853.89
854.129	7899.09
854.451	7869.93
854.774	7797.39
855.096	7761.91
855.419	7771.86
855.741	7721.46
856.063	7632.65
856.385	7643.05
856.708	7713.55
857.03	7609.15
857.352	7620.68
857.674	7608.25
857.996	7578.87
858.318	7500.68
858.64	7530.28
858.961	7510.62
859.283	7459.55
859.605	7433.56
859.926	7491.64
860.248	7392.43
860.57	7406.9
860.891	7408.48
861.212	7390.62
861.534	7344.3
861.855	7320.12
862.176	7344.3
862.498	7319.21
862.819	7321.47
863.14	7330.97
863.461	7285.32
863.782	7243.06
864.103	7296.16
864.424	7226.34
864.745	7282.61
865.065	7224.3
865.386	7196.05
865.707	7181.59
866.027	7201.25
866.348	7192.66
866.668	7092.33
866.989	7125.77
867.309	7106.11
867.63	7103.63
867.95	7085.1
868.27	7030.86
868.59	7041.48
868.91	7049.62
869.23	7097.53
869.55	7027.92
869.87	7042.16
870.19	6989.51
870.51	7048.94
870.83	7067.24
871.15	6948.15
871.469	7003.97
871.789	7032.89
872.109	6933.24
872.428	6935.5
872.748	6928.94
873.067	7014.59
873.386	6917.64
873.706	6922.61
874.025	6902.05
874.344	6876.97
874.663	6921.03
874.982	6833.8
875.301	6851.66
875.62	6854.37
875.939	6841.71
876.258	6849.85
876.577	6842.39
876.896	6772.56
877.214	6783.18
877.533	6818.66
877.852	6787.02
878.17	6790.64
878.489	6730.08
878.807	6747.03
879.125	6735.73
879.444	6732.79
879.762	6710.42
880.08	6770.53
880.398	6660.02
880.716	6632.68
881.034	6623.19
881.352	6650.31
881.67	6595.84
881.988	6615.5
882.306	6605.56
882.624	6552
882.941	6584.54
883.259	6545.9
883.577	6524.88
883.894	6550.87
884.212	6514.94
884.529	6574.15
884.846	6516.98
885.164	6498.67
885.481	6440.59
885.798	6470.65
886.115	6423.64
886.432	6408.5
886.75	6391.33
887.067	6362.4
887.383	6340.26
887.7	6378.67
888.017	6349.75
888.334	6348.62
888.651	6318.34
888.967	6335.29
889.284	6261.62
889.6	6303.2
889.917	6178.68
890.233	6246.25
890.55	6223.65
890.866	6249.64
891.182	6174.61
891.498	6192.46
891.815	6151.79
892.131	6149.08
892.447	6123.99
892.763	6077.44
893.079	6075.86
893.395	6060.04
893.71	6071.11
894.026	6015.52
894.342	6017.1
894.657	5922.64
894.973	5952.02
895.289	5942.75
895.604	5948.18
895.92	5886.48
896.235	5841.51
896.55	5875.41
896.865	5833.38
897.181	5885.13
897.496	5889.65
897.811	5815.98
898.126	5751.12
898.441	5744.57
898.756	5759.71
899.071	5751.12
899.386	5652.59
899.7	5654.4
900.015	5665.47
900.33	5639.48
900.644	5661.86
900.959	5580.28
901.273	5584.12
901.588	5541.86
901.902	5539.15
902.216	5509.32
902.531	5499.83
902.845	5537.11
903.159	5406.04
903.473	5451.24
903.787	5398.13
904.101	5375.08
904.415	5386.84
904.729	5366.95
905.042	5320.4
905.356	5340.51
905.67	5351.58
905.984	5307.52
906.297	5279.27
906.611	5254.18
906.924	5250.79
907.237	5237.01
907.551	5225.48
907.864	5212.83
908.177	5130.57
908.491	5168.08
908.804	5120.4
909.117	5135.54
909.43	5068.43
909.743	5117.01
910.056	5060.97
910.368	5040.63
910.681	4988.2
910.994	4997.24
911.307	5003.12
911.619	4941.42
911.932	4926.06
912.244	4926.28
912.557	4934.19
912.869	4865.27
913.181	4844.48
913.494	4858.04
913.806	4852.16
914.118	4831.82
914.43	4776.68
914.742	4778.72
915.054	4741.88
915.366	4733.52
915.678	4715.22
915.99	4706.4
916.302	4703.01
916.613	4644.26
916.925	4653.52
917.236	4648.78
917.548	4646.29
917.859	4609.23
918.171	4555.9
918.482	4595.44
918.794	4502.34
919.105	4554.09
919.416	4498.5
919.727	4464.83
920.038	4447.88
920.349	4411.49
920.66	4441.55
920.971	4448.33
921.282	4459.18
921.593	4335.56
921.903	4332.63
922.214	4315.23
922.525	4301.67
922.835	4306.19
923.146	4289.46
923.456	4241.78
923.767	4237.71
924.077	4214.21
924.387	4210.37
924.697	4179.41
925.008	4189.58
925.318	4171.05
925.628	4144.83
925.938	4104.38
926.248	4117.72
926.558	4100.32
926.867	4065.06
927.177	4053.99
927.487	4100.54
927.796	4010.37
928.106	4050.37
928.416	3983.48
928.725	3994.1
929.034	3977.16
929.344	3978.29
929.653	3950.49
929.962	3907.78
930.271	3916.59
930.581	3870.94
930.89	3876.82
931.199	3841.57
931.508	3828.23
931.817	3866.88
932.125	3871.17
932.434	3781.91
932.743	3766.99
933.051	3758.18
933.36	3728.12
933.669	3765.86
933.977	3703.04
934.286	3739.87
934.594	3725.18
934.902	3682.25
935.21	3678.18
935.519	3670.5
935.827	3675.02
936.135	3659.88
936.443	3606.54
936.751	3585.75
937.059	3596.6
937.367	3566.54
937.674	3580.78
937.982	3540.78
938.29	3501.24
938.597	3489.71
938.905	3448.81
939.213	3470.5
939.52	3487.45
939.827	3496.49
940.135	3434.57
940.442	3434.8
940.749	3480.67
941.056	3412.88
941.363	3378.08
941.67	3344.18
941.977	3365.65
942.284	3335.59
942.591	3326.55
942.898	3309.15
943.205	3335.82
943.511	3274.35
943.818	3297.17
944.125	3246.78
944.431	3251.07
944.738	3258.98
945.044	3197.51
945.35	3183.5
945.657	3193.45
945.963	3171.98
946.269	3167.91
946.575	3166.33
946.881	3180.79
947.187	3112.55
947.493	3125.43
947.799	3121.81
948.105	3103.96
948.41	3057.63
948.716	3075.48
949.022	3047.24
949.327	3063.06
949.633	3031.87
949.938	3042.49
950.244	3005.43
950.549	3011.76
950.854	2955.94
951.16	2994.13
951.465	2953
951.77	2912.55
952.075	2957.52
952.38	2908.93
952.685	2894.25
952.99	2868.94
953.294	2867.35
953.599	2872.55
953.904	2869.39
954.209	2839.11
954.513	2833.68
954.818	2803.63
955.122	2794.59
955.426	2791.2
955.731	2797.07
956.035	2781.93
956.339	2741.48
956.643	2755.94
956.948	2756.85
957.252	2756.85
957.556	2752.33
957.86	2713.69
958.163	2686.57
958.467	2708.71
958.771	2687.02
959.075	2686.79
959.378	2650.64
959.682	2623.74
959.985	2635.04
960.289	2641.82
960.592	2605.21
960.896	2592.33
961.199	2617.42
961.502	2586.91
961.805	2567.93
962.108	2553.69
962.411	2538.1
962.714	2538.32
963.017	2501.71
963.32	2480.02
963.623	2506.01
963.926	2520.24
964.228	2498.55
964.531	2461.71
964.833	2482.05
965.136	2446.8
965.438	2456.52
965.741	2454.03
966.043	2418.78
966.345	2441.15
966.648	2417.42
966.95	2421.94
967.252	2397.31
967.554	2369.06
967.856	2381.49
968.158	2371.77
968.46	2379.23
968.761	2364.77
969.063	2334.94
969.365	2308.95
969.666	2332.68
969.968	2322.96
970.269	2289.52
970.571	2275.73
970.872	2285.22
971.174	2262.62
971.475	2235.73
971.776	2262.4
972.077	2231.21
972.378	2224.66
972.679	2239.12
972.98	2231.89
973.281	2211.1
973.582	2224.66
973.883	2180.82
974.183	2142.4
974.484	2180.59
974.785	2161.61
975.085	2156.64
975.386	2171.78
975.686	2168.84
975.986	2148.05
976.287	2141.5
976.587	2150.76
976.887	2107.6
977.187	2116.64
977.487	2102.4
977.787	2088.39
978.087	2057.21
978.387	2072.12
978.687	2066.25
978.987	2051.78
979.286	2054.04
979.586	2061.73
979.885	2017.21
980.185	1990.99
980.484	2051.56
980.784	2026.7
981.083	1970.88
981.382	1958.68
981.682	1939.69
981.981	1966.81
982.28	1954.38
982.579	1962.97
982.878	1932.69
983.177	1945.34
983.475	1916.19
983.774	1920.49
984.073	1892.92
984.372	1868.74
984.67	1907.15
984.969	1893.37
985.267	1872.58
985.566	1877.55
985.864	1866.7
986.162	1848.17
986.461	1832.58
986.759	1804.56
987.057	1809.53
987.355	1821.96
987.653	1790.55
987.951	1785.57
988.249	1793.71
988.547	1778.57
988.844	1786.48
989.142	1771.56
989.44	1751.23
989.737	1756.42
990.035	1747.61
990.332	1734.73
990.63	1750.55
990.927	1734.28
991.224	1712.81
991.521	1713.49
991.819	1707.38
992.116	1715.07
992.413	1724.79
992.71	1682.75
993.006	1685.24
993.303	1668.52
993.6	1646.82
993.897	1667.16
994.193	1642.98
994.49	1636.2
994.787	1635.52
995.083	1633.26
995.379	1615.41
995.676	1584.22
995.972	1602.53
996.268	1596.65
996.565	1583.77
996.861	1600.27
997.157	1605.01
997.453	1574.96
997.749	1576.31
998.044	1574.28
998.34	1546.94
998.636	1548.97
998.932	1540.38
999.227	1522.98
999.523	1534.06
999.818	1523.43
1000.114	1495.86
1000.409	1468.97
1000.704	1485.47
1001	1477.33
1001.295	1476.66
1001.59	1470.1
1001.885	1457.67
1002.18	1451.57
1002.475	1424.23
1002.77	1446.6
1003.065	1429.65
1003.359	1423.78
1003.654	1417.67
1003.949	1413.61
1004.243	1425.13
1004.538	1411.12
1004.832	1416.54
1005.127	1373.83
1005.421	1398.47
1005.715	1365.47
1006.009	1369.54
1006.304	1358.02
1006.598	1339.71
1006.892	1337.9
1007.186	1331.12
1007.48	1346.94
1007.773	1305.81
1008.067	1328.41
1008.361	1295.19
1008.655	1281.18
1008.948	1301.97
1009.242	1286.15
1009.535	1294.29
1009.829	1278.7
1010.122	1265.59
1010.415	1263.1
1010.708	1267.85
1011.001	1256.77
1011.295	1240.5
1011.588	1226.49
1011.881	1238.92
1012.173	1228.08
1012.466	1212.93
1012.759	1215.19
1013.052	1237.57
1013.344	1199.6
1013.637	1199.38
1013.93	1211.8
1014.222	1185.14
1014.514	1214.06
1014.807	1156.89
1015.099	1130.22
1015.391	1156.89
1015.683	1168.42
1015.976	1149.89
1016.268	1133.84
1016.56	1148.76
1016.851	1130.9
1017.143	1117.8
1017.435	1125.7
1017.727	1094.29
1018.018	1094.97
1018.31	1094.97
1018.602	1084.58
1018.893	1056.33
1019.185	1070.57
1019.476	1068.08
1019.767	1058.36
1020.058	1059.49
1020.35	1047.29
1020.641	1039.15
1020.932	1038.93
1021.223	1020.85
1021.514	1027.18
1021.804	1013.62
1022.095	1014.07
1022.386	1015.88
1022.677	1001.19
1022.967	998.25
1023.258	976.78
1023.548	961.19
1023.839	985.37
1024.129	981.75
1024.419	985.14
1024.709	949.66
1025	953.51
1025.29	932.26
1025.58	926.16
1025.87	922.77
1026.16	927.29
1026.449	907.41
1026.739	934.3
1027.029	921.87
1027.319	902.43
1027.608	897.91
1027.898	900.17
1028.187	905.37
1028.477	890
1028.766	883.68
1029.055	864.47
1029.344	873.73
1029.634	878.48
1029.923	893.39
1030.212	864.47
1030.501	852.04
1030.79	878.25
1031.078	844.36
1031.367	835.99
1031.656	843.9
1031.945	849.78
1032.233	835.77
1032.522	828.09
1032.81	825.15
1033.099	809.78
1033.387	820.85
1033.675	803.68
1033.963	800.29
1034.251	814.07
1034.54	774.98
1034.828	770.91
1035.116	762.78
1035.403	760.52
1035.691	758.48
1035.979	741.99
1036.267	754.42
1036.554	760.06
1036.842	753.29
1037.129	739.73
1037.417	770.46
1037.704	727.07
1037.992	730.91
1038.279	724.13
1038.566	729.33
1038.853	729.33
1039.14	729.33
