Data from hue_350_FLMS001491_45.txt Node
Date: Mon Feb 06 15:38:05 GMT 2017
User: dcchb
Spectrometer: FLMS00149
Trigger mode: 0
Integration Time (sec): 2.000000E-2
Scans to average: 10
Electric dark correction enabled: true
Nonlinearity correction enabled: false
Boxcar width: 0
XAxis mode: Wavelengths
Number of Pixels in Spectrum: 2048
>>>>>Begin Spectral Data<<<<<
341.393	-11.23
341.776	-11.23
342.16	-11.23
342.543	-62.53
342.927	-58.01
343.31	-76.09
343.693	-64.33
344.077	-54.84
344.46	-38.12
344.843	-51
345.226	-57.78
345.61	-7.61
345.993	-11.23
346.376	-7.39
346.759	10.92
347.142	26.51
347.525	43.23
347.908	65.15
348.291	61.31
348.674	81.42
349.057	79.84
349.44	140.63
349.823	152.83
350.206	157.58
350.588	196.45
350.971	206.39
351.354	216.34
351.737	242.78
352.119	264.02
352.502	235.09
352.884	278.03
353.267	281.42
353.65	279.61
354.032	296.79
354.414	308.76
354.797	317.12
355.179	328.2
355.562	323.45
355.944	321.87
356.326	333.17
356.709	349.89
357.091	344.24
357.473	336.11
357.855	314.86
358.238	350.8
358.62	342.66
359.002	326.62
359.384	346.05
359.766	352.6
360.148	333.4
360.53	355.54
360.912	353.28
361.294	336.78
361.676	331.14
362.057	338.82
362.439	322.55
362.821	322.1
363.203	341.3
363.584	318.48
363.966	325.26
364.348	337.46
364.729	298.37
365.111	304.02
365.493	324.36
365.874	315.77
366.256	309.44
366.637	314.86
367.019	321.64
367.4	297.46
367.781	309.44
368.163	304.7
368.544	316.45
368.925	290.68
369.306	314.41
369.688	302.66
370.069	315.99
370.45	312.38
370.831	316.67
371.212	297.46
371.593	308.99
371.974	310.57
372.355	294.3
372.736	298.59
373.117	309.89
373.498	321.42
373.879	314.19
374.26	293.62
374.641	296.56
375.021	310.57
375.402	291.14
375.783	293.62
376.163	323.68
376.544	313.06
376.925	298.37
377.305	311.7
377.686	321.19
378.066	326.62
378.447	331.36
378.827	332.04
379.208	306.96
379.588	320.51
379.968	323
380.349	330.23
380.729	317.8
381.109	315.99
381.489	328.88
381.87	313.73
382.25	307.63
382.63	339.5
383.01	330.46
383.39	330.01
383.77	327.52
384.15	335.66
384.53	306.96
384.91	350.57
385.29	345.6
385.67	335.2
386.049	351.25
386.429	352.38
386.809	330.23
387.189	344.02
387.568	324.36
387.948	328.65
388.328	347.63
388.707	343.79
389.087	359.38
389.466	365.03
389.846	379.27
390.225	364.35
390.605	359.61
390.984	342.43
391.363	348.54
391.743	346.95
392.122	372.26
392.501	356.9
392.881	388.31
393.26	375.65
393.639	361.19
394.018	380.4
394.397	377.24
394.776	370.68
395.155	350.8
395.534	375.2
395.913	375.65
396.292	384.02
396.671	389.21
397.05	366.16
397.429	377.46
397.808	366.84
398.186	381.76
398.565	381.08
398.944	379.27
399.323	368.2
399.701	380.63
400.08	381.08
400.458	376.56
400.837	395.31
401.215	397.12
401.594	367.29
401.972	379.5
402.351	391.25
402.729	411.13
403.107	372.94
403.486	398.03
403.864	393.51
404.242	404.58
404.62	408.42
404.999	396.44
405.377	382.89
405.755	400.74
406.133	412.04
406.511	411.13
406.889	414.07
407.267	412.94
407.645	417.23
408.023	421.3
408.401	424.92
408.779	415.65
409.156	431.47
409.534	453.17
409.912	435.54
410.29	418.59
410.667	432.6
411.045	424.92
411.422	450.91
411.8	427.63
412.178	451.58
412.555	445.26
412.933	433.51
413.31	468.53
413.687	466.95
414.065	460.62
414.442	464.92
414.819	465.82
415.197	460.4
415.574	465.14
415.951	454.97
416.328	460.17
416.705	478.02
417.082	481.64
417.46	495.2
417.837	471.24
418.214	489.1
418.591	488.87
418.967	491.58
419.344	503.33
419.721	489.78
420.098	532.03
420.475	522.54
420.852	508.31
421.228	501.3
421.605	528.19
421.982	517.57
422.358	534.75
422.735	542.88
423.111	530.45
423.488	535.42
423.864	547.63
424.241	551.47
424.617	541.3
424.994	545.37
425.37	554.18
425.746	553.5
426.123	552.37
426.499	575.65
426.875	585.82
427.251	600.28
427.627	586.5
428.003	569.1
428.379	594.63
428.756	614.97
429.132	606.61
429.507	630.11
429.883	613.16
430.259	614.97
430.635	629.21
431.011	628.53
431.387	648.87
431.763	630.79
432.138	638.92
432.514	648.42
432.89	633.27
433.265	640.96
433.641	663.56
434.016	691.58
434.392	680.5
434.767	689.09
435.143	657.91
435.518	662.2
435.894	692.93
436.269	687.06
436.644	683.22
437.02	708.3
437.395	682.99
437.77	696.78
438.145	705.14
438.52	694.06
438.895	720.05
439.271	743.55
439.646	727.74
440.021	753.72
440.395	745.81
440.77	744.91
441.145	771.35
441.52	772.25
441.895	770.45
442.27	751.69
442.645	779.03
443.019	765.93
443.394	770.9
443.769	763.67
444.143	771.8
444.518	806.6
444.892	766.38
445.267	791.91
445.641	792.37
446.016	809.54
446.39	803.21
446.764	804.34
447.139	807.51
447.513	806.83
447.887	809.31
448.262	839.6
448.636	831.24
449.01	799.15
449.384	838.92
449.758	850.44
450.132	854.51
450.506	842.31
450.88	830.33
451.254	833.5
451.628	845.02
452.002	853.38
452.376	862.42
452.75	875.53
453.123	867.39
453.497	897
453.871	886.15
454.244	903.32
454.618	903.55
454.992	923.21
455.365	933.15
455.739	943.77
456.112	958.24
456.486	941.06
456.859	977.22
457.232	967.5
457.606	975.64
457.979	939.48
458.352	986.94
458.725	999.59
459.099	998.69
459.472	1008.18
459.845	1019.25
460.218	1024.22
460.591	1046.37
460.964	1046.14
461.337	1051.79
461.71	1059.7
462.083	1075.07
462.456	1103.54
462.829	1094.96
463.201	1093.83
463.574	1102.41
463.947	1127.72
464.32	1136.54
464.692	1136.09
465.065	1134.05
465.438	1155.97
465.81	1159.14
466.183	1189.87
466.555	1209.08
466.928	1218.57
467.3	1212.69
467.672	1223.99
468.045	1281.17
468.417	1263.09
468.789	1273.48
469.161	1326.82
469.534	1306.7
469.906	1327.27
470.278	1313.48
470.65	1332.69
471.022	1381.73
471.394	1377.89
471.766	1405.01
472.138	1393.25
472.51	1443.42
472.882	1453.37
473.253	1482.07
473.625	1507.38
473.997	1496.98
474.369	1545.11
474.74	1547.83
475.112	1548.73
475.484	1600.25
475.855	1628.95
476.227	1636.41
476.598	1682.06
476.97	1685.68
477.341	1740.14
477.713	1749.4
478.084	1774.94
478.455	1809.51
478.827	1860.59
479.198	1870.08
479.569	1886.8
479.94	1925.44
480.311	1955.05
480.682	1963.86
481.053	2033.01
481.424	2063.97
481.795	2079.34
482.166	2126.79
482.537	2131.77
482.908	2184.19
483.279	2226.68
483.65	2279.78
484.021	2294.47
484.391	2297.41
484.762	2367.92
485.133	2388.48
485.503	2394.81
485.874	2434.36
486.244	2479.33
486.615	2514.58
486.985	2548.7
487.356	2603.17
487.726	2597.52
488.097	2671.41
488.467	2681.13
488.837	2745.08
489.207	2765.65
489.578	2816.72
489.948	2832.31
490.318	2899.2
490.688	2889.03
491.058	2884.97
491.428	2964.96
491.798	2952.99
492.168	3023.27
492.538	3094.45
492.908	3125.41
493.278	3187.78
493.648	3144.62
494.017	3189.59
494.387	3211.29
494.757	3306.2
495.126	3322.92
495.496	3315.69
495.866	3320.44
496.235	3362.92
496.605	3399.98
496.974	3400.43
497.344	3422.13
497.713	3449.47
498.082	3473.88
498.452	3504.84
498.821	3534.44
499.19	3557.27
499.559	3554.1
499.928	3596.59
500.298	3630.26
500.667	3677.94
501.036	3692.85
501.405	3711.16
501.774	3730.14
502.143	3726.98
502.512	3741.89
502.88	3811.27
503.249	3776.69
503.618	3751.84
503.987	3804.49
504.356	3837.48
504.724	3852.4
505.093	3844.49
505.462	3888.78
505.83	3907.54
506.199	3916.58
506.567	3963.36
506.936	3995.45
507.304	4039.06
507.672	3977.37
508.041	4019.63
508.409	4050.36
508.777	4097.14
509.145	4051.49
509.514	4100.75
509.882	4173.75
510.25	4143.01
510.618	4154.99
510.986	4183.69
511.354	4220.07
511.722	4182.56
512.09	4197.02
512.458	4218.49
512.826	4270.47
513.193	4317.47
513.561	4226.17
513.929	4282.44
514.297	4296.68
514.664	4361.54
515.032	4359.5
515.4	4349.79
515.767	4366.51
516.135	4392.05
516.502	4378.71
516.869	4442.44
517.237	4464.36
517.604	4412.84
517.972	4477.47
518.339	4463.91
518.706	4442.44
519.073	4519.27
519.44	4504.58
519.808	4565.83
520.175	4571.93
520.542	4583.23
520.909	4568.31
521.276	4622.55
521.643	4636.78
522.009	4655.54
522.376	4676.11
522.743	4680.4
523.11	4726.5
523.477	4759.49
523.843	4793.62
524.21	4823.9
524.577	4830.68
524.943	4866.38
525.31	4899.38
525.676	4894.63
526.043	4917.23
526.409	4937.79
526.776	4962.43
527.142	4975.53
527.508	5042.2
527.874	5018.24
528.241	5109.31
528.607	5113.61
528.973	5113.83
529.339	5095.98
529.705	5165.36
530.071	5213.49
530.437	5243.55
530.803	5220.05
531.169	5242.42
531.535	5229.54
531.901	5276.99
532.267	5327.61
532.632	5276.99
532.998	5297.11
533.364	5358.12
533.73	5385.01
534.095	5439.7
534.461	5453.94
534.826	5485.12
535.192	5507.27
535.557	5471.57
535.923	5513.82
536.288	5518.12
536.653	5603.09
537.019	5547.72
537.384	5605.12
537.749	5626.82
538.114	5631.79
538.479	5643.99
538.845	5702.52
539.21	5682.63
539.575	5701.62
539.94	5730.99
540.305	5839.69
540.67	5799.24
541.034	5811.22
541.399	5846.02
541.764	5854.38
542.129	5843.31
542.494	5886.47
542.858	5940.48
543.223	5941.38
543.587	6030.19
543.952	6012.79
544.316	6016.64
544.681	6023.87
545.045	6099.35
545.41	6081.04
545.774	6114.03
546.138	6113.81
546.503	6141.38
546.867	6151.55
547.231	6247.36
547.595	6225.67
547.959	6220.47
548.324	6231.55
548.688	6266.12
549.052	6356.74
549.416	6324.88
549.779	6348.38
550.143	6376.85
550.507	6387.47
550.871	6420.47
551.235	6365.1
551.599	6467.7
551.962	6463.18
552.326	6484.19
552.689	6557.19
553.053	6489.17
553.417	6595.83
553.78	6606.68
554.143	6564.87
554.507	6632.44
554.87	6650.29
555.234	6749.95
555.597	6721.48
555.96	6695.26
556.323	6756.5
556.686	6767.12
557.05	6765.77
557.413	6831.3
557.776	6845.99
558.139	6826.33
558.502	6837.63
558.865	6857.97
559.228	6867.23
559.59	6887.8
559.953	6869.72
560.316	6957.4
560.679	7012.77
561.041	6989.04
561.404	7090.96
561.767	7052.77
562.129	7070.85
562.492	7176.38
562.854	7136.83
563.217	7152.65
563.579	7158.3
563.941	7163.05
564.304	7214.12
564.666	7313.32
565.028	7238.3
565.39	7269.26
565.753	7338.86
566.115	7374.79
566.477	7400.55
566.839	7404.85
567.201	7408.92
567.563	7432.19
567.925	7466.99
568.287	7521.91
568.648	7518.29
569.01	7533.43
569.372	7607.78
569.734	7585.63
570.095	7699.76
570.457	7666.76
570.819	7695.69
571.18	7716.48
571.542	7795.12
571.903	7805.97
572.265	7862.01
572.626	7900.88
572.987	7890.71
573.349	8028.79
573.71	8015.91
574.071	8127.77
574.432	8140.2
574.794	8182.45
575.155	8193.98
575.516	8248.89
575.877	8327.76
576.238	8403.01
576.599	8466.51
576.96	8522.78
577.32	8538.6
577.681	8659.73
578.042	8703.57
578.403	8795.09
578.763	8829.44
579.124	8986.05
579.485	9055.2
579.845	9229.21
580.206	9235.53
580.566	9370.22
580.927	9469.43
581.287	9609.76
581.648	9659.7
582.008	9856.31
582.368	9858.57
582.728	10025.8
583.089	10211.1
583.449	10370.19
583.809	10494.03
584.169	10663.52
584.529	10806.79
584.889	10996.17
585.249	11127.46
585.609	11289.94
585.969	11510.28
586.329	11589.14
586.688	11900.1
587.048	12026.87
587.408	12282.46
587.768	12520.65
588.127	12733.75
588.487	12929
588.846	13181.42
589.206	13379.15
589.565	13597.68
589.925	13923.77
590.284	14063.2
590.643	14362.18
591.003	14675.84
591.362	15002.16
591.721	15107.02
592.08	15374.13
592.44	15760.56
592.799	15986.54
593.158	16257.95
593.517	16525.29
593.876	16793.53
594.235	17118.04
594.593	17294.98
594.952	17746.04
595.311	17963.44
595.67	18237.78
596.029	18603.42
596.387	18904.21
596.746	19303.97
597.104	19388.04
597.463	19698.31
597.822	20109.6
598.18	20239.31
598.538	20503.71
598.897	20885.4
599.255	21077.71
599.613	21722.89
599.972	21860.74
600.33	22145.93
600.688	22345.7
601.046	22734.61
601.404	23133.47
601.762	23351.1
602.12	23619.79
602.478	23817.75
602.836	24176.84
603.194	24261.35
603.552	24502.03
603.91	24789.02
604.268	25217.71
604.625	25300.65
604.983	25633.29
605.341	25734.54
605.698	26189.44
606.056	26467.85
606.413	26593.72
606.771	26973.6
607.128	27160.94
607.485	27299.01
607.843	27538.33
608.2	27944.87
608.557	28247.46
608.914	28287.91
609.272	28643.84
609.629	28945.52
609.986	29224.84
610.343	29160.89
610.7	29658.5
611.057	29885.16
611.414	29957.25
611.771	30037.47
612.127	30528.99
612.484	30612.15
612.841	31023.89
613.198	30929.2
613.554	31099.59
613.911	31580.94
614.267	31725.79
614.624	31763.3
614.98	31887.82
615.337	32280.13
615.693	32387.69
616.05	32438.77
616.406	32904.74
616.762	32767.8
617.118	32996.04
617.475	33050.73
617.831	33298.18
618.187	33392.64
618.543	33584.5
618.899	33930.93
619.255	33922.79
619.611	34064.49
619.967	34254.76
620.323	34443.91
620.678	34433.74
621.034	34501.54
621.39	34664.7
621.746	34643.45
622.101	35048.87
622.457	34977.46
622.812	35112.37
623.168	35314.62
623.523	35417.67
623.879	35605.01
624.234	35405.69
624.589	35537.22
624.945	35742.86
625.3	35922.29
625.655	35952.8
626.01	35884.55
626.365	36023.53
626.72	36183.98
627.075	36160.48
627.43	36215.62
627.785	36182.4
628.14	36420.36
628.495	36458.32
628.85	36493.57
629.205	36428.27
629.559	36639.56
629.914	36625.1
630.269	36684.3
630.623	36601.37
630.978	36571.31
631.332	36814.02
631.687	36878.65
632.041	36714.36
632.396	36858.54
632.75	36711.42
633.104	36914.35
633.459	36762.27
633.813	36807.46
634.167	36932.88
634.521	36908.7
634.875	36988.25
635.229	36941.92
635.583	36650.18
635.937	36918.87
636.291	36870.06
636.645	36891.98
636.999	36868.48
637.352	37105.08
637.706	36776.05
638.06	36928.14
638.413	36811.08
638.767	36804.53
639.121	36924.75
639.474	36825.99
639.828	36712.55
640.181	36814.24
640.534	36862.83
640.888	36773.57
641.241	36653.57
641.594	36774.02
641.947	36747.13
642.301	36701.03
642.654	36903.96
643.007	36894.02
643.36	36797.75
643.713	36754.58
644.066	36903.51
644.419	36713.23
644.771	36352.34
645.124	36230.53
645.477	36098.78
645.83	35863.99
646.182	35766.14
646.535	35734.27
646.888	35906.7
647.24	35639.81
647.593	35841.61
647.945	35710.54
648.298	35647.27
648.65	35597.78
649.002	35435.3
649.355	35758
649.707	35654.5
650.059	35680.94
650.411	36107.82
650.763	36051.55
651.115	36546
651.467	36349.62
651.819	36391.43
652.171	36393.69
652.523	36331.32
652.875	36262.17
653.227	36096.07
653.578	36332.9
653.93	36293.13
654.282	36106.01
654.633	36058.56
654.985	36192.34
655.337	36221.72
655.688	36333.13
656.039	36226.24
656.391	35976.75
656.742	36119.35
657.094	36223.75
657.445	36155.73
657.796	36258.33
658.147	36109.4
658.498	36072.12
658.849	36211.55
659.2	36070.08
659.551	35956.19
659.902	36311.88
660.253	36106.01
660.604	36115.28
660.955	35934.72
661.306	36128.61
661.656	35968.62
662.007	35977.88
662.358	35946.24
662.708	36047.48
663.059	35978.33
663.409	35836.19
663.76	36101.72
664.11	36062.4
664.461	36034.38
664.811	36045.9
665.161	35943.08
665.511	35852.46
665.862	35959.35
666.212	36008.62
666.562	36067.6
666.912	35914.15
667.262	35869.18
667.612	35975.17
667.962	35895.4
668.312	35838.68
668.662	36095.62
669.011	36014.04
669.361	35965
669.711	35914.83
670.06	35912.12
670.41	35840.71
670.76	35857.66
671.109	35918
671.459	35804.78
671.808	35738.79
672.157	35747.61
672.507	35584.9
672.856	35647.95
673.205	35708.28
673.554	35788.28
673.904	35688.62
674.253	35920.03
674.602	35605.46
674.951	35135.64
675.3	35066.49
675.649	35734.95
675.998	35503.09
676.346	35602.98
676.695	35586.25
677.044	35402.76
677.393	35489.31
677.741	35583.99
678.09	35444.56
678.438	35337.67
678.787	35468.06
679.135	35421.29
679.484	35278.24
679.832	35462.64
680.181	35042.99
680.529	35339.71
680.877	35232.59
681.225	35086.61
681.573	35289.99
681.922	35068.75
682.27	35073.27
682.618	34950.34
682.966	34755.99
683.314	34878.02
683.661	34882.77
684.009	34791.92
684.357	34543.34
684.705	34531.59
685.053	34657.46
685.4	34671.25
685.748	34417.47
686.095	34468.54
686.443	34242.56
686.79	34193.75
687.138	34356
687.485	34309.22
687.832	34238.27
688.18	34157.36
688.527	33993.3
688.874	34062.23
689.221	34046.18
689.568	33822.23
689.915	33791.05
690.262	33830.37
690.609	33622.69
690.956	33562.58
691.303	33589.02
691.65	33330.95
691.997	33389.25
692.344	33297.27
692.69	33188.12
693.037	33116.49
693.383	32935.48
693.73	33132.76
694.077	32799.89
694.423	32824.07
694.769	32763.95
695.116	32690.06
695.462	32660.68
695.808	32444.19
696.155	32618.87
696.501	32419.33
696.847	32375.72
697.193	32161.71
697.539	32352.21
697.885	31966.91
698.231	31884.66
698.577	32030.19
698.923	31880.81
699.269	31710.2
699.614	31560.14
699.96	31553.82
700.306	31578.9
700.651	31438.57
700.997	31357.66
701.342	31369.42
701.688	31166.48
702.033	31121.29
702.379	31017.56
702.724	30911.35
703.069	31034.51
703.415	30720.39
703.76	30756.55
704.105	30631.13
704.45	30703.22
704.795	30523.79
705.14	30431.59
705.485	30278.37
705.83	30260.97
706.175	30269.78
706.52	30302.78
706.865	30116.79
707.209	30025.04
707.554	29966.97
707.899	29955.67
708.243	29931.49
708.588	29846.07
708.932	29472.97
709.277	29614.21
709.621	29639.97
709.966	29416.92
710.31	29642.46
710.654	29267.1
710.998	29305.29
711.342	29362.24
711.687	29195.01
712.031	29155.91
712.375	29056.48
712.719	28997.5
713.063	28915.47
713.407	29068.46
713.75	28849.03
714.094	28851.29
714.438	28676.83
714.782	28742.59
715.125	28613.56
715.469	28643.61
715.812	28602.26
716.156	28435.26
716.499	28547.57
716.843	28501.92
717.186	28268.71
717.53	28326.11
717.873	28456.5
718.216	28245.2
718.559	28115.94
718.902	27971.31
719.246	28021.25
719.589	27929.05
719.932	27885.67
720.275	27821.26
720.617	27798.21
720.96	27713.92
721.303	27778.55
721.646	27677.53
721.989	27501.49
722.331	27661.94
722.674	27501.27
723.016	27515.51
723.359	27581.49
723.701	27487.03
724.044	27337.88
724.386	27260.82
724.729	27403.42
725.071	27407.71
725.413	27222.18
725.755	27269.41
726.097	27120.71
726.439	27031.45
726.782	26997.1
727.124	27051.79
727.465	26894.05
727.807	26953.71
728.149	26854.73
728.491	26861.29
728.833	26754.85
729.175	26689.09
729.516	26646.15
729.858	26610.44
730.199	26642.53
730.541	26557.11
730.882	26499.71
731.224	26520.73
731.565	26385.37
731.906	26369.77
732.248	26422.88
732.589	26193.51
732.93	26174.52
733.271	26259.49
733.612	26288.19
733.953	26217.23
734.294	26108.54
734.635	26030.8
734.976	26109.67
735.317	25985.38
735.658	25917.58
735.999	25901.08
736.339	25880.52
736.68	26087.29
737.021	25857.47
737.361	25750.13
737.702	25875.55
738.042	25759.85
738.383	25706.51
738.723	25732.95
739.063	25587.65
739.404	25617.25
739.744	25633.97
740.084	25480.76
740.424	25441.21
740.764	25480.3
741.104	25487.99
741.444	25419.74
741.784	25338.61
742.124	25405.73
742.464	25321.89
742.804	25210.03
743.143	25096.59
743.483	25108.34
743.823	24932.75
744.162	25047.32
744.502	25059.52
744.841	24983.14
745.181	25116.47
745.52	25040.77
745.86	24910.83
746.199	24968.23
746.538	24761.45
746.877	24823.15
747.216	24906.53
747.556	24742.24
747.895	24742.7
748.234	24677.39
748.573	24707.67
748.911	24647.33
749.25	24634.23
749.589	24497.51
749.928	24491.4
750.267	24559.65
750.605	24491.18
750.944	24426.32
751.283	24245.08
751.621	24462.25
751.96	24207.34
752.298	24279.43
752.636	24257.96
752.975	24050.29
753.313	24103.39
753.651	24240.34
753.989	23990.85
754.327	23989.95
754.666	23809.84
755.004	23853.23
755.342	23824.98
755.679	23769.84
756.017	23704.53
756.355	23773.91
756.693	23743.4
757.031	23630.64
757.368	23497.76
757.706	23472.45
758.044	23448.49
758.381	23419.57
758.719	23278.55
759.056	23232.45
759.394	23180.7
759.731	23077.88
760.068	23142.51
760.405	22933.03
760.743	23003.53
761.08	22927.83
761.417	22848.51
761.754	22875.4
762.091	22802.86
762.428	22676.76
762.765	22490.33
763.102	22531.23
763.438	22396.32
763.775	22343.44
764.112	22336.43
764.449	22452.59
764.785	22205.14
765.122	22092.37
765.458	21976.89
765.795	21955.65
766.131	21958.82
766.467	21863.9
766.804	21796.33
767.14	21622.55
767.476	21632.5
767.812	21599.05
768.148	21545.94
768.485	21508.21
768.821	21284.48
769.157	21214.65
769.492	21330.81
769.828	21161.55
770.164	21124.94
770.5	21039.52
770.836	20896.02
771.171	20809.92
771.507	20751.62
771.842	20666.87
772.178	20770.6
772.513	20613.77
772.849	20488.35
773.184	20482.7
773.519	20402.47
773.855	20324.06
774.19	20287.67
774.525	20249.03
774.86	20215.13
775.195	20063.95
775.53	20058.98
775.865	19966.55
776.2	19832.32
776.535	19648.37
776.87	19720
777.205	19628.03
777.539	19585.77
777.874	19598.88
778.209	19404.98
778.543	19277.3
778.878	19203.63
779.212	19214.03
779.547	19144.43
779.881	19190.98
780.215	18988.5
780.55	19044.54
780.884	18883.42
781.218	18833.7
781.552	18830.54
781.886	18737.88
782.22	18605.68
782.554	18620.15
782.888	18468.96
783.222	18300.15
783.556	18323.88
783.889	18280.49
784.223	18077.56
784.557	18112.59
784.89	18072.59
785.224	17982.42
785.557	17918.02
785.891	17773.84
786.224	17852.48
786.558	17753.95
786.891	17586.05
787.224	17570.23
787.557	17441.42
787.891	17489.33
788.224	17499.05
788.557	17472.38
788.89	17361.65
789.223	17266.06
789.556	17232.39
789.888	17154.2
790.221	17109.23
790.554	17049.57
790.887	16906.97
791.219	16842.57
791.552	16838.72
791.884	16810.7
792.217	16690.25
792.549	16669.24
792.882	16564.83
793.214	16466.98
793.546	16409.81
793.879	16389.24
794.211	16335.23
794.543	16380.88
794.875	16284.16
795.207	16280.77
795.539	16228.12
795.871	16240.77
796.203	15926.66
796.535	15909.03
796.867	15893.44
797.198	15974.79
797.53	15914.68
797.862	15818.19
798.193	15783.61
798.525	15677.85
798.856	15734.12
799.188	15634.46
799.519	15574.35
799.85	15501.13
800.182	15533.67
800.513	15451.42
800.844	15391.3
801.175	15348.59
801.506	15264.08
801.837	15281.48
802.168	15252.78
802.499	15135.27
802.83	15089.84
803.161	15043.29
803.491	15086
803.822	14947.02
804.153	14919.23
804.483	14824.77
804.814	14673.81
805.145	14764.2
805.475	14727.82
805.805	14633.81
806.136	14696.18
806.466	14714.26
806.796	14556.52
807.126	14460.93
807.457	14473.81
807.787	14437.66
808.117	14409.18
808.447	14384.55
808.777	14362.4
809.107	14258.23
809.436	14283.99
809.766	14257.32
810.096	14123.09
810.426	14066.37
810.755	14164.67
811.085	14101.39
811.414	13989.53
811.744	13942.3
812.073	13886.03
812.403	13922.87
812.732	13928.07
813.061	13787.96
813.39	13728.75
813.719	13706.83
814.049	13788.18
814.378	13626.6
814.707	13686.49
815.036	13659.82
815.365	13590.45
815.693	13465.71
816.022	13502.31
816.351	13309.1
816.68	13316.1
817.008	13383
817.337	13235.43
817.665	13175.09
817.994	13233.62
818.322	13262.09
818.651	13137.35
818.979	13146.84
819.307	13221.64
819.636	13183.23
819.964	13055.77
820.292	13103
820.62	13100.97
820.948	12986.62
821.276	13045.38
821.604	13027.98
821.932	13038.37
822.259	13079.95
822.587	12965.61
822.915	12960.86
823.243	12984.81
823.57	12978.49
823.898	13035.66
824.225	12905.95
824.553	13004.02
824.88	12924.02
825.207	12985.72
825.535	12943.91
825.862	13001.99
826.189	12927.19
826.516	12990.24
826.843	13006.06
827.17	12955.44
827.497	12967.64
827.824	12982.78
828.151	12966.51
828.478	12940.07
828.805	13007.41
829.131	12875.44
829.458	12944.14
829.785	12890.58
830.111	12902.56
830.438	12877.25
830.764	12907.98
831.09	12918.38
831.417	12823.01
831.743	12930.58
832.069	12919.05
832.395	12857.36
832.722	12868.43
833.048	12789.11
833.374	12875.89
833.7	12775.55
834.026	12816.46
834.351	12827.53
834.677	12808.32
835.003	12822.56
835.329	12730.36
835.654	12718.38
835.98	12668.89
836.306	12703.69
836.631	12709.79
836.956	12714.54
837.282	12710.24
837.607	12594.99
837.932	12661.21
838.258	12586.41
838.583	12608.1
838.908	12501.44
839.233	12504.83
839.558	12420.99
839.883	12398.61
840.208	12419.86
840.533	12471.16
840.858	12447.88
841.182	12377.37
841.507	12448.56
841.832	12361.1
842.156	12293.31
842.481	12254.66
842.805	12280.43
843.13	12226.19
843.454	12259.18
843.778	12164.27
844.103	12104.61
844.427	12071.84
844.751	12129.02
845.075	11990.26
845.399	11983.48
845.723	11968.12
846.047	11946.2
846.371	11892.41
846.695	11816.71
847.019	11793.43
847.343	11716.82
847.666	11717.28
847.99	11586.66
848.313	11628.24
848.637	11501.24
848.96	11515.7
849.284	11479.99
849.607	11334.01
849.931	11339.21
850.254	11270.06
850.577	11197.97
850.9	11150.51
851.223	11118.87
851.546	11106.45
851.869	11026.22
852.192	11078.2
852.515	10973.57
852.838	10930.86
853.161	10884.53
853.483	10931.53
853.806	10826.45
854.129	10838.2
854.451	10723.63
854.774	10694.93
855.096	10742.61
855.419	10666.91
855.741	10655.16
856.063	10622.16
856.385	10497.42
856.708	10574.26
857.03	10503.98
857.352	10508.95
857.674	10415.62
857.996	10362.96
858.318	10322.74
858.64	10316.41
858.961	10351.89
859.283	10281.83
859.605	10192.8
859.926	10235.73
860.248	10187.15
860.57	10162.06
860.891	10232.12
861.212	10216.53
861.534	10120.93
861.855	10085.23
862.176	10111.67
862.498	10092.69
862.819	10029.64
863.14	10042.97
863.461	10065.79
863.782	9900.83
864.103	9956.19
864.424	9972.92
864.745	9988.51
865.065	9878.68
865.386	9820.83
865.707	9871.68
866.027	9853.14
866.348	9827.38
866.668	9859.02
866.989	9711.91
867.309	9780.38
867.63	9724.56
867.95	9682.53
868.27	9630.1
868.59	9682.53
868.91	9637.33
869.23	9606.6
869.55	9614.96
869.87	9657.22
870.19	9571.34
870.51	9618.57
870.83	9643.21
871.15	9555.98
871.469	9534.51
871.789	9551.01
872.109	9539.93
872.428	9503.32
872.748	9507.39
873.067	9534.96
873.386	9451.35
873.706	9441.63
874.025	9417.9
874.344	9329.99
874.663	9418.81
874.982	9339.94
875.301	9326.15
875.62	9328.64
875.939	9366.15
876.258	9293.84
876.577	9274.18
876.896	9278.47
877.214	9278.02
877.533	9184.91
877.852	9268.08
878.17	9232.37
878.489	9186.27
878.807	9192.15
879.125	9214.52
879.444	9119.38
879.762	9155.76
880.08	9126.61
880.398	9078.25
880.716	9078.48
881.034	9099.04
881.352	9090.68
881.67	9032.38
881.988	9089.78
882.306	9015.65
882.624	9009.78
882.941	8945.37
883.259	8946.05
883.577	8947.41
883.894	8891.59
884.212	8908.76
884.529	8840.74
884.846	8868.99
885.164	8810.23
885.481	8798.48
885.798	8758.71
886.115	8750.8
886.432	8766.39
886.75	8755.32
887.067	8728.65
887.383	8689.56
887.7	8702.67
888.017	8634.42
888.334	8620.63
888.651	8580.18
888.967	8631.48
889.284	8540.41
889.6	8542.22
889.917	8485.95
890.233	8442.33
890.55	8418.38
890.866	8447.31
891.182	8376.12
891.498	8389.91
891.815	8320.3
892.131	8276.92
892.447	8249.57
892.763	8280.08
893.079	8227.88
893.395	8200.98
893.71	8162.34
894.026	8185.17
894.342	8202.34
894.657	8098.16
894.973	8099.97
895.289	8028.11
895.604	8008.9
895.92	8022.23
896.235	7963.03
896.55	8006.19
896.865	7941.1
897.181	7902.24
897.496	7903.59
897.811	7851.39
898.126	7883.93
898.441	7813.2
898.756	7765.29
899.071	7775.91
899.386	7782.69
899.7	7667.67
900.015	7702.24
900.33	7676.93
900.644	7633.09
900.959	7544.96
901.273	7589.48
901.588	7578.18
901.902	7528.23
902.216	7558.06
902.531	7429.25
902.845	7450.27
903.159	7407.33
903.473	7345.41
903.787	7369.59
904.101	7283.27
904.415	7307
904.729	7271.52
905.042	7201.01
905.356	7224.29
905.67	7219.54
905.984	7199.88
906.297	7164.4
906.611	7109.94
906.924	7019.1
907.237	7036.27
907.551	7021.58
907.864	7012.77
908.177	7012.54
908.491	7009.38
908.804	6986.1
909.117	6886.44
909.43	6860.23
909.743	6810.96
910.056	6825.88
910.368	6847.57
910.681	6782.49
910.994	6710.63
911.307	6687.8
911.619	6689.61
911.932	6635.83
912.244	6612.33
912.557	6610.07
912.869	6579.56
913.181	6599.45
913.494	6530.75
913.806	6480.35
914.118	6452.56
914.43	6424.08
914.742	6363.29
915.054	6350.86
915.366	6319.45
915.678	6320.36
915.99	6291.43
916.302	6247.14
916.613	6250.98
916.925	6239.45
917.236	6262.96
917.548	6215.05
917.859	6235.39
918.171	6121.72
918.482	6106.35
918.794	6075.17
919.105	6100.25
919.416	6036.52
919.727	5919.69
920.038	5951.33
920.349	5954.49
920.66	5909.75
920.971	5884.66
921.282	5894.15
921.593	5810.09
921.903	5862.97
922.214	5797.21
922.525	5775.29
922.835	5753.37
923.146	5686.25
923.456	5673.82
923.767	5671.79
924.077	5641.05
924.387	5592.01
924.697	5598.12
925.008	5575.74
925.318	5551.79
925.628	5562.64
925.938	5500.26
926.248	5507.04
926.558	5422.75
926.867	5442.41
927.177	5456.88
927.487	5444.45
927.796	5357.44
928.106	5391.79
928.416	5355.64
928.725	5365.81
929.034	5320.83
929.344	5267.73
929.653	5246.26
929.962	5196.54
930.271	5276.09
930.581	5178.92
930.89	5150.67
931.199	5093.27
931.508	5092.82
931.817	5119.26
932.125	5113.16
932.434	5095.3
932.743	5031.8
933.051	5048.07
933.36	5024.8
933.669	4927.85
933.977	4903.9
934.286	4909.77
934.594	4869.1
934.902	4902.54
935.21	4883.78
935.519	4850.79
935.827	4865.48
936.135	4760.4
936.443	4741.41
936.751	4726.27
937.059	4718.82
937.367	4716.78
937.674	4703.9
937.982	4679.5
938.29	4645.6
938.597	4630.68
938.905	4601.08
939.213	4660.97
939.52	4536.67
939.827	4597.01
940.135	4514.75
940.442	4509.78
940.749	4482.66
941.056	4487.41
941.363	4423.46
941.67	4456
941.977	4409.22
942.284	4378.49
942.591	4394.08
942.898	4339.39
943.205	4390.01
943.511	4320.41
943.818	4317.7
944.125	4254.65
944.431	4288.55
944.738	4280.64
945.044	4227.08
945.35	4253.52
945.657	4183.69
945.963	4205.61
946.269	4186.63
946.575	4142.79
946.881	4153.41
947.187	4120.41
947.493	4093.97
947.799	4074.31
948.105	4070.92
948.41	4011.72
948.716	4051.94
949.022	3998.84
949.327	3986.41
949.633	3993.41
949.938	3952.28
950.244	3956.58
950.549	3938.95
950.854	3897.6
951.16	3911.15
951.465	3875.67
951.77	3825.05
952.075	3867.77
952.38	3826.64
952.685	3814.89
952.99	3795.23
953.294	3816.24
953.599	3758.84
953.904	3746.19
954.209	3678.62
954.513	3723.36
954.818	3714.55
955.122	3685.85
955.426	3653.99
955.731	3635.91
956.035	3628.45
956.339	3605.63
956.643	3628
956.948	3560.2
957.252	3587.55
957.556	3608.56
957.86	3561.33
958.163	3515.46
958.467	3498.96
958.771	3496.48
959.075	3466.87
959.378	3432.97
959.682	3418.51
959.985	3452.64
960.289	3428.68
960.592	3397.72
960.896	3419.42
961.199	3394.11
961.502	3351.39
961.805	3364.5
962.108	3332.64
962.411	3323.83
962.714	3314.79
963.017	3272.3
963.32	3315.46
963.623	3289.93
963.926	3257.39
964.228	3253.32
964.531	3265.75
964.833	3186.65
965.136	3192.08
965.438	3167.67
965.741	3174
966.043	3168.8
966.345	3170.38
966.648	3113.44
966.95	3100.33
967.252	3110.95
967.554	3074.11
967.856	3096.26
968.158	3056.94
968.46	3024.85
968.761	3048.13
969.063	2990.73
969.365	3048.13
969.666	3016.26
969.968	2948.92
970.269	2964.06
970.571	2942.82
970.872	2957.06
971.174	2950.73
971.475	2919.09
971.776	2902.82
972.077	2918.86
972.378	2866.44
972.679	2861.24
972.98	2897.62
973.281	2866.89
973.582	2839.54
973.883	2828.24
974.183	2795.03
974.484	2813.56
974.785	2802.03
975.085	2740.34
975.386	2759.09
975.686	2745.99
975.986	2770.85
976.287	2705.31
976.587	2675.03
976.887	2710.96
977.187	2698.53
977.487	2689.27
977.787	2666.89
978.087	2664.63
978.387	2623.28
978.687	2626.67
978.987	2639.78
979.286	2573.11
979.586	2612.43
979.885	2603.39
980.185	2579.44
980.484	2569.27
980.784	2550.06
981.083	2522.26
981.382	2537.86
981.682	2505.77
981.981	2519.1
982.28	2508.48
982.579	2451.31
982.878	2519.33
983.177	2413.11
983.475	2472.1
983.774	2452.89
984.073	2401.14
984.372	2404.3
984.67	2405.43
984.969	2393.68
985.267	2406.34
985.566	2396.84
985.864	2398.65
986.162	2367.69
986.461	2341.93
986.759	2341.7
987.057	2330.63
987.355	2315.04
987.653	2326.11
987.951	2301.25
988.249	2295.6
988.547	2286.11
988.844	2277.07
989.142	2256.96
989.44	2239.33
989.737	2221.93
990.035	2230.52
990.332	2211.54
990.63	2188.71
990.927	2211.09
991.224	2175.83
991.521	2205.89
991.819	2160.69
992.116	2182.16
992.413	2144.65
992.71	2126.34
993.006	2139.9
993.303	2087.25
993.6	2138.32
993.897	2057.64
994.193	2104.65
994.49	2077.3
994.787	2093.12
995.083	2059.45
995.379	2075.72
995.676	2069.39
995.972	2043.18
996.268	2046.57
996.565	1993.46
996.861	2000.7
997.157	2018.77
997.453	2000.92
997.749	1969.28
998.044	1974.71
998.34	1965.89
998.636	1966.57
998.932	1911.21
999.227	1911.88
999.523	1912.56
999.818	1879.8
1000.114	1892.68
1000.409	1880.25
1000.704	1855.16
1001	1881.15
1001.295	1858.78
1001.59	1838.67
1001.885	1838.44
1002.18	1814.03
1002.475	1821.04
1002.77	1820.36
1003.065	1808.84
1003.359	1787.14
1003.654	1779.68
1003.949	1780.14
1004.243	1764.32
1004.538	1739.01
1004.832	1748.5
1005.127	1741.49
1005.421	1725.9
1005.715	1723.64
1006.009	1719.57
1006.304	1710.08
1006.598	1689.29
1006.892	1665.79
1007.186	1663.53
1007.48	1650.42
1007.773	1640.48
1008.067	1641.84
1008.361	1624.66
1008.655	1649.29
1008.948	1613.59
1009.242	1606.81
1009.535	1601.61
1009.829	1588.73
1010.122	1574.72
1010.415	1596.19
1010.708	1560.48
1011.001	1572.01
1011.295	1561.16
1011.588	1539.24
1011.881	1514.16
1012.173	1516.41
1012.466	1494.04
1012.759	1523.19
1013.052	1494.27
1013.344	1481.61
1013.637	1463.08
1013.93	1473.93
1014.222	1469.41
1014.514	1469.86
1014.807	1459.92
1015.099	1425.8
1015.391	1400.94
1015.683	1416.76
1015.976	1408.17
1016.268	1412.46
1016.56	1393.48
1016.851	1411.11
1017.143	1407.27
1017.435	1393.03
1017.727	1358
1018.018	1355.52
1018.31	1353.26
1018.602	1368.17
1018.893	1311.67
1019.185	1337.44
1019.476	1332.01
1019.767	1299.25
1020.058	1298.57
1020.35	1287.72
1020.641	1273.26
1020.932	1300.38
1021.223	1280.49
1021.514	1275.74
1021.804	1240.04
1022.095	1237.78
1022.386	1238.46
1022.677	1210.21
1022.967	1206.59
1023.258	1225.12
1023.548	1198.91
1023.839	1228.06
1024.129	1189.87
1024.419	1168.63
1024.709	1170.66
1025	1188.51
1025.29	1157.1
1025.58	1147.16
1025.87	1125.46
1026.16	1154.62
1026.449	1142.19
1026.739	1130.89
1027.029	1108.52
1027.319	1151.23
1027.608	1110.1
1027.898	1100.38
1028.187	1107.16
1028.477	1086.82
1028.766	1070.1
1029.055	1075.3
1029.344	1086.6
1029.634	1057.9
1029.923	1047.73
1030.212	1047.5
1030.501	1042.76
1030.79	1024.22
1031.078	1025.58
1031.367	1025.58
1031.656	1030.33
1031.945	1002.08
1032.233	1011.8
1032.522	971.57
1032.81	982.64
1033.099	998.46
1033.387	989.42
1033.675	973.6
1033.963	959.14
1034.251	959.14
1034.54	955.3
1034.828	939.93
1035.116	926.15
1035.403	907.84
1035.691	934.51
1035.979	924.79
1036.267	915.3
1036.554	906.49
1036.842	929.09
1037.129	899.93
1037.417	898.35
1037.704	871.91
1037.992	852.7
1038.279	881.86
1038.566	853.61
1038.853	853.61
1039.14	853.61
