Data from hue_190_FLMS001491_00055.txt Node
Date: Tue Feb 07 16:45:28 GMT 2017
User: dcchb
Spectrometer: FLMS00149
Trigger mode: 0
Integration Time (sec): 2.000000E-2
Scans to average: 10
Electric dark correction enabled: true
Nonlinearity correction enabled: false
Boxcar width: 0
XAxis mode: Wavelengths
Number of Pixels in Spectrum: 2048
>>>>>Begin Spectral Data<<<<<
341.393	-11.65
341.776	-11.65
342.16	-11.65
342.543	-59.33
342.927	-78.77
343.31	-55.04
343.693	-64.98
344.077	-58.66
344.46	-53.69
344.843	-43.06
345.226	-48.04
345.61	-31.09
345.993	-29.05
346.376	-3.97
346.759	-6.45
347.142	18.4
347.525	44.17
347.908	66.54
348.291	64.28
348.674	90.72
349.057	109.93
349.44	131.85
349.823	157.38
350.206	153.99
350.588	180.43
350.971	222.47
351.354	207.55
351.737	241
352.119	245.06
352.502	260.88
352.884	260.21
353.267	267.21
353.65	288
354.032	308.57
354.414	293.65
354.797	304.72
355.179	315.57
355.562	307.21
355.944	320.54
356.326	333.2
356.709	334.55
357.091	352.86
357.473	340.65
357.855	330.49
358.238	335.91
358.62	330.94
359.002	339.07
359.384	336.14
359.766	332.75
360.148	331.62
360.53	342.01
360.912	315.8
361.294	335.46
361.676	331.62
362.057	322.58
362.439	301.33
362.821	339.52
363.203	328
363.584	323.25
363.966	318.96
364.348	318.51
364.729	328
365.111	318.28
365.493	305.63
365.874	307.44
366.256	312.18
366.637	320.99
367.019	302.92
367.4	318.51
367.781	309.7
368.163	318.06
368.544	299.75
368.925	308.57
369.306	313.76
369.688	311.5
370.069	315.34
370.45	295.01
370.831	316.02
371.212	302.46
371.593	324.38
371.974	315.57
372.355	338.62
372.736	280.09
373.117	303.82
373.498	302.01
373.879	312.41
374.26	313.31
374.641	299.75
375.021	321.22
375.402	319.86
375.783	310.83
376.163	321.67
376.544	310.6
376.925	293.42
377.305	315.57
377.686	313.31
378.066	342.46
378.447	303.14
378.827	296.59
379.208	324.38
379.588	322.35
379.968	323.93
380.349	312.63
380.729	298.62
381.109	337.49
381.489	326.19
381.87	341.56
382.25	334.1
382.63	327.1
383.01	326.19
383.39	320.54
383.77	349.02
384.15	344.5
384.53	338.85
384.91	320.54
385.29	324.61
385.67	350.37
386.049	356.93
386.429	339.52
386.809	337.27
387.189	338.85
387.568	351.05
387.948	320.54
388.328	347.66
388.707	328
389.087	347.66
389.466	348.34
389.846	358.28
390.225	360.09
390.605	379.3
390.984	354.21
391.363	355.12
391.743	372.29
392.122	360.32
392.501	371.16
392.881	372.07
393.26	374.55
393.639	372.74
394.018	375.23
394.397	367.55
394.776	384.95
395.155	389.02
395.534	372.74
395.913	361.67
396.292	396.25
396.671	387.43
397.05	370.48
397.429	386.76
397.808	386.53
398.186	405.29
398.565	383.37
398.944	398.28
399.323	380.43
399.701	401.22
400.08	389.24
400.458	392.86
400.837	426.3
401.215	383.82
401.594	418.62
401.972	404.16
402.351	418.84
402.729	403.7
403.107	421.1
403.486	419.07
403.864	424.04
404.242	426.3
404.62	418.84
404.999	423.14
405.377	459.3
405.755	425.17
406.133	462.69
406.511	444.15
406.889	456.58
407.267	467.21
407.645	472.63
408.023	479.18
408.401	482.57
408.779	485.06
409.156	470.59
409.534	518.73
409.912	490.71
410.29	504.27
410.667	504.94
411.045	503.81
411.422	546.07
411.8	512.63
412.178	544.94
412.555	549.69
412.933	564.15
413.31	547.66
413.687	575.22
414.065	563.02
414.442	580.42
414.819	609.8
415.197	612.06
415.574	622.68
415.951	629.46
416.328	639.4
416.705	616.81
417.082	655
417.46	657.48
417.837	636.24
418.214	676.69
418.591	663.13
418.967	680.31
419.344	702.23
419.721	687.09
420.098	703.58
420.475	689.12
420.852	714.43
421.228	742
421.605	735.67
421.982	748.55
422.358	778.38
422.735	772.96
423.111	779.74
423.488	810.02
423.864	797.82
424.241	858.83
424.617	828.55
424.994	880.75
425.37	865.61
425.746	873.97
426.123	890.24
426.499	903.35
426.875	918.94
427.251	935.22
427.627	968.66
428.003	978.38
428.379	974.99
428.756	980.64
429.132	979.51
429.507	1000.07
429.883	1018.6
430.259	1034.2
430.635	1048.66
431.011	1055.44
431.387	1079.62
431.763	1080.52
432.138	1116.23
432.514	1093.18
432.89	1127.98
433.265	1173.85
433.641	1164.14
434.016	1194.19
434.392	1203.91
434.767	1228.54
435.143	1258.82
435.518	1260.18
435.894	1299.05
436.269	1308.09
436.644	1333.17
437.02	1353.74
437.395	1403.45
437.77	1419.72
438.145	1433.96
438.52	1447.97
438.895	1481.64
439.271	1487.07
439.646	1522.77
440.021	1547.63
440.395	1536.78
440.77	1551.47
441.145	1571.36
441.52	1608.19
441.895	1608.42
442.27	1674.63
442.645	1657.46
443.019	1702.2
443.394	1700.17
443.769	1727.06
444.143	1747.17
444.518	1745.36
444.892	1752.82
445.267	1760.73
445.641	1795.08
446.016	1820.62
446.39	1849.99
446.764	1882.08
447.139	1857
447.513	1865.81
447.887	1851.35
448.262	1895.42
448.636	1894.96
449.01	1932.7
449.384	1952.14
449.758	1973.61
450.132	1996.66
450.506	1983.32
450.88	2018.35
451.254	2019.93
451.628	2087.73
452.002	2050.89
452.376	2077.78
452.75	2118.24
453.123	2151.68
453.497	2178.8
453.871	2170.21
454.244	2194.62
454.618	2215.18
454.992	2276.2
455.365	2251.34
455.739	2348.29
456.112	2350.09
456.486	2370.88
456.859	2402.3
457.232	2450.43
457.606	2429.41
457.979	2485.23
458.352	2527.04
458.725	2553.93
459.099	2547.6
459.472	2642.74
459.845	2642.06
460.218	2638.9
460.591	2679.12
460.964	2738.56
461.337	2767.26
461.71	2809.52
462.083	2877.99
462.456	2874.83
462.829	2873.24
463.201	2953.24
463.574	2958.67
463.947	3041.37
464.32	3078.89
464.692	3107.36
465.065	3136.29
465.438	3188.49
465.81	3216.29
466.183	3243.86
466.555	3349.62
466.928	3346.9
467.3	3346.68
467.672	3392.78
468.045	3486.79
468.417	3509.39
468.789	3559.33
469.161	3585.99
469.534	3645.43
469.906	3735.59
470.278	3710.74
470.65	3816.72
471.022	3869.15
471.394	3943.05
471.766	3979.2
472.138	4051.29
472.51	4104.17
472.882	4181.46
473.253	4238.86
473.625	4308.69
473.997	4350.04
474.369	4385.75
474.74	4462.81
475.112	4573.76
475.484	4656.25
475.855	4722.23
476.227	4740.77
476.598	4868.9
476.97	4934.66
477.341	5032.28
477.713	5089.91
478.084	5163.13
478.455	5324.93
478.827	5352.5
479.198	5534.87
479.569	5520.63
479.94	5671.36
480.311	5714.98
480.682	5885.14
481.053	5987.74
481.424	6056.66
481.795	6151.8
482.166	6256.43
482.537	6365.36
482.908	6447.61
483.279	6553.37
483.65	6623.65
484.021	6776.19
484.391	6843.31
484.762	6948.62
485.133	6994.49
485.503	7114.26
485.874	7263.41
486.244	7360.81
486.615	7453.91
486.985	7575.27
487.356	7753.12
487.726	7768.26
488.097	7904.52
488.467	7941.58
488.837	8103.84
489.207	8205.76
489.578	8272.65
489.948	8373.89
490.318	8582.02
490.688	8511.74
491.058	8686.88
491.428	8806.42
491.798	8812.97
492.168	9070.37
492.538	9099.52
492.908	9153.08
493.278	9273.3
493.648	9309.68
494.017	9396.46
494.387	9491.83
494.757	9548.32
495.126	9657.02
495.496	9636.68
495.866	9794.64
496.235	9748.09
496.605	9941.76
496.974	9862.44
497.344	9986.73
497.713	10064.92
498.082	10047.74
498.452	10202.77
498.821	10116.67
499.19	10255.65
499.559	10308.08
499.928	10349.21
500.298	10465.36
500.667	10464.46
501.036	10420.16
501.405	10571.35
501.774	10512.14
502.143	10603.66
502.512	10656.54
502.88	10705.13
503.249	10677.78
503.618	10835.07
503.987	10793.71
504.356	10840.94
504.724	10965.91
505.093	10904.9
505.462	10901.73
505.83	11014.95
506.199	10978.57
506.567	11096.08
506.936	11061.95
507.304	11195.06
507.672	11163.87
508.041	11177.66
508.409	11244.77
508.777	11332.46
509.145	11292.23
509.514	11315.06
509.882	11350.31
510.25	11413.81
510.618	11460.59
510.986	11403.87
511.354	11474.83
511.722	11526.8
512.09	11557.08
512.458	11501.94
512.826	11584.43
513.193	11564.31
513.561	11635.05
513.929	11679.79
514.297	11720.24
514.664	11740.13
515.032	11677.31
515.4	11783.07
515.767	11799.34
516.135	11829.17
516.502	11707.14
516.869	11920.92
517.237	11833.46
517.604	11808.6
517.972	11853.35
518.339	11853.12
518.706	11886.57
519.073	11838.88
519.44	11863.52
519.808	11928.37
520.175	11870.3
520.542	11959.33
520.909	11960.46
521.276	11902.84
521.643	11947.81
522.009	11954.36
522.376	12051.08
522.743	12059.89
523.11	12058.54
523.477	12092.66
523.843	12149.61
524.21	12172.21
524.577	12149.61
524.943	12052.89
525.31	12201.36
525.676	12211.76
526.043	12155.71
526.409	12144.41
526.776	12237.52
527.142	12209.72
527.508	12146.45
527.874	12221.7
528.241	12153.9
528.607	12129.27
528.973	12247.69
529.339	12170.4
529.705	12165.2
530.071	12216.27
530.437	12140.57
530.803	12220.57
531.169	12048.14
531.535	11957.07
531.901	12046.34
532.267	12028.71
532.632	12018.54
532.998	11931.76
533.364	11944.64
533.73	11956.85
534.095	11927.92
534.461	11920.46
534.826	11950.75
535.192	11823.52
535.557	11845.66
535.923	11694.93
536.288	11726.34
536.653	11689.06
537.019	11613.35
537.384	11614.26
537.749	11602.96
538.114	11491.77
538.479	11436.41
538.845	11423.98
539.21	11411.1
539.575	11321.61
539.94	11318.22
540.305	11312.12
540.67	11214.95
541.034	11201.16
541.399	11203.19
541.764	11130.2
542.129	11094.5
542.494	10965.23
542.858	11007.72
543.223	10942.86
543.587	10893.82
543.952	10830.32
544.316	10783.32
544.681	10759.14
545.045	10714.39
545.41	10655.86
545.774	10624
546.138	10614.74
546.503	10507.39
546.867	10466.49
547.231	10460.39
547.595	10366.15
547.959	10390.56
548.324	10297.46
548.688	10268.08
549.052	10207.51
549.416	10220.17
549.779	10087.07
550.143	10078.25
550.507	10030.12
550.871	10037.58
551.235	9966.39
551.599	9960.74
551.962	9795.1
552.326	9920.52
552.689	9773.63
553.053	9787.41
553.417	9736.57
553.78	9732.05
554.143	9581.32
554.507	9636
554.87	9643.69
555.234	9603.91
555.597	9436.23
555.96	9492.05
556.323	9527.98
556.686	9448.21
557.05	9423.81
557.413	9409.34
557.776	9383.35
558.139	9374.54
558.502	9375.22
558.865	9303.36
559.228	9282.57
559.59	9226.07
559.953	9184.94
560.316	9291.15
560.679	9216.81
561.041	9224.49
561.404	9238.05
561.767	9299.52
562.129	9115.57
562.492	9184.49
562.854	9169.58
563.217	9123.7
563.579	9146.75
563.941	9165.51
564.304	9105.62
564.666	9156.02
565.028	9086.64
565.39	9114.44
565.753	9171.84
566.115	9111.95
566.477	9143.81
566.839	9124.15
567.201	9106.75
567.563	9082.12
567.925	9146.75
568.287	9107.43
568.648	9087.77
569.01	9071.05
569.372	9107.66
569.734	9081.67
570.095	9073.08
570.457	9056.13
570.819	9113.08
571.18	9031.5
571.542	9054.78
571.903	9053.65
572.265	9069.92
572.626	9072.4
572.987	9056.13
573.349	9086.87
573.71	9138.62
574.071	9121.44
574.432	9045.06
574.794	9167.32
575.155	9106.3
575.516	9053.87
575.877	9056.36
576.238	9091.39
576.599	9088.67
576.96	9043.02
577.32	9038.05
577.681	9096.81
578.042	9085.96
578.403	9116.47
578.763	9096.36
579.124	9041.44
579.485	9128.67
579.845	9116.24
580.206	9088.45
580.566	9047.77
580.927	9049.8
581.287	9056.13
581.648	9059.75
582.008	9091.84
582.368	9062.46
582.728	9001.44
583.089	9015.46
583.449	8972.07
583.809	8981.11
584.169	8917.6
584.529	8936.14
584.889	9027.21
585.249	8907.66
585.609	8975
585.969	8930.71
586.329	8927.77
586.688	8921.67
587.048	8921.9
587.408	8922.58
587.768	8881.45
588.127	8829.02
588.487	8852.07
588.846	8822.69
589.206	8859.98
589.565	8845.06
589.925	8808.68
590.284	8804.16
590.643	8807.32
591.003	8856.59
591.362	8827.21
591.721	8759.42
592.08	8799.42
592.44	8822.92
592.799	8756.25
593.158	8753.99
593.517	8747.67
593.876	8761
594.235	8791.28
594.593	8796.03
594.952	8725.75
595.311	8745.63
595.67	8675.8
596.029	8762.35
596.387	8673.09
596.746	8735.01
597.104	8678.74
597.463	8660.21
597.822	8694.79
598.18	8615.01
598.538	8628.57
598.897	8690.72
599.255	8544.28
599.613	8647.33
599.972	8637.16
600.33	8609.14
600.688	8632.41
601.046	8663.37
601.404	8669.25
601.762	8614.56
602.12	8671.51
602.478	8690.72
602.836	8701.11
603.194	8653.2
603.552	8689.81
603.91	8619.76
604.268	8662.47
604.625	8595.35
604.983	8679.87
605.341	8643.49
605.698	8640.1
606.056	8647.78
606.413	8603.49
606.771	8683.94
607.128	8691.4
607.485	8637.61
607.843	8597.84
608.2	8648.46
608.557	8640.55
608.914	8639.19
609.272	8718.74
609.629	8705.86
609.986	8663.6
610.343	8618.18
610.7	8717.61
611.057	8704.5
611.414	8678.51
611.771	8651.4
612.127	8711.73
612.484	8671.28
612.841	8732.3
613.198	8677.61
613.554	8657.27
613.911	8704.28
614.267	8750.6
614.624	8734.56
614.98	8704.5
615.337	8753.32
615.693	8705.41
616.05	8704.28
616.406	8865.4
616.762	8728.46
617.118	8779.98
617.475	8733.88
617.831	8834.89
618.187	8841.45
618.543	8798.29
618.899	8768.68
619.255	8737.95
619.611	8774.11
619.967	8768
620.323	8798.74
620.678	8781.11
621.034	8724.39
621.39	8776.14
621.746	8742.24
622.101	8843.71
622.457	8739.08
622.812	8804.84
623.168	8806.42
623.523	8805.29
623.879	8897.04
624.234	8807.32
624.589	8756.25
624.945	8800.32
625.3	8838.06
625.655	8721.23
626.01	8785.63
626.365	8773.65
626.72	8807.1
627.075	8718.74
627.43	8782.69
627.785	8729.36
628.14	8751.06
628.495	8779.53
628.85	8746.08
629.205	8671.28
629.559	8704.73
629.914	8733.2
630.269	8726.88
630.623	8745.18
630.978	8684.62
631.332	8675.13
631.687	8681.23
632.041	8701.11
632.396	8632.64
632.75	8575.47
633.104	8628.35
633.459	8585.18
633.813	8601.45
634.167	8666.99
634.521	8580.89
634.875	8562.36
635.229	8618.4
635.583	8490.95
635.937	8545.41
636.291	8544.73
636.645	8574.11
636.999	8532.76
637.352	8571.17
637.706	8505.19
638.06	8506.77
638.413	8518.74
638.767	8466.77
639.121	8441.01
639.474	8472.64
639.828	8467.22
640.181	8467.45
640.534	8470.16
640.888	8433.1
641.241	8372.08
641.594	8440.1
641.947	8395.36
642.301	8355.59
642.654	8414.79
643.007	8443.72
643.36	8407.79
643.713	8360.56
644.066	8381.12
644.419	8385.19
644.771	8332.76
645.124	8260.22
645.477	8313.55
645.83	8185.19
646.182	8137.06
646.535	8100.45
646.888	8155.36
647.24	8070.62
647.593	8188.58
647.945	8097.51
648.298	8074.01
648.65	8099.77
649.002	8099.55
649.355	8067.23
649.707	8118.3
650.059	8083.05
650.411	8279.43
650.763	8234.23
651.115	8311.74
651.467	8214.35
651.819	8302.25
652.171	8263.16
652.523	8205.53
652.875	8215.02
653.227	8271.52
653.578	8341.12
653.93	8266.1
654.282	8300.9
654.633	8231.07
654.985	8204.85
655.337	8245.98
655.688	8235.59
656.039	8321.24
656.391	8189.71
656.742	8249.37
657.094	8255.02
657.445	8277.17
657.796	8262.93
658.147	8274.23
658.498	8284.17
658.849	8264.97
659.2	8217.96
659.551	8245.31
659.902	8322.59
660.253	8254.35
660.604	8345.87
660.955	8221.8
661.306	8315.13
661.656	8315.13
662.007	8321.46
662.358	8349.26
662.708	8341.12
663.059	8319.43
663.409	8248.7
663.76	8356.94
664.11	8332.08
664.461	8330.28
664.811	8337.05
665.161	8306.32
665.511	8255.02
665.862	8314
666.212	8322.14
666.562	8374.57
666.912	8338.86
667.262	8306.55
667.612	8344.74
667.962	8347.45
668.312	8358.75
668.662	8343.61
669.011	8370.5
669.361	8381.57
669.711	8298.19
670.06	8309.03
670.41	8329.82
670.76	8253.44
671.109	8313.55
671.459	8295.7
671.808	8292.08
672.157	8290.05
672.507	8236.04
672.856	8253.67
673.205	8290.05
673.554	8350.84
673.904	8198.98
674.253	8299.09
674.602	8238.75
674.951	8125.53
675.3	8031.75
675.649	8231.52
675.998	8209.6
676.346	8221.35
676.695	8193.56
677.044	8100.68
677.393	8131.41
677.741	8144.29
678.09	8159.43
678.438	8118.98
678.787	8144.29
679.135	8175.25
679.484	8055.48
679.832	8091.86
680.181	8060.23
680.529	7993.79
680.877	8061.13
681.225	8018.19
681.573	8076.5
681.922	8040.79
682.27	7979.78
682.618	7988.14
682.966	7977.29
683.314	7985.2
683.661	7967.12
684.009	7924.86
684.357	7916.5
684.705	7859.1
685.053	7865.43
685.4	7881.7
685.748	7827.92
686.095	7814.58
686.443	7760.57
686.79	7731.2
687.138	7763.51
687.485	7673.34
687.832	7729.61
688.18	7716.51
688.527	7646.23
688.874	7656.62
689.221	7647.58
689.568	7648.94
689.915	7565.78
690.262	7581.82
690.609	7559.67
690.956	7576.17
691.303	7499.11
691.65	7467.7
691.997	7445.1
692.344	7375.5
692.69	7445.33
693.037	7439.68
693.383	7290.08
693.73	7322.84
694.077	7320.36
694.423	7276.97
694.769	7250.76
695.116	7212.79
695.462	7220.7
695.808	7228.16
696.155	7156.29
696.501	7104.09
696.847	7101.83
697.193	7098.9
697.539	7081.72
697.885	7026.35
698.231	6970.31
698.577	6974.15
698.923	6971.89
699.269	6933.25
699.614	6890.09
699.96	6851.44
700.306	6858.22
700.651	6874.27
700.997	6790.65
701.342	6810.54
701.688	6770.77
702.033	6739.13
702.379	6723.54
702.724	6670.43
703.069	6686.93
703.415	6607.61
703.76	6611.22
704.105	6609.87
704.45	6630.43
704.795	6537.55
705.14	6512.02
705.485	6556.54
705.83	6456.43
706.175	6500.49
706.52	6469.53
706.865	6461.62
707.209	6388.41
707.554	6384.56
707.899	6396.09
708.243	6354.51
708.588	6360.61
708.932	6327.62
709.277	6259.6
709.621	6316.09
709.966	6291.46
710.31	6268.18
710.654	6230.9
710.998	6259.82
711.342	6251.91
711.687	6188.41
712.031	6162.65
712.375	6149.77
712.719	6142.31
713.063	6149.09
713.407	6121.97
713.75	6101.63
714.094	6072.71
714.438	6108.41
714.782	6105.48
715.125	6123.1
715.469	6081.07
715.812	6038.58
716.156	6061.18
716.499	6018.47
716.843	6015.08
717.186	5976.89
717.53	6008.75
717.873	6029.54
718.216	6014.4
718.559	5986.16
718.902	5978.92
719.246	5957.23
719.589	5913.84
719.932	5943.22
720.275	5889.89
720.617	5918.36
720.96	5911.36
721.303	5852.83
721.646	5923.33
721.989	5919.27
722.331	5900.06
722.674	5916.33
723.016	5882.43
723.359	5904.8
723.701	5911.58
724.044	5902.77
724.386	5808.53
724.729	5842.21
725.071	5823.67
725.413	5871.81
725.755	5813.05
726.097	5761.08
726.439	5807.18
726.782	5788.42
727.124	5847.4
727.465	5802.21
727.807	5782.77
728.149	5768.76
728.491	5785.26
728.833	5766.95
729.175	5802.21
729.516	5809.66
729.858	5845.82
730.199	5809.66
730.541	5806.95
730.882	5787.07
731.224	5863
731.565	5785.03
731.906	5844.69
732.248	5827.29
732.589	5774.64
732.93	5793.17
733.271	5792.49
733.612	5854.41
733.953	5841.53
734.294	5859.38
734.635	5794.52
734.976	5818.93
735.317	5789.78
735.658	5841.53
735.999	5834.07
736.339	5816.67
736.68	5833.39
737.021	5830.23
737.361	5814.64
737.702	5887.4
738.042	5791.81
738.383	5800.4
738.723	5802.66
739.063	5868.42
739.404	5905.48
739.744	5865.48
740.084	5899.38
740.424	5883.56
740.764	5870.9
741.104	5938.02
741.444	5881.3
741.784	5980.28
742.124	5982.77
742.464	5947.29
742.804	5975.31
743.143	6037.23
743.483	6048.75
743.823	6047.4
744.162	6102.76
744.502	6129.2
744.841	6140.05
745.181	6171.24
745.52	6169.65
745.86	6232.25
746.199	6285.13
746.538	6275.19
746.877	6323.1
747.216	6398.35
747.556	6413.49
747.895	6411.23
748.234	6518.57
748.573	6543.2
748.911	6603.54
749.25	6688.06
749.589	6676.76
749.928	6781.62
750.267	6864.33
750.605	6915.17
750.944	6931.89
751.283	7012.8
751.621	7129.18
751.96	7154.49
752.298	7308.16
752.636	7402.84
752.975	7455.27
753.313	7570.75
753.651	7680.57
753.989	7777.97
754.327	7877.18
754.666	7937.52
755.004	8076.95
755.342	8208.92
755.679	8378.41
756.017	8494.56
756.355	8632.64
756.693	8700.66
757.031	8845.06
757.368	9057.71
757.706	9158.05
758.044	9280.76
758.381	9424.48
758.719	9658.15
759.056	9832.61
759.394	9895.88
759.731	10066.73
760.068	10258.81
760.405	10441.41
760.743	10593.94
761.08	10744.68
761.417	10964.1
761.754	11153.03
762.091	11284.77
762.428	11435.28
762.765	11586.01
763.102	11871.88
763.438	11958.88
763.775	12031.87
764.112	12314.58
764.449	12473.44
764.785	12677.28
765.122	12749.82
765.458	12854.68
765.795	13054.67
766.131	13336.25
766.467	13372.63
766.804	13611.27
767.14	13730.59
767.476	13913.18
767.812	13936.68
768.148	14147.07
768.485	14322.21
768.821	14378.03
769.157	14561.3
769.492	14708.64
769.828	14885.13
770.164	14917.45
770.5	15028.18
770.836	15208.74
771.171	15236.76
771.507	15474.49
771.842	15500.26
772.178	15580.48
772.513	15673.59
772.849	15892.56
773.184	15890.08
773.519	16031.77
773.855	15985.89
774.19	16191.31
774.525	16234.25
774.86	16390.4
775.195	16436.95
775.53	16505.43
775.865	16533.22
776.2	16508.14
776.535	16575.93
776.87	16593.33
777.205	16777.28
777.539	16773.22
777.874	16901.12
778.209	16729.83
778.543	16870.16
778.878	16922.14
779.212	16939.99
779.547	17038.75
779.881	17100.67
780.215	17062.02
780.55	17203.94
780.884	17114.23
781.218	17062.25
781.552	17215.92
781.886	17140.21
782.22	17138.86
782.554	17191.51
782.888	17111.29
783.222	17175.47
783.556	17155.81
783.889	17071.06
784.223	17023.61
784.557	17147.22
784.89	17143.15
785.224	17132.08
785.557	17102.25
785.891	17156.71
786.224	17153.55
786.558	17184.96
786.891	17099.99
787.224	17007.34
787.557	16972.53
787.891	17044.62
788.224	17040.78
788.557	17106.54
788.89	17071.74
789.223	17151.74
789.556	17064.51
789.888	17018.18
790.221	16937.73
790.554	16932.76
790.887	16893.44
791.219	16878.07
791.552	16965.3
791.884	16809.37
792.217	16805.98
792.549	16748.81
792.882	16659.1
793.214	16629.94
793.546	16768.02
793.879	16645.76
794.211	16678.08
794.543	16527.12
794.875	16564.86
795.207	16657.29
795.539	16500.23
795.871	16540.68
796.203	16351.08
796.535	16312.89
796.867	16435.15
797.198	16399.67
797.53	16411.87
797.862	16238.32
798.193	16247.58
798.525	16223.18
798.856	16318.99
799.188	16068.15
799.519	16002.84
799.85	15993.58
800.182	15987.93
800.513	16137.08
800.844	15885.78
801.175	16090.52
801.506	15989.73
801.837	15898.66
802.168	15865.67
802.499	15866.12
802.83	15738.44
803.161	15728.95
803.491	15754.71
803.822	15730.31
804.153	15674.71
804.483	15573.47
804.814	15507.26
805.145	15556.75
805.475	15595.17
805.805	15462.29
806.136	15479.92
806.466	15413.25
806.796	15391.33
807.126	15373.03
807.457	15366.02
807.787	15420.94
808.117	15262.07
808.447	15220.26
808.777	15328.28
809.107	15187.95
809.436	15137.33
809.766	15180.72
810.096	15133.71
810.426	15018.91
810.755	15052.81
811.085	15054.84
811.414	15032.7
811.744	14878.58
812.073	14973.72
812.403	14870.89
812.732	14834.74
813.061	14845.36
813.39	14814.85
813.719	14690.33
814.049	14761.97
814.378	14731.46
814.707	14671.8
815.036	14724.23
815.365	14599.94
815.693	14589.09
816.022	14514.29
816.351	14507.97
816.68	14420.06
817.008	14486.5
817.337	14301.87
817.665	14314.07
817.994	14319.5
818.322	14438.14
818.651	14326.5
818.979	14257.35
819.307	14306.62
819.636	14344.35
819.964	14248.54
820.292	14248.09
820.62	14280.63
820.948	14189.1
821.276	14298.03
821.604	14142.1
821.932	14181.65
822.259	14226.17
822.587	14151.82
822.915	14227.75
823.243	14226.17
823.57	14249.67
823.898	14253.51
824.225	14071.59
824.553	14177.13
824.88	14108.2
825.207	14246.5
825.535	14199.95
825.862	14184.13
826.189	14123.57
826.516	14243.57
826.843	14234.75
827.17	14254.64
827.497	14293.96
827.824	14251.25
828.151	14231.14
828.478	14201.76
828.805	14298.48
829.131	14218.93
829.458	14220.97
829.785	14157.01
830.111	14191.14
830.438	14277.46
830.764	14274.53
831.09	14312.26
831.417	14193.85
831.743	14190.46
832.069	14238.37
832.395	14212.83
832.722	14220.74
833.048	14125.6
833.374	14155.88
833.7	14118.15
834.026	14115.21
834.351	14110.24
834.677	14115.43
835.003	14159.27
835.329	14194.3
835.654	14120.18
835.98	14093.74
836.306	14110.69
836.631	14079.28
836.956	14094.42
837.282	14081.54
837.607	13985.95
837.932	13968.77
838.258	13973.29
838.583	13929.45
838.908	13832.28
839.233	13956.34
839.558	13893.29
839.883	13911.37
840.208	13831.15
840.533	13765.84
840.858	13785.27
841.182	13765.84
841.507	13759.51
841.832	13700.3
842.156	13668.89
842.481	13613.53
842.805	13644.49
843.13	13544.38
843.454	13546.18
843.778	13489.01
844.103	13425.28
844.427	13471.84
844.751	13483.13
845.075	13403.81
845.399	13451.04
845.723	13294.44
846.047	13314.33
846.371	13189.81
846.695	13206.76
847.019	13062.13
847.343	13039.53
847.666	12979.87
847.99	12988.46
848.313	12944.39
848.637	12790.05
848.96	12879.53
849.284	12782.14
849.607	12686.54
849.931	12672.76
850.254	12572.42
850.577	12512.99
850.9	12438.87
851.223	12468.92
851.546	12406.1
851.869	12293.79
852.192	12380.79
852.515	12278.87
852.838	12201.81
853.161	12205.2
853.483	12169.5
853.806	12054.7
854.129	12085.88
854.451	11978.99
854.774	11983.74
855.096	11937.64
855.419	11908.94
855.741	11850.41
856.063	11770.86
856.385	11797.98
856.708	11721.6
857.03	11674.82
857.352	11719.34
857.674	11669.62
857.996	11614.26
858.318	11582.39
858.64	11545.56
858.961	11492
859.283	11505.11
859.605	11402.74
859.926	11392.34
860.248	11424.88
860.57	11371.33
860.891	11316.86
861.212	11303.53
861.534	11198
861.855	11231.67
862.176	11226.24
862.498	11240.71
862.819	11216.75
863.14	11199.13
863.461	11108.96
863.782	11066.25
864.103	11057.44
864.424	11110.99
864.745	11130.43
865.065	10981.28
865.386	10959.58
865.707	10931.79
866.027	10928.63
866.348	11011.11
866.668	10963.2
866.989	11017.21
867.309	10857.21
867.63	10845.01
867.95	10868.74
868.27	10802.07
868.59	10817.44
868.91	10801.62
869.23	10799.59
869.55	10730.66
869.87	10785.58
870.19	10770.66
870.51	10698.57
870.83	10816.76
871.15	10673.72
871.469	10650.21
871.789	10667.61
872.109	10663.32
872.428	10568.18
872.748	10635.3
873.067	10598.24
873.386	10616.99
873.706	10584.23
874.025	10562.31
874.344	10478.02
874.663	10535.87
874.982	10565.24
875.301	10492.25
875.62	10470.11
875.939	10407.51
876.258	10402.09
876.577	10389.66
876.896	10375.87
877.214	10362.99
877.533	10334.97
877.852	10348.08
878.17	10394.85
878.489	10259.49
878.807	10245.03
879.125	10327.74
879.444	10282.77
879.762	10244.35
880.08	10261.3
880.398	10217.01
880.716	10177.68
881.034	10133.62
881.352	10179.72
881.67	10125.26
881.988	10115.09
882.306	10036.45
882.624	10071.25
882.941	10112.6
883.259	9996.67
883.577	9951.25
883.894	9919.16
884.212	10020.17
884.529	9954.87
884.846	9885.49
885.164	9910.8
885.481	9845.04
885.798	9878.48
886.115	9772.5
886.432	9711.03
886.75	9782.89
887.067	9825.6
887.383	9683.91
887.7	9692.95
888.017	9708.77
888.334	9645.95
888.651	9605.04
888.967	9620.86
889.284	9555.33
889.6	9506.74
889.917	9523.92
890.233	9517.36
890.55	9410.02
890.866	9460.87
891.182	9357.37
891.498	9382.68
891.815	9321.89
892.131	9378.16
892.447	9287.76
892.763	9203.47
893.079	9248.9
893.395	9230.59
893.71	9213.87
894.026	9156.92
894.342	9183.36
894.657	9099.29
894.973	9072.4
895.289	9031.95
895.604	9062.01
895.92	8982.46
896.235	8925.51
896.55	8930.49
896.865	8840.54
897.181	8860.66
897.496	8865.18
897.811	8819.3
898.126	8742.24
898.441	8685.52
898.756	8737.95
899.071	8662.24
899.386	8674
899.7	8594
900.015	8561.91
900.33	8557.16
900.644	8482.81
900.959	8448.24
901.273	8559.42
901.588	8375.02
901.902	8360.33
902.216	8367.11
902.531	8289.15
902.845	8290.28
903.159	8269.26
903.473	8205.31
903.787	8186.32
904.101	8100.68
904.415	8095.71
904.729	8043.5
905.042	8092.32
905.356	8075.82
905.67	8032.2
905.984	7993.34
906.297	7959.66
906.611	7912.21
906.924	7929.61
907.237	7867.01
907.551	7928.25
907.864	7816.84
908.177	7740.69
908.491	7719.22
908.804	7716.51
909.117	7626.57
909.43	7635.83
909.743	7580.69
910.056	7555.15
910.368	7509.05
910.681	7498.88
910.994	7508.83
911.307	7458.43
911.619	7388.15
911.932	7421.82
912.244	7368.27
912.557	7309.96
912.869	7263.41
913.181	7284.65
913.494	7214.82
913.806	7213.69
914.118	7148.16
914.43	7175.5
914.742	7165.11
915.054	7055.28
915.366	7073.36
915.678	6999.46
915.99	7017.32
916.302	6962.18
916.613	6901.61
916.925	6912.23
917.236	6884.89
917.548	6859.81
917.859	6847.83
918.171	6811.45
918.482	6798.79
918.794	6748.4
919.105	6700.94
919.416	6741.39
919.727	6713.59
920.038	6662.75
920.349	6605.12
920.66	6594.5
920.971	6612.13
921.282	6504.56
921.593	6541.85
921.903	6465.92
922.214	6427.73
922.525	6501.17
922.835	6436.77
923.146	6383.43
923.456	6368.29
923.767	6354.28
924.077	6342.76
924.387	6297.33
924.697	6211.46
925.008	6232.7
925.318	6149.32
925.628	6242.42
925.938	6147.28
926.248	6124.91
926.558	6137.11
926.867	6139.15
927.177	6057.79
927.487	6025.7
927.796	5966.72
928.106	5978.25
928.416	5944.35
928.725	5938.47
929.034	5922.88
929.344	5901.19
929.653	5857.12
929.962	5827.97
930.271	5830.23
930.581	5797.91
930.89	5751.59
931.199	5719.5
931.508	5709.1
931.817	5739.16
932.125	5646.5
932.434	5641.98
932.743	5584.81
933.051	5608.76
933.36	5568.99
933.669	5559.95
933.977	5525.83
934.286	5518.6
934.594	5506.85
934.902	5462.33
935.21	5450.13
935.519	5436.34
935.827	5461.65
936.135	5381.65
936.443	5347.98
936.751	5379.17
937.059	5324.48
937.367	5309.11
937.674	5274.31
937.982	5252.16
938.29	5211.71
938.597	5247.87
938.905	5199.06
939.213	5148.89
939.52	5125.84
939.827	5135.78
940.135	5079.74
940.442	5019.4
940.749	5077.93
941.056	5082.45
941.363	4953.64
941.67	4960.42
941.977	4943.25
942.284	4962
942.591	4925.62
942.898	4881.33
943.205	4889.01
943.511	4846.98
943.818	4822.57
944.125	4827.77
944.431	4751.84
944.738	4798.84
945.044	4768.34
945.35	4710.03
945.657	4725.85
945.963	4673.2
946.269	4656.02
946.575	4684.04
946.881	4588.23
947.187	4576.7
947.493	4594.1
947.799	4560.66
948.105	4545.97
948.41	4512.75
948.716	4491.96
949.022	4486.31
949.327	4500.55
949.633	4384.84
949.938	4422.58
950.244	4447.67
950.549	4347.78
950.854	4387.33
951.16	4331.28
951.465	4327.67
951.77	4296.48
952.075	4277.95
952.38	4286.54
952.685	4288.35
952.99	4268.46
953.294	4281.12
953.599	4213.55
953.904	4198.41
954.209	4169.25
954.513	4142.59
954.818	4161.57
955.122	4132.19
955.426	4118.18
955.731	4142.14
956.035	4083.83
956.339	4060.78
956.643	4067.56
956.948	4056.72
957.252	4025.08
957.556	4004.74
957.86	3963.84
958.163	3989.15
958.467	3903.5
958.771	3948.24
959.075	3918.87
959.378	3870.51
959.682	3882.26
959.985	3865.99
960.289	3826.44
960.592	3795.48
960.896	3825.99
961.199	3790.51
961.502	3793.9
961.805	3766.1
962.108	3759.32
962.411	3724.97
962.714	3650.85
963.017	3731.75
963.32	3685.2
963.623	3646.78
963.926	3667.57
964.228	3620.57
964.531	3614.02
964.833	3646.56
965.136	3614.24
965.438	3570.63
965.741	3509.61
966.043	3559.55
966.345	3486.79
966.648	3505.77
966.95	3487.46
967.252	3417.18
967.554	3449.05
967.856	3468.03
968.158	3417.86
968.46	3437.3
968.761	3411.31
969.063	3386.68
969.365	3363.85
969.666	3351.65
969.968	3338.09
970.269	3346.23
970.571	3287.02
970.872	3334.02
971.174	3266.91
971.475	3268.26
971.776	3251.31
972.077	3246.79
972.378	3219.68
972.679	3254.48
972.98	3248.83
973.281	3180.13
973.582	3176.51
973.883	3165.89
974.183	3110.07
974.484	3135.16
974.785	3056.29
975.085	3124.76
975.386	3120.47
975.686	3095.38
975.986	3065.33
976.287	3073.24
976.587	3022.84
976.887	3003.64
977.187	3023.52
977.487	2998.21
977.787	2987.14
978.087	2959.57
978.387	2958.89
978.687	2949.17
978.987	2957.76
979.286	2930.87
979.586	2908.5
979.885	2853.36
980.185	2867.82
980.484	2820.82
980.784	2878.89
981.083	2829.4
981.382	2817.65
981.682	2826.24
981.981	2795.51
982.28	2785.11
982.579	2758.9
982.878	2792.34
983.177	2751.21
983.475	2776.98
983.774	2714.83
984.073	2728.16
984.372	2689.29
984.67	2741.72
984.969	2673.25
985.267	2665.11
985.566	2682.74
985.864	2674.15
986.162	2604.55
986.461	2605.45
986.759	2604.32
987.057	2628.05
987.355	2614.27
987.653	2595.06
987.951	2559.35
988.249	2554.61
988.547	2527.72
988.844	2502.86
989.142	2528.62
989.44	2467.15
989.737	2485.68
990.035	2478.9
990.332	2501.73
990.63	2506.02
990.927	2445.91
991.224	2452.01
991.521	2442.07
991.819	2421.28
992.116	2406.82
992.413	2383.99
992.71	2343.31
993.006	2378.12
993.303	2379.25
993.6	2342.86
993.897	2336.31
994.193	2339.02
994.49	2331.56
994.787	2297.21
995.083	2281.39
995.379	2280.04
995.676	2263.99
995.972	2245.69
996.268	2253.37
996.565	2257.89
996.861	2235.07
997.157	2205.46
997.453	2219.48
997.749	2169.31
998.044	2164.56
998.34	2158.69
998.636	2147.16
998.932	2129.31
999.227	2123.43
999.523	2140.16
999.818	2136.09
1000.114	2101.06
1000.409	2094.96
1000.704	2071.23
1001	2090.67
1001.295	2052.93
1001.59	2043.89
1001.885	2013.38
1002.18	2045.24
1002.475	2002.98
1002.77	2019.25
1003.065	1977.9
1003.359	2003.66
1003.654	1992.59
1003.949	1926.6
1004.243	1949.43
1004.538	1951.23
1004.832	1936.77
1005.127	1931.57
1005.421	1916.21
1005.715	1906.26
1006.009	1896.55
1006.304	1867.39
1006.598	1905.59
1006.892	1838.92
1007.186	1836.89
1007.48	1824.46
1007.773	1824.46
1008.067	1817
1008.361	1801.86
1008.655	1771.58
1008.948	1756.89
1009.242	1773.84
1009.535	1760.73
1009.829	1745.59
1010.122	1717.79
1010.415	1731.58
1010.708	1724.57
1011.001	1705.36
1011.295	1691.35
1011.588	1686.38
1011.881	1668.76
1012.173	1686.38
1012.466	1654.74
1012.759	1656.33
1013.052	1635.31
1013.344	1643.9
1013.637	1646.61
1013.93	1627.17
1014.222	1607.51
1014.514	1598.47
1014.807	1589.89
1015.099	1584.46
1015.391	1581.3
1015.683	1549.66
1015.976	1569.55
1016.268	1549.21
1016.56	1539.72
1016.851	1552.6
1017.143	1493.39
1017.435	1500.17
1017.727	1512.15
1018.018	1492.94
1018.31	1477.35
1018.602	1471.02
1018.893	1430.8
1019.185	1451.81
1019.476	1451.59
1019.767	1391.47
1020.058	1402.1
1020.35	1392.38
1020.641	1404.81
1020.932	1387.63
1021.223	1381.31
1021.514	1377.92
1021.804	1370.68
1022.095	1357.13
1022.386	1352.15
1022.677	1332.72
1022.967	1326.39
1023.258	1322.55
1023.548	1300.86
1023.839	1309.44
1024.129	1296.79
1024.419	1313.28
1024.709	1271.48
1025	1264.47
1025.29	1269.67
1025.58	1247.07
1025.87	1254.53
1026.16	1274.42
1026.449	1234.19
1026.739	1223.34
1027.029	1223.57
1027.319	1200.75
1027.608	1248.43
1027.898	1188.77
1028.187	1153.97
1028.477	1196.9
1028.766	1178.15
1029.055	1136.11
1029.344	1148.32
1029.634	1144.48
1029.923	1142.22
1030.212	1129.56
1030.501	1127.07
1030.79	1093.86
1031.078	1114.87
1031.367	1111.48
1031.656	1129.56
1031.945	1085.04
1032.233	1083.69
1032.522	1106.96
1032.81	1088.43
1033.099	1090.01
1033.387	1053.18
1033.675	1033.97
1033.963	1060.41
1034.251	1040.75
1034.54	1048.66
1034.828	1019.06
1035.116	1017.02
1035.403	967.31
1035.691	995.78
1035.979	992.16
1036.267	989.9
1036.554	1001.65
1036.842	965.5
1037.129	985.16
1037.417	960.53
1037.704	978.15
1037.992	944.03
1038.279	965.72
1038.566	941.09
1038.853	941.09
1039.14	941.09
