Data from hue_24_FLMS001491_00099.txt Node
Date: Tue Feb 07 17:13:01 GMT 2017
User: dcchb
Spectrometer: FLMS00149
Trigger mode: 0
Integration Time (sec): 2.000000E-2
Scans to average: 10
Electric dark correction enabled: true
Nonlinearity correction enabled: false
Boxcar width: 0
XAxis mode: Wavelengths
Number of Pixels in Spectrum: 2048
>>>>>Begin Spectral Data<<<<<
341.393	-15.15
341.776	-15.15
342.16	-15.15
342.543	-59.45
342.927	-64.42
343.31	-49.96
343.693	-54.02
344.077	-59.45
344.46	-74.59
344.843	-53.57
345.226	-49.73
345.61	-33.46
345.993	-18.54
346.376	-11.54
346.759	3.15
347.142	24.17
347.525	39.76
347.908	52.19
348.291	82.02
348.674	88.8
349.057	114.79
349.44	132.19
349.823	142.36
350.206	163.37
350.588	218.51
350.971	215.35
351.354	224.84
351.737	244.73
352.119	259.64
352.502	275.01
352.884	283.82
353.267	274.55
353.65	304.16
354.032	290.37
354.414	309.13
354.797	304.61
355.179	338.28
355.562	315.01
355.944	330.82
356.326	327.21
356.709	354.55
357.091	348.45
357.473	348.45
357.855	363.59
358.238	348.45
358.62	352.97
359.002	354.1
359.384	351.16
359.766	349.58
360.148	351.39
360.53	336.93
360.912	332.86
361.294	340.77
361.676	347.32
362.057	328.56
362.439	319.98
362.821	334.89
363.203	332.86
363.584	355
363.966	340.09
364.348	369.02
364.729	325.85
365.111	326.3
365.493	336.47
365.874	319.75
366.256	332.86
366.637	326.08
367.019	319.75
367.4	336.47
367.781	307.1
368.163	318.17
368.544	340.54
368.925	324.95
369.306	316.14
369.688	321.33
370.069	336.02
370.45	329.47
370.831	331.95
371.212	350.71
371.593	335.34
371.974	327.66
372.355	328.11
372.736	336.93
373.117	328.56
373.498	340.77
373.879	344.61
374.26	328.56
374.641	328.11
375.021	335.57
375.402	329.24
375.783	351.39
376.163	349.58
376.544	357.04
376.925	338.28
377.305	323.14
377.686	343.93
378.066	331.28
378.447	357.04
378.827	336.7
379.208	348.9
379.588	335.8
379.968	344.61
380.349	334.89
380.729	364.5
381.109	330.37
381.489	369.47
381.87	372.18
382.25	368.11
382.63	345.97
383.01	355.91
383.39	381.22
383.77	383.7
384.15	385.51
384.53	372.63
384.91	369.69
385.29	365.4
385.67	352.97
386.049	378.51
386.429	395.91
386.809	362.24
387.189	375.34
387.568	373.08
387.948	387.55
388.328	392.74
388.707	384.83
389.087	379.18
389.466	390.03
389.846	393.65
390.225	423.7
390.605	374.21
390.984	387.09
391.363	399.3
391.743	406.08
392.122	409.01
392.501	372.41
392.881	425.51
393.26	406.98
393.639	387.32
394.018	417.15
394.397	409.01
394.776	413.08
395.155	402.24
395.534	409.24
395.913	426.19
396.292	412.4
396.671	420.31
397.05	416.92
397.429	435.68
397.808	435.91
398.186	411.73
398.565	445.17
398.944	428.22
399.323	405.4
399.701	431.39
400.08	429.35
400.458	449.69
400.837	454.21
401.215	439.97
401.594	465.51
401.972	456.25
402.351	449.24
402.729	457.83
403.107	434.55
403.486	438.17
403.864	470.03
404.242	462.12
404.62	464.15
404.999	467.32
405.377	478.17
405.755	465.06
406.133	482.23
406.511	460.09
406.889	473.42
407.267	481.56
407.645	487.88
408.023	517.03
408.401	492.63
408.779	527.66
409.156	505.28
409.534	529.24
409.912	524.94
410.29	521.1
410.667	527.88
411.045	533.08
411.422	538.05
411.8	538.73
412.178	538.5
412.555	561.55
412.933	572.17
413.31	534.44
413.687	544.15
414.065	572.85
414.442	541.67
414.819	547.09
415.197	562.68
415.574	571.72
415.951	572.17
416.328	580.31
416.705	572.63
417.082	576.92
417.46	604.04
417.837	583.25
418.214	608.56
418.591	601.78
418.967	598.16
419.344	612.63
419.721	623.25
420.098	627.54
420.475	613.98
420.852	620.31
421.228	640.2
421.605	626.64
421.982	628.67
422.358	629.57
422.735	664.15
423.111	645.84
423.488	674.77
423.864	656.69
424.241	655.34
424.617	652.85
424.994	688.1
425.37	689.69
425.746	664.38
426.123	694.2
426.499	691.27
426.875	716.58
427.251	714.77
427.627	681.32
428.003	721.32
428.379	732.85
428.756	703.47
429.132	740.76
429.507	753.64
429.883	752.28
430.259	743.92
430.635	780.08
431.011	787.99
431.387	779.4
431.763	792.96
432.138	779.63
432.514	797.93
432.89	802.68
433.265	815.33
433.641	854.43
434.016	826.63
434.392	822.11
434.767	865.95
435.143	841.55
435.518	859.17
435.894	855.78
436.269	875.44
436.644	872.96
437.02	900.98
437.395	892.39
437.77	886.52
438.145	898.27
438.52	916.8
438.895	915.67
439.271	893.3
439.646	944.14
440.021	946.85
440.395	962.22
440.77	938.94
441.145	928.32
441.52	967.42
441.895	975.1
442.27	983.69
442.645	978.72
443.019	1000.19
443.394	1016.23
443.769	1015.78
444.143	1021.88
444.518	1033.86
444.892	993.86
445.267	1036.12
445.641	1034.08
446.016	1024.37
446.39	1053.74
446.764	1047.87
447.139	1048.09
447.513	1052.39
447.887	1061.2
448.262	1067.3
448.636	1082.44
449.01	1074.76
449.384	1079.05
449.758	1100.52
450.132	1136
450.506	1138.94
450.88	1108.88
451.254	1142.1
451.628	1147.3
452.002	1166.28
452.376	1140.07
452.75	1162.67
453.123	1165.6
453.497	1187.75
453.871	1193.17
454.244	1213.06
454.618	1229.56
454.992	1229.33
455.365	1219.84
455.739	1242.21
456.112	1268.2
456.486	1321.53
456.859	1284.02
457.232	1322.66
457.606	1317.24
457.979	1349.78
458.352	1382.55
458.725	1363.57
459.099	1395.2
459.472	1419.61
459.845	1404.69
460.218	1402.21
460.591	1443.11
460.964	1454.64
461.337	1486.95
461.71	1516.78
462.083	1532.15
462.456	1550.91
462.829	1522.66
463.201	1544.13
463.574	1582.09
463.947	1607.85
464.32	1632.26
464.692	1601.98
465.065	1649.66
465.438	1675.87
465.81	1692.14
466.183	1690.34
466.555	1737.34
466.928	1730.11
467.3	1756.78
467.672	1778.7
468.045	1847.39
468.417	1849.43
468.789	1831.58
469.161	1886.94
469.534	1951.57
469.906	1922.42
470.278	1951.12
470.65	1990.44
471.022	2022.31
471.394	2015.3
471.766	2090.1
472.138	2081.29
472.51	2147.5
472.882	2154.28
473.253	2199.7
473.625	2196.99
473.997	2300.94
474.369	2310.21
474.74	2315.18
475.112	2342.3
475.484	2431.33
475.855	2441.5
476.227	2478.11
476.598	2559.24
476.97	2564.21
477.341	2648.96
477.713	2652.8
478.084	2674.49
478.455	2750.87
478.827	2806.47
479.198	2910.87
479.569	2908.61
479.94	2989.29
480.311	2996.07
480.682	3090.53
481.053	3163.52
481.424	3220.92
481.795	3225.66
482.166	3311.54
482.537	3334.14
482.908	3415.04
483.279	3476.5
483.65	3567.12
484.021	3618.87
484.391	3655.48
484.762	3719.89
485.133	3746.33
485.503	3801.24
485.874	3922.37
486.244	3973.44
486.615	4063.61
486.985	4066.55
487.356	4160.1
487.726	4186.77
488.097	4313.09
488.467	4337.95
488.837	4402.58
489.207	4470.38
489.578	4541.79
489.948	4633.76
490.318	4717.6
490.688	4724.38
491.058	4737.71
491.428	4845.28
491.798	4956.24
492.168	5016.58
492.538	5068.1
492.908	5138.61
493.278	5191.49
493.648	5239.17
494.017	5252.96
494.387	5315.1
494.757	5370.24
495.126	5431.93
495.496	5506.96
495.866	5546.05
496.235	5587.64
496.605	5659.5
496.974	5700.63
497.344	5744.69
497.713	5774.07
498.082	5864.69
498.452	5887.06
498.821	5996.44
499.19	5950.79
499.559	6036.89
499.928	6057.45
500.298	6097.23
500.667	6136.55
501.036	6169.32
501.405	6263.1
501.774	6248.86
502.143	6296.09
502.512	6289.54
502.88	6397.33
503.249	6439.36
503.618	6471.68
503.987	6487.27
504.356	6498.35
504.724	6619.92
505.093	6596.2
505.462	6654.73
505.83	6711.67
506.199	6703.76
506.567	6831.22
506.936	6783.31
507.304	6891.1
507.672	6927.71
508.041	6923.42
508.409	6994.83
508.777	7024.43
509.145	7070.99
509.514	7039.12
509.882	7117.99
510.25	7165
510.618	7159.57
510.986	7235.5
511.354	7269.17
511.722	7276.86
512.09	7414.71
512.458	7364.31
512.826	7441.82
513.193	7457.64
513.561	7571.09
513.929	7518.66
514.297	7636.17
514.664	7718.2
515.032	7690.18
515.4	7744.42
515.767	7791.87
516.135	7818.31
516.502	7770.18
516.869	7852.66
517.237	7960.45
517.604	7919.1
517.972	7943.05
518.339	8049.27
518.706	7997.06
519.073	8027.12
519.44	8100.56
519.808	8127.68
520.175	8200
520.542	8330.61
520.909	8272.08
521.276	8313.67
521.643	8331.07
522.009	8426.2
522.376	8467.79
522.743	8543.49
523.11	8617.16
523.477	8665.97
523.843	8714.11
524.21	8728.8
524.577	8866.42
524.943	8885.63
525.31	8885.18
525.676	8994.1
526.043	9002.46
526.409	9059.63
526.776	9111.61
527.142	9204.49
527.508	9233.64
527.874	9265.96
528.241	9364.71
528.607	9325.62
528.973	9446.52
529.339	9420.76
529.705	9493.3
530.071	9631.6
530.437	9653.74
530.803	9613.07
531.169	9753.4
531.535	9748.88
531.901	9791.82
532.267	9797.47
532.632	9941.87
532.998	9898.93
533.364	10038.82
533.73	10040.85
534.095	10134.86
534.461	10145.03
534.826	10140.06
535.192	10246.27
535.557	10278.81
535.923	10281.3
536.288	10325.14
536.653	10466.6
537.019	10416.44
537.384	10529.2
537.749	10478.58
538.114	10583.21
538.479	10544.79
538.845	10649.42
539.21	10614.4
539.575	10671.8
539.94	10727.39
540.305	10836.31
540.67	10810.78
541.034	10853.71
541.399	10877.67
541.764	10924.22
542.129	11044.44
542.494	11096.87
542.858	11098
543.223	11086.25
543.587	11170.99
543.952	11186.13
544.316	11254.83
544.681	11294.15
545.045	11304.77
545.41	11425.22
545.774	11472.68
546.138	11452.11
546.503	11469.06
546.867	11538.44
547.231	11570.08
547.595	11564.65
547.959	11692.79
548.324	11676.29
548.688	11752.45
549.052	11720.81
549.416	11818.43
549.779	11897.3
550.143	11801.48
550.507	12015.26
550.871	12047.58
551.235	11956.28
551.599	12130.97
551.962	12097.97
552.326	12209.16
552.689	12208.93
553.053	12180.46
553.417	12253.9
553.78	12460.45
554.143	12356.05
554.507	12374.12
554.87	12433.11
555.234	12571.63
555.597	12553.78
555.96	12570.95
556.323	12715.81
556.686	12702.02
557.05	12669.26
557.413	12760.33
557.776	12739.99
558.139	12871.96
558.502	12864.28
558.865	12820.89
559.228	12986.31
559.59	13099.08
559.953	13084.39
560.316	13194.22
560.679	13231.28
561.041	13283.7
561.404	13352.63
561.767	13409.8
562.129	13442.34
562.492	13483.25
562.854	13517.82
563.217	13476.92
563.579	13504.72
563.941	13636.46
564.304	13743.13
564.666	13752.17
565.028	13807.08
565.39	13873.97
565.753	13935.66
566.115	13945.38
566.477	14007.53
566.839	14064.02
567.201	14122.33
567.563	14217.92
567.925	14260.63
568.287	14285.49
568.648	14218.82
569.01	14404.8
569.372	14466.5
569.734	14395.31
570.095	14509.21
570.457	14567.96
570.819	14651.58
571.18	14694.29
571.542	14874.62
571.903	14856.54
572.265	14888.41
572.626	14968.63
572.987	15033.71
573.349	15088.85
573.71	15106.71
574.071	15189.87
574.432	15312.13
574.794	15470.54
575.155	15465.34
575.516	15479.8
575.877	15588.5
576.238	15684.77
576.599	15774.26
576.96	15874.6
577.32	15909.17
577.681	16138.77
578.042	16207.7
578.403	16182.61
578.763	16358.2
579.124	16540.57
579.485	16622.83
579.845	16785.08
580.206	16915.25
580.566	16959.77
580.927	17066.43
581.287	17387.55
581.648	17455.8
582.008	17700.76
582.368	17719.52
582.728	17931.49
583.089	18108.44
583.449	18271.37
583.809	18375.77
584.169	18607.86
584.529	18763.33
584.889	19080.39
585.249	19155.19
585.609	19322.87
585.969	19650.32
586.329	19737.09
586.688	20183.86
587.048	20333.91
587.408	20507.7
587.768	20803.96
588.127	21021.13
588.487	21332.76
588.846	21717.83
589.206	21860.88
589.565	22162.12
589.925	22606.4
590.284	22753.29
590.643	23074.18
591.003	23419.71
591.362	23841.84
591.721	24114.38
592.08	24388.27
592.44	24838.2
592.799	25029.16
593.158	25277.74
593.517	25695.81
593.876	26072.29
594.235	26326.07
594.593	26710.47
594.952	27038.37
595.311	27275.88
595.67	27669.54
596.029	28221.62
596.387	28559.69
596.746	28896.18
597.104	29135.72
597.463	29504.07
597.822	29993.1
598.18	30085.97
598.538	30518.28
598.897	31009.34
599.255	31087.98
599.613	31887.51
599.972	32120.5
600.33	32513.48
600.688	32635.29
601.046	33049.29
601.404	33604.53
601.762	33804.52
602.12	34225.07
602.478	34708
602.836	34917.03
603.194	35036.8
603.552	35525.15
603.91	35716.33
604.268	36143.22
604.625	36376.2
604.983	36820.26
605.341	36919.69
605.698	37469.51
606.056	37884.64
606.413	37972.55
606.771	38374.57
607.128	38684.84
607.485	38836.03
607.843	39099.07
608.2	39568.44
608.557	39801.88
608.914	40072.38
609.272	40584.46
609.629	40712.81
609.986	41141.05
610.343	41185.34
610.7	41567.25
611.057	41826.91
611.414	42066.9
611.771	42342.38
612.127	42599.32
612.484	42873.66
612.841	43137.83
613.198	43073.88
613.554	43514.1
613.911	43841.32
614.267	43880.41
614.624	43936.46
614.98	44277.69
615.337	44695.31
615.693	44680.17
616.05	44839.26
616.406	45197.67
616.762	45303.65
617.118	45308.85
617.475	45584.32
617.831	45883.53
618.187	46008.27
618.543	46131.2
618.899	46566.45
619.255	46558.76
619.611	46591.98
619.967	46960.78
620.323	47018.18
620.678	47036.26
621.034	47070.16
621.39	47140.22
621.746	47212.3
622.101	47737.94
622.457	47476.7
622.812	47732.52
623.168	47916.24
623.523	47902.46
623.879	48178.15
624.234	48086.41
624.589	48241.43
624.945	48341.99
625.3	48397.81
625.655	48470.8
626.01	48587.18
626.365	48684.58
626.72	48669.67
627.075	48670.12
627.43	48710.12
627.785	48745.37
628.14	48935.2
628.495	49177.68
628.85	48919.15
629.205	48936.33
629.559	49186.49
629.914	49064.91
630.269	49162.08
630.623	49132.03
630.978	49089.32
631.332	49333.15
631.687	49473.71
632.041	49277.79
632.396	49330.89
632.75	49289.99
633.104	49416.77
633.459	49336.99
633.813	49453.6
634.167	49326.6
634.521	49418.12
634.875	49495.63
635.229	49496.54
635.583	49450.44
635.937	49365.02
636.291	49351
636.645	49463.54
636.999	49383.09
637.352	49378.57
637.706	49336.09
638.06	49474.84
638.413	49361.85
638.767	49334.06
639.121	49488.85
639.474	49230.1
639.828	49178.13
640.181	49242.76
640.534	49322.08
640.888	49251.57
641.241	49195.08
641.594	49191.23
641.947	49341.51
642.301	49264.68
642.654	49354.85
643.007	49277.11
643.36	49266.04
643.713	49179.94
644.066	49386.03
644.419	49166.83
644.771	48911.92
645.124	48675.99
645.477	48627.18
645.83	48298.15
646.182	48219.51
646.535	48183.13
646.888	48269.68
647.24	48147.87
647.593	48275.55
647.945	48195.33
648.298	48032.62
648.65	48005.96
649.002	47927.31
649.355	47926.41
649.707	48017.03
650.059	48151.71
650.411	48616.33
650.763	48559.61
651.115	49059.26
651.467	48879.83
651.819	48916.44
652.171	48776.56
652.523	48658.82
652.875	48814.75
653.227	48539.95
653.578	48918.25
653.93	48817.46
654.282	48651.81
654.633	48620.85
654.985	48615.66
655.337	48708.76
655.688	48725.03
656.039	48855.88
656.391	48572.27
656.742	48690.91
657.094	48657.92
657.445	48875.08
657.796	48663.57
658.147	48562.78
658.498	48484.13
658.849	48737.01
659.2	48653.4
659.551	48419.96
659.902	48480.52
660.253	48532.72
660.604	48508.77
660.955	48427.19
661.306	48502.44
661.656	48478.94
662.007	48523
662.358	48577.47
662.708	48505.38
663.059	48497.02
663.409	48205.27
663.76	48514.42
664.11	48469.45
664.461	48556
664.811	48432.84
665.161	48446.85
665.511	48400.52
665.862	48510.35
666.212	48568.43
666.562	48458.82
666.912	48376.57
667.262	48407.98
667.612	48362.56
667.962	48435.55
668.312	48233.75
668.662	48473.06
669.011	48291.82
669.361	48408.43
669.711	48210.02
670.06	48240.3
670.41	48145.61
670.76	48188.1
671.109	48264.48
671.459	48227.64
671.808	48184.26
672.157	48201.43
672.507	48122.11
672.856	48077.59
673.205	48166.63
673.554	48326.4
673.904	48068.55
674.253	48300.86
674.602	48083.92
674.951	47622.46
675.3	47374.79
675.649	48061.1
675.998	48054.32
676.346	47936.35
676.695	48130.47
677.044	47831.95
677.393	47958.72
677.741	47986.29
678.09	47881.21
678.438	47730.71
678.787	47885.73
679.135	47963.02
679.484	47700.88
679.832	47700.88
680.181	47528.23
680.529	47724.15
680.877	47570.49
681.225	47397.84
681.573	47664.95
681.922	47450.26
682.27	47284.62
682.618	47497.72
682.966	47172.3
683.314	47314
683.661	47163.04
684.009	46943.38
684.357	46974.12
684.705	46979.77
685.053	46964.63
685.4	46958.98
685.748	46715.37
686.095	46810.96
686.443	46530.29
686.79	46613.22
687.138	46562.6
687.485	46490.29
687.832	46439.67
688.18	46537.52
688.527	46273.57
688.874	46252.33
689.221	46172.11
689.568	46168.49
689.915	46015.5
690.262	46058.21
690.609	45738.67
690.956	45702.51
691.303	45644.44
691.65	45542.74
691.997	45419.13
692.344	45167.16
692.69	45238.34
693.037	45076.31
693.383	45008.75
693.73	44912.03
694.077	44869.31
694.423	44863.21
694.769	44713.84
695.116	44602.65
695.462	44472.71
695.808	44428.65
696.155	44572.37
696.501	44004.25
696.847	44136.68
697.193	43931.94
697.539	43985.5
697.885	43618.05
698.231	43778.5
698.577	43762.9
698.923	43710.47
699.269	43499.41
699.614	43291.28
699.96	43084.73
700.306	43186.65
700.651	43026.65
700.997	42924.05
701.342	42956.37
701.688	42798.18
702.033	42652.65
702.379	42516.38
702.724	42546.44
703.069	42698.3
703.415	42143.28
703.76	42282.04
704.105	42295.37
704.45	42099.9
704.795	41761.83
705.14	41840.69
705.485	41846.57
705.83	41560.93
706.175	41703.3
706.52	41532
706.865	41316.41
707.209	41362.97
707.554	41289.75
707.899	41291.33
708.243	41056.53
708.588	41017.21
708.932	40746.94
709.277	40761.85
709.621	40764.56
709.966	40393.5
710.31	40579.94
710.654	40258.59
710.998	40300.4
711.342	40207.06
711.687	40166.16
712.031	40065.6
712.375	39878.94
712.719	40001.42
713.063	39797.81
713.407	40011.59
713.75	39621.32
714.094	39646.63
714.438	39528.66
714.782	39617.7
715.125	39439.17
715.469	39475.11
715.812	39444.6
716.156	39004.38
716.499	39132.52
716.843	39181.1
717.186	38896.82
717.53	39043.25
717.873	39022.69
718.216	38913.31
718.559	38775.24
718.902	38560.1
719.246	38590.16
719.589	38539.54
719.932	38291.63
720.275	38436.94
720.617	38424.74
720.96	38141.36
721.303	38281.69
721.646	38218.19
721.989	38015.26
722.331	38131.64
722.674	38074.24
723.016	37957.41
723.359	37899.33
723.701	37993.34
724.044	37630.86
724.386	37606.45
724.729	37726.23
725.071	37646.91
725.413	37577.75
725.755	37478.77
726.097	37372.34
726.439	37169.63
726.782	37100.71
727.124	37381.6
727.465	37102.06
727.807	37095.28
728.149	36981.39
728.491	36930.99
728.833	36951.33
729.175	36841.28
729.516	36877.43
729.858	36766.7
730.199	36821.62
730.541	36740.04
730.882	36669.98
731.224	36732.81
731.565	36493.04
731.906	36641.51
732.248	36448.52
732.589	36250.78
732.93	36118.81
733.271	36186.61
733.612	36239.94
733.953	36194.97
734.294	36031.58
734.635	35957.01
734.976	35961.53
735.317	35968.53
735.658	35834.52
735.999	35872.94
736.339	35784.36
736.68	35906.61
737.021	35696.22
737.361	35567.41
737.702	35758.59
738.042	35578.94
738.383	35604.7
738.723	35646.51
739.063	35524.48
739.404	35625.49
739.744	35444.25
740.084	35315.89
740.424	35383.01
740.764	35132.62
741.104	35346.63
741.444	35131.72
741.784	35067.31
742.124	35230.02
742.464	35044.04
742.804	34960.87
743.143	34830.93
743.483	34896.02
743.823	34635.91
744.162	34621.9
744.502	34718.4
744.841	34577.38
745.181	34630.49
745.52	34489.93
745.86	34501.68
746.199	34564.27
746.538	34290.16
746.877	34516.82
747.216	34428.01
747.556	34348.46
747.895	34268.92
748.234	34203.38
748.573	34234.34
748.911	34021.92
749.25	34139.65
749.589	33955.93
749.928	33974.46
750.267	34079.09
750.605	33860.11
750.944	33820.57
751.283	33616.05
751.621	33760
751.96	33533.79
752.298	33525.88
752.636	33585.32
752.975	33362.27
753.313	33321.14
753.651	33361.37
753.989	33240.02
754.327	33140.36
754.666	32982.17
755.004	32990.53
755.342	33007.03
755.679	33080.92
756.017	32685.68
756.355	32922.06
756.693	32564.33
757.031	32760.03
757.368	32463.54
757.706	32520.03
758.044	32383.54
758.381	32408.63
758.719	32351.68
759.056	32243.66
759.394	32159.14
759.731	31991.91
760.068	31941.74
760.405	31781.75
760.743	31775.65
761.08	31922.76
761.417	31694.97
761.754	31617.91
762.091	31521.19
762.428	31431.7
762.765	31313.29
763.102	31308.54
763.438	31144.03
763.775	31066.06
764.112	30981.09
764.449	30979.51
764.785	30976.35
765.122	30754.21
765.458	30526.41
765.795	30629.24
766.131	30496.36
766.467	30471.05
766.804	30259.76
767.14	30120.55
767.476	30162.13
767.812	29945.64
768.148	29979.76
768.485	29791.52
768.821	29668.13
769.157	29631.07
769.492	29561.69
769.828	29540.45
770.164	29245.09
770.5	29238.54
770.836	29227.69
771.171	29073.35
771.507	28941.6
771.842	28852.79
772.178	28754.48
772.513	28799
772.849	28715.16
773.184	28460.93
773.519	28523.08
773.855	28294.84
774.19	28281.28
774.525	28143.88
774.86	28140.71
775.195	27955.18
775.53	27813.94
775.865	27585.93
776.2	27529.88
776.535	27272.49
776.87	27259.38
777.205	27235.43
777.539	27093.74
777.874	27215.77
778.209	26921.09
778.543	26862.33
778.878	26804.03
779.212	26726.06
779.547	26566.97
779.881	26574.2
780.215	26417.82
780.55	26481.1
780.884	26286.3
781.218	26188
781.552	26125.85
781.886	26008.12
782.22	26048.34
782.554	25885.41
782.888	25634.34
783.222	25455.14
783.556	25425.53
783.889	25374.91
784.223	25202.49
784.557	25188.93
784.89	25112.55
785.224	25060.57
785.557	24926.79
785.891	24803.18
786.224	24751.2
786.558	24823.74
786.891	24553.01
787.224	24412.9
787.557	24221.95
787.891	24286.13
788.224	24347.59
788.557	24320.7
788.89	24100.37
789.223	24144.89
789.556	23986.02
789.888	23901.5
790.221	23829.64
790.554	23678.01
790.887	23551.46
791.219	23513.72
791.552	23423.78
791.884	23404.57
792.217	23409.99
792.549	23203.67
792.882	23089.32
793.214	23125.71
793.546	22974.3
793.879	22801.87
794.211	22649.33
794.543	22739.27
794.875	22712.61
795.207	22680.07
795.539	22550.81
795.871	22563.91
796.203	22439.85
796.535	22298.16
796.867	22270.59
797.198	22140.65
797.53	22152.62
797.862	21937.04
798.193	21941.56
798.525	21806.19
798.856	21914.44
799.188	21621.34
799.519	21578.63
799.85	21433.32
800.182	21512.64
800.513	21491.62
800.844	21269.03
801.175	21444.17
801.506	21334.34
801.837	21204.17
802.168	21112.65
802.499	21082.6
802.83	21028.36
803.161	20978.64
803.491	20880.79
803.822	20892.77
804.153	20836.73
804.483	20604.87
804.814	20562.84
805.145	20489.16
805.475	20564.87
805.805	20448.71
806.136	20434.93
806.466	20378.66
806.796	20236.29
807.126	20126.91
807.457	20183.86
807.787	20125.56
808.117	20004.88
808.447	20047.82
808.777	19937.31
809.107	19900.93
809.436	19840.37
809.766	19848.73
810.096	19845.11
810.426	19716.98
810.755	19653.25
811.085	19604.67
811.414	19679.69
811.744	19439.02
812.073	19356.09
812.403	19317.67
812.732	19291.68
813.061	19236.99
813.39	19104.34
813.719	19110.67
814.049	19240.38
814.378	19093.72
814.707	19127.84
815.036	19056.43
815.365	18909.55
815.693	18667.74
816.022	18736.67
816.351	18844.01
816.68	18582.32
817.008	18751.36
817.337	18497.58
817.665	18406.51
817.994	18575.77
818.322	18486.96
818.651	18487.64
818.979	18352.27
819.307	18516.79
819.636	18342.78
819.964	18232.5
820.292	18313.63
820.62	18321.54
820.948	18156.34
821.276	18236.34
821.604	18153.18
821.932	18090.58
822.259	18191.82
822.587	18120.64
822.915	18082
823.243	18166.29
823.57	18034.99
823.898	17989.34
824.225	18031.15
824.553	17990.02
824.88	17983.47
825.207	18044.71
825.535	18079.96
825.862	18064.14
826.189	17952.51
826.516	18119.96
826.843	18140.07
827.17	18002.9
827.497	18075.44
827.824	18006.97
828.151	18065.05
828.478	17967.2
828.805	18194.76
829.131	17970.59
829.458	17989.57
829.785	17863.7
830.111	17938.27
830.438	17970.59
830.764	17994.09
831.09	18004.26
831.417	17942.34
831.743	17985.5
832.069	17992.06
832.395	17873.64
832.722	17944.6
833.048	17789.35
833.374	17918.84
833.7	17811.95
834.026	17826.64
834.351	17862.12
834.677	17877.03
835.003	17791.16
835.329	17769.46
835.654	17787.09
835.98	17667.32
836.306	17733.98
836.631	17726.07
836.956	17837.26
837.282	17816.92
837.607	17652.63
837.932	17573.76
838.258	17634.55
838.583	17625.74
838.908	17417.61
839.233	17559.07
839.558	17433.88
839.883	17422.8
840.208	17332.86
840.533	17274.79
840.858	17250.15
841.182	17242.92
841.507	17288.57
841.832	17272.53
842.156	17170.16
842.481	17125.19
842.805	17104.85
843.13	17029.82
843.454	16908.02
843.778	17010.39
844.103	16979.2
844.427	16855.59
844.751	16905.76
845.075	16745.53
845.399	16702.82
845.723	16742.14
846.047	16711.41
846.371	16474.35
846.695	16466.45
847.019	16384.64
847.343	16330.4
847.666	16261.03
847.99	16149.84
848.313	16134.48
848.637	16098.09
848.96	16127.02
849.284	15917.08
849.607	15854.48
849.931	15835.73
850.254	15694.94
850.577	15635.28
850.9	15522.97
851.223	15648.16
851.546	15495.85
851.869	15419.24
852.192	15429.41
852.515	15241.39
852.838	15158.68
853.161	15138.57
853.483	15101.06
853.806	15055.18
854.129	15101.28
854.451	14973.6
854.774	14875.07
855.096	14896.32
855.419	14887.28
855.741	14845.25
856.063	14777
856.385	14697.23
856.708	14637.12
857.03	14582.2
857.352	14565.03
857.674	14501.53
857.996	14438.7
858.318	14365.71
858.64	14425.82
858.961	14466.5
859.283	14299.5
859.605	14269.67
859.926	14316.45
860.248	14236
860.57	14239.16
860.891	14182.44
861.212	14056.57
861.534	14020.18
861.855	14024.93
862.176	14043.91
862.498	13960.07
862.819	13955.55
863.14	13833.07
863.461	13938.15
863.782	13864.93
864.103	13871.94
864.424	13864.48
864.745	13782.9
865.065	13710.81
865.386	13636.01
865.707	13710.81
866.027	13622.23
866.348	13619.97
866.668	13644.37
866.989	13550.59
867.309	13520.99
867.63	13564.37
867.95	13468.11
868.27	13449.8
868.59	13503.36
868.91	13435.56
869.23	13504.94
869.55	13311.05
869.87	13365.06
870.19	13359.63
870.51	13345.62
870.83	13333.42
871.15	13290.71
871.469	13278.96
871.789	13401.67
872.109	13205.97
872.428	13199.19
872.748	13107.44
873.067	13189.47
873.386	13130.04
873.706	13087.33
874.025	13022.47
874.344	12997.84
874.663	13010.04
874.982	13042.35
875.301	12990.83
875.62	12942.7
875.939	12923.71
876.258	12937.27
876.577	12900.89
876.896	12955.35
877.214	12826.77
877.533	12846.65
877.852	12817.95
878.17	12790.16
878.489	12852.53
878.807	12749.26
879.125	12740.44
879.444	12764.85
879.762	12669.71
880.08	12682.14
880.398	12650.73
880.716	12742.7
881.034	12611.63
881.352	12686.21
881.67	12474.01
881.988	12514.23
882.306	12461.58
882.624	12439.21
882.941	12362.6
883.259	12321.02
883.577	12330.06
883.894	12375.48
884.212	12331.87
884.529	12344.29
884.846	12285.09
885.164	12253.45
885.481	12250.29
885.798	12250.29
886.115	12072.66
886.432	12151.3
886.75	12130.51
887.067	12139.55
887.383	12046.67
887.7	12066.56
888.017	12031.08
888.334	11957.19
888.651	11954.02
888.967	11888.49
889.284	11860.24
889.6	11825.44
889.917	11760.58
890.233	11723.75
890.55	11706.34
890.866	11741.15
891.182	11698.44
891.498	11601.94
891.815	11576.4
892.131	11537.76
892.447	11505.9
892.763	11472.9
893.079	11417.76
893.395	11340.48
893.71	11352.68
894.026	11382.51
894.342	11316.75
894.657	11194.27
894.973	11166.02
895.289	11270.42
895.604	11171.44
895.92	11074.5
896.235	11082.63
896.55	11143.2
896.865	10996.53
897.181	11015.52
897.496	10924.44
897.811	10905.24
898.126	10877.67
898.441	10783.66
898.756	10821.4
899.071	10789.31
899.386	10786.14
899.7	10653.94
900.015	10609.42
900.33	10520.61
900.644	10493.04
900.959	10569.43
901.273	10536.21
901.588	10476.55
901.902	10397.23
902.216	10458.92
902.531	10366.72
902.845	10292.14
903.159	10283.56
903.473	10210.79
903.787	10197.23
904.101	10160.62
904.415	10108.42
904.729	10120.62
905.042	10010.8
905.356	9959.95
905.67	9967.63
905.984	10042.21
906.297	9890.35
906.611	9841.99
906.924	9850.35
907.237	9857.35
907.551	9825.04
907.864	9693.29
908.177	9661.2
908.491	9681.99
908.804	9629.34
909.117	9578.27
909.43	9465.73
909.743	9452.39
910.056	9438.16
910.368	9459.4
910.681	9378.5
910.994	9361.32
911.307	9339.85
911.619	9277.93
911.932	9249.01
912.244	9151.84
912.557	9177.15
912.869	9131.05
913.181	9072.97
913.494	9145.28
913.806	8990.03
914.118	8986.64
914.43	8921.79
914.742	8865.29
915.054	8880.88
915.366	8743.26
915.678	8784.84
915.99	8743.71
916.302	8625.3
916.613	8614
916.925	8634.56
917.236	8578.52
917.548	8516.82
917.859	8527.45
918.171	8477.05
918.482	8441.8
918.794	8393.44
919.105	8424.85
919.416	8322.25
919.727	8385.08
920.038	8270.05
920.349	8225.76
920.66	8207.45
920.971	8215.14
921.282	8132.65
921.593	8107.57
921.903	8049.72
922.214	8089.94
922.525	8003.17
922.835	7937.4
923.146	7921.36
923.456	7881.13
923.767	7820.8
924.077	7855.15
924.387	7771.76
924.697	7689.5
925.008	7701.93
925.318	7609.5
925.628	7633.23
925.938	7627.81
926.248	7558.66
926.558	7473.69
926.867	7511.2
927.177	7493.57
927.487	7435.95
927.796	7368.38
928.106	7371.32
928.416	7333.35
928.725	7343.75
929.034	7212.9
929.344	7290.42
929.653	7188.05
929.962	7222.17
930.271	7153.92
930.581	7140.82
930.89	7114.38
931.199	6997.09
931.508	6995.96
931.817	7016.52
932.125	6958.22
932.434	7012.23
932.743	6831.22
933.051	6888.39
933.36	6811.78
933.669	6813.14
933.977	6774.27
934.286	6782.63
934.594	6780.15
934.902	6699.92
935.21	6673.48
935.519	6652.92
935.827	6626.25
936.135	6579.93
936.443	6525.01
936.751	6554.39
937.059	6456.09
937.367	6511.91
937.674	6473.04
937.982	6409.99
938.29	6379.93
938.597	6373.6
938.905	6306.94
939.213	6262.19
939.52	6291.57
939.827	6209.54
940.135	6269.65
940.442	6239.6
940.749	6175.19
941.056	6209.09
941.363	6154.17
941.67	6101.97
941.977	6056.78
942.284	5982.65
942.591	5972.94
942.898	5992.82
943.205	5965.7
943.511	5944.46
943.818	5943.56
944.125	5863.56
944.431	5885.71
944.738	5803
945.044	5821.08
945.35	5765.94
945.657	5732.94
945.963	5700.17
946.269	5727.29
946.575	5671.7
946.881	5658.14
947.187	5702.66
947.493	5574.75
947.799	5521.87
948.105	5537.24
948.41	5472.16
948.716	5489.79
949.022	5519.84
949.327	5477.81
949.633	5414.08
949.938	5364.36
950.244	5407.98
950.549	5356
950.854	5342.9
951.16	5304.03
951.465	5328.89
951.77	5285.04
952.075	5249.79
952.38	5217.25
952.685	5219.74
952.99	5127.53
953.294	5171.38
953.599	5092.51
953.904	5098.16
954.209	5052.06
954.513	5050.25
954.818	5027.88
955.122	5020.64
955.426	5009.35
955.731	4964.38
956.035	4924.6
956.339	4949.46
956.643	4941.55
956.948	4874.43
957.252	4878.05
957.556	4834.21
957.86	4811.84
958.163	4781.1
958.467	4807.77
958.771	4787.43
959.075	4761.67
959.378	4718.05
959.682	4642.58
959.985	4707.21
960.289	4670.15
960.592	4650.03
960.896	4578.17
961.199	4593.31
961.502	4600.99
961.805	4554.89
962.108	4498.85
962.411	4505.18
962.714	4481.22
963.017	4468.12
963.32	4466.31
963.623	4473.31
963.926	4399.19
964.228	4381.79
964.531	4346.54
964.833	4380.89
965.136	4348.8
965.438	4283.49
965.741	4267.67
966.043	4258.4
966.345	4277.39
966.648	4214.11
966.95	4198.97
967.252	4223.15
967.554	4212.76
967.856	4125.3
968.158	4129.59
968.46	4157.62
968.761	4099.54
969.063	4121.23
969.365	4065.19
969.666	4048.92
969.968	4015.47
970.269	3996.72
970.571	4024.29
970.872	4029.94
971.174	3943.84
971.475	3949.26
971.776	3930.05
972.077	3938.41
972.378	3878.75
972.679	3893.89
972.98	3914.91
973.281	3871.07
973.582	3857.51
973.883	3855.93
974.183	3800.34
974.484	3794.01
974.785	3793.56
975.085	3761.47
975.386	3736.61
975.686	3732.77
975.986	3702.04
976.287	3671.53
976.587	3679.66
976.887	3677.63
977.187	3639.21
977.487	3624.52
977.787	3603.73
978.087	3576.16
978.387	3586.11
978.687	3552.66
978.987	3561.25
979.286	3509.27
979.586	3495.71
979.885	3480.35
980.185	3480.12
980.484	3460.23
980.784	3408.71
981.083	3431.76
981.382	3451.42
981.682	3417.52
981.981	3357.86
982.28	3403.29
982.579	3311.99
982.878	3332.55
983.177	3365.32
983.475	3315.38
983.774	3254.14
984.073	3276.06
984.372	3254.59
984.67	3252.78
984.969	3271.09
985.267	3219.11
985.566	3210.52
985.864	3182.95
986.162	3168.49
986.461	3142.28
986.759	3183.18
987.057	3073.35
987.355	3139.34
987.653	3074.03
987.951	3069.28
988.249	3062.5
988.547	3055.27
988.844	3044.43
989.142	3029.51
989.44	2957.42
989.737	3022.96
990.035	2971.21
990.332	2954.94
990.63	2934.6
990.927	2965.78
991.224	2938.89
991.521	2928.5
991.819	2902.51
992.116	2887.14
992.413	2849.85
992.71	2848.05
993.006	2838.1
993.303	2859.12
993.6	2819.8
993.897	2780.48
994.193	2800.82
994.49	2780.25
994.787	2761.27
995.083	2773.25
995.379	2756.3
995.676	2721.95
995.972	2687.37
996.268	2707.26
996.565	2659.58
996.861	2666.13
997.157	2651.67
997.453	2616.19
997.749	2637.2
998.044	2621.84
998.34	2588.17
998.636	2620.48
998.932	2593.14
999.227	2576.64
999.523	2530.54
999.818	2549.98
1000.114	2530.09
1000.409	2508.39
1000.704	2508.62
1001	2503.87
1001.295	2451.45
1001.59	2466.59
1001.885	2480.6
1002.18	2428.62
1002.475	2433.59
1002.77	2424.33
1003.065	2380.26
1003.359	2373.93
1003.654	2326.48
1003.949	2330.55
1004.243	2337.78
1004.538	2316.54
1004.832	2289.87
1005.127	2317.89
1005.421	2310.43
1005.715	2274.28
1006.009	2269.53
1006.304	2236.76
1006.598	2229.31
1006.892	2244.67
1007.186	2217.33
1007.48	2195.86
1007.773	2192.7
1008.067	2172.81
1008.361	2159.48
1008.655	2156.77
1008.948	2126.26
1009.242	2101.17
1009.535	2105.47
1009.829	2107.28
1010.122	2102.08
1010.415	2080.61
1010.708	2019.14
1011.001	2057.56
1011.295	1994.28
1011.588	1993.83
1011.881	1973.72
1012.173	1992.7
1012.466	1982.53
1012.759	1954.51
1013.052	1987.28
1013.344	1971.69
1013.637	1941.4
1013.93	1890.78
1014.222	1940.95
1014.514	1895.53
1014.807	1904.12
1015.099	1878.81
1015.391	1871.8
1015.683	1847.85
1015.976	1853.5
1016.268	1831.12
1016.56	1828.86
1016.851	1805.36
1017.143	1803.55
1017.435	1772.14
1017.727	1784.57
1018.018	1739.83
1018.31	1740.51
1018.602	1745.02
1018.893	1746.15
1019.185	1739.6
1019.476	1712.26
1019.767	1695.53
1020.058	1690.56
1020.35	1648.76
1020.641	1680.62
1020.932	1622.54
1021.223	1642.88
1021.514	1657.8
1021.804	1599.94
1022.095	1618.47
1022.386	1590.23
1022.677	1578.48
1022.967	1596.1
1023.258	1583.67
1023.548	1554.52
1023.839	1561.53
1024.129	1538.25
1024.419	1495.31
1024.709	1526.95
1025	1501.42
1025.29	1499.38
1025.58	1493.05
1025.87	1480.62
1026.16	1468.65
1026.449	1463.9
1026.739	1456.67
1027.029	1456.9
1027.319	1458.48
1027.608	1399.05
1027.898	1401.08
1028.187	1410.8
1028.477	1366.96
1028.766	1369.89
1029.055	1346.39
1029.344	1359.5
1029.634	1367.63
1029.923	1354.3
1030.212	1321.53
1030.501	1304.36
1030.79	1319.05
1031.078	1313.85
1031.367	1316.56
1031.656	1279.27
1031.945	1278.37
1032.233	1290.12
1032.522	1278.37
1032.81	1271.82
1033.099	1251.7
1033.387	1253.06
1033.675	1279.73
1033.963	1223.91
1034.251	1220.29
1034.54	1195.43
1034.828	1211.48
1035.116	1156.79
1035.403	1171.93
1035.691	1181.42
1035.979	1143.23
1036.267	1174.19
1036.554	1165.83
1036.842	1169.45
1037.129	1106.62
1037.417	1123.35
1037.704	1105.27
1037.992	1092.61
1038.279	1105.95
1038.566	1082.44
1038.853	1082.44
1039.14	1082.44
