Data from hue_340_FLMS001491_43.txt Node
Date: Mon Feb 06 15:43:09 GMT 2017
User: dcchb
Spectrometer: FLMS00149
Trigger mode: 0
Integration Time (sec): 2.000000E-2
Scans to average: 10
Electric dark correction enabled: true
Nonlinearity correction enabled: false
Boxcar width: 0
XAxis mode: Wavelengths
Number of Pixels in Spectrum: 2048
>>>>>Begin Spectral Data<<<<<
341.393	-22.57
341.776	-22.57
342.16	-22.57
342.543	-63.25
342.927	-61.89
343.31	-65.51
343.693	-70.03
344.077	-61.89
344.46	-37.94
344.843	-67.77
345.226	-37.48
345.61	-40.65
345.993	-21.67
346.376	-8.56
346.759	18.11
347.142	33.47
347.525	33.25
347.908	64.21
348.291	72.12
348.674	87.71
349.057	102.62
349.44	141.04
349.823	143.98
350.206	157.99
350.588	183.98
350.971	190.08
351.354	235.05
351.737	252.68
352.119	248.84
352.502	256.97
352.884	273.69
353.267	280.47
353.65	292.22
354.032	294.03
354.414	311.21
354.797	317.53
355.179	325.22
355.562	306.69
355.944	327.25
356.326	348.27
356.709	323.64
357.091	327.7
357.473	341.49
357.855	338.55
358.238	348.04
358.62	333.13
359.002	335.61
359.384	348.27
359.766	348.95
360.148	330.64
360.53	348.27
360.912	350.3
361.294	339.45
361.676	324.31
362.057	342.84
362.439	340.13
362.821	328.83
363.203	295.84
363.584	321.6
363.966	323.41
364.348	318.66
364.729	328.38
365.111	295.16
365.493	305.78
365.874	313.92
366.256	319.34
366.637	291.32
367.019	310.08
367.4	306.91
367.781	308.72
368.163	316.63
368.544	314.82
368.925	297.2
369.306	319.34
369.688	320.92
370.069	298.1
370.45	303.3
370.831	290.19
371.212	316.63
371.593	320.25
371.974	298.55
372.355	284.09
372.736	328.16
373.117	336.06
373.498	309.62
373.879	300.59
374.26	291.32
374.641	308.72
375.021	322.96
375.402	306.46
375.783	312.79
376.163	309.17
376.544	315.5
376.925	324.99
377.305	311.43
377.686	319.34
378.066	318.21
378.447	324.77
378.827	318.66
379.208	311.21
379.588	318.89
379.968	303.75
380.349	331.32
380.729	330.64
381.109	328.61
381.489	328.83
381.87	301.04
382.25	321.15
382.63	327.48
383.01	332.45
383.39	313.69
383.77	356.18
384.15	341.04
384.53	337.65
384.91	356.4
385.29	344.2
385.67	340.13
386.049	343.07
386.429	352.34
386.809	341.71
387.189	343.52
387.568	341.26
387.948	336.97
388.328	356.86
388.707	358.44
389.087	339.23
389.466	337.42
389.846	356.63
390.225	324.99
390.605	353.92
390.984	361.37
391.363	368.83
391.743	374.26
392.122	357.98
392.501	368.61
392.881	374.03
393.26	357.08
393.639	353.24
394.018	356.18
394.397	348.04
394.776	353.69
395.155	364.31
395.534	342.84
395.913	363.86
396.292	370.19
396.671	383.3
397.05	390.3
397.429	383.97
397.808	379.91
398.186	376.29
398.565	385.1
398.944	360.7
399.323	376.52
399.701	351.88
400.08	369.51
400.458	382.39
400.837	373.8
401.215	404.09
401.594	379.91
401.972	402.5
402.351	381.94
402.729	404.76
403.107	406.12
403.486	399.34
403.864	390.07
404.242	390.07
404.62	385.78
404.999	409.96
405.377	397.31
405.755	396.4
406.133	412.22
406.511	417.87
406.889	439.79
407.267	411.32
407.645	428.94
408.023	406.8
408.401	449.73
408.779	440.47
409.156	425.33
409.534	437.98
409.912	433.01
410.29	427.59
410.667	440.92
411.045	451.32
411.422	435.95
411.8	453.8
412.178	455.16
412.555	457.42
412.933	470.75
413.31	482.05
413.687	478.43
414.065	491.77
414.442	468.04
414.819	488.15
415.197	494.25
415.574	480.24
415.951	501.71
416.328	486.57
416.705	515.49
417.082	512.11
417.46	497.42
417.837	511.88
418.214	501.71
418.591	538.55
418.967	543.29
419.344	530.18
419.721	549.62
420.098	535.16
420.475	548.71
420.852	554.14
421.228	543.74
421.605	543.29
421.982	549.17
422.358	569.05
422.735	573.35
423.111	581.71
423.488	580.35
423.864	582.84
424.241	575.15
424.617	588.26
424.994	618.54
425.37	596.85
425.746	637.53
426.123	607.24
426.499	613.12
426.875	598.66
427.251	630.52
427.627	628.03
428.003	649.05
428.379	646.56
428.756	648.37
429.132	650.18
429.507	651.99
429.883	672.78
430.259	657.41
430.635	672.78
431.011	673
431.387	672.33
431.763	718.88
432.138	677.3
432.514	686.11
432.89	715.49
433.265	702.61
433.641	705.77
434.016	741.93
434.392	727.92
434.767	734.7
435.143	725.66
435.518	746.22
435.894	750.97
436.269	763.4
436.644	792.78
437.02	757.3
437.395	775.15
437.77	789.84
438.145	784.41
438.52	789.39
438.895	800.69
439.271	814.47
439.646	831.42
440.021	802.49
440.395	825.32
440.77	814.47
441.145	823.96
441.52	834.13
441.895	851.98
442.27	848.82
442.645	831.87
443.019	846.33
443.394	841.36
443.769	875.03
444.143	872.55
444.518	844.3
444.892	849.5
445.267	879.33
445.641	884.75
446.016	885.88
446.39	908.7
446.764	879.55
447.139	868.48
447.513	928.37
447.887	903.73
448.262	908.7
448.636	917.29
449.01	902.6
449.384	900.34
449.758	927.01
450.132	932.66
450.506	932.66
450.88	943.51
451.254	916.61
451.628	941.47
452.002	975.37
452.376	927.24
452.75	954.58
453.123	961.81
453.497	974.69
453.871	992.54
454.244	978.99
454.618	1003.62
454.992	994.35
455.365	1001.58
455.739	1028.7
456.112	1011.08
456.486	1053.33
456.859	1037.29
457.232	1046.33
457.606	1058.98
457.979	1061.7
458.352	1063.05
458.725	1088.36
459.099	1070.73
459.472	1093.33
459.845	1105.08
460.218	1091.98
460.591	1141.69
460.964	1116.16
461.337	1139.66
461.71	1194.35
462.083	1152.31
462.456	1161.35
462.829	1154.57
463.201	1195.7
463.574	1196.61
463.947	1188.7
464.32	1229.15
464.692	1256.04
465.065	1214.69
465.438	1257.17
465.81	1293.55
466.183	1277.51
466.555	1296.49
466.928	1312.31
467.3	1317.73
467.672	1313.67
468.045	1362.03
468.417	1354.79
468.789	1343.5
469.161	1371.74
469.534	1386.66
469.906	1403.38
470.278	1419.43
470.65	1401.8
471.022	1439.31
471.394	1466.88
471.766	1455.13
472.138	1518.63
472.51	1524.28
472.882	1534
473.253	1570.61
473.625	1569.93
473.997	1593.43
474.369	1596.14
474.74	1600.21
475.112	1652.87
475.484	1654.45
475.855	1674.79
476.227	1687.89
476.598	1754.33
476.97	1748
477.341	1801.11
477.713	1808.34
478.084	1854.89
478.455	1846.76
478.827	1845.86
479.198	1920.43
479.569	1915.68
479.94	1981.22
480.311	1976.02
480.682	2016.02
481.053	2075
481.424	2090.59
481.795	2065.74
482.166	2118.84
482.537	2141.44
482.908	2206.75
483.279	2228.67
483.65	2227.54
484.021	2299.4
484.391	2324.94
484.762	2324.71
485.133	2342.34
485.503	2363.81
485.874	2441.55
486.244	2458.72
486.615	2525.39
486.985	2512.28
487.356	2534.42
487.726	2571.26
488.097	2638.15
488.467	2585.95
488.837	2651.94
489.207	2707.3
489.578	2736.68
489.948	2768.54
490.318	2795.21
490.688	2804.02
491.058	2833.63
491.428	2851.25
491.798	2928.76
492.168	2950.23
492.538	2989.55
492.908	2935.77
493.278	2992.27
493.648	3040.63
494.017	3058.03
494.387	3058.93
494.757	3098.7
495.126	3178.25
495.496	3174.18
495.866	3224.35
496.235	3191.81
496.605	3192.94
496.974	3272.26
497.344	3258.02
497.713	3312.48
498.082	3300.05
498.452	3314.29
498.821	3386.83
499.19	3324.01
499.559	3377.79
499.928	3391.8
500.298	3397.23
500.667	3438.36
501.036	3446.72
501.405	3504.34
501.774	3483.1
502.143	3531.23
502.512	3494.17
502.88	3582.31
503.249	3578.92
503.618	3585.7
503.987	3580.27
504.356	3568.97
504.724	3589.99
505.093	3620.95
505.462	3651.91
505.83	3677.67
506.199	3664.11
506.567	3709.31
506.936	3688.97
507.304	3766.93
507.672	3768.52
508.041	3752.02
508.409	3761.51
508.777	3836.54
509.145	3766.71
509.514	3775.07
509.882	3866.37
510.25	3815.75
510.618	3852.13
510.986	3853.49
511.354	3911.79
511.722	3890.55
512.09	3983.2
512.458	3963.99
512.826	3983.2
513.193	3996.99
513.561	3983.2
513.929	3992.92
514.297	4005.35
514.664	4016.87
515.032	4003.31
515.4	4048.28
515.767	4034.05
516.135	4094.38
516.502	4048.96
516.869	4096.64
517.237	4128.28
517.604	4066.59
517.972	4126.25
518.339	4189.75
518.706	4122.41
519.073	4143.2
519.44	4188.39
519.808	4227.94
520.175	4200.37
520.542	4244.44
520.909	4237.88
521.276	4239.46
521.643	4260.26
522.009	4288.28
522.376	4287.37
522.743	4297.32
523.11	4315.17
523.477	4367.15
523.843	4373.02
524.21	4392.68
524.577	4436.07
524.943	4405.34
525.31	4495.5
525.676	4532.11
526.043	4522.85
526.409	4539.8
526.776	4554.48
527.142	4566.69
527.508	4590.87
527.874	4606.91
528.241	4600.59
528.607	4610.75
528.973	4653.69
529.339	4636.29
529.705	4702.96
530.071	4749.73
530.437	4733.69
530.803	4782.05
531.169	4798.09
531.535	4767.36
531.901	4869.5
532.267	4854.14
532.632	4850.97
532.998	4889.39
533.364	4906.57
533.73	4901.14
534.095	4966
534.461	4971.42
534.826	4990.18
535.192	5012.1
535.557	5031.99
535.923	5037.41
536.288	5042.38
536.653	5100.69
537.019	5091.42
537.384	5111.08
537.749	5146.79
538.114	5149.27
538.479	5168.71
538.845	5214.58
539.21	5130.06
539.575	5271.3
539.94	5279.44
540.305	5285.99
540.67	5266.56
541.034	5318.98
541.399	5299.55
541.764	5328.48
542.129	5354.92
542.494	5413.67
542.858	5420.22
543.223	5421.13
543.587	5453.22
543.952	5467.91
544.316	5434.24
544.681	5483.05
545.045	5530.73
545.41	5561.69
545.774	5629.03
546.138	5571.63
546.503	5575.02
546.867	5603.72
547.231	5696.6
547.595	5733.44
547.959	5668.13
548.324	5746.54
548.688	5763.49
549.052	5716.94
549.416	5763.72
549.779	5783.6
550.143	5819.08
550.507	5831.74
550.871	5894.34
551.235	5872.87
551.599	5889.59
551.962	5938.4
552.326	5948.12
552.689	5982.92
553.053	5933.21
553.417	6028.57
553.78	5984.73
554.143	5990.38
554.507	6053.65
554.87	6022.24
555.234	6052.3
555.597	6099.75
555.96	6073.09
556.323	6108.79
556.686	6103.37
557.05	6172.75
557.413	6231.95
557.776	6189.24
558.139	6225.63
558.502	6237.15
558.865	6209.36
559.228	6226.98
559.59	6305.63
559.953	6226.31
560.316	6388.56
560.679	6329.81
561.041	6384.95
561.404	6387.43
561.767	6393.31
562.129	6417.03
562.492	6473.08
562.854	6426.3
563.217	6459.29
563.579	6495.9
563.941	6561.21
564.304	6523.47
564.666	6553.3
565.028	6570.7
565.39	6623.13
565.753	6627.42
566.115	6653.19
566.477	6658.84
566.839	6651.6
567.201	6755.78
567.563	6705.84
567.925	6792.17
568.287	6770.92
568.648	6810.7
569.01	6804.6
569.372	6898.38
569.734	6884.82
570.095	6923.01
570.457	6931.37
570.819	6965.49
571.18	6997.81
571.542	7008.21
571.903	7108.09
572.265	7101.99
572.626	7122.33
572.987	7118.26
573.349	7212.49
573.71	7263.34
574.071	7288.88
574.432	7382.21
574.794	7419.95
575.155	7497.46
575.516	7482.09
575.877	7502.43
576.238	7604.35
576.599	7708.53
576.96	7792.82
577.32	7785.36
577.681	7883.44
578.042	7945.36
578.403	7998.24
578.763	8086.14
579.124	8203.2
579.485	8293.82
579.845	8403.88
580.206	8504.21
580.566	8507.83
580.927	8700.36
581.287	8778.55
581.648	8870.98
582.008	9032.11
582.368	9155.49
582.728	9297.86
583.089	9444.3
583.449	9524.52
583.809	9684.75
584.169	9856.49
584.529	9977.39
584.889	10239.31
585.249	10357.27
585.609	10558.17
585.969	10708.45
586.329	10885.84
586.688	11135.55
587.048	11321.76
587.408	11508.2
587.768	11711.13
588.127	11979.6
588.487	12142.53
588.846	12415.3
589.206	12521.05
589.565	12776.19
589.925	13000.14
590.284	13307.02
590.643	13613.23
591.003	13837.63
591.362	14109.04
591.721	14356.03
592.08	14650.72
592.44	14904.72
592.799	15193.98
593.158	15395.1
593.517	15781.99
593.876	16027.4
594.235	16179.49
594.593	16522.08
594.952	16711.68
595.311	16945.35
595.67	17348.72
596.029	17639.79
596.387	18000.46
596.746	18310.73
597.104	18429.15
597.463	18715.69
597.822	19078.62
598.18	19281.56
598.538	19468.22
598.897	20013.29
599.255	20038.82
599.613	20583.44
599.972	20690.33
600.33	20990.21
600.688	21185.69
601.046	21620.93
601.404	21938.21
601.762	22046.68
602.12	22528.25
602.478	22676.49
602.836	22969.59
603.194	23154.22
603.552	23434.21
603.91	23606.64
604.268	23943.35
604.625	24021.09
604.983	24467.63
605.341	24519.61
605.698	24915.76
606.056	25225.81
606.413	25299.48
606.771	25647.49
607.128	25877.31
607.485	25953.7
607.843	26214.71
608.2	26592.1
608.557	26864.41
608.914	26853.79
609.272	27240.44
609.629	27466.65
609.986	27638.62
610.343	27731.28
610.7	28111.61
611.057	28296.46
611.414	28370.36
611.771	28699.39
612.127	28822.1
612.484	29008.98
612.841	29219.82
613.198	29240.62
613.554	29504.34
613.911	29795.4
614.267	29855.97
614.624	29962.4
614.98	30217.09
615.337	30497.31
615.693	30669.28
616.05	30621.14
616.406	31004.18
616.762	30970.74
617.118	31004.86
617.475	31351.07
617.831	31482.14
618.187	31584.06
618.543	31623.38
618.899	32034.89
619.255	32059.07
619.611	32215.23
619.967	32482.11
620.323	32346.07
620.678	32451.15
621.034	32613.18
621.39	32694.99
621.746	32714.2
622.101	33213.62
622.457	32952.83
622.812	33083.23
623.168	33465.14
623.523	33456.55
623.879	33492.25
624.234	33438.7
624.589	33724.57
624.945	33715.07
625.3	33855.41
625.655	33932.24
626.01	34033.94
626.365	34043.88
626.72	34076.19
627.075	34053.14
627.43	34300.6
627.785	34245.91
628.14	34322.06
628.495	34277.77
628.85	34409.29
629.205	34207.26
629.559	34570.64
629.914	34574.49
630.269	34497.2
630.623	34561.38
630.978	34479.57
631.332	34710.98
631.687	34791.66
632.041	34609.74
632.396	34830.52
632.75	34677.76
633.104	34703.07
633.459	34570.87
633.813	34664.88
634.167	34672.79
634.521	34742.17
634.875	34837.98
635.229	34684.54
635.583	34574.03
635.937	34699.91
636.291	34736.29
636.645	34762.5
636.999	34596.86
637.352	34842.73
637.706	34717.76
638.06	34863.29
638.413	34813.12
638.767	34752.33
639.121	34916.4
639.474	34618.33
639.828	34596.86
640.181	34787.36
640.534	34750.07
640.888	34701.49
641.241	34633.69
641.594	34719.12
641.947	34877.98
642.301	34722.51
642.654	34687.7
643.007	34741.49
643.36	34642.06
643.713	34658.1
644.066	34830.3
644.419	34629.85
644.771	34397.99
645.124	34042.07
645.477	34001.17
645.83	34009.08
646.182	33738.8
646.535	33719.37
646.888	33732.93
647.24	33485.93
647.593	33648.18
647.945	33654.74
648.298	33617.68
648.65	33588.3
649.002	33348.98
649.355	33558.92
649.707	33519.6
650.059	33812.02
650.411	34133.37
650.763	34091.56
651.115	34554.83
651.467	34446.58
651.819	34365.68
652.171	34313.93
652.523	34359.8
652.875	34310.31
653.227	34138.11
653.578	34362.51
653.93	34278.67
654.282	34074.61
654.633	34035.97
654.985	34157.77
655.337	34208.85
655.688	34181.5
656.039	34279.8
656.391	33963.43
656.742	34193.93
657.094	34020.6
657.445	34173.37
657.796	34101.73
658.147	33974.5
658.498	33914.62
658.849	33957.55
659.2	34091.11
659.551	34000.94
659.902	34082.07
660.253	34119.58
660.604	34091.79
660.955	33937.44
661.306	34032.35
661.656	33934.73
662.007	34068.29
662.358	33816.99
662.708	34022.18
663.059	34025.57
663.409	33876.88
663.76	33994.39
664.11	34029.64
664.461	34147.38
664.811	33909.19
665.161	33894.28
665.511	33878.69
665.862	34009.3
666.212	34048.4
666.562	34056.31
666.912	33996.2
667.262	33905.35
667.612	33932.24
667.962	33972.69
668.312	33955.97
668.662	34033.26
669.011	33915.29
669.361	33937.22
669.711	33878.01
670.06	33764.56
670.41	33708.97
670.76	33620.39
671.109	33853.15
671.459	33850.89
671.808	33678.92
672.157	33708.97
672.507	33696.77
672.856	33698.13
673.205	33787.61
673.554	33809.31
673.904	33687.05
674.253	33892.24
674.602	33686.15
674.951	33360.51
675.3	33121.87
675.649	33620.16
675.998	33520.28
676.346	33654.74
676.695	33740.38
677.044	33481.63
677.393	33650.67
677.741	33538.58
678.09	33462.43
678.438	33477.79
678.787	33488.19
679.135	33494.51
679.484	33223.56
679.832	33405.03
680.181	33241.87
680.529	33306.27
680.877	33168.2
681.225	33141.98
681.573	33427.85
681.922	33072.6
682.27	33043.23
682.618	33050.46
682.966	32949.67
683.314	33124.81
683.661	32976.79
684.009	32700.41
684.357	32845.49
684.705	32788.77
685.053	32836.9
685.4	32715.1
685.748	32552.39
686.095	32612.5
686.443	32434.43
686.79	32376.35
687.138	32480.08
687.485	32445.5
687.832	32291.83
688.18	32322.12
688.527	32166.19
688.874	32128.22
689.221	32115.57
689.568	32035.34
689.915	32034.44
690.262	31965.06
690.609	31752.19
690.956	31539.09
691.303	31708.8
691.65	31542.7
691.997	31590.38
692.344	31505.41
692.69	31292.09
693.037	31317.62
693.383	31007.35
693.73	31248.92
694.077	31001.02
694.423	31079.89
694.769	30880.8
695.116	30826.34
695.462	30944.98
695.808	30730.97
696.155	30820.69
696.501	30708.15
696.847	30512.45
697.193	30337.31
697.539	30527.14
697.885	30211.44
698.231	30206.69
698.577	30191.55
698.923	30063.19
699.269	29859.13
699.614	29956.75
699.96	29813.71
700.306	29894.84
700.651	29655.75
700.997	29593.15
701.342	29640.38
701.688	29498.91
702.033	29525.58
702.379	29467.73
702.724	29347.05
703.069	29352.02
703.415	28975.99
703.76	29071.35
704.105	29004.69
704.45	29058.7
704.795	28875.65
705.14	28758.59
705.485	28840.63
705.83	28594.3
706.175	28523.12
706.52	28628.2
706.865	28402.67
707.209	28480.18
707.554	28338.49
707.899	28370.58
708.243	28229.12
708.588	28240.42
708.932	27984.15
709.277	27971.95
709.621	27971.72
709.966	27889.24
710.31	27921.78
710.654	27637.49
710.998	27768.11
711.342	27702.12
711.687	27654.89
712.031	27444.05
712.375	27409.25
712.719	27437.95
713.063	27404.51
713.407	27487.67
713.75	27185.98
714.094	27287.67
714.438	27134.46
714.782	27258.75
715.125	27082.03
715.469	27130.84
715.812	26890.62
716.156	26862.82
716.499	26838.42
716.843	26959.55
717.186	26674.13
717.53	26898.08
717.873	26897.17
718.216	26659.21
718.559	26588.93
718.902	26453.8
719.246	26547.58
719.589	26460.12
719.932	26261.26
720.275	26420.8
720.617	26189.17
720.96	26187.36
721.303	26188.27
721.646	26200.92
721.989	25985.33
722.331	26042.06
722.674	26047.93
723.016	25940.36
723.359	25911.66
723.701	25957.54
724.044	25921.83
724.386	25749.86
724.729	25787.82
725.071	25713.93
725.413	25832.34
725.755	25748.73
726.097	25591.45
726.439	25515.06
726.782	25437.78
727.124	25656.08
727.465	25515.52
727.807	25372.92
728.149	25353.94
728.491	25313.71
728.833	25419.92
729.175	25297.67
729.516	25161.63
729.858	25161.4
730.199	25168.63
730.541	24970.22
730.882	25146.03
731.224	25073.04
731.565	24882.31
731.906	24991.69
732.248	25030.33
732.589	24816.78
732.93	24805.25
733.271	24850.45
733.612	24840.28
733.953	24743.11
734.294	24673.05
734.635	24596.22
734.976	24680.28
735.317	24551.25
735.658	24562.09
735.999	24467.63
736.339	24526.61
736.68	24553.96
737.021	24407.97
737.361	24299.73
737.702	24483.45
738.042	24429.22
738.383	24366.62
738.723	24396.22
739.063	24208.21
739.404	24224.48
739.744	24167.53
740.084	24146.06
740.424	24215.89
740.764	24032.62
741.104	24157.81
741.444	23972.73
741.784	23990.36
742.124	23922.79
742.464	23912.39
742.804	23853.86
743.143	23700.2
743.483	23915.33
743.823	23716.92
744.162	23725.73
744.502	23734.77
744.841	23536.81
745.181	23775
745.52	23609.12
745.86	23588.33
746.199	23544.95
746.538	23483.93
746.877	23561.44
747.216	23533.19
747.556	23334.1
747.895	23406.19
748.234	23268.12
748.573	23326.19
748.911	23325.74
749.25	23154.67
749.589	23181.57
749.928	23141.57
750.267	23246.65
750.605	23095.01
750.944	22961.23
751.283	22962.36
751.621	22968.92
751.96	22852.76
752.298	22888.92
752.636	22794.68
752.975	22776.15
753.313	22682.6
753.651	22872.42
753.989	22642.82
754.327	22679.21
754.666	22546.55
755.004	22556.72
755.342	22629.04
755.679	22522.83
756.017	22430.17
756.355	22441.25
756.693	22305.66
757.031	22366.67
757.368	22157.64
757.706	22201.03
758.044	22102.95
758.381	22040.8
758.719	21984.76
759.056	21999.68
759.394	21940.47
759.731	21762.62
760.068	21796.07
760.405	21664.09
760.743	21630.65
761.08	21624.09
761.417	21521.95
761.754	21447.15
762.091	21429.75
762.428	21406.02
762.765	21266.14
763.102	21281.28
763.438	21130.55
763.775	21031.79
764.112	21162.41
764.449	21043.99
764.785	20983.43
765.122	20808.97
765.458	20660.73
765.795	20673.38
766.131	20704.12
766.467	20582.99
766.804	20520.84
767.14	20513.39
767.476	20467.74
767.812	20307.74
768.148	20378.48
768.485	20177.12
768.821	20065.49
769.157	20025.94
769.492	20032.72
769.828	20020.29
770.164	19862.1
770.5	19902.78
770.836	19774.88
771.171	19628.44
771.507	19729.45
771.842	19573.75
772.178	19589.8
772.513	19512.06
772.849	19423.47
773.184	19305.96
773.519	19299.63
773.855	19272.97
774.19	19149.36
774.525	19037.04
774.86	18981
775.195	19006.53
775.53	18765.64
775.865	18777.16
776.2	18556.6
776.535	18678.18
776.87	18554.57
777.205	18449.94
777.539	18345.31
777.874	18416.27
778.209	18266.89
778.543	18239.77
778.878	18118.42
779.212	18085.2
779.547	18010.4
779.881	18010.63
780.215	17803.4
780.55	17942.83
780.884	17705.55
781.218	17719.11
781.552	17746
781.886	17646.8
782.22	17562.73
782.554	17476.4
782.888	17278.22
783.222	17326.8
783.556	17226.69
783.889	17085.68
784.223	17089.3
784.557	17002.75
784.89	17013.37
785.224	16916.42
785.557	16809.76
785.891	16785.58
786.224	16733.37
786.558	16739.25
786.891	16521.63
787.224	16502.65
787.557	16484.11
787.891	16481.85
788.224	16419.26
788.557	16311.46
788.89	16348.98
789.223	16236.21
789.556	16140.85
789.888	16140.62
790.221	16135.2
790.554	15918.48
790.887	15998.25
791.219	15894.53
791.552	15905.15
791.884	15836.9
792.217	15757.58
792.549	15661.09
792.882	15593.97
793.214	15554.65
793.546	15539.28
793.879	15506.29
794.211	15388.78
794.543	15400.3
794.875	15357.82
795.207	15313.3
795.539	15268.78
795.871	15280.3
796.203	15153.75
796.535	15025.4
796.867	15092.96
797.198	15046.64
797.53	15041.44
797.862	14902.91
798.193	14928.68
798.525	14747.66
798.856	14836.25
799.188	14647.55
799.519	14563.49
799.85	14508.8
800.182	14528.46
800.513	14542.7
800.844	14364.4
801.175	14430.61
801.506	14391.29
801.837	14384.28
802.168	14295.25
802.499	14268.35
802.83	14154.46
803.161	14217.06
803.491	14144.97
803.822	14215.7
804.153	14037.63
804.483	14003.5
804.814	13892.09
805.145	13902.04
805.475	13892.32
805.805	13834.92
806.136	13887.57
806.466	13762.15
806.796	13793.56
807.126	13719.89
807.457	13703.17
807.787	13559.67
808.117	13553.57
808.447	13485.78
808.777	13517.19
809.107	13479.22
809.436	13453.69
809.766	13409.17
810.096	13308.15
810.426	13196.29
810.755	13266.8
811.085	13255.72
811.414	13200.81
811.744	13122.17
812.073	13112.68
812.403	13147.93
812.732	12997.43
813.061	12973.7
813.39	13006.92
813.719	12874.49
814.049	12943.42
814.378	12881.72
814.707	12888.73
815.036	12820.93
815.365	12823.42
815.693	12684.21
816.022	12681.5
816.351	12658.23
816.68	12527.83
817.008	12675.63
817.337	12499.13
817.665	12481.51
817.994	12491.23
818.322	12405.35
818.651	12402.19
818.979	12345.24
819.307	12466.14
819.636	12350.66
819.964	12334.85
820.292	12420.94
820.62	12370.55
820.948	12339.36
821.276	12373.26
821.604	12308.63
821.932	12261.85
822.259	12273.38
822.587	12212.36
822.915	12185.92
823.243	12305.69
823.57	12265.02
823.898	12246.71
824.225	12187.5
824.553	12130.56
824.88	12289.42
825.207	12222.76
825.535	12156.54
825.862	12257.79
826.189	12167.17
826.516	12276.77
826.843	12311.79
827.17	12209.2
827.497	12186.15
827.824	12229.09
828.151	12270.67
828.478	12165.58
828.805	12205.58
829.131	12216.2
829.458	12221.4
829.785	12184.34
830.111	12154.96
830.438	12197.67
830.764	12189.09
831.09	12209.88
831.417	12156.09
831.743	12234.28
832.069	12180.5
832.395	12084.46
832.722	12174.17
833.048	12162.19
833.374	12067.28
833.7	11938.02
834.026	12038.13
834.351	12060.5
834.677	12029.09
835.003	12006.27
835.329	12032.48
835.654	11973.05
835.98	11942.99
836.306	11978.92
836.631	11931.47
836.956	11889.21
837.282	11947.28
837.607	11941.86
837.932	11821.19
838.258	11852.37
838.583	11836.33
838.908	11806.05
839.233	11813.28
839.558	11821.64
839.883	11721.08
840.208	11787.29
840.533	11715.2
840.858	11715.43
841.182	11660.74
841.507	11659.61
841.832	11586.16
842.156	11526.5
842.481	11624.81
842.805	11580.06
843.13	11570.57
843.454	11563.57
843.778	11475.66
844.103	11440.86
844.427	11441.31
844.751	11428.65
845.075	11333.97
845.399	11316.57
845.723	11343.91
846.047	11363.35
846.371	11237.7
846.695	11176.68
847.019	11094.65
847.343	10994.09
847.666	10959.74
847.99	10982.79
848.313	10958.16
848.637	10900.31
848.96	10853.75
849.284	10936.92
849.607	10755.23
849.931	10728.33
850.254	10731.05
850.577	10600.43
850.9	10621.44
851.223	10541.45
851.546	10480.66
851.869	10409.02
852.192	10524.05
852.515	10351.62
852.838	10299.87
853.161	10339.42
853.483	10252.41
853.806	10206.09
854.129	10232.53
854.451	10206.09
854.774	10121.12
855.096	10041.35
855.419	10053.55
855.741	10040.89
856.063	9951.86
856.385	9987.79
856.708	9870.28
857.03	9899.43
857.352	9900.78
857.674	9826.66
857.996	9894.91
858.318	9752.09
858.64	9793.44
858.961	9758.64
859.283	9723.16
859.605	9663.05
859.926	9713.22
860.248	9593.45
860.57	9590.28
860.891	9583.96
861.212	9593.45
861.534	9545.09
861.855	9488.37
862.176	9568.82
862.498	9503.06
862.819	9456.95
863.14	9487.01
863.461	9428.03
863.782	9409.5
864.103	9403.85
864.424	9293.34
864.745	9375.6
865.065	9317.98
865.386	9269.62
865.707	9323.17
866.027	9268.94
866.348	9248.82
866.668	9235.94
866.989	9231.88
867.309	9208.15
867.63	9217.19
867.95	9187.81
868.27	9104.65
868.59	9161.6
868.91	9161.37
869.23	9058.32
869.55	9065.78
869.87	9165.44
870.19	9146.68
870.51	9056.74
870.83	9068.49
871.15	9029.62
871.469	8993.46
871.789	9037.76
872.109	9089.73
872.428	8914.6
872.748	8985.78
873.067	8981.04
873.386	8891.32
873.706	8998.44
874.025	8894.94
874.344	8901.72
874.663	8962.05
874.982	8846.35
875.301	8797.76
875.62	8862.39
875.939	8789.85
876.258	8813.36
876.577	8796.86
876.896	8767.93
877.214	8684.55
877.533	8794.6
877.852	8708.05
878.17	8758.89
878.489	8745.34
878.807	8748.5
879.125	8665.34
879.444	8738.33
879.762	8607.03
880.08	8650.65
880.398	8655.17
880.716	8550.54
881.034	8560.26
881.352	8539.69
881.67	8579.69
881.988	8477.55
882.306	8501.73
882.624	8454.5
882.941	8472.8
883.259	8396.64
883.577	8470.99
883.894	8401.16
884.212	8379.24
884.529	8403.65
884.846	8388.96
885.164	8336.53
885.481	8350.32
885.798	8314.84
886.115	8283.43
886.432	8191.45
886.75	8248.62
887.067	8234.39
887.383	8221.96
887.7	8253.6
888.017	8111.23
888.334	8126.82
888.651	8068.97
888.967	8076.88
889.284	8028.52
889.6	8027.61
889.917	7972.25
890.233	7997.11
890.55	7975.41
890.866	7971.8
891.182	7961.4
891.498	7939.03
891.815	7901.97
892.131	7888.18
892.447	7881.18
892.763	7817
893.079	7816.32
893.395	7807.73
893.71	7786.94
894.026	7743.1
894.342	7709.66
894.657	7638.92
894.973	7700.16
895.289	7612.94
895.604	7588.98
895.92	7537.23
896.235	7498.14
896.55	7546.95
896.865	7542.88
897.181	7467.85
897.496	7438.48
897.811	7433.28
898.126	7414.3
898.441	7388.31
898.756	7380.63
899.071	7343.79
899.386	7255.66
899.7	7298.14
900.015	7239.84
900.33	7242.32
900.644	7218.37
900.959	7201.42
901.273	7163.91
901.588	7142.44
901.902	7080.29
902.216	7070.35
902.531	7057.02
902.845	6996.45
903.159	6992.16
903.473	7009.34
903.787	6940.86
904.101	6946.51
904.415	6894.08
904.729	6841.88
905.042	6863.12
905.356	6830.36
905.67	6773.18
905.984	6822.22
906.297	6688.21
906.611	6630.81
906.924	6716.01
907.237	6685.05
907.551	6643.92
907.864	6602.11
908.177	6584.26
908.491	6587.65
908.804	6537.03
909.117	6488.67
909.43	6426.75
909.743	6484.38
910.056	6416.36
910.368	6420.65
910.681	6423.14
910.994	6356.7
911.307	6306.08
911.619	6267.66
911.932	6330.71
912.244	6278.51
912.557	6308.34
912.869	6199.64
913.181	6200.54
913.494	6202.13
913.806	6066.08
914.118	6159.64
914.43	6051.62
914.742	6079.64
915.054	6022.24
915.366	6011.62
915.678	5985.63
915.99	5978.18
916.302	5914.22
916.613	5876.48
916.925	5925.07
917.236	5897.27
917.548	5838.97
917.859	5816.15
918.171	5768.46
918.482	5803.94
918.794	5739.99
919.105	5712.19
919.416	5660.22
919.727	5709.48
920.038	5675.81
920.349	5641.69
920.66	5626.1
920.971	5572.76
921.282	5564.4
921.593	5544.06
921.903	5520.11
922.214	5518.53
922.525	5487.57
922.835	5500.9
923.146	5414.12
923.456	5372.99
923.767	5370.28
924.077	5396.04
924.387	5324.86
924.697	5309.95
925.008	5303.62
925.318	5278.99
925.628	5270.85
925.938	5276.27
926.248	5143.62
926.558	5120.8
926.867	5156.95
927.177	5165.77
927.487	5194.92
927.796	5077.63
928.106	5103.85
928.416	5051.65
928.725	5031.31
929.034	4978.43
929.344	5007.13
929.653	5009.16
929.962	4959.67
930.271	4918.77
930.581	4886.45
930.89	4848.94
931.199	4877.19
931.508	4845.55
931.817	4857.3
932.125	4876.28
932.434	4813.91
932.743	4772.33
933.051	4753.35
933.36	4731.88
933.669	4663.18
933.977	4697.08
934.286	4661.83
934.594	4648.49
934.902	4642.84
935.21	4611.66
935.519	4610.53
935.827	4615.95
936.135	4559
936.443	4530.76
936.751	4449.18
937.059	4501.15
937.367	4453.24
937.674	4497.31
937.982	4463.87
938.29	4420.25
938.597	4372.34
938.905	4394.26
939.213	4359.91
939.52	4351.78
939.827	4361.72
940.135	4298.67
940.442	4300.03
940.749	4264.32
941.056	4339.58
941.363	4258.9
941.67	4197.21
941.977	4212.12
942.284	4180.48
942.591	4146.36
942.898	4202.86
943.205	4160.37
943.511	4081.95
943.818	4107.26
944.125	4083.08
944.431	4088.96
944.738	4040.15
945.044	4012.8
945.35	4033.37
945.657	3965.8
945.963	3976.87
946.269	3957.89
946.575	4001.96
946.881	3918.57
947.187	3924.44
947.493	3924.9
947.799	3918.12
948.105	3863.66
948.41	3844.9
948.716	3862.3
949.022	3807.84
949.327	3788.86
949.633	3747.73
949.938	3775.75
950.244	3727.39
950.549	3696.2
950.854	3705.92
951.16	3699.82
951.465	3696.2
951.77	3657.33
952.075	3648.07
952.38	3622.98
952.685	3593.61
952.99	3591.57
953.294	3601.06
953.599	3547.73
953.904	3567.62
954.209	3520.39
954.513	3545.02
954.818	3518.58
955.122	3469.54
955.426	3523.55
955.731	3499.6
956.035	3449.66
956.339	3443.55
956.643	3471.35
956.948	3423.44
957.252	3404.01
957.556	3359.04
957.86	3353.84
958.163	3347.06
958.467	3343.22
958.771	3307.51
959.075	3294.18
959.378	3278.81
959.682	3279.26
959.985	3273.61
960.289	3285.82
960.592	3250.34
960.896	3213.5
961.199	3203.79
961.502	3207.63
961.805	3202.66
962.108	3152.94
962.411	3183
962.714	3136.89
963.017	3148.19
963.32	3119.49
963.623	3065.48
963.926	3113.17
964.228	3067.07
964.531	3076.78
964.833	3042.89
965.136	3012.15
965.438	3030.46
965.741	3023
966.043	3011.93
966.345	3004.24
966.648	3005.6
966.95	3002.89
967.252	2971.48
967.554	2920.86
967.856	2898.48
968.158	2932.38
968.46	2896
968.761	2914.3
969.063	2882.66
969.365	2856
969.666	2870.91
969.968	2820.29
970.269	2829.11
970.571	2818.03
970.872	2841.31
971.174	2782.1
971.475	2799.95
971.776	2776.9
972.077	2774.19
972.378	2760.41
972.679	2748.43
972.98	2712.95
973.281	2731.71
973.582	2686.29
973.883	2694.19
974.183	2686.51
974.484	2685.38
974.785	2656.68
975.085	2646.06
975.386	2646.06
975.686	2619.85
975.986	2630.47
976.287	2567.87
976.587	2574.65
976.887	2564.03
977.187	2559.28
977.487	2523.35
977.787	2499.17
978.087	2534.88
978.387	2533.29
978.687	2506.63
978.987	2479.96
979.286	2502.34
979.586	2463.24
979.885	2484.93
980.185	2445.16
980.484	2472.28
980.784	2407.42
981.083	2416.01
981.382	2414.2
981.682	2397.25
981.981	2391.6
982.28	2379.17
982.579	2332.17
982.878	2345.05
983.177	2334.66
983.475	2342.79
983.774	2338.27
984.073	2329.91
984.372	2319.97
984.67	2298.05
984.969	2312.51
985.267	2296.92
985.566	2241.33
985.864	2254.43
986.162	2256.01
986.461	2232.06
986.759	2217.37
987.057	2204.94
987.355	2205.62
987.653	2214.21
987.951	2189.35
988.249	2200.2
988.547	2168.78
988.844	2157.26
989.142	2151.16
989.44	2159.75
989.737	2107.09
990.035	2114.77
990.332	2134.44
990.63	2123.36
990.927	2128.79
991.224	2083.36
991.521	2086.3
991.819	2067.09
992.116	2070.48
992.413	2057.83
992.71	2032.07
993.006	2044.72
993.303	2060.77
993.6	2003.82
993.897	2030.71
994.193	1981.67
994.49	2013.08
994.787	1995.23
995.083	1989.58
995.379	1975.34
995.676	1972.86
995.972	1967.21
996.268	1939.19
996.565	1920.88
996.861	1892.18
997.157	1905.74
997.453	1884.05
997.749	1900.77
998.044	1856.93
998.34	1893.31
998.636	1865.29
998.932	1853.76
999.227	1858.06
999.523	1853.76
999.818	1824.16
1000.114	1820.55
1000.409	1839.75
1000.704	1779.19
1001	1807.89
1001.295	1767.21
1001.59	1754.56
1001.885	1786.2
1002.18	1716.14
1002.475	1720.21
1002.77	1705.97
1003.065	1733.99
1003.359	1721.79
1003.654	1706.42
1003.949	1710.27
1004.243	1665.3
1004.538	1701.9
1004.832	1698.97
1005.127	1670.94
1005.421	1687.44
1005.715	1630.04
1006.009	1635.24
1006.304	1609.93
1006.598	1643.15
1006.892	1631.4
1007.186	1579.2
1007.48	1590.72
1007.773	1579.65
1008.067	1566.99
1008.361	1557.28
1008.655	1532.42
1008.948	1541.91
1009.242	1553.89
1009.535	1512.76
1009.829	1558.86
1010.122	1530.16
1010.415	1498.75
1010.708	1507.56
1011.001	1508.01
1011.295	1479.54
1011.588	1479.31
1011.881	1501.68
1012.173	1475.7
1012.466	1469.59
1012.759	1451.74
1013.052	1439.76
1013.344	1425.08
1013.637	1447
1013.93	1423.49
1014.222	1376.26
1014.514	1409.48
1014.807	1413.55
1015.099	1375.81
1015.391	1377.17
1015.683	1381.69
1015.976	1343.27
1016.268	1381.69
1016.56	1353.21
1016.851	1329.94
1017.143	1322.93
1017.435	1308.24
1017.727	1317.51
1018.018	1305.3
1018.31	1295.59
1018.602	1305.76
1018.893	1284.06
1019.185	1284.97
1019.476	1257.4
1019.767	1280.9
1020.058	1240.22
1020.35	1265.31
1020.641	1212.88
1020.932	1219.21
1021.223	1235.93
1021.514	1208.81
1021.804	1212.2
1022.095	1208.58
1022.386	1230.05
1022.677	1171.3
1022.967	1164.52
1023.258	1179.21
1023.548	1158.64
1023.839	1151.64
1024.129	1131.75
1024.419	1140.11
1024.709	1125.2
1025	1119.77
1025.29	1116.61
1025.58	1128.13
1025.87	1105.76
1026.16	1105.76
1026.449	1097.17
1026.739	1083.39
1027.029	1057.63
1027.319	1068.02
1027.608	1082.26
1027.898	1082.71
1028.187	1050.4
1028.477	1028.25
1028.766	1062.83
1029.055	1011.98
1029.344	1038.65
1029.634	1050.85
1029.923	1014.92
1030.212	1030.96
1030.501	1014.46
1030.79	985.54
1031.078	1006.56
1031.367	980.34
1031.656	977.4
1031.945	961.81
1032.233	969.72
1032.522	945.31
1032.81	965.43
1033.099	948.7
1033.387	971.75
1033.675	950.96
1033.963	939.66
1034.251	924.75
1034.54	919.1
1034.828	909.38
1035.116	912.32
1035.403	887.91
1035.691	890.17
1035.979	914.81
1036.267	891.3
1036.554	880.68
1036.842	882.72
1037.129	878.88
1037.417	860.8
1037.704	865.54
1037.992	870.74
1038.279	839.55
1038.566	854.24
1038.853	854.24
1039.14	854.24
