Data from hue_330_FLMS001491_86.txt Node
Date: Mon Feb 06 15:46:02 GMT 2017
User: dcchb
Spectrometer: FLMS00149
Trigger mode: 0
Integration Time (sec): 2.000000E-2
Scans to average: 10
Electric dark correction enabled: true
Nonlinearity correction enabled: false
Boxcar width: 0
XAxis mode: Wavelengths
Number of Pixels in Spectrum: 2048
>>>>>Begin Spectral Data<<<<<
341.393	-22.5
341.776	-22.5
342.16	-22.5
342.543	-57.75
342.927	-79.9
343.31	-54.14
343.693	-63.85
344.077	-70.41
344.46	-55.94
344.843	-65.21
345.226	-60.24
345.61	-30.18
345.993	3.04
346.376	-8.04
346.759	-1.93
347.142	24.05
347.525	26.99
347.908	58.63
348.291	74.45
348.674	115.8
349.057	106.99
349.44	128.91
349.823	132.52
350.206	172.07
350.588	176.82
350.971	214.56
351.354	248.23
351.737	245.74
352.119	243.71
352.502	262.01
352.884	284.16
353.267	293.65
353.65	297.94
354.032	281.9
354.414	313.54
354.797	311.5
355.179	320.09
355.562	314.21
355.944	333.2
356.326	324.38
356.709	331.39
357.091	331.39
357.473	331.62
357.855	323.25
358.238	343.82
358.62	328
359.002	331.16
359.384	343.14
359.766	335.01
360.148	332.29
360.53	358.51
360.912	344.95
361.294	334.78
361.676	341.78
362.057	334.1
362.439	326.19
362.821	327.1
363.203	310.83
363.584	328.68
363.966	318.28
364.348	336.59
364.729	330.94
365.111	323.93
365.493	303.14
365.874	313.08
366.256	319.86
366.637	327.77
367.019	321.67
367.4	332.75
367.781	297.49
368.163	330.94
368.544	322.35
368.925	312.63
369.306	335.23
369.688	299.75
370.069	323.48
370.45	318.06
370.831	325.29
371.212	311.05
371.593	303.82
371.974	339.07
372.355	318.73
372.736	312.63
373.117	324.84
373.498	325.97
373.879	331.16
374.26	311.96
374.641	305.85
375.021	306.53
375.402	344.27
375.783	317.83
376.163	315.8
376.544	340.43
376.925	313.08
377.305	311.5
377.686	325.51
378.066	331.16
378.447	331.16
378.827	337.04
379.208	329.58
379.588	344.5
379.968	311.96
380.349	339.07
380.729	337.94
381.109	342.24
381.489	343.14
381.87	352.86
382.25	347.89
382.63	322.35
383.01	328.23
383.39	330.94
383.77	330.49
384.15	333.2
384.53	337.27
384.91	346.76
385.29	352.63
385.67	354.89
386.049	339.75
386.429	342.46
386.809	328.68
387.189	336.81
387.568	359.41
387.948	355.34
388.328	336.81
388.707	349.69
389.087	335.91
389.466	374.55
389.846	356.02
390.225	355.12
390.605	370.71
390.984	370.94
391.363	361.67
391.743	383.37
392.122	360.54
392.501	375.46
392.881	378.62
393.26	363.71
393.639	359.64
394.018	391.28
394.397	372.97
394.776	378.39
395.155	367.77
395.534	363.48
395.913	361.67
396.292	381.33
396.671	395.79
397.05	381.11
397.429	382.69
397.808	386.08
398.186	390.82
398.565	395.57
398.944	407.32
399.323	384.95
399.701	403.7
400.08	399.41
400.458	402.12
400.837	400.99
401.215	384.72
401.594	412.07
401.972	391.28
402.351	413.42
402.729	427.21
403.107	418.17
403.486	430.14
403.864	439.64
404.242	416.59
404.62	444.15
404.999	432.63
405.377	433.31
405.755	440.99
406.133	422.69
406.511	449.8
406.889	447.09
407.267	462.23
407.645	457.26
408.023	473.08
408.401	452.06
408.779	469.47
409.156	482.12
409.534	474.66
409.912	477.6
410.29	494.1
410.667	484.61
411.045	504.04
411.422	504.04
411.8	501.1
412.178	509.92
412.555	521.22
412.933	516.02
413.31	524.83
413.687	512.85
414.065	533.64
414.442	539.07
414.819	565.51
415.197	551.04
415.574	573.19
415.951	562.34
416.328	553.76
416.705	586.3
417.082	571.16
417.46	587.88
417.837	578.39
418.214	575.68
418.591	604.38
418.967	595.56
419.344	609.35
419.721	625.39
420.098	611.61
420.475	630.36
420.852	628.1
421.228	644.38
421.605	659.29
421.982	652.74
422.358	663.81
422.735	678.95
423.111	678.5
423.488	671.72
423.864	684.37
424.241	674.66
424.617	697.71
424.994	718.05
425.37	738.61
425.746	707.42
426.123	731.38
426.499	701.78
426.875	727.76
427.251	751.49
427.627	747.2
428.003	716.46
428.379	773.41
428.756	776.58
429.132	783.13
429.507	799.17
429.883	840.08
430.259	797.37
430.635	797.14
431.011	824.03
431.387	846.4
431.763	837.59
432.138	870.36
432.514	856.57
432.89	870.13
433.265	909.91
433.641	901.32
434.016	885.5
434.392	915.78
434.767	933.86
435.143	934.09
435.518	914.88
435.894	923.46
436.269	968.89
436.644	965.05
437.02	984.25
437.395	949.23
437.77	991.03
438.145	981.32
438.52	1000.3
438.895	1014.76
439.271	1021.99
439.646	1035.55
440.021	1045.95
440.395	1042.78
440.77	1031.94
441.145	1064.25
441.52	1070.81
441.895	1084.59
442.27	1073.74
442.645	1063.35
443.019	1076.91
443.394	1062.22
443.769	1066.51
444.143	1082.33
444.518	1106.74
444.892	1100.86
445.267	1114.19
445.641	1139.96
446.016	1106.06
446.39	1119.62
446.764	1127.53
447.139	1116.45
447.513	1135.21
447.887	1149.22
448.262	1163.23
448.636	1146.51
449.01	1144.25
449.384	1162.55
449.758	1181.31
450.132	1196
450.506	1187.64
450.88	1196.45
451.254	1204.81
451.628	1204.59
452.002	1217.02
452.376	1195.77
452.75	1216.34
453.123	1218.37
453.497	1258.37
453.871	1247.98
454.244	1253.4
454.618	1248.65
454.992	1287.3
455.365	1292.95
455.739	1325.26
456.112	1323.23
456.486	1324.81
456.859	1339.05
457.232	1350.8
457.606	1351.48
457.979	1357.13
458.352	1402.1
458.725	1397.58
459.099	1423.79
459.472	1422.43
459.845	1452.26
460.218	1448.65
460.591	1457.46
460.964	1449.33
461.337	1506.73
461.71	1529.55
462.083	1521.19
462.456	1519.61
462.829	1499.72
463.201	1572.26
463.574	1531.36
463.947	1553.96
464.32	1618.59
464.692	1618.59
465.065	1626.72
465.438	1630.11
465.81	1643.67
466.183	1630.11
466.555	1696.33
466.928	1687.51
467.3	1695.87
467.672	1657.23
468.045	1740.84
468.417	1752.14
468.789	1738.36
469.161	1755.98
469.534	1790.33
469.906	1810.22
470.278	1842.54
470.65	1840.05
471.022	1882.31
471.394	1901.29
471.766	1877.79
472.138	1941.52
472.51	1956.21
472.882	1989.88
473.253	2031.01
473.625	2000.95
473.997	2047.05
474.369	2047.05
474.74	2077.78
475.112	2081.63
475.484	2139.25
475.855	2162.3
476.227	2180.61
476.598	2238.68
476.97	2258.57
477.341	2297.44
477.713	2322.75
478.084	2335.18
478.455	2374.73
478.827	2399.81
479.198	2419.02
479.569	2462.18
479.94	2488.62
480.311	2502.86
480.682	2573.14
481.053	2606.81
481.424	2645.23
481.795	2673.25
482.166	2722.29
482.537	2711.44
482.908	2757.31
483.279	2795.96
483.65	2831.44
484.021	2866.24
484.391	2887.03
484.762	2911.89
485.133	2947.59
485.503	2990.3
485.874	3049.74
486.244	3058.1
486.615	3119.79
486.985	3140.36
487.356	3202.73
487.726	3219.9
488.097	3251.09
488.467	3273.69
488.837	3354.59
489.207	3358.2
489.578	3393.68
489.948	3411.99
490.318	3496.05
490.688	3497.86
491.058	3501.7
491.428	3534.7
491.798	3604.98
492.168	3706.44
492.538	3690.4
492.908	3703.28
493.278	3774.69
493.648	3728.81
494.017	3805.42
494.387	3822.37
494.757	3845.87
495.126	3889.26
495.496	3884.06
495.866	3899.21
496.235	3964.97
496.605	3986.66
496.974	4027.79
497.344	4002.03
497.713	4070.95
498.082	4077.96
498.452	4091.97
498.821	4135.58
499.19	4104.85
499.559	4176.71
499.928	4188.24
500.298	4228.46
500.667	4188.01
501.036	4208.8
501.405	4222.13
501.774	4225.3
502.143	4297.61
502.512	4301.45
502.88	4339.19
503.249	4335.8
503.618	4358.4
503.987	4341.45
504.356	4406.76
504.724	4459.87
505.093	4404.05
505.462	4467.1
505.83	4494.44
506.199	4507.78
506.567	4585.97
506.936	4587.32
507.304	4565.85
507.672	4614.21
508.041	4613.76
508.409	4649.02
508.777	4655.57
509.145	4682.91
509.514	4671.39
509.882	4729.47
510.25	4676.59
510.618	4713.2
510.986	4737.83
511.354	4766.98
511.722	4801.55
512.09	4856.69
512.458	4805.62
512.826	4893.08
513.193	4848.78
513.561	4895.79
513.929	4911.16
514.297	4977.6
514.664	4946.18
515.032	4969.46
515.4	4997.03
515.767	5002.45
516.135	5009.23
516.502	4996.8
516.869	5087.87
517.237	5093.98
517.604	5034.99
517.972	5099.63
518.339	5079.97
518.706	5118.16
519.073	5116.8
519.44	5150.92
519.808	5185.95
520.175	5161.32
520.542	5241.09
520.909	5209
521.276	5220.75
521.643	5336.91
522.009	5346.62
522.376	5323.12
522.743	5398.83
523.11	5379.17
523.477	5423.01
523.843	5429.56
524.21	5502.1
524.577	5522.21
524.943	5548.2
525.31	5542.1
525.676	5578.71
526.043	5627.3
526.409	5616
526.776	5665.26
527.142	5687.41
527.508	5728.54
527.874	5726.73
528.241	5788.87
528.607	5806.05
528.973	5875.88
529.339	5820.96
529.705	5907.97
530.071	5924.91
530.437	5949.32
530.803	5941.86
531.169	6001.07
531.535	5997.91
531.901	6012.82
532.267	6089.2
532.632	6119.71
532.998	6128.75
533.364	6146.83
533.73	6169.65
534.095	6186.83
534.461	6248.97
534.826	6297.79
535.192	6308.86
535.557	6357.67
535.923	6339.14
536.288	6384.56
536.653	6401.74
537.019	6416.88
537.384	6403.32
537.749	6451
538.114	6445.58
538.479	6514.96
538.845	6492.36
539.21	6501.17
539.575	6578.91
539.94	6594.5
540.305	6613.94
540.67	6586.59
541.034	6672.01
541.399	6717.66
541.764	6683.31
542.129	6789.98
542.494	6780.71
542.858	6863.65
543.223	6865.23
543.587	6845.57
543.952	6855.06
544.316	6898.45
544.681	6914.27
545.045	6967.37
545.41	6977.99
545.774	6970.54
546.138	7065.22
546.503	7061.83
546.867	7084.21
547.231	7125.56
547.595	7156.07
547.959	7170.76
548.324	7157.42
548.688	7221.38
549.052	7197.65
549.416	7300.7
549.779	7268.38
550.143	7343.41
550.507	7369.85
550.871	7421.6
551.235	7408.27
551.599	7461.15
551.962	7399
552.326	7502.73
552.689	7502.05
553.053	7496.4
553.417	7480.81
553.78	7571.43
554.143	7573.23
554.507	7597.64
554.87	7688.03
555.234	7667.69
555.597	7662.72
555.96	7677.64
556.323	7680.8
556.686	7734.58
557.05	7787.92
557.413	7749.73
557.776	7800.8
558.139	7855.71
558.502	7905.2
558.865	7830.63
559.228	7958.76
559.59	7943.62
559.953	8022.26
560.316	8035.82
560.679	7980
561.041	8052.32
561.404	8144.07
561.767	8164.4
562.129	8159.66
562.492	8240.33
562.854	8220.22
563.217	8187.23
563.579	8273.1
563.941	8259.99
564.304	8259.09
564.666	8365.3
565.028	8358.98
565.39	8408.47
565.753	8399.88
566.115	8415.92
566.477	8444.4
566.839	8433.1
567.201	8611.62
567.563	8497.73
567.925	8639.19
568.287	8604.17
568.648	8681
569.01	8757.38
569.372	8678.29
569.734	8746.31
570.095	8810.26
570.457	8790.15
570.819	8914.21
571.18	8856.59
571.542	8976.13
571.903	8934.33
572.265	9019.75
572.626	8993.08
572.987	9153.53
573.349	9184.94
573.71	9249.12
574.071	9262
574.432	9269.91
574.794	9367.54
575.155	9473.07
575.516	9426.52
575.877	9491.6
576.238	9557.81
576.599	9697.47
576.96	9742.67
577.32	9788.54
577.681	9906.28
578.042	10027.18
578.403	10065.82
578.763	10099.27
579.124	10234.86
579.485	10314.4
579.845	10498.81
580.206	10540.61
580.566	10663.32
580.927	10751.23
581.287	10887.5
581.648	11019.02
582.008	11128.62
582.368	11262.4
582.728	11401.61
583.089	11541.72
583.449	11678.44
583.809	11927.02
584.169	12083.85
584.529	12219.89
584.889	12410.17
585.249	12542.59
585.609	12794.11
585.969	12997.27
586.329	13251.28
586.688	13378.5
587.048	13613.3
587.408	13787.98
587.768	13986.4
588.127	14208.54
588.487	14477.68
588.846	14851.69
589.206	14897.33
589.565	15111.34
589.925	15510.88
590.284	15678.33
590.643	16024.99
591.003	16242.61
591.362	16589.49
591.721	16791.07
592.08	17055.02
592.44	17416.82
592.799	17730.48
593.158	17912.62
593.517	18118.94
593.876	18463.12
594.235	18731.58
594.593	19028.07
594.952	19307.39
595.311	19588.74
595.67	20012
596.029	20277.31
596.387	20614.02
596.746	20840.68
597.104	21053.78
597.463	21318.63
597.822	21708.91
598.18	21908.45
598.538	22152.28
598.897	22597.24
599.255	22698.49
599.613	23228.64
599.972	23331.46
600.33	23709.76
600.688	23795.63
601.046	24226.81
601.404	24600.13
601.762	24857.98
602.12	25155.82
602.478	25470.62
602.836	25771.85
603.194	25866.54
603.552	26103.14
603.91	26334.1
604.268	26700.41
604.625	26875.32
604.983	27273.28
605.341	27308.53
605.698	27793.04
606.056	28056.08
606.413	28218.11
606.771	28496.98
607.128	28663.07
607.485	28868.94
607.843	29062.39
608.2	29475.03
608.557	29572.2
608.914	29821.01
609.272	30127.89
609.629	30392.52
609.986	30737.82
610.343	30636.81
610.7	31039.96
611.057	31320.86
611.414	31416.67
611.771	31550.68
612.127	31830.45
612.484	32139.82
612.841	32313.15
613.198	32326.48
613.554	32450.77
613.911	32831.1
614.267	33009.85
614.624	33059.12
614.98	33379.33
615.337	33608.03
615.693	33684.41
616.05	33596.96
616.406	34067.23
616.762	34125.3
617.118	34277.16
617.475	34445.07
617.831	34511.73
618.187	34789.92
618.543	34989.91
618.899	35198.04
619.255	35216.35
619.611	35236.01
619.967	35471.71
620.323	35689.78
620.678	35612.04
621.034	35706.73
621.39	35808.65
621.746	35894.07
622.101	36378.58
622.457	36296.77
622.812	36356.43
623.168	36559.14
623.523	36604.79
623.879	36737.21
624.234	36552.58
624.589	36886.36
624.945	36977.88
625.3	36977.43
625.655	37024.44
626.01	37218.1
626.365	37249.29
626.72	37253.36
627.075	37332
627.43	37452.22
627.785	37403.41
628.14	37491.99
628.495	37653.12
628.85	37552.33
629.205	37477.76
629.559	37791.87
629.914	37695.38
630.269	37699.22
630.623	37612.44
630.978	37782.61
631.332	37749.61
631.687	37936.28
632.041	37858.99
632.396	38060.79
632.75	37977.41
633.104	37968.14
633.459	37912.32
633.813	37788.48
634.167	37903.74
634.521	37884.3
634.875	38079.78
635.229	38053.56
635.583	38002.04
635.937	37923.85
636.291	38028.93
636.645	38024.41
636.999	37955.71
637.352	38090.62
637.706	37889.72
638.06	38185.08
638.413	37993
638.767	37974.02
639.121	38009.04
639.474	37926.33
639.828	37895.37
640.181	37933.56
640.534	38006.56
640.888	37848.6
641.241	37834.13
641.594	37825.32
641.947	38085.88
642.301	37893.57
642.654	37923.17
643.007	37914.58
643.36	37981.02
643.713	37936.5
644.066	37908.71
644.419	37891.98
644.771	37545.33
645.124	37278.67
645.477	37154.15
645.83	36870.09
646.182	36920.94
646.535	36928.85
646.888	36936.53
647.24	36533.38
647.593	36899.24
647.945	36665.58
648.298	36706.03
648.65	36610.66
649.002	36525.92
649.355	36731.11
649.707	36633.49
650.059	36905.34
650.411	37081.61
650.763	37158.22
651.115	37651.54
651.467	37522.28
651.819	37546.46
652.171	37248.16
652.523	37444.99
652.875	37440.7
653.227	37268.27
653.578	37466.46
653.93	37439.57
654.282	37229.4
654.633	37142.4
654.985	37182.85
655.337	37302.62
655.688	37249.29
656.039	37372.9
656.391	37117.77
656.742	37137.43
657.094	37133.13
657.445	37263.3
657.796	37285.9
658.147	37184.21
658.498	37071.44
658.849	37226.01
659.2	37192.12
659.551	36998.67
659.902	37247.48
660.253	37153.25
660.604	37194.83
660.955	36973.59
661.306	37126.81
661.656	37112.8
662.007	37150.53
662.358	37145.11
662.708	37040.25
663.059	37079.58
663.409	36832.12
663.76	37148.05
664.11	37099.91
664.461	37186.01
664.811	37030.99
665.161	37012.23
665.511	36919.35
665.862	37028.96
666.212	37124.55
666.562	37188.27
666.912	37011.1
667.262	36982.86
667.612	36955.96
667.962	37045.68
668.312	36909.18
668.662	37032.12
669.011	36978.11
669.361	36955.51
669.711	36872.35
670.06	36780.15
670.41	36838.45
670.76	36836.42
671.109	36950.09
671.459	36930.2
671.808	36749.64
672.157	36877.55
672.507	36767.27
672.856	36762.3
673.205	36813.82
673.554	36821.73
673.904	36741.28
674.253	37009.07
674.602	36781.96
674.951	36209.32
675.3	36129.54
675.649	36692.47
675.998	36617.67
676.346	36798.23
676.695	36725.91
677.044	36527.95
677.393	36640.49
677.741	36572.47
678.09	36487.5
678.438	36480.5
678.787	36510.55
679.135	36572.92
679.484	36250.67
679.832	36551.45
680.181	36283.44
680.529	36266.49
680.877	36153.05
681.225	36118.92
681.573	36372.02
681.922	36131.8
682.27	35985.82
682.618	36091.58
682.966	36040.96
683.314	35979.49
683.661	35913.73
684.009	35821.53
684.357	35735.43
684.705	35649.78
685.053	35723.23
685.4	35591.03
685.748	35451.82
686.095	35327.76
686.443	35275.78
686.79	35325.5
687.138	35430.13
687.485	35296.35
687.832	35306.29
688.18	35197.14
688.527	35104.71
688.874	35054.32
689.221	34975.45
689.568	34873.53
689.915	34790.6
690.262	34778.39
690.609	34747.43
690.956	34591.96
691.303	34556.48
691.65	34302.93
691.997	34440.1
692.344	34146.77
692.69	34233.78
693.037	34310.61
693.383	34060.9
693.73	34066.32
694.077	33925.08
694.423	34074.68
694.769	33787.23
695.116	33690.51
695.462	33695.48
695.808	33689.61
696.155	33655.94
696.501	33372.33
696.847	33400.8
697.193	33119.23
697.539	33246.23
697.885	33132.56
698.231	32915.62
698.577	32944.77
698.923	32871.32
699.269	32723.76
699.614	32554.5
699.96	32594.04
700.306	32511.11
700.651	32455.29
700.997	32341.17
701.342	32319.7
701.688	32121.97
702.033	32084.68
702.379	32034.96
702.724	32013.95
703.069	32128.29
703.415	31704.35
703.76	31700.06
704.105	31675.42
704.45	31597.69
704.795	31499.38
705.14	31405.6
705.485	31439.27
705.83	31263.01
706.175	31339.61
706.52	31182.78
706.865	31246.73
707.209	31070.47
707.554	31079.06
707.899	31044.25
708.243	30841.32
708.588	30746.41
708.932	30520.88
709.277	30541.67
709.621	30616.69
709.966	30375.57
710.31	30395.01
710.654	30114.56
710.998	30282.69
711.342	30322.01
711.687	30217.84
712.031	30099.87
712.375	29990.5
712.719	29954.34
713.063	29878.18
713.407	29999.54
713.75	29835.02
714.094	29848.35
714.438	29717.06
714.782	29657.62
715.125	29360.68
715.469	29529.94
715.812	29529.04
716.156	29329.27
716.499	29327.46
716.843	29402.04
717.186	29204.98
717.53	29319.55
717.873	29196.62
718.216	29126.34
718.559	29064.65
718.902	28938.1
719.246	28975.16
719.589	28922.28
719.932	28666.01
720.275	28794.14
720.617	28772.68
720.96	28602.96
721.303	28747.59
721.646	28691.55
721.989	28454.72
722.331	28543.53
722.674	28470.54
723.016	28494.04
723.359	28497.43
723.701	28382.63
724.044	28161.84
724.386	28155.97
724.729	28225.12
725.071	28153.03
725.413	28093.37
725.755	28240.03
726.097	28005.92
726.439	27913.26
726.782	27821.74
727.124	27983.32
727.465	27828.29
727.807	27817.22
728.149	27700.84
728.491	27592.59
728.833	27671.01
729.175	27526.15
729.516	27560.28
729.858	27610.22
730.199	27505.14
730.541	27537.23
730.882	27482.54
731.224	27422.2
731.565	27237.12
731.906	27331.81
732.248	27253.17
732.589	27156.45
732.93	27004.13
733.271	27137.24
733.612	27156.9
733.953	27118.03
734.294	26950.35
734.635	26992.61
734.976	27018.82
735.317	26883.69
735.658	26824.48
735.999	26864.03
736.339	26731.15
736.68	26820.18
737.021	26671.04
737.361	26666.52
737.702	26809.79
738.042	26581.77
738.383	26612.73
738.723	26619.96
739.063	26477.37
739.404	26431.04
739.744	26441.66
740.084	26372.74
740.424	26481.44
740.764	26311.27
741.104	26400.99
741.444	26214.78
741.784	26154.44
742.124	26265.62
742.464	26199.18
742.804	26033.76
743.143	26076.02
743.483	26061.79
743.823	25845.75
744.162	25912.19
744.502	26043.93
744.841	25840.55
745.181	25918.74
745.52	25744.51
745.86	25804.39
746.199	25817.05
746.538	25704.96
746.877	25725.3
747.216	25666.77
747.556	25576.83
747.895	25566.43
748.234	25542.03
748.573	25412.76
748.911	25488.92
749.25	25295.48
749.589	25314.69
749.928	25325.53
750.267	25347
750.605	25308.81
750.944	25141.36
751.283	25186.56
751.621	25255.48
751.96	25011.87
752.298	24977.97
752.636	25073.79
752.975	24794.02
753.313	24793.35
753.651	24928.03
753.989	24686
754.327	24726
754.666	24616.85
755.004	24608.72
755.342	24659.79
755.679	24511.77
756.017	24497.76
756.355	24446.01
756.693	24419.8
757.031	24295.28
757.368	24254.38
757.706	24262.29
758.044	24045.79
758.381	24174.83
758.719	24074.72
759.056	24020.48
759.394	24060.94
759.731	23635.18
760.068	23709.53
760.405	23759.25
760.743	23690.78
761.08	23743.2
761.417	23667.05
761.754	23379.15
762.091	23469.76
762.428	23318.58
762.765	23288.07
763.102	23329.65
763.438	22967.18
763.775	23036.56
764.112	23127.17
764.449	22964.24
764.785	22867.07
765.122	22668.88
765.458	22725.15
765.795	22626.17
766.131	22539.39
766.467	22627.98
766.804	22433.63
767.14	22227.76
767.476	22327.87
767.812	22220.08
768.148	22256.46
768.485	22007.2
768.821	21973.53
769.157	21963.82
769.492	21829.81
769.828	21855.12
770.164	21602.24
770.5	21680.21
770.836	21658.29
771.171	21454.9
771.507	21437.05
771.842	21336.49
772.178	21286.54
772.513	21258.52
772.849	21064.18
773.184	21015.37
773.519	20972.65
773.855	20992.77
774.19	20901.92
774.525	20824.41
774.86	20802.04
775.195	20828.03
775.53	20689.72
775.865	20494.48
776.2	20426.68
776.535	20323.63
776.87	20242.73
777.205	20266.01
777.539	20065.79
777.874	20217.19
778.209	19972.91
778.543	19918.9
778.878	19840.71
779.212	19835.28
779.547	19651.56
779.881	19667.15
780.215	19509.64
780.55	19575.4
780.884	19516.87
781.218	19438.91
781.552	19421.28
781.886	19246.82
782.22	19163.66
782.554	19007.51
782.888	18873.5
783.222	18927.96
783.556	18726.16
783.889	18805.71
784.223	18586.5
784.557	18488.65
784.89	18644.13
785.224	18448.88
785.557	18389.67
785.891	18365.94
786.224	18231.71
786.558	18268.09
786.891	18074.65
787.224	18053.64
787.557	18090.47
787.891	18004.15
788.224	17963.02
788.557	17968.89
788.89	17870.14
789.223	17811.61
789.556	17658.17
789.888	17658.84
790.221	17635.12
790.554	17473.09
790.887	17486.64
791.219	17367.55
791.552	17387.66
791.884	17319.42
792.217	17229.93
792.549	17121.46
792.882	17026.77
793.214	16951.97
793.546	17030.16
793.879	16814.8
794.211	16795.14
794.543	16879.88
794.875	16836.49
795.207	16832.42
795.539	16652.77
795.871	16673.33
796.203	16515.37
796.535	16465.43
796.867	16347.24
797.198	16319.22
797.53	16310.18
797.862	16292.1
798.193	16197.41
798.525	16164.42
798.856	16168.94
799.188	15967.81
799.519	16030.41
799.85	15797.88
800.182	15981.6
800.513	15851.66
800.844	15742.28
801.175	15791.55
801.506	15683.53
801.837	15700.03
802.168	15639.69
802.499	15583.42
802.83	15583.87
803.161	15444.89
803.491	15419.35
803.822	15338.9
804.153	15335.29
804.483	15256.42
804.814	15104.33
805.145	15158.8
805.475	15095.3
805.805	15071.34
806.136	15125.58
806.466	15043.09
806.796	14944.34
807.126	14817.11
807.457	14827.73
807.787	14801.07
808.117	14784.12
808.447	14729.66
808.777	14785.02
809.107	14689.88
809.436	14687.85
809.766	14580.51
810.096	14583.44
810.426	14567.63
810.755	14558.59
811.085	14424.8
811.414	14414.64
811.744	14397.91
812.073	14353.85
812.403	14303.45
812.732	14211.25
813.061	14224.13
813.39	14163.79
813.719	14149.33
814.049	14139.16
814.378	14054.87
814.707	14073.85
815.036	14034.76
815.365	13944.82
815.693	13841.32
816.022	13855.55
816.351	13808.1
816.68	13724.94
817.008	13757.48
817.337	13667.08
817.665	13640.19
817.994	13639.51
818.322	13632.51
818.651	13558.61
818.979	13562.68
819.307	13569.69
819.636	13508.67
819.964	13402.91
820.292	13517.71
820.62	13433.64
820.948	13406.53
821.276	13372.18
821.604	13428.22
821.932	13401.55
822.259	13396.13
822.587	13357.94
822.915	13308.68
823.243	13321.33
823.57	13378.73
823.898	13365.62
824.225	13300.31
824.553	13292.63
824.88	13330.37
825.207	13360.88
825.535	13301.9
825.862	13370.59
826.189	13235.68
826.516	13355.91
826.843	13413.98
827.17	13304.16
827.497	13403.36
827.824	13348.67
828.151	13354.1
828.478	13328.79
828.805	13346.41
829.131	13336.02
829.458	13283.14
829.785	13256.25
830.111	13316.81
830.438	13291.95
830.764	13291.73
831.09	13341.89
831.417	13239.52
831.743	13234.1
832.069	13227.55
832.395	13235.23
832.722	13168.57
833.048	13196.36
833.374	13168.79
833.7	13121.56
834.026	13112.75
834.351	13136.02
834.677	13087.44
835.003	13150.04
835.329	13133.76
835.654	13104.16
835.98	13091.51
836.306	13055.8
836.631	13154.33
836.956	13115.69
837.282	13093.99
837.607	12977.84
837.932	12949.36
838.258	12954.79
838.583	12963.15
838.908	12810.61
839.233	12895.35
839.558	12859.42
839.883	12757.96
840.208	12727.67
840.533	12831.17
840.858	12772.42
841.182	12811.29
841.507	12722.48
841.832	12639.77
842.156	12698.97
842.481	12596.15
842.805	12626.89
843.13	12594.57
843.454	12514.12
843.778	12512.09
844.103	12454.01
844.427	12465.76
844.751	12453.56
845.075	12427.57
845.399	12365.65
845.723	12313.9
846.047	12285.2
846.371	12277.74
846.695	12202.26
847.019	12152.55
847.343	12083.62
847.666	11997.07
847.99	12014.02
848.313	11976.06
848.637	11798.66
848.96	11843.86
849.284	11803.63
849.607	11729.06
849.931	11690.64
850.254	11668.27
850.577	11538.33
850.9	11442.74
851.223	11491.1
851.546	11482.96
851.869	11381.95
852.192	11399.12
852.515	11213.36
852.838	11241.16
853.161	11299.91
853.483	11205.68
853.806	11117.32
854.129	11141.95
854.451	11056.08
854.774	11038.23
855.096	10928.63
855.419	10953.26
855.741	10908.06
856.063	10836.42
856.385	10809.76
856.708	10820.83
857.03	10744.9
857.352	10749.19
857.674	10751.68
857.996	10716.2
858.318	10664
858.64	10656.54
858.961	10591.46
859.283	10610.89
859.605	10561.63
859.926	10550.33
860.248	10527.73
860.57	10504.46
860.891	10391.46
861.212	10381.75
861.534	10387.4
861.855	10371.58
862.176	10405.47
862.498	10365.02
862.819	10322.31
863.14	10348.98
863.461	10262.88
863.782	10279.83
864.103	10236.67
864.424	10238.7
864.745	10237.8
865.065	10128.19
865.386	10133.62
865.707	10089.78
866.027	10091.36
866.348	10111.47
866.668	10123.45
866.989	10033.06
867.309	9978.82
867.63	10053.17
867.95	10012.94
868.27	9912.38
868.59	10016.33
868.91	9897.01
869.23	9932.95
869.55	9819.05
869.87	9933.17
870.19	9941.76
870.51	9906.05
870.83	9962.55
871.15	9845.72
871.469	9816.34
871.789	9874.87
872.109	9805.72
872.428	9777.47
872.748	9802.78
873.067	9773.85
873.386	9762.78
873.706	9776.11
874.025	9683.69
874.344	9717.36
874.663	9709.67
874.982	9712.39
875.301	9615.89
875.62	9574.08
875.939	9604.37
876.258	9636.91
876.577	9562.79
876.896	9632.61
877.214	9516.23
877.533	9490.92
877.852	9454.09
878.17	9538.38
878.489	9510.36
878.807	9469
879.125	9466.52
879.444	9503.35
879.762	9345.39
880.08	9364.82
880.398	9377.93
880.716	9348.78
881.034	9344.49
881.352	9310.59
881.67	9280.53
881.988	9265.39
882.306	9240.08
882.624	9204.15
882.941	9268.78
883.259	9188.56
883.577	9178.39
883.894	9151.5
884.212	9112.85
884.529	9099.29
884.846	9076.24
885.164	9036.92
885.481	9034.21
885.798	9031.95
886.115	8973.65
886.432	9010.94
886.75	8938.62
887.067	8924.84
887.383	8941.78
887.7	8873.99
888.017	8892.29
888.334	8872.86
888.651	8805.52
888.967	8847.1
889.284	8745.86
889.6	8784.73
889.917	8664.73
890.233	8734.56
890.55	8648.23
890.866	8744.28
891.182	8660.66
891.498	8694.33
891.815	8577.05
892.131	8554.22
892.447	8538.86
892.763	8502.7
893.079	8554.68
893.395	8436.49
893.71	8471.29
894.026	8432.19
894.342	8421.35
894.657	8399.2
894.973	8385.64
895.289	8336.6
895.604	8302.71
895.92	8214.8
896.235	8235.14
896.55	8203.5
896.865	8163.95
897.181	8141.58
897.496	8189.49
897.811	8134.8
898.126	8044.18
898.441	8059.77
898.756	8039.44
899.071	7975.93
899.386	7976.16
899.7	7893.68
900.015	7919.21
900.33	7910.85
900.644	7820.46
900.959	7886.22
901.273	7807.35
901.588	7709.27
901.902	7777.3
902.216	7696.62
902.531	7694.36
902.845	7624.98
903.159	7599
903.473	7562.84
903.787	7483.29
904.101	7564.42
904.415	7469.06
904.729	7492.78
905.042	7455.27
905.356	7375.95
905.67	7422.5
905.984	7384.54
906.297	7367.81
906.611	7269.51
906.924	7310.19
907.237	7317.42
907.551	7240.81
907.864	7217.76
908.177	7187.93
908.491	7143.64
908.804	7080.36
909.117	7058.67
909.43	7045.56
909.743	7023.87
910.056	6990.42
910.368	6941.16
910.681	6992.01
910.994	6888.96
911.307	6852.35
911.619	6812.8
911.932	6850.54
912.244	6795.17
912.557	6728.96
912.869	6710.88
913.181	6715.18
913.494	6697.78
913.806	6670.21
914.118	6600.6
914.43	6612.81
914.742	6572.13
915.054	6592.92
915.366	6464.34
915.678	6489.19
915.99	6528.51
916.302	6408.74
916.613	6407.84
916.925	6421.85
917.236	6394.28
917.548	6388.63
917.859	6338.01
918.171	6319.93
918.482	6275.64
918.794	6230.67
919.105	6260.27
919.416	6182.99
919.727	6185.92
920.038	6135.76
920.349	6136.21
920.66	6062.54
920.971	6088.98
921.282	6043.1
921.593	6006.04
921.903	5968.98
922.214	5944.8
922.525	5957.46
922.835	5964.24
923.146	5901.19
923.456	5857.35
923.767	5838.36
924.077	5850.11
924.387	5803.79
924.697	5786.16
925.008	5792.49
925.318	5722.21
925.628	5700.29
925.938	5716.33
926.248	5648.54
926.558	5650.35
926.867	5620.29
927.177	5582.32
927.487	5524.25
927.796	5490.12
928.106	5525.15
928.416	5530.12
928.725	5456.68
929.034	5411.48
929.344	5426.85
929.653	5394.76
929.962	5387.98
930.271	5340.07
930.581	5293.97
930.89	5328.55
931.199	5242.9
931.508	5251.94
931.817	5261.88
932.125	5216.23
932.434	5208.78
932.743	5143.92
933.051	5137.36
933.36	5155.22
933.669	5107.76
933.977	5094.65
934.286	5060.08
934.594	5068.67
934.902	5025.96
935.21	4999.52
935.519	4931.27
935.827	4951.38
936.135	4916.58
936.443	4930.82
936.751	4849.91
937.059	4879.29
937.367	4855.34
937.674	4842.01
937.982	4806.98
938.29	4763.59
938.597	4771.5
938.905	4702.57
939.213	4693.76
939.52	4702.57
939.827	4682.46
940.135	4635.01
940.442	4620.77
940.749	4658.06
941.056	4687.43
941.363	4552.75
941.67	4571.96
941.977	4561.56
942.284	4517.27
942.591	4501.9
942.898	4475.46
943.205	4469.81
943.511	4419.42
943.818	4422.13
944.125	4427.78
944.431	4390.04
944.738	4402.92
945.044	4358.18
945.35	4354.56
945.657	4299.87
945.963	4296.94
946.269	4268.01
946.575	4240.44
946.881	4238.86
947.187	4227.11
947.493	4162.02
947.799	4207.67
948.105	4200.21
948.41	4136.94
948.716	4106.21
949.022	4147.79
949.327	4108.69
949.633	4095.81
949.938	4090.16
950.244	4079.54
950.549	4021.01
950.854	4030.95
951.16	3973.55
951.465	3994.57
951.77	3951.41
952.075	3955.25
952.38	3922.48
952.685	3930.39
952.99	3873.9
953.294	3905.08
953.599	3867.12
953.904	3844.07
954.209	3846.33
954.513	3801.81
954.818	3804.74
955.122	3837.74
955.426	3800.22
955.731	3768.36
956.035	3729.72
956.339	3723.16
956.643	3728.36
956.948	3679.55
957.252	3660.57
957.556	3666.22
957.86	3627.57
958.163	3628.03
958.467	3635.48
958.771	3630.29
959.075	3634.81
959.378	3562.49
959.682	3568.14
959.985	3534.92
960.289	3556.39
960.592	3484.53
960.896	3514.81
961.199	3460.8
961.502	3486.33
961.805	3468.71
962.108	3455.38
962.411	3407.01
962.714	3405.43
963.017	3428.26
963.32	3397.52
963.623	3335.38
963.926	3313.46
964.228	3311.65
964.531	3285.21
964.833	3279.33
965.136	3294.25
965.438	3256.28
965.741	3260.35
966.043	3242.05
966.345	3223.06
966.648	3220.13
966.95	3204.99
967.252	3167.7
967.554	3209.96
967.856	3200.01
968.158	3149.62
968.46	3118.43
968.761	3108.49
969.063	3083.41
969.365	3074.14
969.666	3087.7
969.968	3069.17
970.269	3018.1
970.571	3026.69
970.872	3043.86
971.174	2986.91
971.475	2982.62
971.776	3037.76
972.077	2970.19
972.378	2996.4
972.679	2949.63
972.98	2945.11
973.281	2921.83
973.582	2939.46
973.883	2931.1
974.183	2885.9
974.484	2879.8
974.785	2878.89
975.085	2871.89
975.386	2880.48
975.686	2855.62
975.986	2818.33
976.287	2795.28
976.587	2756.64
976.887	2777.2
977.187	2778.56
977.487	2762.29
977.787	2760.03
978.087	2774.72
978.387	2739.91
978.687	2722.51
978.987	2684.77
979.286	2669.63
979.586	2659.92
979.885	2655.17
980.185	2683.42
980.484	2645.68
980.784	2616.98
981.083	2610.43
981.382	2569.07
981.682	2613.59
981.981	2570.88
982.28	2553.25
982.579	2565.91
982.878	2555.96
983.177	2520.94
983.475	2525.46
983.774	2496.98
984.073	2473.71
984.372	2492.91
984.67	2489.52
984.969	2479.58
985.267	2480.71
985.566	2453.59
985.864	2432.13
986.162	2456.53
986.461	2443.88
986.759	2383.77
987.057	2392.35
987.355	2347.61
987.653	2363.43
987.951	2342.64
988.249	2332.69
988.547	2366.14
988.844	2328.4
989.142	2325.46
989.44	2315.74
989.737	2305.12
990.035	2250.89
990.332	2257.67
990.63	2245.92
990.927	2272.81
991.224	2245.01
991.521	2225.35
991.819	2223.09
992.116	2226.93
992.413	2245.24
992.71	2188.97
993.006	2189.42
993.303	2195.07
993.6	2142.19
993.897	2194.62
994.193	2168.86
994.49	2131.79
994.787	2124.56
995.083	2123.66
995.379	2131.12
995.676	2116.43
995.972	2111.23
996.268	2081.85
996.565	2056.32
996.861	2062.42
997.157	1997.11
997.453	2030.33
997.749	2068.07
998.044	2038.92
998.34	2023.77
998.636	2002.08
998.932	2008.86
999.227	1969.31
999.523	1965.92
999.818	1974.06
1000.114	1931.8
1000.409	1934.06
1000.704	1922.08
1001	1904.91
1001.295	1924.34
1001.59	1902.2
1001.885	1883.89
1002.18	1846.6
1002.475	1863.55
1002.77	1866.94
1003.065	1831.24
1003.359	1833.5
1003.654	1823.78
1003.949	1798.02
1004.243	1808.41
1004.538	1795.31
1004.832	1807.06
1005.127	1785.59
1005.421	1779.04
1005.715	1734.74
1006.009	1777
1006.304	1717.34
1006.598	1728.64
1006.892	1705.82
1007.186	1711.92
1007.48	1700.85
1007.773	1689.09
1008.067	1702.43
1008.361	1692.71
1008.655	1681.18
1008.948	1671.02
1009.242	1654.74
1009.535	1641.86
1009.829	1638.02
1010.122	1640.73
1010.415	1618.14
1010.708	1600.06
1011.001	1586.27
1011.295	1569.1
1011.588	1579.72
1011.881	1595.76
1012.173	1579.04
1012.466	1546.95
1012.759	1540.85
1013.052	1517.8
1013.344	1501.98
1013.637	1521.64
1013.93	1506.5
1014.222	1518.93
1014.514	1485.48
1014.807	1497.69
1015.099	1450.91
1015.391	1465.37
1015.683	1465.15
1015.976	1470.12
1016.268	1463.34
1016.56	1447.07
1016.851	1427.86
1017.143	1429.44
1017.435	1442.77
1017.727	1401.64
1018.018	1368.88
1018.31	1382.44
1018.602	1378.37
1018.893	1382.21
1019.185	1364.58
1019.476	1334.3
1019.767	1353.74
1020.058	1324.36
1020.35	1305.6
1020.641	1314.41
1020.932	1296.11
1021.223	1295.43
1021.514	1273.74
1021.804	1282.33
1022.095	1254.08
1022.386	1288.2
1022.677	1248.43
1022.967	1261.76
1023.258	1256.11
1023.548	1241.42
1023.839	1231.7
1024.129	1204.81
1024.419	1213.4
1024.709	1196
1025	1185.15
1025.29	1213.63
1025.58	1178.82
1025.87	1176.57
1026.16	1162.78
1026.449	1160.97
1026.739	1157.58
1027.029	1116.23
1027.319	1128.2
1027.608	1140.41
1027.898	1131.14
1028.187	1095.21
1028.477	1098.38
1028.766	1109
1029.055	1089.56
1029.344	1104.93
1029.634	1078.71
1029.923	1076.68
1030.212	1045.04
1030.501	1072.61
1030.79	1055.66
1031.078	1062.44
1031.367	1051.37
1031.656	1039.17
1031.945	1018.15
1032.233	1047.53
1032.522	1031.48
1032.81	1042.33
1033.099	989.68
1033.387	986.97
1033.675	1001.2
1033.963	990.13
1034.251	961.2
1034.54	992.84
1034.828	963.46
1035.116	961.2
1035.403	956.01
1035.691	955.55
1035.979	970.24
1036.267	937.48
1036.554	933.41
1036.842	926.63
1037.129	936.57
1037.417	920.75
1037.704	910.58
1037.992	924.82
1038.279	884.82
1038.566	888.21
1038.853	888.21
1039.14	888.21
