Data from hue_300_FLMS001491_00058.txt Node
Date: Tue Feb 07 15:50:55 GMT 2017
User: dcchb
Spectrometer: FLMS00149
Trigger mode: 0
Integration Time (sec): 2.000000E-2
Scans to average: 10
Electric dark correction enabled: true
Nonlinearity correction enabled: false
Boxcar width: 0
XAxis mode: Wavelengths
Number of Pixels in Spectrum: 2048
>>>>>Begin Spectral Data<<<<<
341.393	-6.07
341.776	-6.07
342.16	-6.07
342.543	-58.73
342.927	-58.28
343.31	-73.19
343.693	-63.47
344.077	-75.68
344.46	-51.5
344.843	-50.37
345.226	-36.13
345.61	-46.07
345.993	-30.93
346.376	0.48
346.759	5.45
347.142	34.15
347.525	65.79
347.908	62.17
348.291	55.62
348.674	80.03
349.057	123.64
349.44	127.93
349.823	153.92
350.206	160.7
350.588	185.11
350.971	200.47
351.354	222.17
351.737	228.27
352.119	242.06
352.502	244.77
352.884	270.3
353.267	268.5
353.65	269.63
354.032	282.51
354.414	282.51
354.797	337.19
355.179	326.35
355.562	317.31
355.944	325.67
356.326	323.86
356.709	309.4
357.091	332.9
357.473	343.52
357.855	320.47
358.238	327.03
358.62	326.8
359.002	334.71
359.384	336.74
359.766	345.78
360.148	329.74
360.53	338.1
360.912	306.46
361.294	337.65
361.676	326.57
362.057	330.87
362.439	326.8
362.821	334.03
363.203	326.12
363.584	340.36
363.966	314.6
364.348	315.73
364.729	328.83
365.111	307.14
365.493	335.39
365.874	326.57
366.256	328.38
366.637	321.83
367.019	311.88
367.4	318.44
367.781	310.75
368.163	308.72
368.544	316.4
368.925	304.65
369.306	319.12
369.688	317.53
370.069	327.93
370.45	298.33
370.831	312.34
371.212	327.48
371.593	327.48
371.974	315.05
372.355	296.97
372.736	303.3
373.117	308.95
373.498	315.73
373.879	322.05
374.26	300.59
374.641	316.86
375.021	300.59
375.402	307.14
375.783	324.99
376.163	346.91
376.544	316.86
376.925	307.59
377.305	321.6
377.686	337.19
378.066	332.9
378.447	332.9
378.827	324.54
379.208	341.49
379.588	339.45
379.968	327.48
380.349	345.78
380.729	322.96
381.109	334.71
381.489	322.96
381.87	319.34
382.25	342.39
382.63	335.16
383.01	343.75
383.39	316.18
383.77	325.22
384.15	328.16
384.53	344.65
384.91	315.27
385.29	336.52
385.67	333.58
386.049	338.55
386.429	360.24
386.809	363.86
387.189	355.73
387.568	336.29
387.948	361.83
388.328	350.98
388.707	372.22
389.087	347.36
389.466	380.13
389.846	346.01
390.225	344.88
390.605	364.31
390.984	370.64
391.363	356.63
391.743	371.09
392.122	380.58
392.501	375.39
392.881	365.22
393.26	368.38
393.639	374.48
394.018	359.11
394.397	391.2
394.776	379.91
395.155	366.12
395.534	389.62
395.913	395.05
396.292	387.59
396.671	374.48
397.05	385.33
397.429	392.33
397.808	389.4
398.186	390.98
398.565	391.66
398.944	396.4
399.323	384.88
399.701	396.85
400.08	394.59
400.458	414.93
400.837	409.28
401.215	398.66
401.594	419.45
401.972	425.33
402.351	394.82
402.729	427.81
403.107	427.14
403.486	430.53
403.864	435.05
404.242	418.77
404.62	427.81
404.999	430.07
405.377	444.08
405.755	449.06
406.133	461.03
406.511	460.81
406.889	446.8
407.267	468.49
407.645	487.93
408.023	474.37
408.401	477.76
408.779	472.11
409.156	476.63
409.534	489.05
409.912	490.86
410.29	517.3
410.667	523.63
411.045	522.73
411.422	514.82
411.8	525.21
412.178	544.19
412.555	565.21
412.933	542.39
413.31	552.33
413.687	564.53
414.065	597.07
414.442	584.65
414.819	599.33
415.197	594.81
415.574	610.41
415.951	640.46
416.328	621.93
416.705	623.97
417.082	645.89
417.46	668.94
417.837	685.66
418.214	666.45
418.591	680.69
418.967	675.04
419.344	679.56
419.721	698.54
420.098	693.57
420.475	695.38
420.852	707.13
421.228	711.87
421.605	733.12
421.982	750.97
422.358	759.78
422.735	766.34
423.111	778.31
423.488	800.91
423.864	786.45
424.241	777.86
424.617	798.65
424.994	794.13
425.37	807.69
425.746	828.48
426.123	841.36
426.499	840.46
426.875	875.03
427.251	882.04
427.627	888.59
428.003	891.53
428.379	900.34
428.756	929.72
429.132	907.58
429.507	924.52
429.883	934.92
430.259	961.36
430.635	962.26
431.011	985.54
431.387	988.25
431.763	1014.69
432.138	1000
432.514	1012.88
432.89	1030.06
433.265	1048.59
433.641	1032.77
434.016	1040.45
434.392	1061.92
434.767	1061.02
435.143	1068.47
435.518	1092.88
435.894	1145.08
436.269	1153.67
436.644	1140.56
437.02	1149.83
437.395	1154.12
437.77	1187.12
438.145	1179.88
438.52	1167.91
438.895	1204.74
439.271	1182.37
439.646	1213.33
440.021	1248.36
440.395	1220.34
440.77	1227.79
441.145	1247
441.52	1264.4
441.895	1235.7
442.27	1260.11
442.645	1262.59
443.019	1278.86
443.394	1303.5
443.769	1268.47
444.143	1285.87
444.518	1321.35
444.892	1286.1
445.267	1322.71
445.641	1325.64
446.016	1326.55
446.39	1333.1
446.764	1341.69
447.139	1336.94
447.513	1345.76
447.887	1358.41
448.262	1362.03
448.636	1367.22
449.01	1352.31
449.384	1362.7
449.758	1376.94
450.132	1396.38
450.506	1379.43
450.88	1407.9
451.254	1356.6
451.628	1423.72
452.002	1434.57
452.376	1426.21
452.75	1414.45
453.123	1404.29
453.497	1440.67
453.871	1461.01
454.244	1481.35
454.618	1499.65
454.992	1492.64
455.365	1485.19
455.739	1532.64
456.112	1524.51
456.486	1537.39
456.859	1507.11
457.232	1569.48
457.606	1558.18
457.979	1551.85
458.352	1592.08
458.725	1587.78
459.099	1606.09
459.472	1631.17
459.845	1656.48
460.218	1638.86
460.591	1650.61
460.964	1666.2
461.337	1694.9
461.71	1674.56
462.083	1704.39
462.456	1705.97
462.829	1716.82
463.201	1715.69
463.574	1724.5
463.947	1745.07
464.32	1783.71
464.692	1765.18
465.065	1782.35
465.438	1820.32
465.81	1845.4
466.183	1818.74
466.555	1865.29
466.928	1883.59
467.3	1850.38
467.672	1867.32
468.045	1924.5
468.417	1957.26
468.789	1901
469.161	1950.49
469.534	1939.41
469.906	1975.57
470.278	1977.15
470.65	1975.8
471.022	2053.08
471.394	2057.83
471.766	2088.11
472.138	2096.47
472.51	2148.45
472.882	2129.69
473.253	2122.23
473.625	2122.91
473.997	2184.6
474.369	2204.04
474.74	2200.42
475.112	2226.18
475.484	2269.35
475.855	2257.37
476.227	2312.51
476.598	2328.78
476.97	2330.59
477.341	2386.63
477.713	2389.8
478.084	2421.21
478.455	2423.02
478.827	2460.75
479.198	2508.66
479.569	2519.51
479.94	2538.94
480.311	2552.73
480.682	2599.51
481.053	2624.14
481.424	2655.33
481.795	2636.57
482.166	2714.31
482.537	2743.91
482.908	2799.73
483.279	2773.29
483.65	2796.56
484.021	2844.7
484.391	2856
484.762	2884.7
485.133	2871.37
485.503	2917.01
485.874	2947.3
486.244	2950.23
486.615	2992.72
486.985	2997.46
487.356	3079.04
487.726	3118.36
488.097	3124.01
488.467	3155.88
488.837	3161.53
489.207	3260.73
489.578	3199.04
489.948	3221.19
490.318	3294.63
490.688	3254.63
491.058	3295.31
491.428	3325.82
491.798	3366.04
492.168	3425.7
492.538	3407.4
492.908	3465.7
493.278	3480.61
493.648	3449.43
494.017	3485.36
494.387	3514.29
494.757	3501.63
495.126	3586.83
495.496	3587.28
495.866	3597.67
496.235	3634.73
496.605	3659.14
496.974	3647.16
497.344	3691.46
497.713	3700.95
498.082	3691.68
498.452	3676.32
498.821	3712.47
499.19	3759.03
499.559	3747.73
499.928	3754.28
500.298	3795.86
500.667	3758.8
501.036	3791.34
501.405	3802.64
501.774	3800.61
502.143	3866.37
502.512	3848.74
502.88	3875.86
503.249	3853.71
503.618	3891.68
503.987	3923.77
504.356	3948.4
504.724	3960.6
505.093	3928.29
505.462	3968.06
505.83	3963.09
506.199	3987.04
506.567	3970.32
506.936	3980.26
507.304	4061.84
507.672	4022.07
508.041	4045.8
508.409	4087.38
508.777	4080.6
509.145	4158.56
509.514	4141.84
509.882	4144.78
510.25	4107.94
510.618	4180.71
510.986	4135.74
511.354	4182.52
511.722	4189.3
512.09	4214.15
512.458	4188.17
512.826	4207.6
513.193	4234.04
513.561	4235.62
513.929	4243.31
514.297	4274.27
514.664	4254.38
515.032	4304.55
515.4	4335.51
515.767	4336.86
516.135	4332.57
516.502	4320.14
516.869	4398.78
517.237	4355.85
517.604	4366.69
517.972	4395.39
518.339	4375.05
518.706	4411.66
519.073	4374.6
519.44	4373.25
519.808	4420.7
520.175	4402.4
520.542	4482.4
520.909	4424.09
521.276	4467.26
521.643	4438.78
522.009	4473.58
522.376	4536.86
522.743	4546.58
523.11	4554.71
523.477	4625.22
523.843	4554.26
524.21	4637.19
524.577	4708.61
524.943	4657.08
525.31	4703.86
525.676	4729.4
526.043	4696.63
526.409	4759.9
526.776	4784.31
527.142	4736.17
527.508	4828.83
527.874	4846
528.241	4847.13
528.607	4852.1
528.973	4911.76
529.339	4883.74
529.705	4970.97
530.071	4967.36
530.437	5015.94
530.803	4978.2
531.169	5033.79
531.535	4990.86
531.901	5077.41
532.267	5084.87
532.632	5120.12
532.998	5093
533.364	5142.27
533.73	5172.32
534.095	5203.28
534.461	5183.62
534.826	5226.78
535.192	5262.04
535.557	5305.43
535.923	5262.94
536.288	5294.13
536.653	5293.67
537.019	5304.52
537.384	5360.34
537.749	5377.06
538.114	5384.75
538.479	5379.1
538.845	5461.13
539.21	5435.82
539.575	5462.71
539.94	5509.26
540.305	5563.27
540.67	5516.72
541.034	5526.44
541.399	5549.71
541.764	5598.75
542.129	5603.04
542.494	5680.1
542.858	5634.91
543.223	5668.58
543.587	5681.91
543.952	5747.22
544.316	5760.33
544.681	5770.27
545.045	5793.77
545.41	5790.38
545.774	5835.13
546.138	5868.57
546.503	5902.02
546.867	5895.92
547.231	5943.83
547.595	5939.31
547.959	5972.07
548.324	6010.72
548.688	5979.31
549.052	6017.5
549.416	6032.41
549.779	6086.42
550.143	6118.06
550.507	6119.42
550.871	6152.18
551.235	6123.71
551.599	6184.72
551.962	6180.88
552.326	6221.79
552.689	6181.79
553.053	6220.88
553.417	6236.93
553.78	6292.52
554.143	6298.85
554.507	6344.27
554.87	6370.71
555.234	6384.27
555.597	6332.29
555.96	6413.64
556.323	6430.14
556.686	6424.04
557.05	6452.97
557.413	6484.83
557.776	6483.02
558.139	6469.24
558.502	6535.22
558.865	6513.53
559.228	6557.82
559.59	6600.31
559.953	6550.14
560.316	6643.92
560.679	6636.01
561.041	6616.58
561.404	6686.63
561.767	6704.94
562.129	6629.23
562.492	6723.69
562.854	6719.4
563.217	6697.71
563.579	6800.53
563.941	6816.12
564.304	6822.67
564.666	6866.29
565.028	6859.96
565.39	6923.69
565.753	6961.88
566.115	6961.2
566.477	6954.2
566.839	6940.18
567.201	7064.7
567.563	7023.57
567.925	7057.47
568.287	7083.01
568.648	7087.3
569.01	7110.35
569.372	7230.8
569.734	7227.18
570.095	7252.27
570.457	7295.2
570.819	7271.7
571.18	7295.43
571.542	7385.6
571.903	7394.64
572.265	7466.72
572.626	7495.2
572.987	7515.31
573.349	7584.69
573.71	7645.25
574.071	7710.11
574.432	7751.01
574.794	7847.51
575.155	7829.88
575.516	7870.33
575.877	7955.3
576.238	8005.92
576.599	8054.96
576.96	8125.01
577.32	8188.29
577.681	8285.23
578.042	8365.46
578.403	8495.85
578.763	8574.94
579.124	8689.29
579.485	8776.29
579.845	8861.26
580.206	8989.62
580.566	9044.08
580.927	9214.7
581.287	9361.14
581.648	9443.4
582.008	9582.6
582.368	9720.45
582.728	9918.19
583.089	10071.18
583.449	10251.96
583.809	10451.05
584.169	10604.72
584.529	10795.9
584.889	11044.94
585.249	11132.62
585.609	11307.08
585.969	11617.35
586.329	11794.29
586.688	12008.3
587.048	12225.47
587.408	12429.76
587.768	12797.21
588.127	12956.75
588.487	13133.92
588.846	13514.25
589.206	13708.59
589.565	13973.22
589.925	14253.66
590.284	14476.94
590.643	14718.96
591.003	15075.34
591.362	15363.69
591.721	15691.82
592.08	15930.68
592.44	16241.18
592.799	16668.52
593.158	16866.93
593.517	17127.71
593.876	17486.8
594.235	17767.24
594.593	18021.02
594.952	18357.29
595.311	18634.57
595.67	19013.09
596.029	19444.04
596.387	19661.43
596.746	20016.9
597.104	20246.5
597.463	20512.48
597.822	20978.01
598.18	21080.6
598.538	21468.84
598.897	21810.53
599.255	21954.71
599.613	22635.14
599.972	22621.13
600.33	23013.43
600.688	23257.72
601.046	23490.26
601.404	23977.48
601.762	24208.88
602.12	24613.17
602.478	24816.32
602.836	24991.91
603.194	25265.35
603.552	25520.71
603.91	25731.56
604.268	26151.66
604.625	26232.56
604.983	26567.69
605.341	26790.74
605.698	27199.54
606.056	27396.14
606.413	27531.06
606.771	27859.18
607.128	28175.11
607.485	28280.64
607.843	28573.97
608.2	29006.5
608.557	29262.31
608.914	29348.86
609.272	29568.97
609.629	29896.87
609.986	30082.63
610.343	30153.36
610.7	30653.01
611.057	30689.39
611.414	30836.05
611.771	31062.04
612.127	31377.28
612.484	31591.51
612.841	31783.15
613.198	31876.7
613.554	31921.22
613.911	32296.13
614.267	32442.57
614.624	32550.81
614.98	32756.91
615.337	33050.68
615.693	33059.72
616.05	33274.86
616.406	33683.66
616.762	33522.08
617.118	33746.26
617.475	33938.57
617.831	34106.02
618.187	34290.2
618.543	34417.2
618.899	34661.04
619.255	34736.52
619.611	34722.28
619.967	35081.59
620.323	35157.3
620.678	35117.52
621.034	35134.47
621.39	35438.42
621.746	35421.92
622.101	35867.56
622.457	35708.47
622.812	35775.13
623.168	35942.81
623.523	36061.9
623.879	36210.6
624.234	36042.7
624.589	36381.9
624.945	36465.06
625.3	36457.83
625.655	36663.02
626.01	36719.74
626.365	36727.2
626.72	36790.02
627.075	36902.79
627.43	36890.36
627.785	36941.2
628.14	36985.27
628.495	37195.66
628.85	37157.92
629.205	37208.09
629.559	37318.14
629.914	37246.96
630.269	37271.14
630.623	37273.85
630.978	37277.01
631.332	37415.99
631.687	37606.95
632.041	37476.11
632.396	37599.04
632.75	37276.79
633.104	37560.85
633.459	37445.82
633.813	37424.81
634.167	37528.08
634.521	37495.99
634.875	37614.41
635.229	37581.86
635.583	37409.89
635.937	37625.48
636.291	37502.54
636.645	37572.15
636.999	37467.07
637.352	37641.52
637.706	37465.71
638.06	37527.86
638.413	37660.96
638.767	37596.1
639.121	37594.29
639.474	37410.57
639.828	37469.1
640.181	37425.03
640.534	37450.57
640.888	37541.41
641.241	37255.09
641.594	37310.91
641.947	37564.92
642.301	37377.58
642.654	37411.7
643.007	37489.21
643.36	37413.06
643.713	37378.71
644.066	37582.99
644.419	37246.05
644.771	37235.89
645.124	36733.75
645.477	36863.01
645.83	36571.95
646.182	36434.78
646.535	36443.14
646.888	36595.22
647.24	36348.9
647.593	36620.08
647.945	36525.85
648.298	36367.21
648.65	36272.52
649.002	36114.33
649.355	36313.65
649.707	36409.47
650.059	36575.34
650.411	36860.53
650.763	36959.73
651.115	37355.2
651.467	37198.15
651.819	37209.67
652.171	37103.91
652.523	37076.57
652.875	37086.51
653.227	36880.19
653.578	37161.54
653.93	37090.35
654.282	36987.98
654.633	36893.75
654.985	36924.26
655.337	36957.47
655.688	37056.91
656.039	37121.09
656.391	36719.51
656.742	36826.86
657.094	36910.47
657.445	36938.72
657.796	36972.62
658.147	36923.8
658.498	36762.23
658.849	36944.82
659.2	36857.36
659.551	36789.57
659.902	36972.62
660.253	36978.94
660.604	36919.06
660.955	36729.91
661.306	36856.91
661.656	36882
662.007	36766.29
662.358	36911.37
662.708	36820.98
663.059	36829.57
663.409	36639.97
663.76	36803.35
664.11	36771.72
664.461	36886.74
664.811	36885.84
665.161	36703.24
665.511	36765.84
665.862	36664.15
666.212	36742.34
666.562	36761.32
666.912	36733.53
667.262	36730.14
667.612	36818.27
667.962	36776.01
668.312	36683.13
668.662	36823.92
669.011	36636.35
669.361	36491.72
669.711	36646.07
670.06	36655.11
670.41	36588.9
670.76	36598.84
671.109	36666.41
671.459	36732.62
671.808	36552.74
672.157	36558.16
672.507	36358.17
672.856	36458.96
673.205	36512.74
673.554	36594.55
673.904	36416.92
674.253	36647.65
674.602	36497.83
674.951	35982.81
675.3	35878.41
675.649	36427.09
675.998	36393.2
676.346	36467.09
676.695	36636.35
677.044	36293.54
677.393	36366.76
677.741	36446.75
678.09	36298.73
678.438	36240.21
678.787	36300.99
679.135	36329.02
679.484	35961.12
679.832	36145.29
680.181	35880.89
680.529	36067.55
680.877	35918.41
681.225	35980.55
681.573	36122.02
681.922	35924.73
682.27	35839.54
682.618	35746.66
682.966	35592.31
683.314	35835.7
683.661	35649.26
684.009	35487.68
684.357	35451.75
684.705	35453.33
685.053	35485.2
685.4	35543.27
685.748	35207.01
686.095	35391.19
686.443	35156.84
686.79	35088.37
687.138	35207.01
687.485	35225.99
687.832	34972.89
688.18	34998.2
688.527	34784.2
688.874	34787.14
689.221	34671.88
689.568	34509.4
689.915	34540.14
690.262	34564.77
690.609	34490.19
690.956	34477.09
691.303	34360.48
691.65	34156.64
691.997	34303.53
692.344	34091.56
692.69	34014.73
693.037	33976.31
693.383	33869.42
693.73	33985.58
694.077	33671.46
694.423	33703.32
694.769	33571.8
695.116	33494.29
695.462	33460.62
695.808	33344.69
696.155	33368.42
696.501	33139.95
696.847	33123.23
697.193	32933.4
697.539	33165.94
697.885	32669
698.231	32798.94
698.577	32664.71
698.923	32577.25
699.269	32487.31
699.614	32286.18
699.96	32264.04
700.306	32352.62
700.651	32131.16
700.997	32120.99
701.342	32041.45
701.688	31937.04
702.033	31886.87
702.379	31960.09
702.724	31758.74
703.069	31753.32
703.415	31359.88
703.76	31453.89
704.105	31496.38
704.45	31331.18
704.795	31203.5
705.14	31198.98
705.485	31040.12
705.83	30915.15
706.175	31086.22
706.52	31098.87
706.865	30836.96
707.209	30916.96
707.554	30594.93
707.899	30703.85
708.243	30625.66
708.588	30568.49
708.932	30289.63
709.277	30353.81
709.621	30436.74
709.966	30117.2
710.31	30169.4
710.654	30039.69
710.998	30043.98
711.342	30085.79
711.687	29811
712.031	29795.18
712.375	29751.56
712.719	29804.44
713.063	29768.74
713.407	29824.33
713.75	29605.8
714.094	29597.89
714.438	29472.7
714.782	29488.29
715.125	29301.4
715.469	29328.3
715.812	29286.72
716.156	29043.11
716.499	29072.03
716.843	29133.95
717.186	28955.88
717.53	28969.44
717.873	29164.01
718.216	28894.86
718.559	28803.34
718.902	28594.53
719.246	28663.68
719.589	28670.69
719.932	28455.55
720.275	28481.77
720.617	28607.86
720.96	28491.48
721.303	28439.73
721.646	28360.86
721.989	28230.7
722.331	28456.23
722.674	28261.88
723.016	28277.02
723.359	28097.82
723.701	28258.04
724.044	28023.7
724.386	28028.67
724.729	28063.02
725.071	27825.29
725.413	27963.81
725.755	27889.46
726.097	27730.15
726.439	27619.64
726.782	27722.01
727.124	27898.28
727.465	27509.14
727.807	27637.04
728.149	27553.2
728.491	27543.03
728.833	27570.83
729.175	27474.33
729.516	27414.45
729.858	27358.18
730.199	27315.47
730.541	27289.93
730.882	27361.12
731.224	27300.78
731.565	27082.03
731.906	27164.06
732.248	27072.54
732.589	27030.28
732.93	26883.62
733.271	27052.88
733.612	26993.89
733.953	26966.32
734.294	26765.65
734.635	26849.94
734.976	26865.99
735.317	26660.12
735.658	26696.5
735.999	26818.76
736.339	26687.91
736.68	26765.2
737.021	26588.48
737.361	26573.11
737.702	26705.54
738.042	26585.32
738.383	26565.88
738.723	26566.79
739.063	26532.21
739.404	26378.54
739.744	26411.99
740.084	26218.32
740.424	26353.01
740.764	26411.31
741.104	26268.94
741.444	26156.63
741.784	26138.78
742.124	26174.03
742.464	26117.31
742.804	25927.71
743.143	26086.35
743.483	26083.18
743.823	26009.97
744.162	25806.81
744.502	25900.14
744.841	25785.11
745.181	25932.91
745.52	25882.29
745.86	25870.99
746.199	25778.33
746.538	25699.01
746.877	25784.44
747.216	25735.17
747.556	25631.67
747.895	25695.85
748.234	25526.81
748.573	25424.44
748.911	25553.48
749.25	25417.21
749.589	25427.61
749.928	25408.63
750.267	25537.44
750.605	25337.67
750.944	25322.07
751.283	25239.59
751.621	25352.36
751.96	25187.16
752.298	25113.27
752.636	25172.25
752.975	25044.12
753.313	24752.37
753.651	25140.16
753.989	24932.93
754.327	24908.53
754.666	24811.35
755.004	24901.07
755.342	24878.47
755.679	24826.95
756.017	24650.45
756.355	24868.98
756.693	24535.2
757.031	24618.14
757.368	24612.49
757.706	24618.14
758.044	24465.83
758.381	24464.24
758.719	24381.76
759.056	24370.23
759.394	24298.37
759.731	24155.55
760.068	24155.1
760.405	24012.73
760.743	24071.03
761.08	24039.17
761.417	24028.77
761.754	23949.91
762.091	23839.63
762.428	23721.66
762.765	23658.39
763.102	23855.9
763.438	23549.01
763.775	23526.19
764.112	23576.58
764.449	23497.94
764.785	23465.85
765.122	23295.91
765.458	23049.82
765.795	23181.34
766.131	23068.8
766.467	23001.68
766.804	22969.37
767.14	22824.51
767.476	22774.12
767.812	22646.66
768.148	22764.18
768.485	22596.72
768.821	22461.58
769.157	22535.93
769.492	22489.15
769.828	22381.59
770.164	22296.39
770.5	22171.65
770.836	22150.86
771.171	21974.82
771.507	21954.25
771.842	21884.2
772.178	21868.61
772.513	21701.15
772.849	21786.35
773.184	21616.86
773.519	21578.9
773.855	21483.98
774.19	21315.17
774.525	21305.91
774.86	21377.77
775.195	21305.68
775.53	21132.35
775.865	21008.52
776.2	20912.25
776.535	20767.39
776.87	20811.68
777.205	20640.39
777.539	20685.13
777.874	20708.41
778.209	20468.87
778.543	20430.45
778.878	20328.53
779.212	20379.61
779.547	20197.01
779.881	20177.58
780.215	20081.08
780.55	20100.29
780.884	19919.73
781.218	19905.95
781.552	19917.02
781.886	19832.73
782.22	19690.81
782.554	19653.75
782.888	19435
783.222	19371.72
783.556	19300.54
783.889	19207.88
784.223	19188.9
784.557	19216.02
784.89	19160.65
785.224	18981
785.557	18929.47
785.891	18895.58
786.224	18768.12
786.558	18780.78
786.891	18555.25
787.224	18550.5
787.557	18561.57
787.891	18494.91
788.224	18534.46
788.557	18428.7
788.89	18428.24
789.223	18356.38
789.556	18248.14
789.888	18105.09
790.221	18092.66
790.554	17910.07
790.887	17938.31
791.219	17826.23
791.552	17759.34
791.884	17740.58
792.217	17715.49
792.549	17629.4
792.882	17479.34
793.214	17534.26
793.546	17468.04
793.879	17360.93
794.211	17262.85
794.543	17372.9
794.875	17144.44
795.207	17301.95
795.539	17135.17
795.871	17085.23
796.203	16957.1
796.535	16877.32
796.867	16810.21
797.198	16746.25
797.53	16878.45
797.862	16710.1
798.193	16679.82
798.525	16609.54
798.856	16651.57
799.188	16372.25
799.519	16376.09
799.85	16302.65
800.182	16365.25
800.513	16346.27
800.844	16122.09
801.175	16191.24
801.506	16161.64
801.837	16068.98
802.168	16038.48
802.499	16061.75
802.83	16001.87
803.161	15939.5
803.491	15914.19
803.822	15859.72
804.153	15786.51
804.483	15622.44
804.814	15664.93
805.145	15625.15
805.475	15600.52
805.805	15580.18
806.136	15551.03
806.466	15479.17
806.796	15492.73
807.126	15329.34
807.457	15318.27
807.787	15238.5
808.117	15145.17
808.447	15091.16
808.777	15237.82
809.107	15137.03
809.436	15069.01
809.766	15053.64
810.096	15016.81
810.426	14921.22
810.755	14999.63
811.085	14880.77
811.414	14915.57
811.744	14771.39
812.073	14706.08
812.403	14782.92
812.732	14613.2
813.061	14601
813.39	14522.13
813.719	14489.82
814.049	14630.83
814.378	14553.09
814.707	14386.09
815.036	14436.48
815.365	14351.52
815.693	14238.98
816.022	14259.77
816.351	14194.46
816.68	14097.28
817.008	14199.65
817.337	14011.41
817.665	14024.07
817.994	14009.83
818.322	14044.4
818.651	13900.45
818.979	13911.53
819.307	13847.57
819.636	13935.71
819.964	13867.23
820.292	13863.84
820.62	13878.99
820.948	13807.12
821.276	13840.12
821.604	13739.55
821.932	13775.71
822.259	13778.2
822.587	13807.57
822.915	13655.49
823.243	13708.14
823.57	13743.17
823.898	13764.41
824.225	13648.93
824.553	13645.32
824.88	13729.38
825.207	13739.78
825.535	13706.79
825.862	13707.92
826.189	13633.79
826.516	13716.96
826.843	13732.1
827.17	13756.5
827.497	13695.94
827.824	13702.49
828.151	13752.44
828.478	13819.1
828.805	13734.13
829.131	13693.45
829.458	13735.71
829.785	13584.53
830.111	13698.65
830.438	13757.86
830.764	13630.18
831.09	13743.85
831.417	13591.54
831.743	13629.27
832.069	13627.01
832.395	13563.51
832.722	13599.67
833.048	13583.17
833.374	13650.06
833.7	13525.32
834.026	13566
834.351	13533.46
834.677	13500.01
835.003	13576.85
835.329	13502.95
835.654	13474.7
835.98	13417.08
836.306	13418.66
836.631	13401.03
836.956	13429.73
837.282	13480.58
837.607	13327.59
837.932	13328.94
838.258	13427.02
838.583	13303.63
838.908	13231.32
839.233	13182.73
839.558	13215.05
839.883	13159.68
840.208	13110.64
840.533	13192.68
840.858	13168.72
841.182	13155.84
841.507	13100.25
841.832	13040.14
842.156	13074.94
842.481	13071.1
842.805	13018.44
843.13	12992.45
843.454	12949.97
843.778	12945.22
844.103	12884.66
844.427	12872.46
844.751	12783.65
845.075	12768.96
845.399	12785.91
845.723	12679.47
846.047	12660.03
846.371	12570.32
846.695	12610.32
847.019	12493.03
847.343	12488.06
847.666	12350.21
847.99	12280.84
848.313	12238.8
848.637	12119.71
848.96	12176.66
849.284	12138.47
849.607	12018.92
849.931	12025.93
850.254	11978.24
850.577	11929.21
850.9	11837.01
851.223	11760.4
851.546	11695.77
851.869	11692.15
852.192	11752.04
852.515	11658.7
852.838	11562.44
853.161	11617.35
853.483	11446.96
853.806	11516.11
854.129	11521.76
854.451	11446.05
854.774	11368.99
855.096	11282.67
855.419	11298.49
855.741	11254.42
856.063	11215.78
856.385	11151.83
856.708	11107.53
857.03	11097.36
857.352	11092.39
857.674	11091.04
857.996	11007.2
858.318	10954.77
858.64	10908.44
858.961	10901.21
859.283	10859.18
859.605	10790.25
859.926	10917.71
860.248	10858.95
860.57	10727.66
860.891	10841.55
861.212	10751.16
861.534	10808.78
861.855	10672.06
862.176	10698.5
862.498	10678.39
862.819	10648.56
863.14	10593.2
863.461	10550.03
863.782	10560.65
864.103	10549.81
864.424	10497.61
864.745	10510.26
865.065	10443.37
865.386	10450.6
865.707	10428.68
866.027	10458.28
866.348	10509.36
866.668	10398.17
866.989	10390.49
867.309	10307.78
867.63	10300.1
867.95	10332.64
868.27	10329.93
868.59	10233.66
868.91	10242.92
869.23	10232.75
869.55	10199.76
869.87	10256.93
870.19	10162.92
870.51	10143.94
870.83	10165.86
871.15	10078.41
871.469	10055.81
871.789	10115.69
872.109	10047.45
872.428	10048.13
872.748	10042.02
873.067	10040.44
873.386	10089.25
873.706	10022.14
874.025	9977.17
874.344	9949.15
874.663	9926.55
874.982	9920.67
875.301	9888.13
875.62	9888.58
875.939	9889.26
876.258	9964.51
876.577	9822.14
876.896	9844.29
877.214	9828.24
877.533	9780.34
877.852	9748.25
878.17	9818.53
878.489	9832.99
878.807	9773.33
879.125	9720.22
879.444	9709.15
879.762	9626.89
880.08	9604.97
880.398	9598.87
880.716	9611.07
881.034	9614.24
881.352	9613.33
881.67	9583.28
881.988	9591.19
882.306	9578.99
882.624	9512.55
882.941	9506.9
883.259	9394.13
883.577	9442.49
883.894	9450.4
884.212	9344.64
884.529	9402.49
884.846	9335.6
885.164	9334.7
885.481	9321.59
885.798	9342.38
886.115	9240.24
886.432	9252.67
886.75	9195.72
887.067	9196.62
887.383	9172.22
887.7	9195.27
888.017	9103.74
888.334	9109.85
888.651	9110.52
888.967	9065.1
889.284	9037.98
889.6	9032.33
889.917	9002.05
890.233	8963.41
890.55	8979.23
890.866	8962.05
891.182	8894.94
891.498	8836.18
891.815	8839.12
892.131	8784.43
892.447	8761.38
892.763	8741.04
893.079	8765
893.395	8659.01
893.71	8664.89
894.026	8677.99
894.342	8650.65
894.657	8595.96
894.973	8552.8
895.289	8591.44
895.604	8510.76
895.92	8493.59
896.235	8429.19
896.55	8464.89
896.865	8363.42
897.181	8398.9
897.496	8400.03
897.811	8267.16
898.126	8219.25
898.441	8237.33
898.756	8233.94
899.071	8199.81
899.386	8253.14
899.7	8124.56
900.015	8145.8
900.33	8061.06
900.644	8009.08
900.959	8062.87
901.273	8005.92
901.588	7987.39
901.902	7957.33
902.216	7902.65
902.531	7802.08
902.845	7884.11
903.159	7826.72
903.473	7806.6
903.787	7741.75
904.101	7653.61
904.415	7687.74
904.729	7642.77
905.042	7604.12
905.356	7628.75
905.67	7637.12
905.984	7531.13
906.297	7601.64
906.611	7504.92
906.924	7494.75
907.237	7464.24
907.551	7435.09
907.864	7375.43
908.177	7320.06
908.491	7443.9
908.804	7298.59
909.117	7254.75
909.43	7285.71
909.743	7211.14
910.056	7151.48
910.368	7179.95
910.681	7129.78
910.994	7126.62
911.307	7058.83
911.619	7062.89
911.932	6991.26
912.244	6977.25
912.557	6945.61
912.869	6922.11
913.181	6879.4
913.494	6906.29
913.806	6893.63
914.118	6834.65
914.43	6750.81
914.742	6817.02
915.054	6764.14
915.366	6676.69
915.678	6668.33
915.99	6657.25
916.302	6631.72
916.613	6598.95
916.925	6525.28
917.236	6544.04
917.548	6505.17
917.859	6541.33
918.171	6450.03
918.482	6383.59
918.794	6391.5
919.105	6386.53
919.416	6352.18
919.727	6335.68
920.038	6308.34
920.349	6276.02
920.66	6228.57
920.971	6283.7
921.282	6231.28
921.593	6158.28
921.903	6083.03
922.214	6084.84
922.525	6096.59
922.835	6071.96
923.146	6038.06
923.456	5980.21
923.767	5997.16
924.077	5994.45
924.387	5975.24
924.697	5918.74
925.008	5901.79
925.318	5888.69
925.628	5878.52
925.938	5807.11
926.248	5796.26
926.558	5774.57
926.867	5743.15
927.177	5751.97
927.487	5663.16
927.796	5632.65
928.106	5645.53
928.416	5593.33
928.725	5605.76
929.034	5532.09
929.344	5583.38
929.653	5538.19
929.962	5475.82
930.271	5469.49
930.581	5483.05
930.89	5417.96
931.199	5382.94
931.508	5364.63
931.817	5376.16
932.125	5297.74
932.434	5362.15
932.743	5281.47
933.051	5244.86
933.36	5233.34
933.669	5238.53
933.977	5220.68
934.286	5205.09
934.594	5190.63
934.902	5124.64
935.21	5078.09
935.519	5095.71
935.827	5062.95
936.135	5072.44
936.443	5052.78
936.751	4985.89
937.059	5004.19
937.367	4953.57
937.674	4950.41
937.982	4952.89
938.29	4919.22
938.597	4899.56
938.905	4865.66
939.213	4788.83
939.52	4808.72
939.827	4821.14
940.135	4757.42
940.442	4716.74
940.749	4768.94
941.056	4763.97
941.363	4670.64
941.67	4672.22
941.977	4640.81
942.284	4587.03
942.591	4591.77
942.898	4589.51
943.205	4606.91
943.511	4561.49
943.818	4569.85
944.125	4482.85
944.431	4510.42
944.738	4422.74
945.044	4449.63
945.35	4436.3
945.657	4407.14
945.963	4413.7
946.269	4333.02
946.575	4359.01
946.881	4357.2
947.187	4308.39
947.493	4321.5
947.799	4256.87
948.105	4236.75
948.41	4229.52
948.716	4239.69
949.022	4230.43
949.327	4198.34
949.633	4146.59
949.938	4174.38
950.244	4131.9
950.549	4161.05
950.854	4116.3
951.16	4097.1
951.465	4036.76
951.77	4036.31
952.075	4051.45
952.38	4038.11
952.685	4000.15
952.99	3996.99
953.294	3996.08
953.599	3939.36
953.904	3895.29
954.209	3850.77
954.513	3899.59
954.818	3860.04
955.122	3824.33
955.426	3855.75
955.731	3871.11
956.035	3784.34
956.339	3778.01
956.643	3793.83
956.948	3751.79
957.252	3724.68
957.556	3736.2
957.86	3717.9
958.163	3707.5
958.467	3684
958.771	3669.99
959.075	3661.85
959.378	3607.62
959.682	3635.41
959.985	3616.66
960.289	3556.77
960.592	3543.44
960.896	3565.36
961.199	3555.64
961.502	3555.19
961.805	3490.33
962.108	3511.35
962.411	3471.8
962.714	3447.4
963.017	3462.99
963.32	3429.09
963.623	3436.77
963.926	3442.65
964.228	3361.07
964.531	3352.26
964.833	3397.91
965.136	3325.82
965.438	3317
965.741	3311.58
966.043	3302.54
966.345	3295.99
966.648	3253.28
966.95	3257.57
967.252	3220.51
967.554	3234.97
967.856	3216.89
968.158	3209.44
968.46	3268.19
968.761	3148.42
969.063	3154.07
969.365	3157.46
969.666	3135.31
969.968	3110.23
970.269	3068.65
970.571	3107.74
970.872	3093.96
971.174	3083.34
971.475	3050.8
971.776	3044.92
972.077	3027.75
972.378	3003.34
972.679	3004.02
972.98	2971.93
973.281	2990.68
973.582	2939.84
973.883	2905.71
974.183	2910.01
974.484	2901.65
974.785	2900.52
975.085	2886.96
975.386	2880.18
975.686	2899.16
975.986	2850.57
976.287	2819.39
976.587	2842.89
976.887	2795.21
977.187	2817.13
977.487	2795.43
977.787	2787.07
978.087	2739.39
978.387	2771.25
978.687	2742.56
978.987	2705.04
979.286	2695.78
979.586	2736.45
979.885	2695.1
980.185	2683.35
980.484	2675.44
980.784	2651.48
981.083	2676.79
981.382	2627.53
981.682	2635.89
981.981	2608.55
982.28	2581.2
982.579	2583.69
982.878	2602.22
983.177	2577.36
983.475	2584.59
983.774	2543.69
984.073	2505.73
984.372	2496.69
984.67	2521.09
984.969	2486.52
985.267	2485.61
985.566	2484.93
985.864	2449.23
986.162	2467.08
986.461	2451.94
986.759	2420.53
987.057	2423.92
987.355	2445.84
987.653	2402.9
987.951	2385.95
988.249	2392.51
988.547	2355.67
988.844	2347.76
989.142	2354.09
989.44	2347.99
989.737	2310.7
990.035	2297.37
990.332	2297.14
990.63	2269.12
990.927	2282.23
991.224	2272.96
991.521	2264.6
991.819	2218.05
992.116	2266.64
992.413	2223.47
992.71	2190.71
993.006	2214.21
993.303	2240.65
993.6	2213.53
993.897	2169.69
994.193	2181.67
994.49	2169.01
994.787	2183.02
995.083	2111.39
995.379	2129.01
995.676	2113.42
995.972	2118.39
996.268	2117.49
996.565	2092.85
996.861	2090.14
997.157	2091.72
997.453	2055.79
997.749	2039.52
998.044	2033.42
998.34	2059.18
998.636	2018.51
998.932	2009.01
999.227	1997.49
999.523	2007.21
999.818	1997.26
1000.114	1972.18
1000.409	1934.21
1000.704	1943.71
1001	1938.28
1001.295	1910.26
1001.59	1926.98
1001.885	1915.68
1002.18	1924.05
1002.475	1858.74
1002.77	1856.48
1003.065	1839.75
1003.359	1874.56
1003.654	1845.86
1003.949	1835.91
1004.243	1813.77
1004.538	1792.52
1004.832	1801.34
1005.127	1813.99
1005.421	1803.82
1005.715	1788.68
1006.009	1759.98
1006.304	1766.76
1006.598	1731.96
1006.892	1728.12
1007.186	1720.43
1007.48	1699.87
1007.773	1714.79
1008.067	1707.1
1008.361	1684.96
1008.655	1686.09
1008.948	1671.4
1009.242	1638.4
1009.535	1657.61
1009.829	1605.86
1010.122	1612.87
1010.415	1626.43
1010.708	1616.93
1011.001	1601.79
1011.295	1597.05
1011.588	1576.26
1011.881	1586.88
1012.173	1574.68
1012.466	1574.9
1012.759	1547.56
1013.052	1526.54
1013.344	1561.34
1013.637	1515.69
1013.93	1554.79
1014.222	1512.53
1014.514	1509.82
1014.807	1501.91
1015.099	1486.32
1015.391	1490.61
1015.683	1444.51
1015.976	1457.17
1016.268	1441.35
1016.56	1471.4
1016.851	1454.91
1017.143	1420.33
1017.435	1411.29
1017.727	1394.79
1018.018	1399.31
1018.31	1374.46
1018.602	1375.59
1018.893	1357.28
1019.185	1370.39
1019.476	1374.68
1019.767	1321.58
1020.058	1328.13
1020.35	1310.95
1020.641	1322.48
1020.932	1293.1
1021.223	1296.72
1021.514	1287.23
1021.804	1286.55
1022.095	1281.8
1022.386	1265.31
1022.677	1272.31
1022.967	1224.63
1023.258	1209.49
1023.548	1236.38
1023.839	1220.34
1024.129	1234.8
1024.419	1186.66
1024.709	1225.98
1025	1176.27
1025.29	1198.19
1025.58	1190.05
1025.87	1188.7
1026.16	1124.52
1026.449	1170.39
1026.739	1145.76
1027.029	1121.35
1027.319	1141.47
1027.608	1122.48
1027.898	1118.64
1028.187	1123.39
1028.477	1111.41
1028.766	1102.6
1029.055	1082.26
1029.344	1112.99
1029.634	1099.43
1029.923	1072.32
1030.212	1065.08
1030.501	1058.98
1030.79	1057.63
1031.078	1035.26
1031.367	1036.16
1031.656	1015.82
1031.945	1022.6
1032.233	1029.38
1032.522	1007.91
1032.81	1005.88
1033.099	996.61
1033.387	1007.01
1033.675	1014.69
1033.963	992.77
1034.251	1004.75
1034.54	971.3
1034.828	983.28
1035.116	969.72
1035.403	951.42
1035.691	922.72
1035.979	976.73
1036.267	950.96
1036.554	925.65
1036.842	938.08
1037.129	887.46
1037.417	889.95
1037.704	896.5
1037.992	881.14
1038.279	897.63
1038.566	909.83
1038.853	909.83
1039.14	909.83
