Data from hue_130_FLMS001491_00090.txt Node
Date: Tue Feb 07 16:58:13 GMT 2017
User: dcchb
Spectrometer: FLMS00149
Trigger mode: 0
Integration Time (sec): 2.000000E-2
Scans to average: 10
Electric dark correction enabled: true
Nonlinearity correction enabled: false
Boxcar width: 0
XAxis mode: Wavelengths
Number of Pixels in Spectrum: 2048
>>>>>Begin Spectral Data<<<<<
341.393	-4.76
341.776	-4.76
342.16	-4.76
342.543	-52.22
342.927	-46.34
343.31	-63.74
343.693	-61.26
344.077	-81.82
344.46	-49.96
344.843	-49.28
345.226	-51.09
345.61	-42.05
345.993	-18.09
346.376	-15.38
346.759	13.54
347.142	28.91
347.525	55.35
347.908	62.13
348.291	73.88
348.674	91.73
349.057	107.1
349.44	116.59
349.823	143.94
350.206	164.5
350.588	194.11
350.971	206.08
351.354	218.51
351.737	233.65
352.119	254.89
352.502	265.97
352.884	279.53
353.267	274.55
353.65	287.89
354.032	300.77
354.414	306.42
354.797	325.4
355.179	306.42
355.562	333.99
355.944	310.71
356.326	318.85
356.709	335.57
357.091	334.21
357.473	339.64
357.855	333.76
358.238	323.82
358.62	338.06
359.002	332.41
359.384	343.25
359.766	351.84
360.148	341.9
360.53	345.29
360.912	342.58
361.294	328.34
361.676	307.55
362.057	335.12
362.439	319.07
362.821	322.01
363.203	348
363.584	326.98
363.966	323.14
364.348	340.99
364.729	326.08
365.111	331.5
365.493	305.51
365.874	333.54
366.256	322.69
366.637	298.74
367.019	308.9
367.4	322.69
367.781	307.32
368.163	321.56
368.544	307.77
368.925	305.74
369.306	318.85
369.688	311.39
370.069	307.55
370.45	306.64
370.831	315.68
371.212	308.23
371.593	310.26
371.974	328.79
372.355	321.11
372.736	305.74
373.117	299.64
373.498	329.69
373.879	296.7
374.26	307.55
374.641	304.38
375.021	321.79
375.402	332.86
375.783	311.39
376.163	357.94
376.544	344.84
376.925	319.53
377.305	345.97
377.686	304.16
378.066	321.33
378.447	329.47
378.827	319.07
379.208	326.08
379.588	324.27
379.968	347.55
380.349	333.54
380.729	324.27
381.109	336.25
381.489	336.47
381.87	342.12
382.25	335.8
382.63	320.66
383.01	380.54
383.39	340.09
383.77	353.87
384.15	322.92
384.53	364.72
384.91	340.09
385.29	348.9
385.67	336.47
386.049	365.63
386.429	360.2
386.809	383.93
387.189	351.16
387.568	351.39
387.948	370.82
388.328	362.46
388.707	350.03
389.087	366.98
389.466	377.83
389.846	377.15
390.225	372.18
390.605	384.16
390.984	368.79
391.363	366.53
391.743	360.43
392.122	374.89
392.501	364.04
392.881	387.55
393.26	378.51
393.639	392.97
394.018	386.19
394.397	376.7
394.776	399.52
395.155	373.31
395.534	376.02
395.913	377.15
396.292	375.57
396.671	382.35
397.05	380.99
397.429	395.68
397.808	397.72
398.186	395.46
398.565	406.53
398.944	411.73
399.323	410.6
399.701	407.43
400.08	383.48
400.458	385.29
400.837	403.82
401.215	413.53
401.594	410.37
401.972	421.22
402.351	413.08
402.729	404.04
403.107	406.98
403.486	423.7
403.864	421.9
404.242	426.87
404.62	419.86
404.999	412.18
405.377	432.29
405.755	424.61
406.133	434.78
406.511	440.2
406.889	447.43
407.267	432.97
407.645	421.44
408.023	446.53
408.401	453.99
408.779	471.84
409.156	456.02
409.534	454.89
409.912	437.26
410.29	475.68
410.667	442.46
411.045	449.69
411.422	462.12
411.8	460.31
412.178	485.62
412.555	481.78
412.933	495.57
413.31	488.79
413.687	493.53
414.065	504.61
414.442	503.02
414.819	484.72
415.197	505.51
415.574	515.23
415.951	504.15
416.328	518.39
416.705	515.9
417.082	526.3
417.46	523.36
417.837	508.9
418.214	520.88
418.591	538.95
418.967	526.75
419.344	526.3
419.721	530.14
420.098	527.66
420.475	527.66
420.852	539.41
421.228	550.93
421.605	531.95
421.982	565.39
422.358	540.54
422.735	544.38
423.111	565.62
423.488	558.16
423.864	543.25
424.241	599.74
424.617	558.39
424.994	562
425.37	580.76
425.746	578.95
426.123	587.32
426.499	590.7
426.875	601.78
427.251	611.72
427.627	604.72
428.003	636.58
428.379	622.34
428.756	614.66
429.132	626.18
429.507	639.29
429.883	624.83
430.259	643.81
430.635	668.89
431.011	638.39
431.387	674.54
431.763	662.57
432.138	673.64
432.514	683.13
432.89	688.56
433.265	696.69
433.641	696.92
434.016	715.22
434.392	714.54
434.767	732.62
435.143	723.81
435.518	702.79
435.894	732.62
436.269	716.8
436.644	734.2
437.02	743.02
437.395	753.41
437.77	767.2
438.145	763.13
438.52	782.79
438.895	769.01
439.271	796.35
439.646	806.29
440.021	804.48
440.395	806.29
440.77	799.51
441.145	802
441.52	826.63
441.895	818.27
442.27	838.83
442.645	808.33
443.019	844.26
443.394	831.6
443.769	825.73
444.143	837.03
444.518	846.74
444.892	840.42
445.267	870.47
445.641	901.66
446.016	861.43
446.39	880.19
446.764	892.62
447.139	856.01
447.513	890.58
447.887	895.78
448.262	929.45
448.636	912.5
449.01	909.34
449.384	937.14
449.758	926.52
450.132	935.78
450.506	952.96
450.88	934.88
451.254	974.65
451.628	984.82
452.002	969.68
452.376	981.2
452.75	1003.12
453.123	999.96
453.497	1007.42
453.871	1017.13
454.244	1017.13
454.618	1037.47
454.992	1022.33
455.365	1037.7
455.739	1077.92
456.112	1106.85
456.486	1106.17
456.859	1086.28
457.232	1142.55
457.606	1124.48
457.979	1130.8
458.352	1166.28
458.725	1166.96
459.099	1162.67
459.472	1201.31
459.845	1212.84
460.218	1230.69
460.591	1216.45
460.964	1241.76
461.337	1281.76
461.71	1278.6
462.083	1292.61
462.456	1304.36
462.829	1290.57
463.201	1345.71
463.574	1371.93
463.947	1383.68
464.32	1364.02
464.692	1409.89
465.065	1424.81
465.438	1437.24
465.81	1484.01
466.183	1464.58
466.555	1516.56
466.928	1519.95
467.3	1541.87
467.672	1592.94
468.045	1630.45
468.417	1630.45
468.789	1636.33
469.161	1652.82
469.534	1697.12
469.906	1730.34
470.278	1760.62
470.65	1792.93
471.022	1835.19
471.394	1870.45
471.766	1886.26
472.138	1921.29
472.51	1950.9
472.882	2013.04
473.253	2056.88
473.625	2052.36
473.997	2128.29
474.369	2155.41
474.74	2181.85
475.112	2255.97
475.484	2307.27
475.855	2317.67
476.227	2367.61
476.598	2500.26
476.97	2549.07
477.341	2564.66
477.713	2673.59
478.084	2689.18
478.455	2804.21
478.827	2844.66
479.198	2974.37
479.569	3003.3
479.94	3097.53
480.311	3154.03
480.682	3274.48
481.053	3389.95
481.424	3450.29
481.795	3512.89
482.166	3628.37
482.537	3690.28
482.908	3836.95
483.279	3901.58
483.65	3977.73
484.021	4139.76
484.391	4178.86
484.762	4371.4
485.133	4394.45
485.503	4511.96
485.874	4655
486.244	4738.84
486.615	4910.59
486.985	5024.26
487.356	5154.2
487.726	5242.11
488.097	5384.03
488.467	5492.95
488.837	5648.65
489.207	5804.13
489.578	5973.39
489.948	6015.87
490.318	6224.23
490.688	6261.97
491.058	6449.53
491.428	6604.78
491.798	6726.59
492.168	6918.67
492.538	7024.66
492.908	7144.66
493.278	7293.13
493.648	7375.16
494.017	7521.37
494.387	7664.87
494.757	7870.97
495.126	7950.06
495.496	7979.44
495.866	8172.2
496.235	8278.19
496.605	8443.38
496.974	8630.49
497.344	8688.8
497.713	8778.06
498.082	8921.11
498.452	9052.18
498.821	9140.76
499.19	9214.88
499.559	9361.1
499.928	9406.74
500.298	9525.16
500.667	9720.86
501.036	9658.94
501.405	9840.41
501.774	9928.09
502.143	10050.12
502.512	10107.52
502.88	10228.87
503.249	10311.35
503.618	10403.33
503.987	10456.89
504.356	10520.84
504.724	10731.68
505.093	10721.96
505.462	10848.74
505.83	10870.43
506.199	10982.75
506.567	11106.59
506.936	11167.38
507.304	11305.9
507.672	11329.18
508.041	11392
508.409	11525.78
508.777	11611.88
509.145	11648.04
509.514	11654.59
509.882	11767.13
510.25	11820.47
510.618	11884.87
510.986	11821.37
511.354	11943.17
511.722	12138.2
512.09	12188.37
512.458	12174.81
512.826	12233.11
513.193	12293.22
513.561	12334.35
513.929	12437.62
514.297	12476.95
514.664	12548.13
515.032	12603.95
515.4	12619.77
515.767	12701.35
516.135	12704.74
516.502	12672.42
516.869	12847.33
517.237	12805.3
517.604	12823.15
517.972	12870.38
518.339	13016.37
518.706	12940.44
519.073	13006.65
519.44	13046.2
519.808	13128.45
520.175	13100.66
520.542	13267.66
520.909	13250.26
521.276	13161.22
521.643	13319.86
522.009	13309.69
522.376	13399.63
522.743	13476.69
523.11	13497.03
523.477	13603.24
523.843	13572.51
524.21	13747.87
524.577	13703.81
524.943	13804.82
525.31	13746.74
525.676	13825.39
526.043	13824.26
526.409	13774.09
526.776	13941.09
527.142	13888.21
527.508	14005.49
527.874	14023.57
528.241	14095.89
528.607	14007.75
528.973	14103.8
529.339	14012.27
529.705	14224.92
530.071	14143.57
530.437	14107.41
530.803	14163.68
531.169	14262.44
531.535	14087.98
531.901	14082.33
532.267	14132.95
532.632	14094.3
532.998	14182.66
533.364	14177.47
533.73	14123.46
534.095	14175.88
534.461	14121.42
534.826	14134.3
535.192	14169.78
535.557	14156
535.923	14100.18
536.288	14081.2
536.653	14113.97
537.019	14004.36
537.384	14019.5
537.749	14067.19
538.114	13986.51
538.479	13975.89
538.845	14013.4
539.21	13934.08
539.575	13890.24
539.94	13947.64
540.305	13939.28
540.67	13879.85
541.034	13834.65
541.399	13783.35
541.764	13695.22
542.129	13747.87
542.494	13705.84
542.858	13704.03
543.223	13744.03
543.587	13680.76
543.952	13644.15
544.316	13691.83
544.681	13513.3
545.045	13610.93
545.41	13589.91
545.774	13580.42
546.138	13471.95
546.503	13459.29
546.867	13487.99
547.231	13496.58
547.595	13328.67
547.959	13362.57
548.324	13280.31
548.688	13237.15
549.052	13255.68
549.416	13301.33
549.779	13205.74
550.143	13242.12
550.507	13179.98
550.871	13175.01
551.235	13076.48
551.599	13054.78
551.962	13060.21
552.326	13039.87
552.689	13078.74
553.053	12966.65
553.417	13038.51
553.78	13100.88
554.143	12952.19
554.507	13009.81
554.87	12975.24
555.234	12984.28
555.597	12863.38
555.96	12944.05
556.323	12967.55
556.686	12914.22
557.05	12962.58
557.413	12922.36
557.776	12894.79
558.139	12837.16
558.502	12912.41
558.865	12819.99
559.228	12844.62
559.59	12896.82
559.953	12878.74
560.316	12960.55
560.679	12916.26
561.041	12913.09
561.404	12942.92
561.767	13001.68
562.129	12876.48
562.492	12975.69
562.854	12996.25
563.217	12920.32
563.579	12991.28
563.941	12895.92
564.304	12962.81
564.666	12970.72
565.028	12966.88
565.39	13049.13
565.753	13075.8
566.115	13128.91
566.477	13155.8
566.839	13069.7
567.201	13190.83
567.563	13068.79
567.925	13193.76
568.287	13140.66
568.648	13111.96
569.01	13225.4
569.372	13225.85
569.734	13145.85
570.095	13258.39
570.457	13319.18
570.819	13319.41
571.18	13279.18
571.542	13313.31
571.903	13291.39
572.265	13317.15
572.626	13383.36
572.987	13336.13
573.349	13367.77
573.71	13349.47
574.071	13381.55
574.432	13371.39
574.794	13479.63
575.155	13393.08
575.516	13385.62
575.877	13304.72
576.238	13478.5
576.599	13440.76
576.96	13447.77
577.32	13413.19
577.681	13470.82
578.042	13506.98
578.403	13453.87
578.763	13454.1
579.124	13478.05
579.485	13586.52
579.845	13557.14
580.206	13536.35
580.566	13407.99
580.927	13442.8
581.287	13530.93
581.648	13461.78
582.008	13510.37
582.368	13475.79
582.728	13466.3
583.089	13446.19
583.449	13519.86
583.809	13466.3
584.169	13473.53
584.529	13425.62
584.889	13523.47
585.249	13419.52
585.609	13360.31
585.969	13504.26
586.329	13398.5
586.688	13397.6
587.048	13436.47
587.408	13362.57
587.768	13398.05
588.127	13281.9
588.487	13367.77
588.846	13368.22
589.206	13332.06
589.565	13255.68
589.925	13324.16
590.284	13291.39
590.643	13298.17
591.003	13327.09
591.362	13285.29
591.721	13317.6
592.08	13232.41
592.44	13331.39
592.799	13268.11
593.158	13237.38
593.517	13297.94
593.876	13250.03
594.235	13245.51
594.593	13168.68
594.952	13239.41
595.311	13191.73
595.67	13146.31
596.029	13206.87
596.387	13287.55
596.746	13294.55
597.104	13210.49
597.463	13110.6
597.822	13225.17
598.18	13150.37
598.538	13161.67
598.897	13226.98
599.255	13038.51
599.613	13250.26
599.972	13168.23
600.33	13186.53
600.688	13137.04
601.046	13156.25
601.404	13226.3
601.762	13181.11
602.12	13280.54
602.478	13202.8
602.836	13258.62
603.194	13196.48
603.552	13211.16
603.91	13153.09
604.268	13245.29
604.625	13191.96
604.983	13198.73
605.341	13102.24
605.698	13195.8
606.056	13226.76
606.413	13169.36
606.771	13332.97
607.128	13148.79
607.485	13156.7
607.843	13217.72
608.2	13209.81
608.557	13249.13
608.914	13279.41
609.272	13371.84
609.629	13282.57
609.986	13333.87
610.343	13209.58
610.7	13284.38
611.057	13278.28
611.414	13330.93
611.771	13315.12
612.127	13401.22
612.484	13354.44
612.841	13406.64
613.198	13321.9
613.554	13340.43
613.911	13410.25
614.267	13421.33
614.624	13416.81
614.98	13466.98
615.337	13490.25
615.693	13408.45
616.05	13443.7
616.406	13524.38
616.762	13450.25
617.118	13476.02
617.475	13530.93
617.831	13512.17
618.187	13527.31
618.543	13538.61
618.899	13600.98
619.255	13530.25
619.611	13595.11
619.967	13600.08
620.323	13542.23
620.678	13620.19
621.034	13533.42
621.39	13563.47
621.746	13582
622.101	13706.29
622.457	13557.6
622.812	13601.21
623.168	13637.37
623.523	13563.7
623.879	13534.77
624.234	13566.41
624.589	13649.12
624.945	13557.82
625.3	13524.83
625.655	13586.52
626.01	13605.28
626.365	13605.5
626.72	13624.71
627.075	13594.43
627.43	13535.45
627.785	13571.61
628.14	13516.24
628.495	13559.18
628.85	13640.08
629.205	13492.96
629.559	13548.78
629.914	13459.74
630.269	13574.32
630.623	13510.82
630.978	13470.59
631.332	13456.13
631.687	13563.47
632.041	13425.17
632.396	13457.71
632.75	13392.63
633.104	13405.28
633.459	13407.32
633.813	13416.58
634.167	13371.16
634.521	13386.07
634.875	13370.03
635.229	13275.57
635.583	13282.12
635.937	13293.2
636.291	13363.02
636.645	13198.96
636.999	13292.52
637.352	13228.56
637.706	13172.07
638.06	13243.93
638.413	13199.19
638.767	13190.15
639.121	13149.24
639.474	13066.53
639.828	13097.72
640.181	13085.52
640.534	13060.89
640.888	13036.48
641.241	13015.46
641.594	13028.34
641.947	13027.67
642.301	13011.62
642.654	13044.61
643.007	13016.82
643.36	12993.09
643.713	12955.58
644.066	13029.47
644.419	12945.63
644.771	12886.2
645.124	12771.4
645.477	12740.67
645.83	12740.22
646.182	12699.76
646.535	12645.98
646.888	12690.95
647.24	12519.2
647.593	12575.7
647.945	12583.61
648.298	12528.24
648.65	12599.65
649.002	12490.96
649.355	12542.48
649.707	12541.8
650.059	12534.57
650.411	12785.64
650.763	12765.75
651.115	12908.57
651.467	12801.46
651.819	12835.81
652.171	12820.44
652.523	12817.95
652.875	12837.61
653.227	12786.77
653.578	12836.71
653.93	12873.55
654.282	12758.29
654.633	12779.76
654.985	12797.62
655.337	12843.72
655.688	12761.01
656.039	12831.74
656.391	12652.76
656.742	12822.7
657.094	12734.79
657.445	12916.71
657.796	12769.59
658.147	12829.48
658.498	12789.03
658.849	12822.47
659.2	12842.59
659.551	12828.12
659.902	12834.45
660.253	12840.1
660.604	12848.46
660.955	12807.56
661.306	12859.08
661.656	12809.82
662.007	12873.77
662.358	12885.07
662.708	12834.45
663.059	12874.68
663.409	12833.32
663.76	12853.66
664.11	12874
664.461	12886.2
664.811	12921
665.161	12815.92
665.511	12825.64
665.862	12798.07
666.212	12911.51
666.562	12899.08
666.912	12956.48
667.262	12859.08
667.612	12808.01
667.962	12885.75
668.312	12857.95
668.662	12932.3
669.011	12847.56
669.361	12864.96
669.711	12795.81
670.06	12819.76
670.41	12765.07
670.76	12732.31
671.109	12750.61
671.459	12768.24
671.808	12775.47
672.157	12805.52
672.507	12680.78
672.856	12696.83
673.205	12763.04
673.554	12784.73
673.904	12586.1
674.253	12812.53
674.602	12795.81
674.951	12566.44
675.3	12434.69
675.649	12666.55
675.998	12694.57
676.346	12636.04
676.695	12667
677.044	12582.93
677.393	12663.16
677.741	12702.7
678.09	12565.53
678.438	12592.88
678.787	12614.34
679.135	12557.4
679.484	12491.18
679.832	12575.25
680.181	12502.48
680.529	12490.96
680.877	12428.13
681.225	12425.42
681.573	12437.62
681.922	12403.05
682.27	12413.9
682.618	12387.23
682.966	12339.55
683.314	12372.54
683.661	12336.16
684.009	12303.17
684.357	12222.04
684.705	12188.14
685.053	12161.93
685.4	12155.15
685.748	12078.99
686.095	12170.74
686.443	12120.57
686.79	12049.84
687.138	12081.48
687.485	12074.47
687.832	11989.95
688.18	12032.89
688.527	11934.36
688.874	11946.11
689.221	11834.25
689.568	11885.1
689.915	11815.95
690.262	11835.38
690.609	11743.63
690.956	11644.2
691.303	11756.96
691.65	11659.57
691.997	11630.87
692.344	11528.5
692.69	11490.53
693.037	11498.89
693.383	11413.7
693.73	11450.76
694.077	11368.05
694.423	11324.21
694.769	11296.64
695.116	11266.13
695.462	11213.93
695.808	11232.46
696.155	11187.94
696.501	11224.55
696.847	11117.66
697.193	11011.67
697.539	11024.78
697.885	10907.95
698.231	10868.4
698.577	10942.52
698.923	10867.27
699.269	10825.01
699.614	10841.96
699.96	10820.27
700.306	10732.36
700.651	10740.95
700.997	10599.93
701.342	10600.39
701.688	10690.1
702.033	10545.7
702.379	10562.42
702.724	10509.31
703.069	10520.84
703.415	10428.64
703.76	10346.83
704.105	10394.51
704.45	10316.55
704.795	10287.62
705.14	10296.66
705.485	10247.4
705.83	10169.66
706.175	10135.76
706.52	10161.98
706.865	10067.07
707.209	10079.04
707.554	10027.74
707.899	10015.09
708.243	10005.82
708.588	9967.86
708.932	9922.89
709.277	9889.22
709.621	9856.45
709.966	9830.69
710.31	9785.49
710.654	9728.09
710.998	9745.27
711.342	9732.39
711.687	9767.19
712.031	9693.29
712.375	9616.91
712.719	9661.88
713.063	9644.93
713.407	9612.39
713.75	9569.9
714.094	9564.48
714.438	9567.19
714.782	9538.04
715.125	9517.93
715.469	9514.76
715.812	9503.46
716.156	9425.5
716.499	9403.13
716.843	9494.43
717.186	9369.91
717.53	9378.72
717.873	9417.82
718.216	9403.13
718.559	9336.69
718.902	9263.25
719.246	9287.65
719.589	9309.57
719.932	9311.61
720.275	9253.98
720.617	9271.61
720.96	9250.82
721.303	9207.65
721.646	9221.44
721.989	9238.61
722.331	9220.76
722.674	9206.98
723.016	9223.25
723.359	9190.03
723.701	9198.61
724.044	9179.41
724.386	9104.38
724.729	9201.1
725.071	9112.97
725.413	9164.26
725.755	9067.09
726.097	9018.05
726.439	9040.65
726.782	9114.55
727.124	9094.89
727.465	9032.06
727.807	9082.91
728.149	9007.21
728.491	9028.68
728.833	9005.17
729.175	9055.12
729.516	9032.52
729.858	9061.89
730.199	9037.04
730.541	8994.1
730.882	9017.15
731.224	9015.57
731.565	8982.35
731.906	9027.77
732.248	8986.19
732.589	8960.2
732.93	8895.35
733.271	8942.8
733.612	9024.38
733.953	8969.92
734.294	9023.93
734.635	8996.36
734.976	8990.03
735.317	8925.4
735.658	8962.91
735.999	8918.4
736.339	8954.33
736.68	8995.91
737.021	8975.34
737.361	8934.67
737.702	8939.41
738.042	9028
738.383	8973.31
738.723	9003.36
739.063	8972.41
739.404	9038.62
739.744	9013.99
740.084	8976.02
740.424	9078.62
740.764	9041.56
741.104	9057.83
741.444	9002.24
741.784	9062.12
742.124	9086.3
742.464	9097.83
742.804	9135.56
743.143	9096.24
743.483	9137.15
743.823	9116.58
744.162	9224.15
744.502	9254.88
744.841	9229.8
745.181	9264.38
745.52	9280.42
745.86	9328.78
746.199	9360.87
746.538	9390.93
746.877	9459.85
747.216	9594.08
747.556	9532.39
747.895	9542.11
748.234	9587.53
748.573	9633.63
748.911	9736.23
749.25	9722.89
749.589	9810.8
749.928	9947.07
750.267	9975.09
750.605	10066.61
750.944	10115.43
751.283	10164.69
751.621	10242.88
751.96	10306.83
752.298	10444.68
752.636	10528.52
752.975	10546.83
753.313	10639.71
753.651	10852.81
753.989	10850.1
754.327	10930.32
754.666	11036.53
755.004	11221.39
755.342	11346.58
755.679	11357.65
756.017	11558.1
756.355	11754.48
756.693	11843.97
757.031	11874.93
757.368	12054.13
757.706	12292.09
758.044	12372.09
758.381	12537.74
758.719	12622.25
759.056	12804.17
759.394	12979.31
759.731	13043.48
760.068	13221.79
760.405	13324.38
760.743	13490.48
761.08	13653.64
761.417	13732.05
761.754	13958.94
762.091	14148.54
762.428	14274.19
762.765	14435.76
763.102	14618.58
763.438	14686.15
763.775	14773.16
764.112	15051.79
764.449	15173.82
764.785	15306.25
765.122	15449.3
765.458	15572.01
765.795	15795.28
766.131	15893.13
766.467	15957.98
766.804	16102.61
767.14	16220.12
767.476	16482.72
767.812	16449.04
768.148	16634.12
768.485	16750.51
768.821	16792.31
769.157	16935.36
769.492	17058.52
769.828	17247.22
770.164	17243.83
770.5	17372.64
770.836	17526.98
771.171	17520.66
771.507	17580.31
771.842	17599.07
772.178	17813.98
772.513	17836.13
772.849	17880.19
773.184	17837.71
773.519	18036.12
773.855	18077.25
774.19	18116.12
774.525	18290.35
774.86	18270.24
775.195	18381.2
775.53	18435.66
775.865	18407.41
776.2	18365.38
776.535	18270.92
776.87	18436.34
777.205	18454.87
777.539	18552.94
777.874	18698.7
778.209	18536.9
778.543	18581.42
778.878	18617.58
779.212	18619.38
779.547	18552.72
779.881	18765.14
780.215	18647.63
780.55	18780.28
780.884	18619.84
781.218	18663.9
781.552	18704.58
781.886	18749.55
782.22	18728.08
782.554	18600.4
782.888	18521.31
783.222	18564.7
783.556	18491.25
783.889	18562.89
784.223	18404.93
784.557	18474.53
784.89	18603.79
785.224	18434.53
785.557	18395.66
785.891	18437.92
786.224	18359.96
786.558	18462.55
786.891	18300.75
787.224	18244.25
787.557	18293.06
787.891	18251.48
788.224	18319.28
788.557	18287.41
788.89	18275.44
789.223	18274.76
789.556	18079.51
789.888	18090.58
790.221	18120.19
790.554	18002.9
790.887	18034.54
791.219	17962
791.552	17883.13
791.884	17823.25
792.217	17878.61
792.549	17775.56
792.882	17743.93
793.214	17614.44
793.546	17717.94
793.879	17656.47
794.211	17636.36
794.543	17594.1
794.875	17609.92
795.207	17660.09
795.539	17542.58
795.871	17640.88
796.203	17377.16
796.535	17382.35
796.867	17328.34
797.198	17224.39
797.53	17316.14
797.862	17216.48
798.193	17193.21
798.525	17155.24
798.856	17156.6
799.188	16988.24
799.519	16952.08
799.85	16815.36
800.182	16882.48
800.513	17014.91
800.844	16809.71
801.175	16897.85
801.506	16854.91
801.837	16802.26
802.168	16638.19
802.499	16758.64
802.83	16573.11
803.161	16536.27
803.491	16616.05
803.822	16471.19
804.153	16407.92
804.483	16381.93
804.814	16384.87
805.145	16367.69
805.475	16419.44
805.805	16255.38
806.136	16318.88
806.466	16175.15
806.796	16127.7
807.126	16115.27
807.457	16030.3
807.787	16023.97
808.117	16029.17
808.447	15972.9
808.777	16002.73
809.107	15922.51
809.436	15870.08
809.766	15897.87
810.096	15758.22
810.426	15776.07
810.755	15751.21
811.085	15753.02
811.414	15725.67
811.744	15605.9
812.073	15620.82
812.403	15628.05
812.732	15529.97
813.061	15501.27
813.39	15443.2
813.719	15395.97
814.049	15441.16
814.378	15376.53
814.707	15351.67
815.036	15311
815.365	15253.14
815.693	15187.38
816.022	15070.78
816.351	15063.09
816.68	15057.9
817.008	15089.76
817.337	15014.51
817.665	14938.8
817.994	15094.5
818.322	14919.14
818.651	14840.95
818.979	14861.29
819.307	14967.05
819.636	14859.71
819.964	14810.44
820.292	14843.66
820.62	14808.64
820.948	14683.67
821.276	14834.4
821.604	14802.53
821.932	14863.32
822.259	14792.82
822.587	14738.13
822.915	14732.48
823.243	14773.61
823.57	14707.62
823.898	14731.58
824.225	14734.97
824.553	14755.53
824.88	14768.19
825.207	14686.38
825.535	14749.43
825.862	14856.77
826.189	14729.54
826.516	14788.75
826.843	14854.06
827.17	14856.32
827.497	14834.4
827.824	14820.84
828.151	14843.66
828.478	14790.78
828.805	14851.35
829.131	14835.98
829.458	14715.98
829.785	14689.09
830.111	14729.77
830.438	14813.38
830.764	14774.51
831.09	14718.24
831.417	14695.42
831.743	14729.09
832.069	14807.73
832.395	14753.72
832.722	14765.93
833.048	14603.44
833.374	14716.21
833.7	14697.45
834.026	14680.73
834.351	14779.03
834.677	14701.97
835.003	14771.8
835.329	14701.07
835.654	14595.08
835.98	14515.99
836.306	14631.01
836.631	14609.09
836.956	14613.84
837.282	14607.51
837.607	14472.6
837.932	14496.33
838.258	14461.75
838.583	14472.83
838.908	14416.56
839.233	14367.07
839.558	14380.62
839.883	14375.88
840.208	14241.87
840.533	14275.32
840.858	14320.74
841.182	14327.29
841.507	14342.21
841.832	14204.81
842.156	14151.25
842.481	14088.43
842.805	14059.05
843.13	14027.64
843.454	14043.46
843.778	13952.16
844.103	13960.97
844.427	13982.44
844.751	13922.78
845.075	13852.73
845.399	13820.41
845.723	13695.67
846.047	13819.06
846.371	13667.2
846.695	13645.28
847.019	13536.35
847.343	13498.84
847.666	13436.02
847.99	13403.48
848.313	13394.44
848.637	13283.25
848.96	13361.22
849.284	13206.19
849.607	13131.62
849.931	13118.96
850.254	13029.02
850.577	12963.03
850.9	12863.15
851.223	12939.08
851.546	12795.13
851.869	12707.45
852.192	12804.85
852.515	12652.53
852.838	12603.27
853.161	12605.53
853.483	12512.2
853.806	12478.08
854.129	12549.94
854.451	12486.21
854.774	12454.8
855.096	12298.87
855.419	12314.24
855.741	12227.46
856.063	12230.4
856.385	12187.91
856.708	12160.34
857.03	12150.17
857.352	12132.1
857.674	12021.82
857.996	12040.35
858.318	11905.21
858.64	11962.38
858.961	11925.32
859.283	11881.26
859.605	11843.97
859.926	11818.66
860.248	11850.97
860.57	11792.44
860.891	11789.96
861.212	11690.53
861.534	11622.96
861.855	11541.6
862.176	11681.71
862.498	11618.44
862.819	11623.64
863.14	11607.14
863.461	11552
863.782	11487.37
864.103	11490.08
864.424	11423.19
864.745	11534.37
865.065	11414.38
865.386	11446.01
865.707	11396.07
866.027	11362.17
866.348	11334.83
866.668	11346.58
866.989	11295.96
867.309	11250.76
867.63	11222.74
867.95	11241.95
868.27	11210.99
868.59	11181.16
868.91	11212.57
869.23	11156.53
869.55	11172.57
869.87	11185
870.19	11144.55
870.51	11102.52
870.83	11006.93
871.15	10972.35
871.469	10985.91
871.789	11010.32
872.109	10963.09
872.428	10869.08
872.748	11017.1
873.067	10987.49
873.386	10960.6
873.706	10953.14
874.025	10834.28
874.344	10887.38
874.663	10906.82
874.982	10818.01
875.301	10873.82
875.62	10802.41
875.939	10756.77
876.258	10817.1
876.577	10728.29
876.896	10705.24
877.214	10660.27
877.533	10670.44
877.852	10736.88
878.17	10648.75
878.489	10670.89
878.807	10612.81
879.125	10583.44
879.444	10557.67
879.762	10590.89
880.08	10580.05
880.398	10501.18
880.716	10506.6
881.034	10441.29
881.352	10465.25
881.67	10439.71
881.988	10394.74
882.306	10399.26
882.624	10347.28
882.941	10321.3
883.259	10291.92
883.577	10286.27
883.894	10318.36
884.212	10297.57
884.529	10288.08
884.846	10194.52
885.164	10182.09
885.481	10126.27
885.798	10181.64
886.115	10115.65
886.432	10133.28
886.75	10078.14
887.067	10136.44
887.383	10016.45
887.7	10046.5
888.017	9923.79
888.334	10005.37
888.651	9916.56
888.967	9889.44
889.284	9906.17
889.6	9886.51
889.917	9742.78
890.233	9852.61
890.55	9722.67
890.866	9702.1
891.182	9767.19
891.498	9674.31
891.815	9700.07
892.131	9639.28
892.447	9596.12
892.763	9630.24
893.079	9507.98
893.395	9522.67
893.71	9483.58
894.026	9441.55
894.342	9395.22
894.657	9319.51
894.973	9382.11
895.289	9381.66
895.604	9362.23
895.92	9272.51
896.235	9145.73
896.55	9206.3
896.865	9194.09
897.181	9147.54
897.496	9151.61
897.811	9123.81
898.126	9089.92
898.441	9067.77
898.756	8958.62
899.071	8946.64
899.386	8948
899.7	8881.33
900.015	8854.67
900.33	8781.9
900.644	8816.7
900.959	8775.35
901.273	8745.07
901.588	8741.9
901.902	8650.83
902.216	8608.12
902.531	8598.4
902.845	8633.21
903.159	8523.15
903.473	8516.37
903.787	8423.04
904.101	8414.68
904.415	8409.71
904.729	8388.24
905.042	8344.4
905.356	8331.29
905.67	8286.1
905.984	8254.23
906.297	8248.81
906.611	8189.15
906.924	8162.71
907.237	8103.95
907.551	8106.44
907.864	8098.53
908.177	8088.59
908.491	8042.94
908.804	7972.43
909.117	7970.85
909.43	7856.73
909.743	7862.38
910.056	7878.2
910.368	7883.39
910.681	7720.46
910.994	7750.29
911.307	7714.13
911.619	7633.23
911.932	7675.94
912.244	7592.78
912.557	7560.92
912.869	7527.7
913.181	7485.66
913.494	7497.87
913.806	7421.94
914.118	7368.15
914.43	7443.86
914.742	7371.09
915.054	7283.86
915.366	7233.02
915.678	7227.82
915.99	7234.82
916.302	7192.11
916.613	7170.64
916.925	7136.07
917.236	7130.19
917.548	7083.64
917.859	7161.83
918.171	6991.67
918.482	7005.45
918.794	6999.8
919.105	6958.67
919.416	6908.73
919.727	6922.29
920.038	6880.26
920.349	6815.4
920.66	6798.9
920.971	6761.39
921.282	6763.88
921.593	6762.97
921.903	6671.22
922.214	6656.31
922.525	6614.05
922.835	6595.29
923.146	6555.97
923.456	6556.42
923.767	6491.79
924.077	6510.1
924.387	6531.11
924.697	6444.56
925.008	6411.79
925.318	6376.77
925.628	6355.75
925.938	6370.44
926.248	6299.48
926.558	6288.41
926.867	6191.24
927.177	6228.3
927.487	6172.48
927.796	6169.32
928.106	6120.05
928.416	6141.52
928.725	6113.5
929.034	6030.56
929.344	6108.53
929.653	6073.95
929.962	6009.32
930.271	6027.62
930.581	5988.08
930.89	5947.63
931.199	5905.37
931.508	5905.59
931.817	5902.43
932.125	5919.15
932.434	5825.14
932.743	5787.18
933.051	5826.73
933.36	5745.37
933.669	5697.24
933.977	5657.92
934.286	5617.24
934.594	5624.02
934.902	5630.35
935.21	5555.32
935.519	5590.57
935.827	5567.3
936.135	5481.42
936.443	5482.1
936.751	5485.94
937.059	5490.46
937.367	5443.46
937.674	5483.01
937.982	5425.61
938.29	5365.95
938.597	5418.15
938.905	5336.57
939.213	5287.08
939.52	5269.45
939.827	5349.22
940.135	5267.87
940.442	5212.96
940.749	5206.85
941.056	5196.01
941.363	5162.79
941.67	5115.33
941.977	5136.12
942.284	5061.1
942.591	5045.95
942.898	5041.44
943.205	5060.19
943.511	5001.44
943.818	5014.09
944.125	4949.69
944.431	4950.14
944.738	4900.87
945.044	4880.54
945.35	4842.12
945.657	4807.54
945.963	4840.31
946.269	4821.55
946.575	4802.12
946.881	4793.76
947.187	4778.62
947.493	4705.4
947.799	4734.32
948.105	4695
948.41	4655
948.716	4618.85
949.022	4626.76
949.327	4615.23
949.633	4602.58
949.938	4548.11
950.244	4589.47
950.549	4519.87
950.854	4494.1
951.16	4553.31
951.465	4470.6
951.77	4457.27
952.075	4453.65
952.38	4472.86
952.685	4461.34
952.99	4344.05
953.294	4373.2
953.599	4387.67
953.904	4305.86
954.209	4290.49
954.513	4279.42
954.818	4280.1
955.122	4259.08
955.426	4217.05
955.731	4244.39
956.035	4166.66
956.339	4202.36
956.643	4153.55
956.948	4126.88
957.252	4140.89
957.556	4122.14
957.86	4074
958.163	4088.92
958.467	4060.67
958.771	4038.07
959.075	4012.08
959.378	3964.18
959.682	3997.85
959.985	3982.93
960.289	3916.72
960.592	3936.38
960.896	3887.34
961.199	3930.5
961.502	3845.76
961.805	3837.85
962.108	3812.32
962.411	3810.51
962.714	3819.77
963.017	3775.93
963.32	3763.5
963.623	3759.44
963.926	3749.94
964.228	3737.51
964.531	3709.27
964.833	3712.43
965.136	3660.45
965.438	3691.41
965.741	3670.85
966.043	3628.59
966.345	3609.83
966.648	3629.49
966.95	3596.28
967.252	3587.24
967.554	3607.35
967.856	3552.21
968.158	3501.59
968.46	3511.98
968.761	3503.85
969.063	3508.59
969.365	3442.16
969.666	3464.98
969.968	3446.22
970.269	3433.79
970.571	3403.06
970.872	3432.89
971.174	3359.9
971.475	3384.76
971.776	3365.55
972.077	3337.07
972.378	3332.33
972.679	3317.64
972.98	3299.56
973.281	3269.73
973.582	3309.5
973.883	3239.22
974.183	3249.17
974.484	3200.13
974.785	3215.49
975.085	3187.25
975.386	3164.65
975.686	3153.12
975.986	3139.56
976.287	3115.84
976.587	3132.56
976.887	3097.08
977.187	3086.01
977.487	3094.37
977.787	3051.88
978.087	3033.8
978.387	3035.39
978.687	3058.66
978.987	2993.81
979.286	2995.16
979.586	2987.48
979.885	2964.2
980.185	2970.76
980.484	2940.7
980.784	2939.34
981.083	2891.21
981.382	2931.21
981.682	2893.02
981.981	2917.65
982.28	2870.42
982.579	2848.95
982.878	2850.08
983.177	2837.65
983.475	2823.87
983.774	2807.6
984.073	2799.69
984.372	2780.93
984.67	2777.54
984.969	2754.04
985.267	2795.39
985.566	2762.63
985.864	2709.07
986.162	2734.15
986.461	2710.65
986.759	2709.07
987.057	2651.44
987.355	2667.03
987.653	2671.1
987.951	2649.86
988.249	2649.18
988.547	2604.44
988.844	2594.95
989.142	2566.92
989.44	2543.42
989.737	2533.48
990.035	2519.47
990.332	2544.55
990.63	2509.3
990.927	2524.21
991.224	2490.09
991.521	2501.62
991.819	2477.66
992.116	2442.86
992.413	2494.61
992.71	2440.83
993.006	2464.1
993.303	2447.38
993.6	2403.09
993.897	2394.27
994.193	2450.09
994.49	2404.22
994.787	2378.91
995.083	2358.12
995.379	2354.5
995.676	2372.8
995.972	2341.17
996.268	2318.57
996.565	2290.1
996.861	2311.11
997.157	2293.03
997.453	2270.43
997.749	2238.35
998.044	2237.67
998.34	2218.68
998.636	2213.49
998.932	2186.82
999.227	2192.24
999.523	2194.73
999.818	2200.38
1000.114	2168.29
1000.409	2152.92
1000.704	2151.34
1001	2124.45
1001.295	2098.46
1001.59	2104.11
1001.885	2111.57
1002.18	2070.21
1002.475	2086.03
1002.77	2053.94
1003.065	2044.23
1003.359	2032.7
1003.654	2044.45
1003.949	2015.07
1004.243	1988.63
1004.538	1977.56
1004.832	2006.03
1005.127	2008.97
1005.421	1990.67
1005.715	1958.58
1006.009	1915.19
1006.304	1966.94
1006.598	1942.99
1006.892	1872.25
1007.186	1900.73
1007.48	1891.91
1007.773	1906.6
1008.067	1863.21
1008.361	1848.3
1008.655	1830.67
1008.948	1823.21
1009.242	1820.73
1009.535	1829.32
1009.829	1828.19
1010.122	1797
1010.415	1798.13
1010.708	1785.02
1011.001	1765.36
1011.295	1732.82
1011.588	1754.97
1011.881	1737.79
1012.173	1722.88
1012.466	1700.51
1012.759	1702.31
1013.052	1678.81
1013.344	1681.3
1013.637	1670.68
1013.93	1641.52
1014.222	1622.99
1014.514	1641.07
1014.807	1655.76
1015.099	1630.68
1015.391	1617.8
1015.683	1609.89
1015.976	1594.97
1016.268	1559.27
1016.56	1572.15
1016.851	1586.84
1017.143	1572.6
1017.435	1536.67
1017.727	1529.66
1018.018	1554.07
1018.31	1525.37
1018.602	1504.58
1018.893	1516.1
1019.185	1516.56
1019.476	1491.25
1019.767	1460.51
1020.058	1480.62
1020.35	1457.8
1020.641	1440.4
1020.932	1439.27
1021.223	1420.74
1021.514	1408.31
1021.804	1368.76
1022.095	1411.25
1022.386	1394.3
1022.677	1389.1
1022.967	1389.1
1023.258	1353.62
1023.548	1347.97
1023.839	1314.08
1024.129	1336.22
1024.419	1312.49
1024.709	1336.9
1025	1290.57
1025.29	1293.96
1025.58	1307.3
1025.87	1295.09
1026.16	1278.14
1026.449	1277.01
1026.739	1281.31
1027.029	1244.92
1027.319	1242.67
1027.608	1204.47
1027.898	1226.17
1028.187	1196.79
1028.477	1183.68
1028.766	1216.68
1029.055	1194.98
1029.344	1204.93
1029.634	1186.85
1029.923	1183.23
1030.212	1147.98
1030.501	1152.27
1030.79	1142.33
1031.078	1134.65
1031.367	1128.09
1031.656	1127.19
1031.945	1131.93
1032.233	1103.23
1032.522	1122.22
1032.81	1089.67
1033.099	1098.94
1033.387	1100.3
1033.675	1085.61
1033.963	1082.44
1034.251	1075.89
1034.54	1063.69
1034.828	1065.72
1035.116	1044.93
1035.403	1018.26
1035.691	1015.1
1035.979	1014.65
1036.267	996.57
1036.554	1016.91
1036.842	985.04
1037.129	992.73
1037.417	982.78
1037.704	977.36
1037.992	955.21
1038.279	975.33
1038.566	939.62
1038.853	939.62
1039.14	939.62
