Data from hue_230_FLMS001491_00090.txt Node
Date: Tue Feb 07 16:37:52 GMT 2017
User: dcchb
Spectrometer: FLMS00149
Trigger mode: 0
Integration Time (sec): 2.000000E-2
Scans to average: 10
Electric dark correction enabled: true
Nonlinearity correction enabled: false
Boxcar width: 0
XAxis mode: Wavelengths
Number of Pixels in Spectrum: 2048
>>>>>Begin Spectral Data<<<<<
341.393	-15.83
341.776	-15.83
342.16	-15.83
342.543	-58.09
342.927	-80.69
343.31	-76.17
343.693	-79.11
344.077	-66.23
344.46	-74.36
344.843	-51.76
345.226	-37.3
345.61	-42.72
345.993	-0.69
346.376	-13.35
346.759	2.25
347.142	23.71
347.525	42.47
347.908	53.77
348.291	89.48
348.674	109.36
349.057	120.66
349.44	131.06
349.823	128.8
350.206	147.78
350.588	201.11
350.971	194.78
351.354	200.43
351.737	244.27
352.119	239.53
352.502	234.78
352.884	253.76
353.267	267.1
353.65	270.04
354.032	279.98
354.414	280.88
354.797	311.62
355.179	331.73
355.562	323.37
355.944	316.36
356.326	321.11
356.709	316.36
357.091	320.66
357.473	325.18
357.855	336.93
358.238	332.86
358.62	326.08
359.002	334.21
359.384	343.25
359.766	333.54
360.148	326.76
360.53	321.11
360.912	325.18
361.294	331.95
361.676	334.67
362.057	333.31
362.439	317.04
362.821	316.36
363.203	321.11
363.584	315.46
363.966	312.52
364.348	323.14
364.729	324.05
365.111	313.2
365.493	333.99
365.874	331.95
366.256	334.44
366.637	315.68
367.019	310.71
367.4	304.84
367.781	298.96
368.163	306.42
368.544	309.58
368.925	301.67
369.306	315.46
369.688	305.97
370.069	314.78
370.45	317.49
370.831	317.49
371.212	300.99
371.593	300.77
371.974	303.25
372.355	313.65
372.736	327.66
373.117	303.03
373.498	293.76
373.879	298.51
374.26	302.35
374.641	306.64
375.021	317.72
375.402	319.3
375.783	303.25
376.163	313.88
376.544	321.33
376.925	324.5
377.305	313.42
377.686	311.16
378.066	306.64
378.447	316.59
378.827	315.46
379.208	310.94
379.588	324.95
379.968	335.12
380.349	345.74
380.729	307.1
381.109	324.05
381.489	324.95
381.87	329.69
382.25	340.77
382.63	333.54
383.01	332.63
383.39	320.43
383.77	320.43
384.15	341.22
384.53	342.12
384.91	343.03
385.29	344.61
385.67	337.38
386.049	338.96
386.429	336.25
386.809	366.3
387.189	346.64
387.568	347.1
387.948	360.2
388.328	358.39
388.707	360.88
389.087	363.37
389.466	355.23
389.846	335.12
390.225	359.98
390.605	363.14
390.984	337.38
391.363	343.93
391.743	345.97
392.122	347.32
392.501	366.3
392.881	361.33
393.26	358.17
393.639	391.84
394.018	370.15
394.397	345.51
394.776	362.46
395.155	394.78
395.534	377.6
395.913	399.3
396.292	366.08
396.671	390.71
397.05	395.46
397.429	367.66
397.808	388.9
398.186	392.07
398.565	385.51
398.944	404.95
399.323	382.12
399.701	380.09
400.08	409.24
400.458	408.79
400.837	420.31
401.215	403.82
401.594	424.16
401.972	405.85
402.351	406.75
402.729	411.95
403.107	381.22
403.486	437.49
403.864	416.02
404.242	421.22
404.62	438.84
404.999	416.47
405.377	432.06
405.755	428.45
406.133	444.04
406.511	431.61
406.889	446.08
407.267	423.48
407.645	458.05
408.023	472.97
408.401	446.08
408.779	464.83
409.156	456.7
409.534	483.36
409.912	478.39
410.29	500.54
410.667	482.69
411.045	500.09
411.422	510.71
411.8	491.95
412.178	524.94
412.555	519.29
412.933	526.75
413.31	558.39
413.687	537.15
414.065	543.47
414.442	562.91
414.819	558.84
415.197	566.52
415.574	583.93
415.951	572.63
416.328	602
416.705	585.51
417.082	576.47
417.46	608.11
417.837	611.5
418.214	610.37
418.591	618.95
418.967	624.15
419.344	632.51
419.721	644.04
420.098	662.57
420.475	678.61
420.852	655.56
421.228	653.75
421.605	675
421.982	676.13
422.358	694.43
422.735	714.77
423.111	716.58
423.488	747.31
423.864	730.81
424.241	761.1
424.617	757.48
424.994	774.65
425.37	776.91
425.746	759.74
426.123	795.9
426.499	819.17
426.875	815.11
427.251	814.2
427.627	825.95
428.003	854.65
428.379	871.6
428.756	858.95
429.132	870.47
429.507	861.43
429.883	904.14
430.259	926.06
430.635	906.85
431.011	911.37
431.387	943.69
431.763	951.6
432.138	964.93
432.514	981.2
432.89	955.89
433.265	1003.58
433.641	993.63
434.016	1042.44
434.392	1045.61
434.767	1080.18
435.143	1073.4
435.518	1080.64
435.894	1100.75
436.269	1101.43
436.644	1132.84
437.02	1144.14
437.395	1188.43
437.77	1194.53
438.145	1192.5
438.52	1204.7
438.895	1240.18
439.271	1254.42
439.646	1261.2
440.021	1302.32
440.395	1283.12
440.77	1289.67
441.145	1328.31
441.52	1345.49
441.895	1349.55
442.27	1350.91
442.645	1362.89
443.019	1372.61
443.394	1372.15
443.769	1379.38
444.143	1406.5
444.518	1435.65
444.892	1448.54
445.267	1449.67
445.641	1445.82
446.016	1454.41
446.39	1464.58
446.764	1502.09
447.139	1485.82
447.513	1503.45
447.887	1506.16
448.262	1520.4
448.636	1538.93
449.01	1563.11
449.384	1560.17
449.758	1554.97
450.132	1560.17
450.506	1574.41
450.88	1601.3
451.254	1620.96
451.628	1658.47
452.002	1651.92
452.376	1626.38
452.75	1650.11
453.123	1702.77
453.497	1717.45
453.871	1736.44
454.244	1726.72
454.618	1762.88
454.992	1786.15
455.365	1801.52
455.739	1787.74
456.112	1837
456.486	1836.32
456.859	1857.56
457.232	1896.66
457.606	1888.07
457.979	1895.53
458.352	1925.36
458.725	1960.16
459.099	1984.57
459.472	2008.97
459.845	2015.07
460.218	2045.36
460.591	2062.53
460.964	2055.07
461.337	2116.99
461.71	2150.44
462.083	2195.41
462.456	2159.7
462.829	2152.7
463.201	2189.53
463.574	2215.97
463.947	2269.53
464.32	2294.61
464.692	2325.12
465.065	2350.21
465.438	2356.31
465.81	2345.23
466.183	2391.11
466.555	2432.01
466.928	2422.52
467.3	2435.85
467.672	2484.67
468.045	2559.92
468.417	2536.42
468.789	2575.74
469.161	2633.14
469.534	2643.08
469.906	2669.29
470.278	2717.65
470.65	2747.94
471.022	2752.68
471.394	2816.86
471.766	2855.96
472.138	2889.85
472.51	2916.52
472.882	2925.56
473.253	2976.63
473.625	3003.75
473.997	3057.98
474.369	3096.85
474.74	3104.09
475.112	3155.84
475.484	3207.36
475.855	3270.41
476.227	3289.16
476.598	3340.01
476.97	3324.64
477.341	3432.89
477.713	3507.92
478.084	3492.55
478.455	3598.76
478.827	3628.14
479.198	3689.38
479.569	3681.25
479.94	3761.92
480.311	3784.29
480.682	3907.68
481.053	3976.15
481.424	3997.39
481.795	4020.45
482.166	4098.64
482.537	4148.8
482.908	4193.55
483.279	4216.37
483.65	4327.56
484.021	4344.96
484.391	4391.51
484.762	4423.82
485.133	4478.29
485.503	4525.29
485.874	4586.08
486.244	4652.97
486.615	4702.01
486.985	4758.5
487.356	4832.4
487.726	4889.8
488.097	4986.75
488.467	4947.43
488.837	5070.36
489.207	5073.52
489.578	5159.62
489.948	5206.63
490.318	5302.67
490.688	5221.77
491.058	5324.37
491.428	5409.56
491.798	5415.44
492.168	5511.03
492.538	5516.68
492.908	5586.05
493.278	5583.79
493.648	5647.97
494.017	5722.1
494.387	5715.99
494.757	5764.13
495.126	5839.38
495.496	5829.66
495.866	5886.84
496.235	5921.41
496.605	5979.49
496.974	6001.64
497.344	5996.44
497.713	6043.67
498.082	6093.38
498.452	6129.77
498.821	6129.54
499.19	6167.96
499.559	6236.66
499.928	6220.39
500.298	6295.64
500.667	6266.71
501.036	6301.74
501.405	6370.67
501.774	6386.71
502.143	6395.98
502.512	6408.86
502.88	6421.74
503.249	6427.84
503.618	6490.21
503.987	6452.7
504.356	6494.28
504.724	6559.81
505.093	6524.33
505.462	6609.3
505.83	6589.42
506.199	6617.44
506.567	6700.15
506.936	6668.96
507.304	6703.31
507.672	6683.65
508.041	6743.99
508.409	6760.03
508.777	6792.12
509.145	6848.39
509.514	6841.16
509.882	6896.08
510.25	6898.34
510.618	6860.37
510.986	6927.71
511.354	6966.13
511.722	6992.12
512.09	6960.71
512.458	6948.28
512.826	7010.2
513.193	7022.63
513.561	7006.36
513.929	7063.3
514.297	7088.39
514.664	7146.24
515.032	7143.07
515.4	7128.61
515.767	7188.95
516.135	7160.7
516.502	7121.15
516.869	7236.63
517.237	7179.23
517.604	7142.85
517.972	7224.43
518.339	7208.84
518.706	7207.93
519.073	7237.99
519.44	7258.33
519.808	7277.08
520.175	7257.42
520.542	7318.21
520.909	7337.42
521.276	7291.32
521.643	7348.95
522.009	7357.98
522.376	7381.94
522.743	7369.74
523.11	7365.67
523.477	7419.68
523.843	7450.64
524.21	7555.72
524.577	7503.07
524.943	7488.6
525.31	7503.74
525.676	7504.2
526.043	7647.92
526.409	7534.25
526.776	7627.13
527.142	7566.11
527.508	7580.8
527.874	7641.14
528.241	7637.98
528.607	7643.63
528.973	7671.2
529.339	7595.04
529.705	7713.91
530.071	7671.65
530.437	7686.11
530.803	7652.44
531.169	7678.65
531.535	7603.4
531.901	7647.92
532.267	7663.51
532.632	7663.97
532.998	7657.86
533.364	7703.06
533.73	7689.28
534.095	7712.78
534.461	7684.3
534.826	7742.38
535.192	7666
535.557	7599.56
535.923	7696.28
536.288	7657.41
536.653	7687.24
537.019	7538.77
537.384	7628.94
537.749	7627.36
538.114	7564.76
538.479	7571.31
538.845	7570.18
539.21	7540.13
539.575	7563.4
539.94	7552.56
540.305	7542.39
540.67	7440.02
541.034	7487.02
541.399	7449.73
541.764	7480.24
542.129	7462.84
542.494	7442.5
542.858	7479.56
543.223	7451.54
543.587	7499.9
543.952	7359.57
544.316	7451.77
544.681	7398.44
545.045	7487.7
545.41	7417.42
545.774	7368.38
546.138	7378.32
546.503	7339.45
546.867	7318.66
547.231	7369.28
547.595	7385.55
547.959	7295.39
548.324	7306.69
548.688	7267.37
549.052	7273.24
549.416	7243.86
549.779	7221.26
550.143	7172.68
550.507	7322.51
550.871	7267.14
551.235	7108.27
551.599	7142.17
551.962	7206.12
552.326	7173.13
552.689	7221.04
553.053	7139.23
553.417	7127.71
553.78	7170.42
554.143	7115.96
554.507	7117.09
554.87	7104.21
555.234	7115.96
555.597	7148.95
555.96	7101.72
556.323	7101.27
556.686	7093.13
557.05	7153.47
557.413	7104.21
557.776	7122.74
558.139	7162.74
558.502	7126.35
558.865	7130.19
559.228	7206.58
559.59	7147.59
559.953	7192.34
560.316	7226.46
560.679	7158.22
561.041	7155.28
561.404	7198.89
561.767	7189.63
562.129	7200.25
562.492	7233.24
562.854	7182.17
563.217	7188.72
563.579	7167.71
563.941	7209.29
564.304	7260.36
564.666	7292
565.028	7255.84
565.39	7292.45
565.753	7336.74
566.115	7306.01
566.477	7309.4
566.839	7294.71
567.201	7396.18
567.563	7347.82
567.925	7406.34
568.287	7395.27
568.648	7398.66
569.01	7404.76
569.372	7474.37
569.734	7440.69
570.095	7437.98
570.457	7433.24
570.819	7446.12
571.18	7428.49
571.542	7594.59
571.903	7524.99
572.265	7548.71
572.626	7498.32
572.987	7578.77
573.349	7637.98
573.71	7631.2
574.071	7648.82
574.432	7616.06
574.794	7717.98
575.155	7664.42
575.516	7676.39
575.877	7704.87
576.238	7672.78
576.599	7741.25
576.96	7773.79
577.32	7759.1
577.681	7782.61
578.042	7772.89
578.403	7857.18
578.763	7858.99
579.124	7885.2
579.485	7849.5
579.845	7853.79
580.206	7832.77
580.566	7898.76
580.927	7944.41
581.287	7900.34
581.648	7907.35
582.008	7926.33
582.368	7932.43
582.728	7936.73
583.089	7930.17
583.449	7900.8
583.809	7979.21
584.169	8015.14
584.529	7987.12
584.889	8016.5
585.249	7968.82
585.609	8033.22
585.969	8079.1
586.329	7999.1
586.688	8041.13
587.048	8043.16
587.408	8015.37
587.768	8050.4
588.127	8088.13
588.487	8056.5
588.846	8127.23
589.206	8120.9
589.565	8154.12
589.925	8122.03
590.284	8151.86
590.643	8164.97
591.003	8155.7
591.362	8173.1
591.721	8162.26
592.08	8124.29
592.44	8195.7
592.799	8227.11
593.158	8207.23
593.517	8184.86
593.876	8204.97
594.235	8155.03
594.593	8243.38
594.952	8223.05
595.311	8216.94
595.67	8265.08
596.029	8242.48
596.387	8297.85
596.746	8318.64
597.104	8228.02
597.463	8233.22
597.822	8256.04
598.18	8296.26
598.538	8290.16
598.897	8331.97
599.255	8303.27
599.613	8376.49
599.972	8317.96
600.33	8306.43
600.688	8289.03
601.046	8390.27
601.404	8352.08
601.762	8340.78
602.12	8371.74
602.478	8364.51
602.836	8367.45
603.194	8350.73
603.552	8341.24
603.91	8296.94
604.268	8380.56
604.625	8354.12
604.983	8388.69
605.341	8391.86
605.698	8460.78
606.056	8413.1
606.413	8434.79
606.771	8446.54
607.128	8465.75
607.485	8341.24
607.843	8399.54
608.2	8428.46
608.557	8440.89
608.914	8400.44
609.272	8456.49
609.629	8475.24
609.986	8518.86
610.343	8473.44
610.7	8489.03
611.057	8502.36
611.414	8494.68
611.771	8537.84
612.127	8556.37
612.484	8451.74
612.841	8553.66
613.198	8528.8
613.554	8498.97
613.911	8594.34
614.267	8593.88
614.624	8582.36
614.98	8608.12
615.337	8604.73
615.693	8593.88
616.05	8595.01
616.406	8687.67
616.762	8576.71
617.118	8609.7
617.475	8658.06
617.831	8663.03
618.187	8663.26
618.543	8637.05
618.899	8693.54
619.255	8675.24
619.611	8691.51
619.967	8713.88
620.323	8711.4
620.678	8785.97
621.034	8674.33
621.39	8667.33
621.746	8659.87
622.101	8728.57
622.457	8728.8
622.812	8776.25
623.168	8728.57
623.523	8721.11
623.879	8756.59
624.234	8720.21
624.589	8732.64
624.945	8724.73
625.3	8778.06
625.655	8677.5
626.01	8678.63
626.365	8742.81
626.72	8725.63
627.075	8719.76
627.43	8723.82
627.785	8669.81
628.14	8684.73
628.495	8698.29
628.85	8698.06
629.205	8677.72
629.559	8691.51
629.914	8704.16
630.269	8583.94
630.623	8632.98
630.978	8635.92
631.332	8617.39
631.687	8674.56
632.041	8645.63
632.396	8559.31
632.75	8609.93
633.104	8577.16
633.459	8558.18
633.813	8553.21
634.167	8513.43
634.521	8555.24
634.875	8508.01
635.229	8529.71
635.583	8535.81
635.937	8531.74
636.291	8469.82
636.645	8513.21
636.999	8426.43
637.352	8462.81
637.706	8388.92
638.06	8467.11
638.413	8415.13
638.767	8422.59
639.121	8449.26
639.474	8366.09
639.828	8381.23
640.181	8377.62
640.534	8416.71
640.888	8359.99
641.241	8319.32
641.594	8342.37
641.947	8377.39
642.301	8340.11
642.654	8376.04
643.007	8393.66
643.36	8331.74
643.713	8350.5
644.066	8400.22
644.419	8333.55
644.771	8284.74
645.124	8184.18
645.477	8183.05
645.83	8127.91
646.182	8088.81
646.535	8078.87
646.888	8073.9
647.24	8030.96
647.593	8099.21
647.945	8053.56
648.298	7979.66
648.65	8007.68
649.002	8012.2
649.355	7998.42
649.707	8032.77
650.059	8048.81
650.411	8138.08
650.763	8136.04
651.115	8262.37
651.467	8182.82
651.819	8207.68
652.171	8248.58
652.523	8178.3
652.875	8185.76
653.227	8157.74
653.578	8220.56
653.93	8235.02
654.282	8142.6
654.633	8181.47
654.985	8183.95
655.337	8165.42
655.688	8122.48
656.039	8187.79
656.391	8115.48
656.742	8169.71
657.094	8159.77
657.445	8170.62
657.796	8158.19
658.147	8179.88
658.498	8192.76
658.849	8145.76
659.2	8184.4
659.551	8158.42
659.902	8165.19
660.253	8173.1
660.604	8143.5
660.955	8164.97
661.306	8173.78
661.656	8216.94
662.007	8186.89
662.358	8212.2
662.708	8161.81
663.059	8143.05
663.409	8104.18
663.76	8185.08
664.11	8165.19
664.461	8170.62
664.811	8161.35
665.161	8191.63
665.511	8160.22
665.862	8198.64
666.212	8212.88
666.562	8198.64
666.912	8210.62
667.262	8163.16
667.612	8216.49
667.962	8216.94
668.312	8160.45
668.662	8253.33
669.011	8158.42
669.361	8181.01
669.711	8212.65
670.06	8137.4
670.41	8170.84
670.76	8126.55
671.109	8202.03
671.459	8112.77
671.808	8152.77
672.157	8130.17
672.507	8105.54
672.856	8097.4
673.205	8092.2
673.554	8131.3
673.904	8110.73
674.253	8136.04
674.602	8105.08
674.951	8047.91
675.3	7953.22
675.649	8102.15
675.998	8061.02
676.346	8101.02
676.695	8152.99
677.044	8024.63
677.393	8069.6
677.741	8164.74
678.09	7980.79
678.438	8044.07
678.787	8054.69
679.135	8057.63
679.484	7895.6
679.832	7984.18
680.181	7944.86
680.529	7952.32
680.877	7940.34
681.225	7908.7
681.573	7947.35
681.922	7900.12
682.27	7832.77
682.618	7873.45
682.966	7851.08
683.314	7837.52
683.661	7830.51
684.009	7768.6
684.357	7794.58
684.705	7775.6
685.053	7744.42
685.4	7803.4
685.748	7797.97
686.095	7730.4
686.443	7715.94
686.79	7613.57
687.138	7688.37
687.485	7660.12
687.832	7596.62
688.18	7622.38
688.527	7609.05
688.874	7638.43
689.221	7580.58
689.568	7533.12
689.915	7506.91
690.262	7442.95
690.609	7429.4
690.956	7442.05
691.303	7477.08
691.65	7427.59
691.997	7411.09
692.344	7342.62
692.69	7286.12
693.037	7345.78
693.383	7251.77
693.73	7304.43
694.077	7301.94
694.423	7269.63
694.769	7236.18
695.116	7198.89
695.462	7156.86
695.808	7176.52
696.155	7186.46
696.501	7051.55
696.847	7074.15
697.193	7027.37
697.539	7080.25
697.885	7017.2
698.231	6982.85
698.577	7037.99
698.923	7010.87
699.269	6950.54
699.614	6888.84
699.96	6878.9
700.306	6894.95
700.651	6791.22
700.997	6763.88
701.342	6766.81
701.688	6757.1
702.033	6765.91
702.379	6757.55
702.724	6725.91
703.069	6689.53
703.415	6642.3
703.76	6573.37
704.105	6632.81
704.45	6623.09
704.795	6534.73
705.14	6558.46
705.485	6514.84
705.83	6507.39
706.175	6482.53
706.52	6497.22
706.865	6436.88
707.209	6446.14
707.554	6397.78
707.899	6404.56
708.243	6327.28
708.588	6383.55
708.932	6349.65
709.277	6325.24
709.621	6349.65
709.966	6326.15
710.31	6291.57
710.654	6239.6
710.998	6276.21
711.342	6266.94
711.687	6229.88
712.031	6229.43
712.375	6218.13
712.719	6221.29
713.063	6204.57
713.407	6199.14
713.75	6182.65
714.094	6117.11
714.438	6167.28
714.782	6121.86
715.125	6104.01
715.469	6167.96
715.812	6075.53
716.156	6063.56
716.499	6024.23
716.843	6112.82
717.186	5959.38
717.53	6036.66
717.873	6008.87
718.216	6014.74
718.559	6007.96
718.902	6020.17
719.246	5981.75
719.589	5935.2
719.932	5928.64
720.275	5975.65
720.617	5958.93
720.96	5965.25
721.303	5954.18
721.646	5940.62
721.989	5908.98
722.331	5988.08
722.674	5891.58
723.016	5915.31
723.359	5885.48
723.701	5889.55
724.044	5912.82
724.386	5868.76
724.729	5903.11
725.071	5871.92
725.413	5863.11
725.755	5850.23
726.097	5866.95
726.439	5883.9
726.782	5849.1
727.124	5904.69
727.465	5806.39
727.807	5788.31
728.149	5829.89
728.491	5835.09
728.833	5855.2
729.175	5811.36
729.516	5804.58
729.858	5776.78
730.199	5853.84
730.541	5790.34
730.882	5796.67
731.224	5840.28
731.565	5797.35
731.906	5784.01
732.248	5823.79
732.589	5763.45
732.93	5799.61
733.271	5820.62
733.612	5763.68
733.953	5845.03
734.294	5819.95
734.635	5781.08
734.976	5805.03
735.317	5740.4
735.658	5740.4
735.999	5820.85
736.339	5794.86
736.68	5852.26
737.021	5785.14
737.361	5761.64
737.702	5825.6
738.042	5832.15
738.383	5807.97
738.723	5835.09
739.063	5758.48
739.404	5831.02
739.744	5786.5
740.084	5791.7
740.424	5831.24
740.764	5787.63
741.104	5857.46
741.444	5859.72
741.784	5844.35
742.124	5845.71
742.464	5868.31
742.804	5852.71
743.143	5889.32
743.483	5930.45
743.823	5927.97
744.162	5944.24
744.502	6001.86
744.841	5952.82
745.181	5976.55
745.52	6007.29
745.86	6070.79
746.199	6048.87
746.538	6115.76
746.877	6169.54
747.216	6147.17
747.556	6169.77
747.895	6226.26
748.234	6164.8
748.573	6275.53
748.911	6293.38
749.25	6295.87
749.589	6378.8
749.928	6471.45
750.267	6462.64
750.605	6464
750.944	6535.86
751.283	6609.08
751.621	6679.13
751.96	6705.12
752.298	6778.34
752.636	6823.76
752.975	6887.26
753.313	6947.37
753.651	7011.1
753.989	7104.66
754.327	7114.38
754.666	7263.52
755.004	7409.06
755.342	7434.37
755.679	7476.17
756.017	7622.61
756.355	7685.21
756.693	7711.2
757.031	7929.27
757.368	7895.6
757.706	8083.62
758.044	8208.58
758.381	8297.17
758.719	8407.22
759.056	8485.41
759.394	8599.53
759.731	8666.42
760.068	8822.58
760.405	8886.31
760.743	9016.47
761.08	9163.13
761.417	9204.49
761.754	9428.89
762.091	9511.15
762.428	9573.07
762.765	9695.78
763.102	9818.03
763.438	9927.41
763.775	10012.15
764.112	10121.08
764.449	10260.06
764.785	10392.03
765.122	10411.69
765.458	10578.92
765.795	10671.34
766.131	10831.11
766.467	10919.92
766.804	10885.35
767.14	11035.18
767.476	11107.26
767.812	11237.2
768.148	11310.42
768.485	11434.26
768.821	11465.67
769.157	11523.3
769.492	11637.87
769.828	11765.1
770.164	11842.84
770.5	11841.26
770.836	11960.58
771.171	11943.4
771.507	12028.6
771.842	12130.06
772.178	12175.03
772.513	12212.32
772.849	12269.49
773.184	12322.6
773.519	12424.29
773.855	12462.94
774.19	12371.64
774.525	12468.36
774.86	12558.3
775.195	12545.19
775.53	12605.53
775.865	12552.42
776.2	12652.31
776.535	12577.96
776.87	12700.67
777.205	12724.17
777.539	12717.17
777.874	12787.67
778.209	12772.08
778.543	12711.97
778.878	12712.87
779.212	12862.7
779.547	12796.49
779.881	12894.11
780.215	12864.73
780.55	12903.6
780.884	12840.1
781.218	12891.62
781.552	12870.61
781.886	12868.35
782.22	12827.9
782.554	12866.77
782.888	12772.08
783.222	12722.14
783.556	12775.02
783.889	12774.57
784.223	12656.15
784.557	12775.92
784.89	12744.74
785.224	12739.09
785.557	12680.56
785.891	12734.11
786.224	12687.56
786.558	12649.6
786.891	12534.57
787.224	12629.94
787.557	12575.02
787.891	12605.08
788.224	12552.42
788.557	12576.83
788.89	12576.6
789.223	12547.45
789.556	12509.71
789.888	12469.71
790.221	12478.98
790.554	12327.57
790.887	12419.32
791.219	12414.57
791.552	12349.27
791.884	12365.99
792.217	12356.95
792.549	12367.12
792.882	12198.76
793.214	12235.6
793.546	12212.77
793.879	12157.41
794.211	12128.48
794.543	12184.07
794.875	12110.63
795.207	12182.04
795.539	12106.33
795.871	12113.79
796.203	11961.03
796.535	11924.42
796.867	11999.67
797.198	11978.43
797.53	11936.4
797.862	11872.44
798.193	11839.22
798.525	11799.9
798.856	11787.92
799.188	11685.78
799.519	11759.22
799.85	11669.28
800.182	11643.3
800.513	11665.22
800.844	11544.09
801.175	11735.27
801.506	11620.25
801.837	11606.46
802.168	11593.81
802.499	11648.04
802.83	11452.11
803.161	11440.81
803.491	11489.63
803.822	11525.56
804.153	11401.27
804.483	11347.94
804.814	11279.69
805.145	11308.16
805.475	11261.38
805.805	11249.63
806.136	11288.95
806.466	11230.43
806.796	11185.45
807.126	11141.84
807.457	11068.85
807.787	11121.73
808.117	11042.18
808.447	11039.24
808.777	11018.45
809.107	11015.97
809.436	10975.74
809.766	10974.61
810.096	10904.11
810.426	10915.41
810.755	10900.94
811.085	10905.46
811.414	10841.28
811.744	10813.71
812.073	10724
812.403	10751.57
812.732	10711.57
813.061	10759.48
813.39	10640.61
813.719	10710.21
814.049	10718.12
814.378	10644.23
814.707	10691.23
815.036	10570.78
815.365	10548.86
815.693	10479.26
816.022	10482.87
816.351	10438.36
816.68	10406.04
817.008	10440.62
817.337	10422.76
817.665	10387.51
817.994	10369.2
818.322	10347.06
818.651	10345.25
818.979	10266.61
819.307	10367.62
819.636	10328.3
819.964	10195.2
820.292	10274.07
820.62	10304.35
820.948	10214.18
821.276	10271.35
821.604	10259.38
821.932	10193.39
822.259	10267.96
822.587	10163.56
822.915	10253.95
823.243	10312.03
823.57	10212.6
823.898	10219.6
824.225	10133.5
824.553	10171.02
824.88	10216.44
825.207	10211.92
825.535	10219.38
825.862	10270
826.189	10234.97
826.516	10265.93
826.843	10322.88
827.17	10239.04
827.497	10238.59
827.824	10246.27
828.151	10311.35
828.478	10211.02
828.805	10364.01
829.131	10242.2
829.458	10189.55
829.785	10223.22
830.111	10258.93
830.438	10269.09
830.764	10240.62
831.09	10259.83
831.417	10166.27
831.743	10303.22
832.069	10214.63
832.395	10260.06
832.722	10246.27
833.048	10208.98
833.374	10248.98
833.7	10112.49
834.026	10189.77
834.351	10230.45
834.677	10175.99
835.003	10222.09
835.329	10233.62
835.654	10129.21
835.98	10105.93
836.306	10117.91
836.631	10067.52
836.956	10099.16
837.282	10125.6
837.607	10060.06
837.932	10055.31
838.258	10136.89
838.583	10033.62
838.908	9972.15
839.233	9951.14
839.558	9983.9
839.883	9902.78
840.208	9961.31
840.533	9940.97
840.858	9877.92
841.182	9950.01
841.507	9906.84
841.832	9878.14
842.156	9851.93
842.481	9819.16
842.805	9798.6
843.13	9752.27
843.454	9745.04
843.778	9724.02
844.103	9768.09
844.427	9670.47
844.751	9732.16
845.075	9709.34
845.399	9681.77
845.723	9540.98
846.047	9598.6
846.371	9520.41
846.695	9514.99
847.019	9465.95
847.343	9385.95
847.666	9368.1
847.99	9319.74
848.313	9298.95
848.637	9288.33
848.96	9256.69
849.284	9210.82
849.607	9167.88
849.931	9143.02
850.254	9043.36
850.577	9044.49
850.9	9049.47
851.223	8964.5
851.546	8978.96
851.869	8881.79
852.192	8925.17
852.515	8856.02
852.838	8820.32
853.161	8839.75
853.483	8783.26
853.806	8728.34
854.129	8698.97
854.451	8671.4
854.774	8703.71
855.096	8577.84
855.419	8600.89
855.741	8587.33
856.063	8543.94
856.385	8506.2
856.708	8523.6
857.03	8463.49
857.352	8417.39
857.674	8427.11
857.996	8392.31
858.318	8350.05
858.64	8301.91
858.961	8258.07
859.283	8272.99
859.605	8286.55
859.926	8289.71
860.248	8206.1
860.57	8160.9
860.891	8195.48
861.212	8198.64
861.534	8146.66
861.855	8131.75
862.176	8075.93
862.498	8110.28
862.819	8090.62
863.14	8054.24
863.461	8068.47
863.782	8087.68
864.103	8018.98
864.424	7997.97
864.745	8047.23
865.065	7982.15
865.386	7958.42
865.707	7996.39
866.027	7961.58
866.348	8007.91
866.668	7947.12
866.989	7920
867.309	7802.94
867.63	7876.61
867.95	7832.1
868.27	7862.38
868.59	7921.59
868.91	7851.76
869.23	7885.88
869.55	7776.5
869.87	7852.21
870.19	7771.31
870.51	7779.67
870.83	7813.11
871.15	7694.02
871.469	7758.2
871.789	7772.44
872.109	7736.73
872.428	7695.15
872.748	7679.78
873.067	7699.22
873.386	7704.19
873.706	7695.83
874.025	7643.85
874.344	7632.78
874.663	7593.23
874.982	7604.76
875.301	7623.29
875.62	7596.62
875.939	7613.35
876.258	7486.57
876.577	7574.25
876.896	7535.83
877.214	7489.51
877.533	7493.35
877.852	7509.84
878.17	7487.92
878.489	7451.09
878.807	7501.94
879.125	7404.08
879.444	7430.75
879.762	7480.24
880.08	7401.15
880.398	7352.33
880.716	7362.96
881.034	7379.23
881.352	7391.66
881.67	7393.46
881.988	7361.15
882.306	7304.88
882.624	7285.67
882.941	7266.01
883.259	7262.62
883.577	7270.3
883.894	7231.89
884.212	7221.94
884.529	7247.03
884.846	7129.74
885.164	7135.62
885.481	7128.39
885.798	7149.18
886.115	7044.32
886.432	7077.99
886.75	7040.03
887.067	7128.84
887.383	7001.84
887.7	7069.18
888.017	7010.42
888.334	6987.6
888.651	7021.72
888.967	6945.57
889.284	6960.48
889.6	6989.63
889.917	6869.86
890.233	6851.78
890.55	6869.64
890.866	6875.29
891.182	6822.18
891.498	6855.85
891.815	6779.69
892.131	6777.43
892.447	6793.03
892.763	6731.79
893.079	6681.62
893.395	6676.42
893.71	6716.65
894.026	6685.69
894.342	6666.03
894.657	6592.81
894.973	6616.08
895.289	6567.5
895.604	6552.81
895.92	6554.39
896.235	6461.96
896.55	6457.9
896.865	6493.83
897.181	6503.32
897.496	6434.62
897.811	6382.87
898.126	6383.09
898.441	6355.07
898.756	6342.87
899.071	6282.08
899.386	6287.5
899.7	6252.25
900.015	6268.52
900.33	6180.39
900.644	6190.11
900.959	6166.38
901.273	6157.34
901.588	6117.57
901.902	6141.52
902.216	6104.46
902.531	6079.83
902.845	6072.59
903.159	5995.31
903.473	6010.9
903.787	5931.36
904.101	5924.8
904.415	5974.52
904.729	5906.27
905.042	5882.09
905.356	5845.93
905.67	5844.8
905.984	5785.14
906.297	5851.13
906.611	5802.32
906.924	5779.95
907.237	5767.29
907.551	5742.21
907.864	5746.05
908.177	5693.62
908.491	5639.16
908.804	5602.78
909.117	5606.84
909.43	5548.31
909.743	5528.43
910.056	5605.26
910.368	5478.26
910.681	5504.47
910.994	5524.13
911.307	5463.35
911.619	5417.24
911.932	5433.97
912.244	5398.71
912.557	5439.16
912.869	5344.03
913.181	5311.03
913.494	5350.58
913.806	5292.95
914.118	5276.68
914.43	5291.82
914.742	5234.42
915.054	5232.62
915.366	5230.81
915.678	5168.89
915.99	5187.42
916.302	5119.17
916.613	5093.64
916.925	5077.82
917.236	5083.47
917.548	5083.47
917.859	5066.52
918.171	5042.34
918.482	5039.18
918.794	4987.43
919.105	4978.61
919.416	4942.23
919.727	4918.5
920.038	4941.55
920.349	4885.06
920.66	4872.4
920.971	4840.76
921.282	4809.58
921.593	4808.9
921.903	4796.7
922.214	4792.85
922.525	4743.14
922.835	4774.32
923.146	4727.77
923.456	4658.85
923.767	4662.01
924.077	4667.66
924.387	4643.93
924.697	4644.61
925.008	4602.58
925.318	4569.13
925.628	4542.47
925.938	4509.92
926.248	4536.82
926.558	4507.89
926.867	4443.94
927.177	4473.54
927.487	4415.01
927.796	4429.47
928.106	4435.35
928.416	4390.83
928.725	4351.51
929.034	4373.43
929.344	4363.26
929.653	4317.61
929.962	4310.16
930.271	4257.05
930.581	4261.12
930.89	4245.07
931.199	4223.38
931.508	4227.22
931.817	4254.56
932.125	4186.99
932.434	4218.86
932.743	4165.07
933.051	4119.65
933.36	4131.85
933.669	4139.76
933.977	4085.98
934.286	4071.29
934.594	4083.27
934.902	4026.09
935.21	4015.25
935.519	3975.02
935.827	3990.62
936.135	4016.83
936.443	3932.76
936.751	3918.75
937.059	3963.05
937.367	3966.66
937.674	3919.66
937.982	3900.9
938.29	3851.86
938.597	3887.57
938.905	3849.38
939.213	3819.55
939.52	3780.9
939.827	3788.13
940.135	3810.51
940.442	3756.05
940.749	3757.18
941.056	3736.61
941.363	3719.44
941.67	3716.95
941.977	3747.01
942.284	3662.71
942.591	3648.7
942.898	3631.53
943.205	3621.13
943.511	3605.54
943.818	3581.13
944.125	3533.68
944.431	3540.91
944.738	3554.69
945.044	3546.33
945.35	3526.9
945.657	3472.21
945.963	3476.96
946.269	3430.63
946.575	3446.67
946.881	3434.25
947.187	3435.15
947.493	3407.81
947.799	3432.21
948.105	3389.95
948.41	3393.57
948.716	3347.47
949.022	3342.72
949.327	3330.75
949.633	3278.09
949.938	3295.49
950.244	3312.89
950.549	3238.32
950.854	3250.97
951.16	3229.96
951.465	3209.39
951.77	3215.49
952.075	3209.62
952.38	3183.18
952.685	3183.18
952.99	3152.22
953.294	3158.77
953.599	3108.15
953.904	3175.72
954.209	3079.9
954.513	3134.82
954.818	3090.3
955.122	3060.7
955.426	3054.37
955.731	3062.5
956.035	3042.84
956.339	3033.58
956.643	3043.07
956.948	2991.09
957.252	2975.05
957.556	2982.96
957.86	3027.25
958.163	2958.33
958.467	2959.91
958.771	2933.02
959.075	2949.29
959.378	2924.2
959.682	2916.29
959.985	2864.77
960.289	2865.67
960.592	2859.35
960.896	2831.1
961.199	2871.55
961.502	2846.24
961.805	2812.12
962.108	2809.18
962.411	2787.71
962.714	2782.74
963.017	2767.14
963.32	2763.53
963.623	2780.03
963.926	2706.81
964.228	2710.65
964.531	2714.72
964.833	2704.32
965.136	2649.63
965.438	2686.92
965.741	2721.5
966.043	2681.72
966.345	2667.26
966.648	2636.07
966.95	2622.74
967.252	2610.76
967.554	2608.28
967.856	2605.79
968.158	2592.23
968.46	2622.06
968.761	2570.09
969.063	2550.88
969.365	2557.88
969.666	2546.13
969.968	2505.23
970.269	2507.72
970.571	2533.7
970.872	2500.03
971.174	2481.28
971.475	2457.32
971.776	2445.35
972.077	2444.22
972.378	2429.53
972.679	2437.66
972.98	2435.18
973.281	2415.06
973.582	2421.17
973.883	2387.95
974.183	2374.16
974.484	2343.88
974.785	2352.24
975.085	2342.52
975.386	2354.95
975.686	2291
975.986	2311.11
976.287	2326.03
976.587	2284.45
976.887	2283.54
977.187	2243.09
977.487	2269.76
977.787	2265.69
978.087	2276.31
978.387	2236.54
978.687	2230.21
978.987	2230.44
979.286	2235.63
979.586	2199.48
979.885	2188.63
980.185	2158.12
980.484	2168.06
980.784	2154.51
981.083	2147.95
981.382	2158.8
981.682	2123.09
981.981	2139.59
982.28	2115.64
982.579	2112.47
982.878	2080.16
983.177	2089.87
983.475	2078.35
983.774	2079.48
984.073	2072.7
984.372	2050.1
984.67	2052.36
984.969	2051.46
985.267	2045.13
985.566	2039.25
985.864	2011.01
986.162	2005.13
986.461	2005.81
986.759	1979.59
987.057	1981.4
987.355	1979.14
987.653	1957.9
987.951	1947.05
988.249	1926.71
988.547	1952.48
988.844	1900.95
989.142	1933.04
989.44	1931.69
989.737	1888.52
990.035	1896.89
990.332	1882.87
990.63	1903.89
990.927	1884.23
991.224	1892.14
991.521	1870.9
991.819	1855.53
992.116	1866.38
992.413	1824.12
992.71	1801.97
993.006	1833.38
993.303	1817.34
993.6	1776.21
993.897	1792.26
994.193	1773.27
994.49	1773.72
994.787	1777.34
995.083	1790.45
995.379	1751.58
995.676	1767.85
995.972	1750.22
996.268	1729.21
996.565	1723.56
996.861	1736.66
997.157	1719.49
997.453	1690.56
997.749	1700.73
998.044	1649.89
998.34	1675.42
998.636	1690.56
998.932	1666.38
999.227	1645.14
999.523	1661.19
999.818	1631.36
1000.114	1616.89
1000.409	1601.07
1000.704	1597.68
1001	1602.66
1001.295	1566.27
1001.59	1576.22
1001.885	1570.34
1002.18	1572.15
1002.475	1568.08
1002.77	1554.75
1003.065	1519.27
1003.359	1541.87
1003.654	1542.54
1003.949	1490.79
1004.243	1545.26
1004.538	1521.08
1004.832	1497.8
1005.127	1523.56
1005.421	1478.37
1005.715	1484.92
1006.009	1488.53
1006.304	1468.87
1006.598	1458.48
1006.892	1431.59
1007.186	1481.08
1007.48	1422.77
1007.773	1424.36
1008.067	1414.64
1008.361	1433.17
1008.655	1400.85
1008.948	1397.24
1009.242	1389.33
1009.535	1358.37
1009.829	1383.68
1010.122	1363.79
1010.415	1379.61
1010.708	1373.06
1011.001	1367.63
1011.295	1358.14
1011.588	1352.04
1011.881	1326.5
1012.173	1310.69
1012.466	1312.49
1012.759	1308.2
1013.052	1284.47
1013.344	1286.05
1013.637	1292.38
1013.93	1248.99
1014.222	1242.21
1014.514	1275.21
1014.807	1270.23
1015.099	1232.27
1015.391	1267.75
1015.683	1253.96
1015.976	1222.33
1016.268	1229.11
1016.56	1227.52
1016.851	1207.41
1017.143	1203.12
1017.435	1161.09
1017.727	1204.47
1018.018	1166.96
1018.31	1172.61
1018.602	1159.5
1018.893	1146.62
1019.185	1153.4
1019.476	1140.97
1019.767	1145.72
1020.058	1153.18
1020.35	1121.76
1020.641	1116.57
1020.932	1104.36
1021.223	1120.18
1021.514	1089
1021.804	1094.65
1022.095	1110.24
1022.386	1085.38
1022.677	1068.43
1022.967	1077.02
1023.258	1057.36
1023.548	1037.7
1023.839	1056.46
1024.129	1030.47
1024.419	1032.5
1024.709	1037.7
1025	1022.78
1025.29	982.33
1025.58	1024.59
1025.87	1005.84
1026.16	1004.93
1026.449	997.47
1026.739	1016.46
1027.029	987.08
1027.319	988.21
1027.608	983.01
1027.898	966.97
1028.187	945.95
1028.477	948.44
1028.766	952.05
1029.055	936.68
1029.344	950.02
1029.634	938.49
1029.923	905.5
1030.212	899.85
1030.501	912.5
1030.79	915.22
1031.078	909.34
1031.367	899.17
1031.656	893.3
1031.945	887.42
1032.233	884.48
1032.522	881.09
1032.81	863.92
1033.099	858.27
1033.387	858.72
1033.675	862.34
1033.963	858.04
1034.251	845.61
1034.54	875.9
1034.828	831.15
1035.116	844.03
1035.403	841.09
1035.691	812.17
1035.979	834.99
1036.267	820.08
1036.554	814.65
1036.842	804.48
1037.129	787.76
1037.417	794.77
1037.704	799.96
1037.992	769.68
1038.279	794.09
1038.566	772.85
1038.853	772.85
1039.14	772.85
