Data from hue_50_FLMS001491_55.txt Node
Date: Mon Feb 06 15:10:32 GMT 2017
User: dcchb
Spectrometer: FLMS00149
Trigger mode: 0
Integration Time (sec): 2.000000E-2
Scans to average: 10
Electric dark correction enabled: true
Nonlinearity correction enabled: false
Boxcar width: 0
XAxis mode: Wavelengths
Number of Pixels in Spectrum: 2048
>>>>>Begin Spectral Data<<<<<
341.393	-5.52
341.776	-5.52
342.16	-5.52
342.543	-62.7
342.927	-60.21
343.31	-70.38
343.693	-71.28
344.077	-51.85
344.46	-36.26
344.843	-61.79
345.226	-48.46
345.61	-46.43
345.993	-24.51
346.376	0.58
346.759	20.69
347.142	18.66
347.525	27.7
347.908	48.49
348.291	83.29
348.674	87.13
349.057	124.42
349.44	129.39
349.823	140.01
350.206	163.06
350.588	173.68
350.971	218.43
351.354	231.31
351.737	237.18
352.119	264.75
352.502	269.5
352.884	278.09
353.267	300.91
353.65	296.16
354.032	305.66
354.414	312.44
354.797	304.75
355.179	307.92
355.562	320.57
355.944	326.67
356.326	338.65
356.709	345.2
357.091	329.16
357.473	346.11
357.855	331.19
358.238	361.47
358.62	341.81
359.002	346.11
359.384	352.21
359.766	332.1
360.148	328.25
360.53	336.39
360.912	333.23
361.294	335.03
361.676	337.97
362.057	336.62
362.439	337.97
362.821	318.76
363.203	337.97
363.584	329.38
363.966	322.15
364.348	329.16
364.729	322.15
365.111	312.44
365.493	296.16
365.874	315.6
366.256	329.84
366.637	307.92
367.019	345.43
367.4	310.4
367.781	314.7
368.163	318.76
368.544	318.76
368.925	328.48
369.306	306.11
369.688	327.58
370.069	312.89
370.45	307.01
370.831	325.09
371.212	318.76
371.593	315.83
371.974	310.4
372.355	341.81
372.736	321.47
373.117	283.74
373.498	319.67
373.879	305.43
374.26	333.68
374.641	296.16
375.021	314.92
375.402	301.81
375.783	318.54
376.163	346.56
376.544	339.78
376.925	308.37
377.305	315.6
377.686	327.58
378.066	325.99
378.447	345.43
378.827	339.33
379.208	328.25
379.588	335.71
379.968	323.28
380.349	305.2
380.729	331.64
381.109	321.02
381.489	330.74
381.87	325.32
382.25	343.17
382.63	335.49
383.01	344.75
383.39	354.69
383.77	362.6
384.15	340.01
384.53	341.59
384.91	364.64
385.29	335.94
385.67	346.33
386.049	360.12
386.429	335.71
386.809	349.72
387.189	359.21
387.568	332.1
387.948	323.73
388.328	354.02
388.707	359.67
389.087	351.08
389.466	367.35
389.846	352.21
390.225	348.37
390.605	364.19
390.984	354.47
391.363	364.19
391.743	382.94
392.122	348.82
392.501	347.24
392.881	373.68
393.26	345.43
393.639	365.09
394.018	358.08
394.397	362.83
394.776	376.61
395.155	370.74
395.534	356.95
395.913	351.98
396.292	376.61
396.671	358.54
397.05	374.58
397.429	356.73
397.808	374.81
398.186	356.28
398.565	383.62
398.944	394.47
399.323	379.1
399.701	369.16
400.08	391.53
400.458	373.9
400.837	382.49
401.215	389.27
401.594	382.94
401.972	383.85
402.351	386.56
402.729	403.73
403.107	406.44
403.486	391.76
403.864	403.05
404.242	406.44
404.62	420.68
404.999	391.08
405.377	401.25
405.755	390.85
406.133	403.96
406.511	400.12
406.889	398.31
407.267	413.22
407.645	419.1
408.023	401.25
408.401	415.94
408.779	424.07
409.156	419.1
409.534	415.71
409.912	414.35
410.29	431.53
410.667	439.66
411.045	421.58
411.422	445.99
411.8	401.92
412.178	455.26
412.555	438.76
412.933	434.69
413.31	437.18
413.687	449.38
414.065	444.64
414.442	435.37
414.819	443.96
415.197	469.27
415.574	465.2
415.951	455.03
416.328	460.23
416.705	457.74
417.082	463.17
417.46	459.32
417.837	490.96
418.214	477.4
418.591	502.26
418.967	472.66
419.344	478.53
419.721	477.18
420.098	476.95
420.475	468.36
420.852	494.8
421.228	487.35
421.605	478.08
421.982	489.61
422.358	482.15
422.735	509.72
423.111	497.97
423.488	508.14
423.864	497.06
424.241	505.42
424.617	503.39
424.994	517.18
425.37	489.38
425.746	535.48
426.123	522.6
426.499	527.57
426.875	514.69
427.251	556.5
427.627	571.86
428.003	546.1
428.379	551.98
428.756	561.47
429.132	557.17
429.507	534.58
429.883	552.88
430.259	550.62
430.635	540.23
431.011	566.21
431.387	552.43
431.763	590.39
432.138	578.42
432.514	585.42
432.89	586.78
433.265	603.5
433.641	570.96
434.016	607.79
434.392	620.45
434.767	605.76
435.143	601.02
435.518	623.61
435.894	622.71
436.269	621.58
436.644	629.04
437.02	650.28
437.395	614.35
437.77	637.4
438.145	658.41
438.52	653.67
438.895	650.05
439.271	634.23
439.646	667.45
440.021	663.84
440.395	660.22
440.77	689.6
441.145	676.95
441.52	697.06
441.895	666.55
442.27	695.25
442.645	694.35
443.019	685.53
443.394	712.2
443.769	681.92
444.143	673.56
444.518	708.36
444.892	721.69
445.267	704.52
445.641	708.58
446.016	709.26
446.39	734.8
446.764	731.18
447.139	751.97
447.513	725.08
447.887	750.39
448.262	726.44
448.636	724.18
449.01	735.7
449.384	745.19
449.758	752.65
450.132	765.53
450.506	771.63
450.88	762.37
451.254	775.02
451.628	764.4
452.002	777.06
452.376	780.67
452.75	798.75
453.123	783.16
453.497	797.85
453.871	811.41
454.244	805.98
454.618	833.33
454.992	828.35
455.365	840.33
455.739	854.79
456.112	861.12
456.486	850.27
456.859	870.84
457.232	885.53
457.606	882.82
457.979	874
458.352	902.93
458.725	894.57
459.099	918.97
459.472	949.93
459.845	944.06
460.218	932.98
460.591	948.8
460.964	958.52
461.337	970.5
461.71	988.8
462.083	1015.02
462.456	998.07
462.829	1005.75
463.201	1021.12
463.574	1052.53
463.947	1036.94
464.32	1072.19
464.692	1051.62
465.065	1088.46
465.438	1098.63
465.81	1137.05
466.183	1128.91
466.555	1172.98
466.928	1161.9
467.3	1168.46
467.672	1209.36
468.045	1192.86
468.417	1228.8
468.789	1236.25
469.161	1265.86
469.534	1262.24
469.906	1300.88
470.278	1320.09
470.65	1353.54
471.022	1382.69
471.394	1363.26
471.766	1405.29
472.138	1438.06
472.51	1497.71
472.882	1498.17
473.253	1517.15
473.625	1545.4
473.997	1595.79
474.369	1627.65
474.74	1668.78
475.112	1674.89
475.484	1735.22
475.855	1749.23
476.227	1798.95
476.598	1888.44
476.97	1916.91
477.341	1955.33
477.713	1983.58
478.084	2039.62
478.455	2144.48
478.827	2145.38
479.198	2246.62
479.569	2261.31
479.94	2386.05
480.311	2409.56
480.682	2514.86
481.053	2551.92
481.424	2630.34
481.795	2685.71
482.166	2750.11
482.537	2798.25
482.908	2895.19
483.279	2995.98
483.65	3088.63
484.021	3185.81
484.391	3251.12
484.762	3358.91
485.133	3422.64
485.503	3519.36
485.874	3610.43
486.244	3703.53
486.615	3835.51
486.985	3912.11
487.356	4028.72
487.726	4087.7
488.097	4242.28
488.467	4299.22
488.837	4467.58
489.207	4559.33
489.578	4677.97
489.948	4834.58
490.318	4949.6
490.688	5018.3
491.058	5154.34
491.428	5305.07
491.798	5414.67
492.168	5557.27
492.538	5665.51
492.908	5777.38
493.278	5920.65
493.648	5999.07
494.017	6169.46
494.387	6296.46
494.757	6382.33
495.126	6509.79
495.496	6623.68
495.866	6777.12
496.235	6862.32
496.605	7006.95
496.974	7097.34
497.344	7211.24
497.713	7321.74
498.082	7467.28
498.452	7629.76
498.821	7671.56
499.19	7870.2
499.559	7879.69
499.928	8096.41
500.298	8206.92
500.667	8304.09
501.036	8392.67
501.405	8483.29
501.774	8572.33
502.143	8707.24
502.512	8798.54
502.88	8937.52
503.249	9054.58
503.618	9156.27
503.987	9242.82
504.356	9291.41
504.724	9518.75
505.093	9519.88
505.462	9658.4
505.83	9777.95
506.199	9918.51
506.567	10008.68
506.936	10022.69
507.304	10205.96
507.672	10203.02
508.041	10339.97
508.409	10489.12
508.777	10595.33
509.145	10720.75
509.514	10770.92
509.882	10863.12
510.25	10857.47
510.618	11014.07
510.986	11122.77
511.354	11330.45
511.722	11360.73
512.09	11480.96
512.458	11535.87
512.826	11703.55
513.193	11709.42
513.561	11870.32
513.929	11931.11
514.297	12068.28
514.664	12096.76
515.032	12239.81
515.4	12372.01
515.767	12408.61
516.135	12503.53
516.502	12471.21
516.869	12762.5
517.237	12773.12
517.604	12796.63
517.972	12969.28
518.339	13092.21
518.706	13162.94
519.073	13205.66
519.44	13309.16
519.808	13417.85
520.175	13428.02
520.542	13643.61
520.909	13710.5
521.276	13780.1
521.643	13902.81
522.009	14049.93
522.376	14135.12
522.743	14248.57
523.11	14358.39
523.477	14459.18
523.843	14569.46
524.21	14765.39
524.577	14893.75
524.943	14930.58
525.31	14994.54
525.676	15217.13
526.043	15245.83
526.409	15327.41
526.776	15453.28
527.142	15456.22
527.508	15606.72
527.874	15750.9
528.241	15851.69
528.607	15887.84
528.973	16087.39
529.339	15996.32
529.705	16348.17
530.071	16404.89
530.437	16410.09
530.803	16574.83
531.169	16618.9
531.535	16609.63
531.901	16636.75
532.267	16839.91
532.632	16944.31
532.998	17029.06
533.364	17096.85
533.73	17112.45
534.095	17225.44
534.461	17342.95
534.826	17411.65
535.192	17470.4
535.557	17656.84
535.923	17683.73
536.288	17717.4
536.653	17843.05
537.019	17735.25
537.384	17917.62
537.749	18057.51
538.114	18173.66
538.479	18066.54
538.845	18173.66
539.21	18191.29
539.575	18247.33
539.94	18219.99
540.305	18465.86
540.67	18420.43
541.034	18583.37
541.399	18556.93
541.764	18683.7
542.129	18697.49
542.494	18819.07
542.858	18883.02
543.223	18977.93
543.587	19011.15
543.952	18996.01
544.316	19088.89
544.681	19132.51
545.045	19292.05
545.41	19316
545.774	19324.82
546.138	19396.91
546.503	19553.51
546.867	19571.82
547.231	19687.97
547.595	19770.68
547.959	19772.26
548.324	19811.58
548.688	19929.32
549.052	19972.71
549.416	20041.18
549.779	20072.37
550.143	20171.35
550.507	20230.78
550.871	20355.98
551.235	20339.93
551.599	20437.78
551.962	20512.36
552.326	20598
552.689	20720.03
553.053	20552.58
553.417	20635.06
553.78	20959.12
554.143	20872.12
554.507	20972.23
554.87	21086.58
555.234	21292
555.597	21069.4
555.96	21187.37
556.323	21359.57
556.686	21387.81
557.05	21531.76
557.413	21550.07
557.776	21731.53
558.139	21676.85
558.502	21896.95
558.865	21879.78
559.228	22043.62
559.59	22098.3
559.953	22074.8
560.316	22397.05
560.679	22311.4
561.041	22602.7
561.404	22533.55
561.767	22756.82
562.129	22662.81
562.492	22879.75
562.854	22986.42
563.217	22769.47
563.579	23081.33
563.941	23195.22
564.304	23270.93
564.666	23406.52
565.028	23414.88
565.39	23629.79
565.753	23740.07
566.115	23784.59
566.477	23904.58
566.839	23862.78
567.201	24095.76
567.563	24221.86
567.925	24276.55
568.287	24095.54
568.648	24373.27
569.01	24394.74
569.372	24676.31
569.734	24461.86
570.095	24707.5
570.457	24870.66
570.819	24942.07
571.18	24976.87
571.542	25194.72
571.903	25290.54
572.265	25310.2
572.626	25413.24
572.987	25526.46
573.349	25512.9
573.71	25624.09
574.071	25614.14
574.432	25872.67
574.794	25911.31
575.155	26000.8
575.516	25940.46
575.877	26125.09
576.238	26249.38
576.599	26339.1
576.96	26397.63
577.32	26443.5
577.681	26544.74
578.042	26790.16
578.403	26773.43
578.763	26831.51
579.124	26886.88
579.485	26985.86
579.845	27317.6
580.206	27203.03
580.566	27258.17
580.927	27309.01
581.287	27652.73
581.648	27540.19
582.008	27724.37
582.368	27724.82
582.728	27836.68
583.089	27885.5
583.449	28075.1
583.809	28094.53
584.169	28270.8
584.529	28248.65
584.889	28494.97
585.249	28542.65
585.609	28431.24
585.969	28780.84
586.329	28660.39
586.688	28911.01
587.048	28941.96
587.408	28908.07
587.768	29097.67
588.127	29077.78
588.487	29202.98
588.846	29534.94
589.206	29409.75
589.565	29627.14
589.925	29827.82
590.284	29794.6
590.643	29944.88
591.003	30009.28
591.362	30228.26
591.721	30218.99
592.08	30352.78
592.44	30440.68
592.799	30441.59
593.158	30632.54
593.517	30795.48
593.876	30875.7
594.235	30792.99
594.593	30981.01
594.952	31101.68
595.311	31118.18
595.67	31296.71
596.029	31417.61
596.387	31479.53
596.746	31651.27
597.104	31528.79
597.463	31618.28
597.822	31750.48
598.18	31684.27
598.538	31863.02
598.897	32139.85
599.255	31807.2
599.613	32392.95
599.972	32168.09
600.33	32317.24
600.688	32286.28
601.046	32549.1
601.404	32786.84
601.762	32609.89
602.12	32956.77
602.478	32912.71
602.836	32987.51
603.194	33048.3
603.552	33031.57
603.91	33009.65
604.268	33359.25
604.625	33113.38
604.983	33342.75
605.341	33262.3
605.698	33411.23
606.056	33582.75
606.413	33623.2
606.771	33700.94
607.128	33827.26
607.485	33721.27
607.843	33750.65
608.2	34086.46
608.557	34177.08
608.914	34035.16
609.272	34236.29
609.629	34280.58
609.986	34453.68
610.343	34368.49
610.7	34701.59
611.057	34610.74
611.414	34719.89
611.771	34716.28
612.127	34972.09
612.484	35007.34
612.841	35123.5
613.198	34957.85
613.554	34997.85
613.911	35281.69
614.267	35259.76
614.624	35330.95
614.98	35315.13
615.337	35600.77
615.693	35587.67
616.05	35494.79
616.406	35774.55
616.762	35729.36
617.118	35725.29
617.475	35645.07
617.831	35794.21
618.187	35936.36
618.543	35996.92
618.899	36115.34
619.255	36219.74
619.611	36136.13
619.967	36388.77
620.323	36334.76
620.678	36325.73
621.034	36213.41
621.39	36252.96
621.746	36218.61
622.101	36574.31
622.457	36308.1
622.812	36416.12
623.168	36642.33
623.523	36552.61
623.879	36572.72
624.234	36433.97
624.589	36637.81
624.945	36788.54
625.3	36932.04
625.655	36770.23
626.01	36792.61
626.365	36817.69
626.72	36852.94
627.075	36781.31
627.43	36892.94
627.785	36703.57
628.14	36890.46
628.495	36889.55
628.85	36755.09
629.205	36693.17
629.559	37083.67
629.914	36841.64
630.269	36868.54
630.623	37028.53
630.978	36735.43
631.332	37024.92
631.687	37011.58
632.041	36791.7
632.396	36889.55
632.75	36779.27
633.104	36908.31
633.459	36725.72
633.813	36713.51
634.167	36630.35
634.521	36773.17
634.875	36861.3
635.229	36720.97
635.583	36606.62
635.937	36547.41
636.291	36571.37
636.645	36611.37
636.999	36537.47
637.352	36647.3
637.706	36444.37
638.06	36716.22
638.413	36553.52
638.767	36479.85
639.121	36602.78
639.474	36313.75
639.828	36272.62
640.181	36405.05
640.534	36340.64
640.888	36362.79
641.241	36246.86
641.594	36392.39
641.947	36293.18
642.301	36203.24
642.654	36260.19
643.007	36316.91
643.36	36130.25
643.713	36087.31
644.066	36250.25
644.419	36103.13
644.771	35710.15
645.124	35480.55
645.477	35493.88
645.83	35296.37
646.182	35111.52
646.535	34975.03
646.888	35052.54
647.24	34962.37
647.593	35039.66
647.945	35013.9
648.298	34824.52
648.65	34856.61
649.002	34798.53
649.355	34839.44
649.707	34811.64
650.059	34955.14
650.411	35391.29
650.763	35315.36
651.115	35760.99
651.467	35552.19
651.819	35540.89
652.171	35591.28
652.523	35370.95
652.875	35578.63
653.227	35484.62
653.578	35512.87
653.93	35532.3
654.282	35419.08
654.633	35365.98
654.985	35325.07
655.337	35438.07
655.688	35425.18
656.039	35455.24
656.391	35134.34
656.742	35213.66
657.094	35258.18
657.445	35274.68
657.796	35336.15
658.147	35273.1
658.498	35168.02
658.849	35309.71
659.2	35275.36
659.551	35077.85
659.902	35334.79
660.253	35208.01
660.604	35168.92
660.955	35128.02
661.306	35209.82
661.656	34959.21
662.007	35161.91
662.358	35215.25
662.708	35116.49
663.059	35264.06
663.409	34865.43
663.76	35165.08
664.11	35184.06
664.461	35212.53
664.811	35237.84
665.161	35096.61
665.511	35010.05
665.862	35116.72
666.212	35114.91
666.562	35135.47
666.912	35043.05
667.262	34998.53
667.612	34924.41
667.962	34961.24
668.312	34927.57
668.662	35052.76
669.011	34846.89
669.361	34841.92
669.711	34829.27
670.06	34838.76
670.41	34847.35
670.76	34714.92
671.109	34798.08
671.459	34753.11
671.808	34742.04
672.157	34813.9
672.507	34718.08
672.856	34751.3
673.205	34694.58
673.554	34793.56
673.904	34704.3
674.253	34828.14
674.602	34656.62
674.951	34279.9
675.3	34229.06
675.649	34712.21
675.998	34576.17
676.346	34662.94
676.695	34668.82
677.044	34403.74
677.393	34509.05
677.741	34561.7
678.09	34518.77
678.438	34412.1
678.787	34427.02
679.135	34497.75
679.484	34207.36
679.832	34391.31
680.181	34288.49
680.529	34249.62
680.877	34153.58
681.225	34110.19
681.573	34300.47
681.922	34114.48
682.27	34038.78
682.618	34144.99
682.966	33923.75
683.314	34042.4
683.661	33777.32
684.009	33737.77
684.357	33785.23
684.705	33747.94
685.053	33659.36
685.4	33542.07
685.748	33443.32
686.095	33541.84
686.443	33310.66
686.79	33266.15
687.138	33415.52
687.485	33372.13
687.832	33275.41
688.18	33136.43
688.527	33079.26
688.874	33024.34
689.221	32912.26
689.568	32932.59
689.915	32873.61
690.262	32863.67
690.609	32783.67
690.956	32625.48
691.303	32653.28
691.65	32522.66
691.997	32460.97
692.344	32345.27
692.69	32283.57
693.037	32206.06
693.383	32057.36
693.73	32212.84
694.077	32070.92
694.423	31984.14
694.769	31931.49
695.116	31704.38
695.462	31768.33
695.808	31637.26
696.155	31683.59
696.501	31461.9
696.847	31429.58
697.193	31192.53
697.539	31346.2
697.885	31111.17
698.231	31092.64
698.577	31084.73
698.923	31083.15
699.269	30802.03
699.614	30705.08
699.96	30603.62
700.306	30590.74
700.651	30544.63
700.997	30477.74
701.342	30370.4
701.688	30312.78
702.033	30281.14
702.379	30244.76
702.724	30090.41
703.069	30163.4
703.415	29882.51
703.76	29901.94
704.105	29802.06
704.45	29844.77
704.795	29498.11
705.14	29502.4
705.485	29547.37
705.83	29348.28
706.175	29423.53
706.52	29420.6
706.865	29141.28
707.209	29147.61
707.554	29062.19
707.899	29122.07
708.243	29035.52
708.588	28949.42
708.932	28651.58
709.277	28711.46
709.621	28824
709.966	28654.97
710.31	28629.66
710.654	28487.51
710.998	28494.29
711.342	28520.28
711.687	28407.97
712.031	28345.14
712.375	28128.65
712.719	28076.45
713.063	28204.81
713.407	28312.15
713.75	28075.32
714.094	28200.06
714.438	27933.18
714.782	27936.57
715.125	27718.49
715.469	27961.88
715.812	27770.92
716.156	27557.37
716.499	27636.69
716.843	27624.03
717.186	27500.87
717.53	27581.32
717.873	27504.26
718.216	27365.74
718.559	27316.92
718.902	27280.99
719.246	27232.18
719.589	27191.05
719.932	26951.28
720.275	27100.88
720.617	27036.7
720.96	27073.99
721.303	26974.33
721.646	26961.68
721.989	26958.97
722.331	26890.49
722.674	26690.5
723.016	26847.78
723.359	26767.33
723.701	26737.96
724.044	26525.08
724.386	26416.38
724.729	26461.58
725.071	26480.33
725.413	26547
725.755	26391.07
726.097	26368.93
726.439	26159.67
726.782	26191.98
727.124	26288.25
727.465	26102.49
727.807	26105.66
728.149	26135.03
728.491	25984.98
728.833	26119.44
729.175	26068.82
729.516	25948.37
729.858	25939.33
730.199	25936.39
730.541	25832.89
730.882	25801.93
731.224	25858.2
731.565	25544.54
731.906	25660.02
732.248	25711.99
732.589	25600.58
732.93	25486.24
733.271	25473.13
733.612	25659.57
733.953	25543.64
734.294	25387.93
734.635	25349.52
734.976	25383.87
735.317	25269.75
735.658	25166.25
735.999	25201.05
736.339	25192.69
736.68	25238.79
737.021	25144.1
737.361	25079.24
737.702	25216.41
738.042	25156.98
738.383	24985.46
738.723	25008.96
739.063	24914.05
739.404	24989.98
739.744	24945.01
740.084	24726.93
740.424	24832.92
740.764	24820.72
741.104	24766.48
741.444	24692.13
741.784	24611.91
742.124	24606.71
742.464	24577.56
742.804	24471.35
743.143	24455.98
743.483	24525.13
743.823	24355.64
744.162	24357
744.502	24407.85
744.841	24238.36
745.181	24394.06
745.52	24238.13
745.86	24252.14
746.199	24239.72
746.538	24159.94
746.877	24164.69
747.216	24309.09
747.556	24175.99
747.895	24125.59
748.234	23981.19
748.573	24011.25
748.911	23913.62
749.25	23850.57
749.589	23863.91
749.928	23779.39
750.267	23887.18
750.605	23810.12
750.944	23765.6
751.283	23605.16
751.621	23673.4
751.96	23529
752.298	23384.82
752.636	23502.11
752.975	23407.87
753.313	23304.37
753.651	23338.27
753.989	23238.61
754.327	23270.48
754.666	23135.34
755.004	23049.92
755.342	23166.98
755.679	23132.63
756.017	22903.03
756.355	22988.22
756.693	22854.44
757.031	22858.96
757.368	22786.19
757.706	22802.47
758.044	22690.83
758.381	22703.71
758.719	22511.85
759.056	22697.84
759.394	22393.21
759.731	22356.15
760.068	22355.92
760.405	22311.63
760.743	22197.28
761.08	22159.54
761.417	22068.7
761.754	22054.01
762.091	21962.26
762.428	21947.57
762.765	21807.24
763.102	21818.99
763.438	21788.71
763.775	21675.04
764.112	21624.87
764.449	21667.81
764.785	21507.13
765.122	21405.44
765.458	21292
765.795	21312.11
766.131	21329.96
766.467	21238.44
766.804	21093.58
767.14	21055.84
767.476	21053.13
767.812	20866.92
768.148	20854.72
768.485	20770.65
768.821	20619.25
769.157	20627.16
769.492	20485.46
769.828	20675.52
770.164	20407.95
770.5	20405.69
770.836	20406.82
771.171	20210.22
771.507	20188.52
771.842	20024.46
772.178	19971.58
772.513	19943.11
772.849	19901.98
773.184	19891.58
773.519	19798.25
773.855	19637.12
774.19	19587.41
774.525	19548.09
774.86	19416.79
775.195	19395.32
775.53	19442.55
775.865	19323.23
776.2	19278.94
776.535	18983.13
776.87	19070.13
777.205	18965.05
777.539	18815.23
777.874	18953.3
778.209	18725.51
778.543	18725.96
778.878	18585.85
779.212	18576.59
779.547	18481.22
779.881	18459.53
780.215	18381.79
780.55	18396.25
780.884	18287.1
781.218	18186.09
781.552	18131.85
781.886	18104.51
782.22	17952.2
782.554	17813.67
782.888	17799.89
783.222	17739.55
783.556	17674.24
783.889	17657.97
784.223	17543.85
784.557	17554.92
784.89	17552.66
785.224	17396.28
785.557	17392.89
785.891	17284.64
786.224	17222.05
786.558	17267.92
786.891	17036.52
787.224	16999.45
787.557	16949.06
787.891	16916.97
788.224	16950.64
788.557	16817.54
788.89	16849.18
789.223	16735.73
789.556	16665
789.888	16540.03
790.221	16532.35
790.554	16416.87
790.887	16398.34
791.219	16348.4
791.552	16359.24
791.884	16169.42
792.217	16133.71
792.549	16199.93
792.882	16008.29
793.214	15876.55
793.546	15962.19
793.879	15873.61
794.211	15710.22
794.543	15811.24
794.875	15767.4
795.207	15757.45
795.539	15619.83
795.871	15523.56
796.203	15538.93
796.535	15508.42
796.867	15450.12
797.198	15360.85
797.53	15367.63
797.862	15260.97
798.193	15314.07
798.525	15126.28
798.856	15182.1
799.188	15038.38
799.519	14986.63
799.85	14874.76
800.182	15038.38
800.513	14974.87
800.844	14783.69
801.175	14849.68
801.506	14794.99
801.837	14731.72
802.168	14629.12
802.499	14642.45
802.83	14536.24
803.161	14618.5
803.491	14552.06
803.822	14474.77
804.153	14371.73
804.483	14259.87
804.814	14271.39
805.145	14290.82
805.475	14262.35
805.805	14099.87
806.136	14213.99
806.466	14250.83
806.796	14084.5
807.126	13971.96
807.457	14010.38
807.787	13979.19
808.117	13933.32
808.447	13938.29
808.777	13903.72
809.107	13825.07
809.436	13742.82
809.766	13751.63
810.096	13785.08
810.426	13721.35
810.755	13694
811.085	13621.24
811.414	13567.45
811.744	13528.36
812.073	13463.05
812.403	13432.32
812.732	13349.83
813.061	13370.17
813.39	13349.15
813.719	13160.91
814.049	13348.25
814.378	13328.14
814.707	13173.79
815.036	13193.68
815.365	13104.42
815.693	13058.31
816.022	12917.08
816.351	12998.2
816.68	12903.29
817.008	12982.84
817.337	12832.33
817.665	12813.8
817.994	12827.36
818.322	12805.67
818.651	12682.73
818.979	12730.19
819.307	12692.45
819.636	12665.33
819.964	12632.79
820.292	12625.33
820.62	12565.45
820.948	12601.6
821.276	12650.64
821.604	12604.99
821.932	12576.97
822.259	12602.96
822.587	12580.36
822.915	12547.59
823.243	12535.62
823.57	12527.03
823.898	12558.67
824.225	12464.88
824.553	12473.25
824.88	12542.85
825.207	12523.41
825.535	12527.48
825.862	12516.63
826.189	12470.08
826.516	12564.77
826.843	12602.73
827.17	12532.23
827.497	12592.79
827.824	12535.62
828.151	12553.24
828.478	12553.7
828.805	12562.51
829.131	12481.15
829.458	12489.74
829.785	12445
830.111	12441.16
830.438	12492.23
830.764	12419.01
831.09	12468.5
831.417	12336.98
831.743	12456.07
832.069	12529.29
832.395	12263.76
832.722	12368.84
833.048	12410.42
833.374	12348.95
833.7	12350.08
834.026	12343.76
834.351	12391.67
834.677	12322.74
835.003	12347.37
835.329	12288.17
835.654	12314.38
835.98	12214.95
836.306	12269.18
836.631	12268.73
836.956	12232.35
837.282	12265.57
837.607	12153.93
837.932	12206.36
838.258	12138.11
838.583	12182.86
838.908	12071.45
839.233	12065.35
839.558	12055.18
839.883	12018.57
840.208	12020.83
840.533	12015.18
840.858	12007.04
841.182	11964.11
841.507	11987.16
841.832	11856.99
842.156	11949.42
842.481	11897.44
842.805	11774.28
843.13	11821.51
843.454	11798.01
843.778	11685.47
844.103	11674.4
844.427	11680.05
844.751	11659.71
845.075	11588.52
845.399	11625.81
845.723	11531.8
846.047	11597.11
846.371	11438.24
846.695	11504.91
847.019	11374.97
847.343	11355.31
847.666	11259.49
847.99	11184.92
848.313	11271.24
848.637	11165.71
848.96	11120.96
849.284	11103.11
849.607	10980.18
849.931	11012.04
850.254	10899.5
850.577	10837.13
850.9	10787.19
851.223	10801.65
851.546	10775.66
851.869	10693.41
852.192	10744.48
852.515	10662.67
852.838	10553.75
853.161	10607.98
853.483	10547.87
853.806	10469.91
854.129	10495.22
854.451	10469.91
854.774	10374.32
855.096	10394.43
855.419	10273.98
855.741	10320.31
856.063	10250.25
856.385	10205.28
856.708	10189.24
857.03	10121.22
857.352	10173.87
857.674	10100.65
857.996	10021.56
858.318	10008.45
858.64	9946.76
858.961	9943.37
859.283	9959.19
859.605	9893.43
859.926	9923.71
860.248	9864.05
860.57	9844.16
860.891	9895.91
861.212	9823.15
861.534	9772.53
861.855	9699.76
862.176	9771.85
862.498	9739.53
862.819	9757.16
863.14	9705.86
863.461	9670.16
863.782	9579.31
864.103	9636.94
864.424	9579.08
864.745	9581.12
865.065	9529.37
865.386	9596.48
865.707	9496.83
866.027	9502.48
866.348	9498.41
866.668	9456.38
866.989	9501.35
867.309	9362.59
867.63	9422.48
867.95	9398.75
868.27	9399.65
868.59	9405.98
868.91	9384.51
869.23	9331.41
869.55	9242.6
869.87	9323.5
870.19	9273.33
870.51	9316.49
870.83	9266.32
871.15	9264.97
871.469	9264.97
871.789	9224.07
872.109	9206.44
872.428	9225.65
872.748	9174.58
873.067	9193.56
873.386	9132.32
873.706	9142.03
874.025	9099.1
874.344	9135.71
874.663	9067.23
874.982	9015.26
875.301	9008.93
875.62	9012.77
875.939	8980.68
876.258	9078.98
876.577	8942.72
876.896	8994.92
877.214	8932.32
877.533	8987.91
877.852	8880.8
878.17	8878.99
878.489	8957.86
878.807	8887.13
879.125	8880.8
879.444	8877.86
879.762	8812.55
880.08	8831.53
880.398	8804.87
880.716	8798.31
881.034	8769.84
881.352	8737.52
881.67	8753.8
881.988	8739.33
882.306	8766
882.624	8666.11
882.941	8600.58
883.259	8632.89
883.577	8624.31
883.894	8634.48
884.212	8572.56
884.529	8621.6
884.846	8557.64
885.164	8520.36
885.481	8565.78
885.798	8486.46
886.115	8419.57
886.432	8459.79
886.75	8436.74
887.067	8401.49
887.383	8361.94
887.7	8427.93
888.017	8294.6
888.334	8359
888.651	8304.54
888.967	8306.35
889.284	8282.17
889.6	8225.67
889.917	8203.08
890.233	8208.72
890.55	8209.18
890.866	8161.49
891.182	8158.56
891.498	8123.98
891.815	8057.09
892.131	8070.42
892.447	8052.34
892.763	8036.98
893.079	8008.73
893.395	7945.23
893.71	7929.64
894.026	7959.47
894.342	7888.28
894.657	7916.76
894.973	7875.63
895.289	7830.88
895.604	7820.26
895.92	7766.93
896.235	7760.15
896.55	7747.72
896.865	7599.02
897.181	7755.86
897.496	7679.02
897.811	7626.82
898.126	7588.4
898.441	7561.96
898.756	7498.91
899.071	7460.04
899.386	7491.46
899.7	7420.95
900.015	7359.48
900.33	7334.85
900.644	7385.24
900.959	7377.79
901.273	7313.16
901.588	7295.75
901.902	7274.06
902.216	7214.17
902.531	7220.73
902.845	7157.45
903.159	7168.75
903.473	7124.91
903.787	7094.18
904.101	7022.32
904.415	7083.56
904.729	7011.92
905.042	7006.04
905.356	7034.29
905.67	6978.25
905.984	6985.93
906.297	6887.4
906.611	6890.79
906.924	6840.17
907.237	6860.06
907.551	6799.27
907.864	6815.77
908.177	6755.88
908.491	6741.87
908.804	6685.15
909.117	6729.67
909.43	6674.08
909.743	6642.44
910.056	6586.17
910.368	6539.39
910.681	6538.49
910.994	6507.75
911.307	6473.63
911.619	6434.08
911.932	6445.38
912.244	6442.67
912.557	6444.25
912.869	6331.71
913.181	6306.63
913.494	6284.26
913.806	6278.38
914.118	6234.54
914.43	6222.34
914.742	6200.87
915.054	6187.08
915.366	6150.25
915.678	6140.76
915.99	6079.29
916.302	6044.04
916.613	6015.79
916.925	6046.07
917.236	6036.8
917.548	5946.86
917.859	6027.54
918.171	5906.86
918.482	5917.94
918.794	5861.44
919.105	5853.53
919.416	5859.86
919.727	5795.23
920.038	5754.78
920.349	5739.41
920.66	5708.23
920.971	5696.7
921.282	5691.05
921.593	5643.37
921.903	5620.54
922.214	5606.31
922.525	5545.97
922.835	5616.25
923.146	5534.22
923.456	5541.22
923.767	5562.47
924.077	5508
924.387	5446.76
924.697	5463.26
925.008	5427.33
925.318	5382.36
925.628	5367.22
925.938	5388.69
926.248	5308.46
926.558	5325.64
926.867	5292.19
927.177	5288.58
927.487	5209.48
927.796	5200.89
928.106	5171.29
928.416	5201.35
928.725	5179.65
929.034	5084.74
929.344	5139.43
929.653	5107.79
929.962	5066.21
930.271	5006.1
930.581	5012.2
930.89	5015.81
931.199	4965.65
931.508	4927.91
931.817	4943.27
932.125	4902.6
932.434	4894.91
932.743	4857.4
933.051	4839.77
933.36	4854.46
933.669	4787.8
933.977	4773.56
934.286	4770.85
934.594	4765.88
934.902	4720.91
935.21	4729.72
935.519	4693.56
935.827	4661.25
936.135	4647.01
936.443	4573.34
936.751	4627.58
937.059	4593.23
937.367	4539.67
937.674	4561.36
937.982	4524.3
938.29	4543.28
938.597	4491.76
938.905	4426.68
939.213	4459.44
939.52	4469.39
939.827	4450.41
940.135	4397.3
940.442	4414.25
940.749	4385.55
941.056	4384.87
941.363	4317.75
941.67	4335.38
941.977	4280.01
942.284	4254.25
942.591	4316.17
942.898	4259.22
943.205	4202.28
943.511	4182.62
943.818	4225.78
944.125	4159.11
944.431	4114.37
944.738	4095.84
945.044	4111.88
945.35	4073.92
945.657	4082.05
945.963	4058.33
946.269	4080.47
946.575	4015.39
946.881	4026.24
947.187	4010.64
947.493	4010.42
947.799	3969.29
948.105	3931.32
948.41	3924.77
948.716	3967.71
949.022	3901.95
949.327	3920.93
949.633	3844.32
949.938	3832.57
950.244	3822.85
950.549	3801.38
950.854	3836.86
951.16	3841.16
951.465	3745.11
951.77	3730.65
952.075	3703.08
952.38	3719.35
952.685	3706.7
952.99	3663.76
953.294	3690.43
953.599	3643.2
953.904	3653.82
954.209	3630.99
954.513	3646.36
954.818	3577.89
955.122	3583.76
955.426	3555.29
955.731	3527.49
956.035	3541.73
956.339	3503.54
956.643	3496.98
956.948	3457.44
957.252	3455.18
957.556	3456.31
957.86	3470.32
958.163	3440.49
958.467	3405.91
958.771	3417.44
959.075	3403.65
959.378	3409.98
959.682	3363.88
959.985	3312.81
960.289	3360.04
960.592	3283.43
960.896	3295.86
961.199	3287.05
961.502	3271.68
961.805	3263.77
962.108	3193.26
962.411	3252.47
962.714	3220.61
963.017	3219.93
963.32	3183.77
963.623	3167.95
963.926	3169.08
964.228	3089.99
964.531	3157.56
964.833	3129.08
965.136	3076.2
965.438	3066.04
965.741	3099.25
966.043	3115.75
966.345	3068.97
966.648	3024.45
966.95	3013.83
967.252	3006.38
967.554	2975.42
967.856	3009.31
968.158	2954.4
968.46	2995.98
968.761	2947.85
969.063	2934.29
969.365	2899.94
969.666	2935.42
969.968	2887.06
970.269	2887.73
970.571	2875.98
970.872	2838.92
971.174	2808.41
971.475	2814.97
971.776	2819.04
972.077	2793.27
972.378	2788.08
972.679	2820.39
972.98	2789.21
973.281	2771.13
973.582	2768.87
973.883	2720.51
974.183	2731.81
974.484	2729.32
974.785	2711.24
975.085	2657.23
975.386	2691.36
975.686	2647.29
975.986	2640.51
976.287	2635.54
976.587	2611.58
976.887	2623.56
977.187	2610.23
977.487	2600.28
977.787	2584.92
978.087	2544.92
978.387	2559.83
978.687	2565.03
978.987	2545.6
979.286	2509.67
979.586	2527.74
979.885	2499.5
980.185	2541.3
980.484	2502.43
980.784	2477.12
981.083	2468.31
981.382	2462.89
981.682	2450.01
981.981	2463.11
982.28	2419.5
982.579	2425.6
982.878	2401.87
983.177	2376.79
983.475	2376.56
983.774	2369.1
984.073	2368.2
984.372	2341.31
984.67	2324.59
984.969	2348.54
985.267	2315.77
985.566	2317.81
985.864	2279.16
986.162	2294.3
986.461	2258.37
986.759	2285.94
987.057	2246.17
987.355	2245.04
987.653	2219.28
987.951	2249.11
988.249	2219.05
988.547	2200.75
988.844	2221.76
989.142	2197.36
989.44	2194.42
989.737	2189.9
990.035	2132.05
990.332	2150.13
990.63	2158.94
990.927	2138.6
991.224	2127.08
991.521	2125.27
991.819	2093.18
992.116	2101.99
992.413	2080.52
992.71	2090.92
993.006	2085.95
993.303	2045.5
993.6	2052.05
993.897	2035.33
994.193	2044.37
994.49	2007.76
994.787	2000.53
995.083	1998.94
995.379	1975.22
995.676	1971.37
995.972	2000.75
996.268	1968.44
996.565	1962.11
996.861	1958.72
997.157	1931.38
997.453	1933.64
997.749	1927.08
998.044	1908.78
998.34	1902.45
998.636	1917.36
998.932	1848.44
999.227	1865.61
999.523	1878.95
999.818	1834.66
1000.114	1862.45
1000.409	1864.71
1000.704	1827.88
1001	1806.41
1001.295	1798.72
1001.59	1789.46
1001.885	1792.85
1002.18	1819.74
1002.475	1787.42
1002.77	1780.19
1003.065	1737.03
1003.359	1750.36
1003.654	1717.82
1003.949	1744.94
1004.243	1678.95
1004.538	1706.52
1004.832	1690.25
1005.127	1693.19
1005.421	1699.52
1005.715	1667.43
1006.009	1642.8
1006.304	1665.62
1006.598	1632.4
1006.892	1648.9
1007.186	1634.21
1007.48	1630.59
1007.773	1620.2
1008.067	1595.79
1008.361	1583.59
1008.655	1572.52
1008.948	1568.9
1009.242	1555.11
1009.535	1562.8
1009.829	1570.93
1010.122	1567.77
1010.415	1563.93
1010.708	1529.35
1011.001	1504.95
1011.295	1487.77
1011.588	1492.52
1011.881	1486.19
1012.173	1489.35
1012.466	1492.97
1012.759	1473.76
1013.052	1453.65
1013.344	1463.14
1013.637	1449.58
1013.93	1461.11
1014.222	1413.88
1014.514	1437.15
1014.807	1423.14
1015.099	1439.64
1015.391	1398.06
1015.683	1419.52
1015.976	1399.41
1016.268	1386.31
1016.56	1351.28
1016.851	1334.78
1017.143	1339.07
1017.435	1327.32
1017.727	1356.48
1018.018	1312.18
1018.31	1333.43
1018.602	1319.41
1018.893	1288.91
1019.185	1308.57
1019.476	1282.13
1019.767	1261.34
1020.058	1281.45
1020.35	1265.63
1020.641	1267.21
1020.932	1231.28
1021.223	1243.26
1021.514	1225.63
1021.804	1216.82
1022.095	1196.25
1022.386	1209.81
1022.677	1212.98
1022.967	1174.56
1023.258	1184.5
1023.548	1162.13
1023.839	1185.86
1024.129	1168.68
1024.419	1159.42
1024.709	1137.72
1025	1134.33
1025.29	1107.44
1025.58	1148.8
1025.87	1106.54
1026.16	1092.3
1026.449	1120.78
1026.739	1096.6
1027.029	1096.82
1027.319	1076.93
1027.608	1064.51
1027.898	1061.12
1028.187	1080.1
1028.477	1057.5
1028.766	1067.9
1029.055	1047.78
1029.344	1034
1029.634	1032.19
1029.923	1025.18
1030.212	1014.56
1030.501	1014.56
1030.79	1004.17
1031.078	997.62
1031.367	983.83
1031.656	980.21
1031.945	1003.49
1032.233	974.11
1032.522	959.2
1032.81	961.68
1033.099	963.04
1033.387	960.33
1033.675	957.16
1033.963	949.93
1034.251	920.55
1034.54	923.27
1034.828	936.6
1035.116	925.98
1035.403	910.84
1035.691	907
1035.979	891.63
1036.267	901.57
1036.554	897.96
1036.842	902.48
1037.129	886.43
1037.417	891.86
1037.704	855.47
1037.992	867.67
1038.279	887.56
1038.566	870.16
1038.853	870.16
1039.14	870.16
