Data from hue_24_FLMS001491_00100.txt Node
Date: Tue Feb 07 17:13:02 GMT 2017
User: dcchb
Spectrometer: FLMS00149
Trigger mode: 0
Integration Time (sec): 2.000000E-2
Scans to average: 10
Electric dark correction enabled: true
Nonlinearity correction enabled: false
Boxcar width: 0
XAxis mode: Wavelengths
Number of Pixels in Spectrum: 2048
>>>>>Begin Spectral Data<<<<<
341.393	-13.54
341.776	-13.54
342.16	-13.54
342.543	-54.45
342.927	-76.37
343.31	-72.75
343.693	-78.18
344.077	-61.68
344.46	-52.64
344.843	-59.65
345.226	-47.89
345.61	-23.71
345.993	-22.36
346.376	-7.9
346.759	12.22
347.142	21.03
347.525	47.92
347.908	52.22
348.291	66.91
348.674	101.93
349.057	124.53
349.44	124.76
349.823	123.85
350.206	173.12
350.588	202.27
350.971	197.75
351.354	202.27
351.737	249.73
352.119	251.53
352.502	276.84
352.884	283.62
353.267	304.19
353.65	307.12
354.032	308.71
354.414	308.03
354.797	324.75
355.179	331.08
355.562	337.63
355.944	325.2
356.326	331.98
356.709	356.84
357.091	357.29
357.473	337.18
357.855	341.7
358.238	358.2
358.62	364.07
359.002	336.95
359.384	334.69
359.766	350.06
360.148	356.16
360.53	354.81
360.912	356.16
361.294	326.79
361.676	345.54
362.057	338.99
362.439	338.76
362.821	334.24
363.203	324.53
363.584	331.53
363.966	333.79
364.348	329.5
364.729	315.94
365.111	331.53
365.493	329.5
365.874	331.53
366.256	323.4
366.637	327.24
367.019	336.95
367.4	315.71
367.781	325.88
368.163	315.49
368.544	322.04
368.925	321.14
369.306	345.09
369.688	331.76
370.069	303.51
370.45	318.65
370.831	309.38
371.212	326.33
371.593	306.9
371.974	324.07
372.355	338.08
372.736	332.21
373.117	324.3
373.498	310.51
373.879	314.13
374.26	323.85
374.641	332.66
375.021	321.36
375.402	341.7
375.783	322.72
376.163	336.28
376.544	331.98
376.925	354.36
377.305	361.36
377.686	332.43
378.066	335.6
378.447	329.95
378.827	349.61
379.208	350.06
379.588	373.11
379.968	336.28
380.349	347.8
380.729	375.6
381.109	343.51
381.489	372.21
381.87	349.84
382.25	367.46
382.63	368.37
383.01	374.69
383.39	366.11
383.77	355.03
384.15	374.69
384.53	352.1
384.91	384.86
385.29	391.42
385.67	361.36
386.049	376.05
386.429	370.4
386.809	353.68
387.189	367.46
387.568	390.06
387.948	393.45
388.328	378.08
388.707	383.28
389.087	394.35
389.466	376.95
389.846	381.47
390.225	412.66
390.605	384.64
390.984	382.6
391.363	398.65
391.743	399.55
392.122	387.57
392.501	393.68
392.881	411.3
393.26	402.72
393.639	422.15
394.018	409.72
394.397	425.99
394.776	411.53
395.155	427.12
395.534	412.66
395.913	428.7
396.292	428.93
396.671	416.05
397.05	433.9
397.429	429.83
397.808	405.65
398.186	417.18
398.565	448.59
398.944	416.73
399.323	441.36
399.701	448.82
400.08	426.22
400.458	429.83
400.837	442.04
401.215	458.31
401.594	441.36
401.972	460.12
402.351	444.97
402.729	444.97
403.107	454.92
403.486	454.92
403.864	460.79
404.242	455.14
404.62	463.28
404.999	483.84
405.377	482.94
405.755	476.84
406.133	493.56
406.511	460.12
406.889	492.88
407.267	504.63
407.645	496.95
408.023	494.24
408.401	503.05
408.779	510.51
409.156	489.49
409.534	514.35
409.912	505.99
410.29	515.25
410.667	531.3
411.045	527.01
411.422	554.35
411.8	545.99
412.178	523.84
412.555	531.75
412.933	529.94
413.31	533.79
413.687	552.09
414.065	565.87
414.442	552.54
414.819	566.1
415.197	534.01
415.574	557.51
415.951	556.16
416.328	583.05
416.705	559.32
417.082	597.51
417.46	562.49
417.837	601.58
418.214	605.65
418.591	607.46
418.967	615.82
419.344	609.94
419.721	585.54
420.098	589.6
420.475	613.33
420.852	636.83
421.228	616.72
421.605	633.67
421.982	619.66
422.358	633.9
422.735	633.44
423.111	622.37
423.488	658.3
423.864	658.98
424.241	644.52
424.617	662.37
424.994	683.84
425.37	656.95
425.746	696.27
426.123	697.62
426.499	693.33
426.875	682.26
427.251	704.85
427.627	719.32
428.003	711.63
428.379	729.03
428.756	725.19
429.132	722.48
429.507	745.76
429.883	723.16
430.259	753.44
430.635	769.71
431.011	767.23
431.387	772.42
431.763	781.91
432.138	793.44
432.514	828.92
432.89	801.35
433.265	828.01
433.641	822.82
434.016	836.15
434.392	834.12
434.767	843.16
435.143	856.94
435.518	859.65
435.894	852.65
436.269	878.64
436.644	863.49
437.02	910.27
437.395	870.5
437.77	907.11
438.145	895.13
438.52	898.75
438.895	906.66
439.271	913.21
439.646	938.75
440.021	953.21
440.395	943.27
440.77	936.94
441.145	931.52
441.52	966.09
441.895	958.86
442.27	968.58
442.645	966.99
443.019	1002.47
443.394	967.67
443.769	1005.86
444.143	1001.57
444.518	1015.13
444.892	994.56
445.267	1030.72
445.641	1023.72
446.016	1030.72
446.39	1044.73
446.764	1075.92
447.139	1050.38
447.513	1056.71
447.887	1038.4
448.262	1086.54
448.636	1050.16
449.01	1066.2
449.384	1095.58
449.758	1104.84
450.132	1124.73
450.506	1107.33
450.88	1136.26
451.254	1125.18
451.628	1126.31
452.002	1154.33
452.376	1159.76
452.75	1171.06
453.123	1198.63
453.497	1198.4
453.871	1198.63
454.244	1232.98
454.618	1209.02
454.992	1235.46
455.365	1267.1
455.739	1239.53
456.112	1299.87
456.486	1278.62
456.859	1296.03
457.232	1340.77
457.606	1333.31
457.979	1321.11
458.352	1354.33
458.725	1349.13
459.099	1388.68
459.472	1395.23
459.845	1413.76
460.218	1427.32
460.591	1458.73
460.964	1430.48
461.337	1498.73
461.71	1486.3
462.083	1528.56
462.456	1519.52
462.829	1503.48
463.201	1569.46
463.574	1546.87
463.947	1616.02
464.32	1610.59
464.692	1647.65
465.065	1649.24
465.438	1700.08
465.81	1685.39
466.183	1731.27
466.555	1745.5
466.928	1737.37
467.3	1731.27
467.672	1815.33
468.045	1837.71
468.417	1829.8
468.789	1851.49
469.161	1868.44
469.534	1888.78
469.906	1929.45
470.278	1971.94
470.65	1990.47
471.022	1996.8
471.394	2052.62
471.766	2069.79
472.138	2084.03
472.51	2141.88
472.882	2166.74
473.253	2192.27
473.625	2220.07
473.997	2260.07
474.369	2286.28
474.74	2325.15
475.112	2384.13
475.484	2402.66
475.855	2455.32
476.227	2472.72
476.598	2525.15
476.97	2568.53
477.341	2636.78
477.713	2652.83
478.084	2682.2
478.455	2759.72
478.827	2799.94
479.198	2864.57
479.569	2888.75
479.94	3000.39
480.311	3020.5
480.682	3058.24
481.053	3155.41
481.424	3204.22
481.795	3218.46
482.166	3293.26
482.537	3350.89
482.908	3408.51
483.279	3458.68
483.65	3523.76
484.021	3619.35
484.391	3687.15
484.762	3699.35
485.133	3750.2
485.503	3803.3
485.874	3908.39
486.244	3957.2
486.615	4017.08
486.985	4079.68
487.356	4144.76
487.726	4151.09
488.097	4254.59
488.467	4349.28
488.837	4429.73
489.207	4497.07
489.578	4555.6
489.948	4612.55
490.318	4676.95
490.688	4733.22
491.058	4754.47
491.428	4824.75
491.798	4939.77
492.168	5011.63
492.538	5018.41
492.908	5121.91
493.278	5193.32
493.648	5203.49
494.017	5286.88
494.387	5315.13
494.757	5396.03
495.126	5427.67
495.496	5428.57
495.866	5581.56
496.235	5635.57
496.605	5677.83
496.974	5691.39
497.344	5796.7
497.713	5761.9
498.082	5826.53
498.452	5907.66
498.821	5957.82
499.19	5973.19
499.559	5957.37
499.928	6038.27
500.298	6070.36
500.667	6214.31
501.036	6126.41
501.405	6230.81
501.774	6221.55
502.143	6254.31
502.512	6288.89
502.88	6365.04
503.249	6432.16
503.618	6492.5
503.987	6482.33
504.356	6485.27
504.724	6579.05
505.093	6628.54
505.462	6636.9
505.83	6718.48
506.199	6759.16
506.567	6799.16
506.936	6737.69
507.304	6884.13
507.672	6962.09
508.041	6946.72
508.409	6977.46
508.777	7025.59
509.145	7092.71
509.514	7075.53
509.882	7073.27
510.25	7118.02
510.618	7147.17
510.986	7163.89
511.354	7238.47
511.722	7358.69
512.09	7386.26
512.458	7384.45
512.826	7454.51
513.193	7551.68
513.561	7470.33
513.929	7542.64
514.297	7610.21
514.664	7672.58
515.032	7638.46
515.4	7755.52
515.767	7786.7
516.135	7836.42
516.502	7732.01
516.869	7859.02
517.237	7924.33
517.604	7853.37
517.972	8003.19
518.339	8048.62
518.706	8054.72
519.073	8046.13
519.44	8082.74
519.808	8135.85
520.175	8167.48
520.542	8311.21
520.909	8287.71
521.276	8341.49
521.643	8376.74
522.009	8434.14
522.376	8494.03
522.743	8551.43
523.11	8621.26
523.477	8659.45
523.843	8708.71
524.21	8793.91
524.577	8812.89
524.943	8798.43
525.31	8909.84
525.676	9016.95
526.043	9042.49
526.409	9090.4
526.776	9050.4
527.142	9200.22
527.508	9244.29
527.874	9275.48
528.241	9339.66
528.607	9345.08
528.973	9474.57
529.339	9464.17
529.705	9593.89
530.071	9652.19
530.437	9669.59
530.803	9648.35
531.169	9706.88
531.535	9752.98
531.901	9792.3
532.267	9847.44
532.632	9947.1
532.998	9920.43
533.364	10012.63
533.73	10035.23
534.095	10143.02
534.461	10144.15
534.826	10148.45
535.192	10285.39
535.557	10337.6
535.923	10365.39
536.288	10322.23
536.653	10351.38
537.019	10395
537.384	10423.92
537.749	10539.62
538.114	10520.42
538.479	10583.92
538.845	10642.22
539.21	10675.44
539.575	10648.55
539.94	10733.97
540.305	10830.46
540.67	10787.75
541.034	10872.27
541.399	10907.52
541.764	10939.39
542.129	11005.6
542.494	10985.49
542.858	11064.36
543.223	11085.82
543.587	11197.01
543.952	11182.54
544.316	11297.57
544.681	11237.91
545.045	11334.18
545.41	11385.48
545.774	11473.84
546.138	11398.36
546.503	11515.64
546.867	11485.81
547.231	11647.17
547.595	11639.93
547.959	11729.88
548.324	11685.13
548.688	11672.93
549.052	11861.85
549.416	11838.57
549.779	11787.05
550.143	11875.41
550.507	11994.95
550.871	11965.12
551.235	12016.2
551.599	12093.26
551.962	12121.05
552.326	12178.45
552.689	12243.53
553.053	12185.23
553.417	12265.68
553.78	12440.36
554.143	12339.12
554.507	12416.41
554.87	12546.8
555.234	12538.67
555.597	12523.98
555.96	12610.3
556.323	12616.63
556.686	12700.7
557.05	12749.96
557.413	12758.32
557.776	12761.94
558.139	12819.56
558.502	12915.83
558.865	12993.12
559.228	13010.07
559.59	13062.95
559.953	13101.59
560.316	13170.74
560.679	13229.72
561.041	13318.08
561.404	13438.3
561.767	13411.86
562.129	13310.62
562.492	13496.83
562.854	13528.02
563.217	13501.35
563.579	13563.05
563.941	13605.76
564.304	13658.19
564.666	13799.43
565.028	13742.93
565.39	13891.85
565.753	13911.74
566.115	13931.85
566.477	14049.59
566.839	14097.95
567.201	14135.01
567.563	14182.47
567.925	14283.93
568.287	14269.7
568.648	14329.58
569.01	14411.84
569.372	14479.18
569.734	14441.22
570.095	14596.01
570.457	14630.82
570.819	14652.74
571.18	14686.63
571.542	14792.62
571.903	14819.96
572.265	14890.02
572.626	15001.2
572.987	15044.36
573.349	14985.38
573.71	15151.48
574.071	15209.56
574.432	15358.71
574.794	15400.29
575.155	15499.49
575.516	15474.86
575.877	15555.99
576.238	15648.87
576.599	15889.54
576.96	15807.06
577.32	15919.37
577.681	16040.72
578.042	16113.26
578.403	16129.08
578.763	16322.3
579.124	16515.96
579.485	16651.78
579.845	16800.48
580.206	16859.68
580.566	16948.04
580.927	17071.43
581.287	17341.03
581.648	17409.5
582.008	17587.12
582.368	17736.04
582.728	17913.89
583.089	18058.07
583.449	18266.65
583.809	18340.1
584.169	18665.96
584.529	18821.44
584.889	19112.96
585.249	19172.62
585.609	19333.97
585.969	19674.3
586.329	19815.09
586.688	20061.86
587.048	20324.9
587.408	20532.58
587.768	20731.22
588.127	20976.41
588.487	21330.3
588.846	21730.74
589.206	21823.17
589.565	22102.48
589.925	22539.53
590.284	22807.1
590.643	23141.55
591.003	23436.23
591.362	23814.98
591.721	24123.67
592.08	24384.91
592.44	24709.19
592.799	25040.71
593.158	25299.69
593.517	25668.49
593.876	25927.47
594.235	26337.17
594.593	26709.14
594.952	26957.27
595.311	27416.47
595.67	27711.83
596.029	28262.1
596.387	28593.16
596.746	28970.33
597.104	28990.66
597.463	29496.41
597.822	29945.67
598.18	29955.38
598.538	30405.99
598.897	31082.59
599.255	31146.77
599.613	32094.54
599.972	32137.02
600.33	32364.59
600.688	32590.34
601.046	33042.31
601.404	33548.74
601.762	33762.74
602.12	34366.34
602.478	34688.14
602.836	34908.7
603.194	34956.38
603.552	35479.08
603.91	35593.65
604.268	36226.63
604.625	36451.71
604.983	36862.32
605.341	36835.88
605.698	37417.34
606.056	37828.85
606.413	38026.81
606.771	38464.77
607.128	38757.41
607.485	38895.71
607.843	39149.27
608.2	39564.85
608.557	39935.24
608.914	39942.47
609.272	40474.43
609.629	40651.15
609.986	41082.1
610.343	41184.47
610.7	41672.82
611.057	41788.97
611.414	42021.06
611.771	42262.63
612.127	42624.2
612.484	42664.66
612.841	43093.12
613.198	43301.02
613.554	43175.6
613.911	43652.43
614.267	43873.66
614.624	43930.38
614.98	44319.07
615.337	44679.74
615.693	44708.22
616.05	44832.06
616.406	45259.84
616.762	45257.58
617.118	45327.86
617.475	45709.09
617.831	45765.82
618.187	46029.99
618.543	46120.61
618.899	46496.42
619.255	46410.55
619.611	46545.68
619.967	46900.02
620.323	47051.88
620.678	46954.49
621.034	47070.64
621.39	47306.11
621.746	47229.28
622.101	47701.36
622.457	47565.77
622.812	47704.97
623.168	47830.39
623.523	47899.77
623.879	48154.23
624.234	47939.32
624.589	48228.12
624.945	48336.37
625.3	48545.18
625.655	48515.57
626.01	48656.14
626.365	48673.31
626.72	48627.21
627.075	48733.65
627.43	48824.27
627.785	48753.08
628.14	48944.26
628.495	49009.12
628.85	49046.18
629.205	48889.35
629.559	49216.35
629.914	49147.87
630.269	49292.05
630.623	49179.06
630.978	49076.46
631.332	49326.17
631.687	49518.26
632.041	49188.78
632.396	49350.35
632.75	49291.37
633.104	49432.16
633.459	49312.16
633.813	49398.26
634.167	49504.48
634.521	49419.28
634.875	49546.51
635.229	49520.97
635.583	49375.67
635.937	49378.15
636.291	49416.57
636.645	49353.07
636.999	49226.52
637.352	49499.5
637.706	49297.25
638.06	49495.21
638.413	49419.05
638.767	49182.45
639.121	49439.39
639.474	49153.3
639.828	49267.65
640.181	49316.91
640.534	49369.11
640.888	49137.03
641.241	49123.02
641.594	49292.05
641.947	49392.61
642.301	49231.71
642.654	49300.86
643.007	49297.93
643.36	49189
643.713	49161.43
644.066	49343.8
644.419	49260.64
644.771	48896.13
645.124	48592.86
645.477	48516.93
645.83	48351.96
646.182	48183.15
646.535	48217.96
646.888	48267.45
647.24	48085.08
647.593	48282.36
647.945	48225.19
648.298	47998.53
648.65	47977.51
649.002	47866.78
649.355	48101.12
649.707	47896.38
650.059	48169.37
650.411	48449.14
650.763	48583.82
651.115	48959.4
651.467	48826.07
651.819	48975.22
652.171	48892.06
652.523	48777.94
652.875	48812.06
653.227	48605.52
653.578	48862.46
653.93	48836.47
654.282	48730.71
654.633	48648.68
654.985	48663.14
655.337	48739.75
655.688	48695
656.039	48858.16
656.391	48576.14
656.742	48612.97
657.094	48536.59
657.445	48673.76
657.796	48678.73
658.147	48712.41
658.498	48516.25
658.849	48588.12
659.2	48633.31
659.551	48491.85
659.902	48612.52
660.253	48539.98
660.604	48530.72
660.955	48417.72
661.306	48520.77
661.656	48440.32
662.007	48446.2
662.358	48428.12
662.708	48461.34
663.059	48443.94
663.409	48284.17
663.76	48518.74
664.11	48500.89
664.461	48485.74
664.811	48483.94
665.161	48405.97
665.511	48382.24
665.862	48356.26
666.212	48408.46
666.562	48389.02
666.912	48330.04
667.262	48286.65
667.612	48250.95
667.962	48459.08
668.312	48283.94
668.662	48586.31
669.011	48291.4
669.361	48328.23
669.711	48247.33
670.06	48220.67
670.41	48196.49
670.76	48288.91
671.109	48398.97
671.459	48211.63
671.808	48170.5
672.157	48269.03
672.507	48087.34
672.856	48048.47
673.205	48242.81
673.554	48273.77
673.904	48075.36
674.253	48332.75
674.602	48182.7
674.951	47635.6
675.3	47421.37
675.649	48131.4
675.998	48023.16
676.346	48062.93
676.695	48169.6
677.044	47805.31
677.393	47970.73
677.741	47980.9
678.09	47881.02
678.438	47764.63
678.787	47938.41
679.135	47911.75
679.484	47646.22
679.832	47722.83
680.181	47548.14
680.529	47594.24
680.877	47530.52
681.225	47407.81
681.573	47712.88
681.922	47359.22
682.27	47249.17
682.618	47292.78
682.966	47260.01
683.314	47212.56
683.661	47194.03
684.009	46996.52
684.357	46897.54
684.705	46919.01
685.053	46962.4
685.4	46874.04
685.748	46827.94
686.095	46748.62
686.443	46546.59
686.79	46457.55
687.138	46585.46
687.485	46600.82
687.832	46340.26
688.18	46462.97
688.527	46370.09
688.874	46368.29
689.221	46209.19
689.568	46124.45
689.915	46093.27
690.262	45951.12
690.609	45892.37
690.956	45652.6
691.303	45672.71
691.65	45486.28
691.997	45494.41
692.344	45164.25
692.69	45239.73
693.037	45251.25
693.383	44870.47
693.73	44932.17
694.077	44849.23
694.423	44807.65
694.769	44609.46
695.116	44633.87
695.462	44541.89
695.808	44529.01
696.155	44456.02
696.501	44155.24
696.847	44209.25
697.193	44014.9
697.539	44056.48
697.885	43898.07
698.231	43576.95
698.577	43676.61
698.923	43712.31
699.269	43460.79
699.614	43100.35
699.96	43123.85
700.306	43193.23
700.651	43028.04
700.997	42921.82
701.342	42875.95
701.688	42908.94
702.033	42679.57
702.379	42608.61
702.724	42547.82
703.069	42592.79
703.415	42133.14
703.76	42277.55
704.105	42222.86
704.45	42094.95
704.795	41949.65
705.14	41767.28
705.485	41802.98
705.83	41667.62
706.175	41741.06
706.52	41610.67
706.865	41370.23
707.209	41365.25
707.554	41197.12
707.899	41360.28
708.243	40935.89
708.588	41042.1
708.932	40752.84
709.277	40720.07
709.621	40685.5
709.966	40481.44
710.31	40477.14
710.654	40219.52
710.998	40221.33
711.342	40197.38
711.687	40213.87
712.031	40104.04
712.375	39841.45
712.719	40008
713.063	39894.56
713.407	39968.68
713.75	39775.24
714.094	39685.52
714.438	39507.22
714.782	39636.71
715.125	39396.04
715.469	39442.59
715.812	39368.47
716.156	39137.97
716.499	39260
716.843	39074.01
717.186	38831.54
717.53	39154.46
717.873	39130.06
718.216	38910.63
718.559	38719.67
718.902	38515.61
719.246	38460.25
719.589	38457.53
719.932	38312.91
720.275	38237.88
720.617	38238.33
720.96	38133.93
721.303	38290.08
721.646	38095.06
721.989	38083.08
722.331	38164.21
722.674	37941.84
723.016	37975.06
723.359	37933.25
723.701	37928.96
724.044	37646.93
724.386	37442.87
724.729	37721.06
725.071	37617.78
725.413	37605.8
725.755	37376.21
726.097	37345.47
726.439	37178.02
726.782	37111.58
727.124	37329.65
727.465	37137.34
727.807	37116.33
728.149	36954.52
728.491	36870.01
728.833	36908.2
729.175	36777.8
729.516	36756.79
729.858	36721.08
730.199	36743.91
730.541	36775.54
730.882	36658.49
731.224	36679.05
731.565	36389.11
731.906	36465.95
732.248	36456.91
732.589	36265.5
732.93	36188.22
733.271	36230.02
733.612	36269.12
733.953	36190.93
734.294	36074.32
734.635	35816.93
734.976	36035.22
735.317	35762.92
735.658	35836.81
735.999	35804.04
736.339	35808.11
736.68	35898.73
737.021	35743.48
737.361	35676.36
737.702	35681.79
738.042	35626.42
738.383	35446.99
738.723	35605.63
739.063	35297.62
739.404	35541.68
739.744	35308.69
740.084	35277.5
740.424	35273.44
740.764	35303.49
741.104	35303.49
741.444	35141.69
741.784	34963.84
742.124	35145.98
742.464	35010.39
742.804	34970.85
743.143	34772.89
743.483	34849.49
743.823	34682.04
744.162	34626
744.502	34792.77
744.841	34565.21
745.181	34541.48
745.52	34506.23
745.86	34388.94
746.199	34431.43
746.538	34270.98
746.877	34405.66
747.216	34601.14
747.556	34241.6
747.895	34358.21
748.234	34110.08
748.573	34070.3
748.911	34047.25
749.25	34035.5
749.589	34040.93
749.928	34105.11
750.267	34055.39
750.605	33935.62
750.944	33774.95
751.283	33661.95
751.621	33780.37
751.96	33504.9
752.298	33504.9
752.636	33560.26
752.975	33368.63
753.313	33255.64
753.651	33486.37
753.989	33231
754.327	33126.37
754.666	33049.31
755.004	33023.33
755.342	33132.25
755.679	32993.27
756.017	32780.17
756.355	32806.38
756.693	32629.21
757.031	32732.26
757.368	32644.13
757.706	32551.47
758.044	32348.09
758.381	32407.52
758.719	32173.86
759.056	32341.08
759.394	32153.97
759.731	31938.84
760.068	31840.08
760.405	31885.5
760.743	31763.47
761.08	31854.77
761.417	31723.25
761.754	31432.41
762.091	31586.98
762.428	31372.97
762.765	31334.33
763.102	31271.96
763.438	31044.62
763.775	31007.56
764.112	30941.8
764.449	31047.79
764.785	30912.2
765.122	30754.01
765.458	30569.15
765.795	30436.5
766.131	30541.81
766.467	30436.05
766.804	30244.64
767.14	30100.47
767.476	30146.34
767.812	30046.68
768.148	29973.46
768.485	29793.36
768.821	29681.95
769.157	29644.66
769.492	29567.82
769.828	29374.16
770.164	29303.2
770.5	29216.42
770.836	29229.3
771.171	28906.37
771.507	28967.61
771.842	28720.16
772.178	28757.22
772.513	28750.67
772.849	28644.23
773.184	28439.72
773.519	28381.87
773.855	28215.54
774.19	28125.6
774.525	28122.44
774.86	28095.55
775.195	28048.54
775.53	27761.54
775.865	27660.3
776.2	27505.28
776.535	27353.65
776.87	27315
777.205	27254.44
777.539	27160.2
777.874	27103.71
778.209	26973.09
778.543	26928.12
778.878	26762.93
779.212	26781.91
779.547	26668.69
779.881	26649.71
780.215	26487.45
780.55	26446.1
780.884	26282.71
781.218	26263.05
781.552	26212.21
781.886	26030.97
782.22	25913.68
782.554	25873.01
782.888	25693.58
783.222	25655.38
783.556	25388.27
783.889	25376.3
784.223	25338.1
784.557	25141.05
784.89	25109.86
785.224	24989.41
785.557	24860.15
785.891	24823.09
786.224	24724.79
786.558	24785.8
786.891	24492.93
787.224	24329.09
787.557	24431.24
787.891	24353.05
788.224	24266.95
788.557	24334.97
788.89	24209.32
789.223	24134.97
789.556	23994.41
789.888	23919.61
790.221	23789.45
790.554	23536.34
790.887	23511.94
791.219	23501.32
791.552	23488.66
791.884	23399.17
792.217	23320.3
792.549	23131.84
792.882	23074.44
793.214	22960.99
793.546	23120.54
793.879	22841.22
794.211	22655.92
794.543	22617.95
794.875	22635.13
795.207	22638.74
795.539	22650.94
795.871	22512.42
796.203	22268.36
796.535	22209.15
796.867	22132.54
797.198	22124.63
797.53	22062.03
797.862	22109.94
798.193	22023.84
798.525	21855.94
798.856	21953.11
799.188	21666.11
799.519	21597.86
799.85	21451.43
800.182	21528.71
800.513	21481.03
800.844	21282.17
801.175	21312.9
801.506	21333.24
801.837	21178.67
802.168	21174.15
802.499	21098.67
802.83	21033.13
803.161	20922.18
803.491	20915.85
803.822	20931.67
804.153	20693.03
804.483	20633.14
804.814	20523.54
805.145	20575.29
805.475	20498.46
805.805	20365.58
806.136	20398.12
806.466	20423.66
806.796	20315.86
807.126	20151.8
807.457	20142.76
807.787	20142.54
808.117	20095.08
808.447	19954.52
808.777	19926.27
809.107	19867.97
809.436	19739.61
809.766	19818.7
810.096	19736.44
810.426	19675.65
810.755	19667.52
811.085	19680.17
811.414	19543.46
811.744	19379.62
812.073	19436.34
812.403	19389.56
812.732	19308.88
813.061	19201.09
813.39	19098.27
813.719	19190.7
814.049	19260.52
814.378	19155.22
814.707	18976.92
815.036	18967.88
815.365	18923.13
815.693	18778.5
816.022	18764.94
816.351	18708.45
816.68	18649.24
817.008	18696.92
817.337	18544.16
817.665	18342.81
817.994	18419.19
818.322	18507.32
818.651	18438.17
818.979	18247.22
819.307	18366.76
819.636	18312.08
819.964	18267.78
820.292	18251.06
820.62	18221.23
820.948	18129.48
821.276	18217.16
821.604	18090.84
821.932	18215.58
822.259	18110.5
822.587	18209.93
822.915	18089.48
823.243	18065.98
823.57	18057.84
823.898	18067.34
824.225	17977.17
824.553	18012.42
824.88	17968.36
825.207	18085.19
825.535	17997.96
825.862	18055.58
826.189	18053.1
826.516	18053.78
826.843	18090.84
827.17	18068.47
827.497	18161.8
827.824	18092.65
828.151	18155.02
828.478	17968.36
828.805	18114.57
829.131	18079.76
829.458	18045.64
829.785	17897.17
830.111	17977.39
830.438	18029.6
830.764	17974.46
831.09	17987.79
831.417	17827.57
831.743	17957.28
832.069	17934.46
832.395	17882.03
832.722	17992.31
833.048	17844.52
833.374	17887.45
833.7	17834.35
834.026	17769.94
834.351	17804.74
834.677	17819.66
835.003	17826.89
835.329	17770.62
835.654	17837.29
835.98	17707.8
836.306	17729.94
836.631	17664.63
836.956	17722.49
837.282	17761.58
837.607	17562.72
837.932	17652.88
838.258	17620.79
838.583	17549.38
838.908	17412.44
839.233	17532.21
839.558	17465.09
839.883	17365.66
840.208	17227.58
840.533	17378.54
840.858	17286.57
841.182	17323.85
841.507	17263.74
841.832	17190.75
842.156	17158.43
842.481	17118.89
842.805	17099.23
843.13	17072.79
843.454	17054.48
843.778	16988.95
844.103	16941.72
844.427	16877.76
844.751	16802.96
845.075	16809.52
845.399	16766.8
845.723	16590.54
846.047	16640.03
846.371	16508.51
846.695	16522.74
847.019	16317.55
847.343	16292.92
847.666	16255.18
847.99	16167.27
848.313	16099.03
848.637	15989.65
848.96	16012.25
849.284	15983.32
849.607	15874.17
849.931	15857
850.254	15729.09
850.577	15700.62
850.9	15584.24
851.223	15532.71
851.546	15480.74
851.869	15372.04
852.192	15483.22
852.515	15260.4
852.838	15238.03
853.161	15120.97
853.483	15145.6
853.806	15088.88
854.129	15033.07
854.451	15026.96
854.774	14930.69
855.096	14910.58
855.419	14871.94
855.741	14868.55
856.063	14708.33
856.385	14725.05
856.708	14672.4
857.03	14587.88
857.352	14642.57
857.674	14580.42
857.996	14502.46
858.318	14429.24
858.64	14431.05
858.961	14388.56
859.283	14349.69
859.605	14305.4
859.926	14297.72
860.248	14193.77
860.57	14136.59
860.891	14159.19
861.212	14091.62
861.534	14075.8
861.855	14002.81
862.176	14015.01
862.498	13996.03
862.819	13925.75
863.14	13889.14
863.461	13909.25
863.782	13851.4
864.103	13798.75
864.424	13796.04
864.745	13757.17
865.065	13735.25
865.386	13672.42
865.707	13659.09
866.027	13678.3
866.348	13635.81
866.668	13643.5
866.989	13596.94
867.309	13502.03
867.63	13581.8
867.95	13454.8
868.27	13546.32
868.59	13519.43
868.91	13463.61
869.23	13352.21
869.55	13390.17
869.87	13469.26
870.19	13345.88
870.51	13457.29
870.83	13406.44
871.15	13276.05
871.469	13291.64
871.789	13311.53
872.109	13229.72
872.428	13166.45
872.748	13168.48
873.067	13133.23
873.386	13126.9
873.706	13088.26
874.025	13039.67
874.344	13051.42
874.663	13003.74
874.982	13006
875.301	12988.6
875.62	12961.48
875.939	12966.23
876.258	13017.3
876.577	12872.9
876.896	12860.47
877.214	12890.52
877.533	12940.92
877.852	12810.07
878.17	12847.81
878.489	12840.58
878.807	12749.06
879.125	12731.2
879.444	12688.95
879.762	12713.13
880.08	12670.19
880.398	12648.04
880.716	12666.57
881.034	12548.38
881.352	12556.07
881.67	12532.57
881.988	12525.56
882.306	12469.29
882.624	12452.79
882.941	12398.33
883.259	12368.73
883.577	12297.54
883.894	12366.24
884.212	12356.98
884.529	12322.18
884.846	12261.61
885.164	12224.1
885.481	12086.48
885.798	12227.49
886.115	12134.84
886.432	12100.71
886.75	12078.57
887.067	12092.8
887.383	12018
887.7	12040.38
888.017	11958.34
888.334	11947.04
888.651	11981.39
888.967	11951.11
889.284	11926.93
889.6	11896.42
889.917	11704.34
890.233	11761.29
890.55	11758.12
890.866	11728.07
891.182	11696.88
891.498	11662.31
891.815	11645.58
892.131	11568.52
892.447	11579.14
892.763	11462.09
893.079	11425.02
893.395	11416.89
893.71	11393.39
894.026	11305.48
894.342	11345.25
894.657	11216.22
894.973	11276.78
895.289	11267.97
895.604	11167.4
895.92	11118.82
896.235	11075.2
896.55	11082.21
896.865	10989.56
897.181	11004.24
897.496	10965.6
897.811	10927.41
898.126	10901.2
898.441	10826.4
898.756	10777.81
899.071	10733.29
899.386	10719.28
899.7	10634.76
900.015	10578.95
900.33	10560.19
900.644	10540.3
900.959	10535.56
901.273	10517.48
901.588	10406.52
901.902	10384.6
902.216	10354.09
902.531	10292.62
902.845	10293.75
903.159	10301.44
903.473	10202.91
903.787	10168.79
904.101	10188.67
904.415	10105.06
904.729	10091.73
905.042	10011.95
905.356	9991.16
905.67	10001.56
905.984	9923.6
906.297	9913.88
906.611	9861.68
906.924	9814.22
907.237	9786.42
907.551	9801.34
907.864	9759.31
908.177	9656.94
908.491	9694.67
908.804	9600.67
909.117	9508.69
909.43	9546.88
909.743	9467.79
910.056	9482.93
910.368	9396.6
910.681	9283.61
910.994	9366.32
911.307	9365.87
911.619	9269.6
911.932	9233.67
912.244	9188.93
912.557	9208.13
912.869	9018.31
913.181	9065.09
913.494	9083.39
913.806	8960.23
914.118	9017.63
914.43	8885.43
914.742	8906.67
915.054	8874.58
915.366	8828.26
915.678	8782.61
915.99	8729.73
916.302	8635.72
916.613	8626.68
916.925	8606.79
917.236	8588.94
917.548	8574.93
917.859	8557.08
918.171	8451.77
918.482	8448.61
918.794	8365.22
919.105	8368.38
919.416	8263.75
919.727	8317.31
920.038	8317.54
920.349	8238.89
920.66	8154.15
920.971	8205.45
921.282	8123.19
921.593	8084.1
921.903	8069.18
922.214	8067.82
922.525	8019.46
922.835	7934.04
923.146	7900.37
923.456	7865.12
923.767	7821.28
924.077	7841.84
924.387	7782.63
924.697	7735.86
925.008	7654.28
925.318	7638.91
925.628	7640.27
925.938	7581.96
926.248	7536.09
926.558	7555.97
926.867	7458.12
927.177	7453.38
927.487	7410.89
927.796	7350.78
928.106	7340.39
928.416	7372.48
928.725	7314.85
929.034	7206.83
929.344	7245.93
929.653	7231.01
929.962	7205.93
930.271	7153.95
930.581	7109.21
930.89	7042.31
931.199	7078.02
931.508	7085.48
931.817	6992.37
932.125	6937.68
932.434	6973.16
932.743	6887.06
933.051	6863.34
933.36	6809.1
933.669	6756.45
933.977	6762.77
934.286	6732.04
934.594	6720.52
934.902	6720.29
935.21	6685.04
935.519	6594.87
935.827	6633.74
936.135	6556.23
936.443	6523.91
936.751	6498.37
937.059	6480.52
937.367	6510.8
937.674	6531.37
937.982	6448.21
938.29	6389.68
938.597	6397.36
938.905	6349.45
939.213	6263.13
939.52	6235.78
939.827	6345.84
940.135	6184.71
940.442	6158.04
940.749	6163.69
941.056	6165.5
941.363	6062.91
941.67	6078.95
941.977	6022.45
942.284	6010.25
942.591	6057.48
942.898	5944.72
943.205	5986.75
943.511	5975.68
943.818	5937.26
944.125	5827.66
944.431	5841.22
944.738	5860.43
945.044	5760.77
945.35	5765.06
945.657	5764.61
945.963	5750.37
946.269	5717.6
946.575	5686.64
946.881	5680.09
947.187	5650.04
947.493	5588.57
947.799	5580.66
948.105	5564.39
948.41	5538.63
948.716	5508.8
949.022	5476.71
949.327	5497.95
949.633	5360.33
949.938	5385.18
950.244	5435.8
950.549	5361.46
950.854	5287.56
951.16	5317.61
951.465	5286.2
951.77	5258.18
952.075	5238.52
952.38	5216.15
952.685	5207.56
952.99	5171.4
953.294	5139.54
953.599	5112.87
953.904	5101.12
954.209	5101.8
954.513	5080.56
954.818	5012.09
955.122	5024.74
955.426	5008.24
955.731	5023.61
956.035	4934.57
956.339	4940.68
956.643	4902.26
956.948	4847.57
957.252	4872.43
957.556	4844.18
957.86	4803.28
958.163	4792.88
958.467	4736.61
958.771	4793.11
959.075	4794.46
959.378	4736.16
959.682	4706.56
959.985	4688.03
960.289	4639.21
960.592	4622.49
960.896	4584.53
961.199	4576.39
961.502	4586.11
961.805	4545.21
962.108	4519.67
962.411	4532.55
962.714	4480.57
963.017	4491.42
963.32	4486.45
963.623	4448.48
963.926	4382.27
964.228	4343.63
964.531	4350.63
964.833	4347.47
965.136	4348.83
965.438	4354.02
965.741	4331.43
966.043	4266.57
966.345	4260.47
966.648	4204.42
966.95	4218.89
967.252	4129.17
967.554	4216.4
967.856	4154.93
968.158	4137.98
968.46	4146.8
968.761	4135.72
969.063	4123.52
969.365	4055.95
969.666	4058.89
969.968	4007.14
970.269	4047.37
970.571	4006.91
970.872	3999.46
971.174	3967.59
971.475	3961.04
971.776	3979.8
972.077	3935.96
972.378	3897.09
972.679	3848.5
972.98	3867.03
973.281	3860.25
973.582	3844.21
973.883	3819.8
974.183	3800.82
974.484	3750.65
974.785	3753.36
975.085	3743.19
975.386	3767.82
975.686	3720.59
975.986	3692.12
976.287	3658.22
976.587	3643.99
976.887	3604.44
977.187	3640.6
977.487	3667.71
977.787	3621.84
978.087	3571.67
978.387	3537.32
978.687	3545.68
978.987	3525.12
979.286	3534.16
979.586	3501.17
979.885	3448.74
980.185	3473.14
980.484	3482.63
980.784	3433.37
981.083	3441.73
981.382	3422.3
981.682	3386.82
981.981	3392.47
982.28	3360.15
982.579	3336.88
982.878	3350.21
983.177	3310.89
983.475	3287.16
983.774	3252.36
984.073	3281.06
984.372	3247.61
984.67	3227.73
984.969	3228.18
985.267	3193.83
985.566	3195.86
985.864	3167.39
986.162	3173.04
986.461	3133.94
986.759	3172.36
987.057	3086.03
987.355	3119.03
987.653	3078.13
987.951	3061.85
988.249	3072.02
988.547	3052.59
988.844	2999.94
989.142	3041.06
989.44	2976.89
989.737	2948.64
990.035	2989.77
990.332	2966.49
990.63	2961.29
990.927	2913.16
991.224	2937.11
991.521	2894.85
991.819	2917.9
992.116	2864.8
992.413	2882.88
992.71	2840.62
993.006	2860.5
993.303	2865.93
993.6	2829.09
993.897	2802.2
994.193	2767.17
994.49	2782.09
994.787	2765.14
995.083	2718.81
995.379	2732.6
995.676	2736.44
995.972	2728.76
996.268	2692.6
996.565	2662.77
996.861	2640.4
997.157	2701.41
997.453	2641.98
997.749	2625.03
998.044	2611.47
998.34	2588.65
998.636	2568.99
998.932	2552.04
999.227	2587.06
999.523	2558.82
999.818	2531.7
1000.114	2506.39
1000.409	2473.62
1000.704	2475.2
1001	2500.74
1001.295	2474.53
1001.59	2462.77
1001.885	2416.9
1002.18	2444.47
1002.475	2397.69
1002.77	2403.79
1003.065	2372.38
1003.359	2407.41
1003.654	2407.41
1003.949	2346.62
1004.243	2340.74
1004.538	2318.6
1004.832	2323.57
1005.127	2309.56
1005.421	2298.03
1005.715	2266.4
1006.009	2225.27
1006.304	2237.24
1006.598	2221.2
1006.892	2190.01
1007.186	2224.14
1007.48	2164.7
1007.773	2201.54
1008.067	2171.48
1008.361	2159.28
1008.655	2116.34
1008.948	2105.27
1009.242	2117.92
1009.535	2118.6
1009.829	2091.48
1010.122	2053.29
1010.415	2105.72
1010.708	2053.07
1011.001	2031.83
1011.295	2022.11
1011.588	2033.41
1011.881	2022.79
1012.173	1999.28
1012.466	1958.61
1012.759	1965.39
1013.052	1962.45
1013.344	1930.81
1013.637	1929.91
1013.93	1935.33
1014.222	1905.27
1014.514	1909.34
1014.807	1888.78
1015.099	1872.28
1015.391	1880.42
1015.683	1843.36
1015.976	1882.9
1016.268	1829.34
1016.56	1826.86
1016.851	1823.02
1017.143	1778.95
1017.435	1764.71
1017.727	1790.7
1018.018	1766.97
1018.31	1758.16
1018.602	1753.41
1018.893	1707.31
1019.185	1726.52
1019.476	1723.13
1019.767	1691.04
1020.058	1676.13
1020.35	1687.65
1020.641	1658.05
1020.932	1667.99
1021.223	1638.84
1021.514	1615.79
1021.804	1604.49
1022.095	1601.1
1022.386	1594.77
1022.677	1609.01
1022.967	1571.27
1023.258	1548.22
1023.548	1553.65
1023.839	1552.29
1024.129	1531.95
1024.419	1514.32
1024.709	1497.6
1025	1483.59
1025.29	1505.96
1025.58	1495.12
1025.87	1490.6
1026.16	1470.26
1026.449	1445.63
1026.739	1444.27
1027.029	1425.06
1027.319	1416.47
1027.608	1426.87
1027.898	1392.75
1028.187	1400.88
1028.477	1376.02
1028.766	1384.61
1029.055	1377.15
1029.344	1350.49
1029.634	1322.92
1029.923	1352.07
1030.212	1340.54
1030.501	1321.11
1030.79	1340.09
1031.078	1284.95
1031.367	1274.1
1031.656	1255.8
1031.945	1269.81
1032.233	1249.02
1032.522	1270.49
1032.81	1281.11
1033.099	1245.41
1033.387	1244.28
1033.675	1221.45
1033.963	1214.67
1034.251	1234.56
1034.54	1220.55
1034.828	1218.29
1035.116	1196.82
1035.403	1153.2
1035.691	1150.49
1035.979	1178.97
1036.267	1151.4
1036.554	1119.53
1036.842	1141.68
1037.129	1098.97
1037.417	1131.74
1037.704	1101
1037.992	1094.9
1038.279	1117.5
1038.566	1097.16
1038.853	1097.16
1039.14	1097.16
