Data from hue_290_FLMS001491_00099.txt Node
Date: Tue Feb 07 15:53:45 GMT 2017
User: dcchb
Spectrometer: FLMS00149
Trigger mode: 0
Integration Time (sec): 2.000000E-2
Scans to average: 10
Electric dark correction enabled: true
Nonlinearity correction enabled: false
Boxcar width: 0
XAxis mode: Wavelengths
Number of Pixels in Spectrum: 2048
>>>>>Begin Spectral Data<<<<<
341.393	-38.39
341.776	-38.39
342.16	-38.39
342.543	-71.16
342.927	-79.52
343.31	-78.16
343.693	-89.69
344.077	-63.25
344.46	-54.89
344.843	-53.98
345.226	-49.91
345.61	-33.87
345.993	-16.92
346.376	-8.11
346.759	7.26
347.142	34.83
347.525	52.46
347.908	60.37
348.291	92.46
348.674	89.07
349.057	112.34
349.44	123.41
349.823	152.11
350.206	154.83
350.588	212.9
350.971	209.29
351.354	226.46
351.737	228.27
352.119	242.96
352.502	249.29
352.884	268.95
353.267	268.27
353.65	278.89
354.032	285.22
354.414	311.21
354.797	295.61
355.179	310.75
355.562	315.5
355.944	320.7
356.326	351.66
356.709	340.36
357.091	346.46
357.473	354.6
357.855	340.36
358.238	329.51
358.62	327.48
359.002	337.87
359.384	335.84
359.766	313.24
360.148	345.1
360.53	361.6
360.912	329.96
361.294	322.96
361.676	334.26
362.057	342.17
362.439	323.86
362.821	308.04
363.203	292.68
363.584	303.3
363.966	320.47
364.348	319.57
364.729	311.88
365.111	337.42
365.493	322.51
365.874	314.6
366.256	327.03
366.637	306.01
367.019	324.77
367.4	310.98
367.781	314.37
368.163	325.9
368.544	320.7
368.925	295.39
369.306	304.88
369.688	336.97
370.069	305.1
370.45	308.95
370.831	309.85
371.212	315.27
371.593	310.08
371.974	322.73
372.355	297.87
372.736	307.82
373.117	307.59
373.498	310.53
373.879	305.56
374.26	301.26
374.641	312.56
375.021	307.82
375.402	320.47
375.783	319.57
376.163	324.09
376.544	327.7
376.925	302.85
377.305	334.26
377.686	333.13
378.066	317.08
378.447	333.13
378.827	328.38
379.208	334.26
379.588	318.66
379.968	329.06
380.349	316.86
380.729	337.19
381.109	350.53
381.489	342.17
381.87	340.58
382.25	337.42
382.63	350.08
383.01	336.29
383.39	356.4
383.77	339
384.15	351.66
384.53	352.79
384.91	338.78
385.29	351.43
385.67	344.88
386.049	380.36
386.429	338.55
386.809	356.18
387.189	367.48
387.568	362.28
387.948	328.83
388.328	379.23
388.707	348.04
389.087	342.39
389.466	381.04
389.846	355.95
390.225	369.74
390.605	383.52
390.984	387.81
391.363	358.44
391.743	369.51
392.122	368.38
392.501	373.13
392.881	377.19
393.26	370.19
393.639	371.54
394.018	359.79
394.397	372.67
394.776	366.12
395.155	396.18
395.534	389.62
395.913	388.72
396.292	401.37
396.671	388.49
397.05	395.05
397.429	388.49
397.808	400.7
398.186	393.69
398.565	409.96
398.944	391.43
399.323	419.45
399.701	418.77
400.08	398.44
400.458	411.54
400.837	419.45
401.215	439.11
401.594	431.43
401.972	439.34
402.351	419.9
402.729	458.32
403.107	435.5
403.486	471.43
403.864	427.14
404.242	441.82
404.62	455.61
404.999	446.12
405.377	449.96
405.755	470.52
406.133	443.63
406.511	476.17
406.889	475.95
407.267	478.66
407.645	503.29
408.023	472.33
408.401	493.12
408.779	493.12
409.156	496.74
409.534	486.12
409.912	490.64
410.29	537.64
410.667	511.2
411.045	508.49
411.422	504.42
411.8	529.51
412.178	537.19
412.555	545.32
412.933	581.93
413.31	586.91
413.687	578.32
414.065	581.93
414.442	590.75
414.819	597.3
415.197	633.46
415.574	610.18
415.951	644.31
416.328	658.77
416.705	658.32
417.082	638.2
417.46	650.63
417.837	665.77
418.214	684.76
418.591	692.44
418.967	679.33
419.344	701.03
419.721	692.89
420.098	719.11
420.475	715.94
420.852	717.3
421.228	746
421.605	731.99
421.982	748.26
422.358	780.35
422.735	775.6
423.111	763.17
423.488	801.14
423.864	825.09
424.241	834.13
424.617	805.66
424.994	815.83
425.37	826.22
425.746	842.27
426.123	853.34
426.499	846.79
426.875	864.19
427.251	905.54
427.627	882.94
428.003	908.7
428.379	917.29
428.756	929.04
429.132	919.1
429.507	979.44
429.883	960.91
430.259	987.12
430.635	974.69
431.011	990.28
431.387	1006.78
431.763	1016.72
432.138	1022.83
432.514	1026.22
432.89	1060.57
433.265	1057.18
433.641	1060.79
434.016	1101.69
434.392	1091.75
434.767	1131.75
435.143	1132.2
435.518	1167.91
435.894	1172.65
436.269	1159.32
436.644	1194.8
437.02	1213.78
437.395	1189.38
437.77	1204.97
438.145	1234.8
438.52	1279.09
438.895	1260.11
439.271	1267.57
439.646	1279.09
440.021	1277.96
440.395	1324.06
440.77	1286.55
441.145	1334.46
441.52	1339.43
441.895	1346.43
442.27	1339.88
442.645	1345.08
443.019	1369.71
443.394	1378.52
443.769	1394.34
444.143	1373.55
444.518	1406.77
444.892	1411.52
445.267	1415.81
445.641	1396.15
446.016	1414.23
446.39	1450.84
446.764	1464.85
447.139	1418.97
447.513	1445.87
447.887	1473.21
448.262	1468.92
448.636	1461.46
449.01	1476.15
449.384	1474.57
449.758	1524.73
450.132	1501.01
450.506	1507.11
450.88	1542.13
451.254	1485.19
451.628	1538.97
452.002	1529.71
452.376	1543.04
452.75	1570.16
453.123	1591.62
453.497	1578.29
453.871	1609.48
454.244	1629.14
454.618	1644.73
454.992	1615.13
455.365	1624.39
455.739	1680.66
456.112	1705.29
456.486	1684.96
456.859	1721.11
457.232	1767.21
457.606	1746.87
457.979	1748.91
458.352	1748.46
458.725	1797.72
459.099	1775.35
459.472	1831.17
459.845	1872.52
460.218	1859.87
460.591	1874.1
460.964	1873.65
461.337	1882.69
461.71	1899.87
462.083	1933.31
462.456	1938.73
462.829	1950.94
463.201	1965.17
463.574	1952.97
463.947	1995
464.32	2038.84
464.692	2043.59
465.065	2021.22
465.438	2057.6
465.81	2100.54
466.183	2071.84
466.555	2162.23
466.928	2126.07
467.3	2150.03
467.672	2186.41
468.045	2227.77
468.417	2204.49
468.789	2238.84
469.161	2270.7
469.534	2292.85
469.906	2313.87
470.278	2342.34
470.65	2347.31
471.022	2394.77
471.394	2395.9
471.766	2412.17
472.138	2419.4
472.51	2477.03
472.882	2491.26
473.253	2517.25
473.625	2543.24
473.997	2569.68
474.369	2604.93
474.74	2601.99
475.112	2649.45
475.484	2657.36
475.855	2741.65
476.227	2738.26
476.598	2803.57
476.97	2808.77
477.341	2879.27
477.713	2908.88
478.084	2901.42
478.455	2916.56
478.827	2945.94
479.198	3029.33
479.569	3072.04
479.94	3111.36
480.311	3105.03
480.682	3188.64
481.053	3213.73
481.424	3279.49
481.795	3263.22
482.166	3328.3
482.537	3343.9
482.908	3390.45
483.279	3433.16
483.65	3499.82
484.021	3515.64
484.391	3571.46
484.762	3578.24
485.133	3595.87
485.503	3610.55
485.874	3659.37
486.244	3691
486.615	3775.3
486.985	3808.52
487.356	3864.56
487.726	3881.73
488.097	3927.38
488.467	3945.69
488.837	3986.59
489.207	4034.27
489.578	4046.7
489.948	4089.64
490.318	4182.07
490.688	4133.25
491.058	4232.23
491.428	4286.24
491.798	4281.72
492.168	4337.77
492.538	4374.83
492.908	4403.08
493.278	4405.79
493.648	4466.35
494.017	4479.01
494.387	4513.81
494.757	4519.23
495.126	4608.04
495.496	4580.92
495.866	4608.72
496.235	4622.96
496.605	4666.12
496.974	4674.48
497.344	4690.07
497.713	4709.06
498.082	4787.47
498.452	4815.49
498.821	4820.24
499.19	4825.21
499.559	4883.06
499.928	4893.46
500.298	4893.46
500.667	4968.26
501.036	4926.9
501.405	4996.96
501.774	4980.24
502.143	5023.4
502.512	5032.44
502.88	5039.67
503.249	5072.44
503.618	5065.21
503.987	5052.78
504.356	5150.4
504.724	5144.75
505.093	5134.36
505.462	5145.66
505.83	5187.46
506.199	5257.97
506.567	5252.32
506.936	5244.41
507.304	5293.45
507.672	5361.24
508.041	5325.31
508.409	5368.7
508.777	5329.61
509.145	5422.94
509.514	5424.29
509.882	5410.51
510.25	5423.16
510.618	5454.8
510.986	5493.22
511.354	5483.73
511.722	5547
512.09	5587.45
512.458	5612.08
512.826	5591.07
513.193	5643.27
513.561	5637.39
513.929	5642.82
514.297	5703.38
514.664	5749.71
515.032	5717.62
515.4	5809.59
515.767	5753.78
516.135	5763.72
516.502	5727.79
516.869	5802.14
517.237	5831.06
517.604	5804.4
517.972	5855.02
518.339	5864.28
518.706	5895.47
519.073	5875.81
519.44	5889.82
519.808	5957.16
520.175	5964.62
520.542	6020.89
520.909	5998.06
521.276	6046.87
521.643	6091.85
522.009	6092.52
522.376	6098.62
522.743	6124.61
523.11	6152.63
523.477	6233.76
523.843	6225.18
524.21	6252.75
524.577	6358.51
524.943	6381.56
525.31	6340.43
525.676	6348.34
526.043	6440.31
526.409	6384.95
526.776	6491.16
527.142	6452.97
527.508	6492.06
527.874	6526.41
528.241	6633.98
528.607	6577.26
528.973	6591.49
529.339	6629.68
529.705	6719.63
530.071	6673.53
530.437	6741.55
530.803	6797.14
531.169	6841.2
531.535	6819.51
531.901	6822
532.267	6857.25
532.632	6873.75
532.998	6884.14
533.364	6919.85
533.73	6961.2
534.095	6970.01
534.461	6939.05
534.826	7093.4
535.192	7056.34
535.557	7101.99
535.923	7093.4
536.288	7123
536.653	7150.57
537.019	7071.71
537.384	7171.37
537.749	7128.2
538.114	7201.19
538.479	7212.95
538.845	7238.71
539.21	7174.75
539.575	7279.84
539.94	7224.47
540.305	7349.89
540.67	7342.43
541.034	7342.66
541.399	7385.14
541.764	7428.08
542.129	7370.91
542.494	7372.49
542.858	7513.95
543.223	7488.87
543.587	7546.04
543.952	7519.15
544.316	7522.54
544.681	7614.74
545.045	7583.33
545.41	7615.87
545.774	7591.24
546.138	7672.14
546.503	7643.9
546.867	7699.26
547.231	7738.58
547.595	7735.64
547.959	7795.98
548.324	7772.93
548.688	7783.78
549.052	7805.92
549.416	7836.43
549.779	7880.95
550.143	7849.31
550.507	7914.62
550.871	7903.78
551.235	7967.5
551.599	7975.64
551.962	7942.87
552.326	7964.11
552.689	7986.03
553.053	7968.86
553.417	8014.73
553.78	8085.92
554.143	8062.64
554.507	8062.87
554.87	8120.27
555.234	8130.66
555.597	8111.23
555.96	8135.18
556.323	8154.62
556.686	8206.82
557.05	8313.71
557.413	8235.29
557.776	8247.72
558.139	8298.79
558.502	8272.13
558.865	8298.57
559.228	8370.43
559.59	8365.23
559.953	8352.35
560.316	8466.25
560.679	8418.11
561.041	8506.92
561.404	8494.04
561.767	8505.79
562.129	8492.01
562.492	8590.99
562.854	8596.64
563.217	8629.41
563.579	8635.96
563.941	8664.89
564.304	8740.82
564.666	8690.42
565.028	8759.8
565.39	8736.52
565.753	8868.95
566.115	8840.7
566.477	8877.53
566.839	8877.53
567.201	8916.86
567.563	8901.26
567.925	9032.33
568.287	8971.77
568.648	8958.21
569.01	9104.2
569.372	9019.45
569.734	9071.2
570.095	9201.82
570.457	9197.53
570.819	9250.63
571.18	9235.72
571.542	9320.01
571.903	9297.64
572.265	9318.2
572.626	9370.18
572.987	9399.78
573.349	9390.97
573.71	9463.96
574.071	9517.74
574.432	9618.53
574.794	9710.28
575.155	9696.04
575.516	9682.03
575.877	9738.98
576.238	9814.46
576.599	9868.47
576.96	9841.8
577.32	9956.83
577.681	9997.73
578.042	10092.64
578.403	10111.63
578.763	10168.57
579.124	10180.78
579.485	10249.48
579.845	10379.19
580.206	10403.82
580.566	10565.85
580.927	10557.26
581.287	10712.29
581.648	10605.4
582.008	10798.61
582.368	10845.39
582.728	10968.55
583.089	11045.16
583.449	11182.56
583.809	11237.7
584.169	11378.03
584.529	11375.1
584.889	11566.28
585.249	11598.59
585.609	11726.05
585.969	11922.65
586.329	12033.16
586.688	12098.02
587.048	12177.56
587.408	12425.69
587.768	12474.5
588.127	12544.33
588.487	12674.27
588.846	12836.53
589.206	12893.7
589.565	13047.37
589.925	13253.69
590.284	13352.45
590.643	13395.38
591.003	13552.21
591.362	13833.56
591.721	13909.27
592.08	14033.11
592.44	14210.95
592.799	14324.4
593.158	14400.33
593.517	14556.48
593.876	14724.61
594.235	14833.54
594.593	15028.11
594.952	15090.93
595.311	15130.93
595.67	15350.36
596.029	15635.78
596.387	15709.22
596.746	15865.6
597.104	15871.93
597.463	16033.96
597.822	16204.12
598.18	16270.11
598.538	16406.6
598.897	16616.99
599.255	16584
599.613	16929.07
599.972	16953.93
600.33	17016.76
600.688	17144.89
601.046	17297.2
601.404	17485.67
601.762	17508.72
602.12	17727.92
602.478	17854.93
602.836	17912.33
603.194	17968.14
603.552	17971.31
603.91	18085.88
604.268	18367
604.625	18356.38
604.983	18471.41
605.341	18451.97
605.698	18649.26
606.056	18823.26
606.413	18849.7
606.771	18937.84
607.128	19079.3
607.485	19089.02
607.843	19119.07
608.2	19271.84
608.557	19431.83
608.914	19371.72
609.272	19577.82
609.629	19618.72
609.986	19832.5
610.343	19602
610.7	20007.86
611.057	19945.27
611.414	20008.54
611.771	20011.93
612.127	20172.61
612.484	20237.46
612.841	20309.78
613.198	20296.67
613.554	20378.93
613.911	20519.26
614.267	20556.1
614.624	20632.71
614.98	20726.71
615.337	20785.47
615.693	20883.77
616.05	20870.67
616.406	21086.48
616.762	20992.7
617.118	21044.22
617.475	21060.27
617.831	21175.06
618.187	21244.22
618.543	21167.16
618.899	21447.6
619.255	21383.42
619.611	21508.84
619.967	21623.19
620.323	21589.52
620.678	21595.62
621.034	21494.6
621.39	21557.2
621.746	21669.97
622.101	21865.44
622.457	21725.56
622.812	21752.9
623.168	21878.78
623.523	21894.59
623.879	21907.7
624.234	21834.71
624.589	21892.56
624.945	21900.7
625.3	22086.45
625.655	21964.65
626.01	22053.69
626.365	22058.21
626.72	22048.94
627.075	22031.77
627.43	22096.85
627.785	21992.67
628.14	22110.86
628.495	22149.73
628.85	22072.22
629.205	22011.65
629.559	22211.87
629.914	22121.03
630.269	22109.73
630.623	22078.09
630.978	21966.46
631.332	22198.09
631.687	22097.98
632.041	22057.3
632.396	22187.92
632.75	22173.46
633.104	22083.29
633.459	21976.4
633.813	21930.75
634.167	22019.79
634.521	21984.99
634.875	21962.39
635.229	21971.88
635.583	21918.1
635.937	21860.47
636.291	21932.33
636.645	21986.12
636.999	21828.61
637.352	21921.71
637.706	21887.14
638.06	22001.03
638.413	21877.19
638.767	21962.16
639.121	21815.05
639.474	21703.19
639.828	21780.02
640.181	21798.33
640.534	21867.7
640.888	21832.22
641.241	21698.67
641.594	21778.66
641.947	21843.52
642.301	21825.22
642.654	21836.97
643.007	21847.82
643.36	21757.87
643.713	21718.33
644.066	21848.49
644.419	21690.76
644.771	21533.02
645.124	21336.87
645.477	21357.43
645.83	21265.91
646.182	21113.6
646.535	21086.71
646.888	21072.02
647.24	20940.72
647.593	21123.31
647.945	21166.25
648.298	21022.07
648.65	21025.46
649.002	20949.08
649.355	21051.45
649.707	21120.15
650.059	21189.3
650.411	21404.44
650.763	21476.53
651.115	21629.06
651.467	21635.62
651.819	21562.4
652.171	21517.2
652.523	21512.91
652.875	21545.45
653.227	21391.56
653.578	21672.45
653.93	21509.75
654.282	21494.38
654.633	21372.35
654.985	21533.02
655.337	21554.94
655.688	21593.13
656.039	21645.33
656.391	21495.06
656.742	21527.6
657.094	21537.32
657.445	21567.82
657.796	21522.17
658.147	21518.78
658.498	21517.2
658.849	21613.25
659.2	21573.25
659.551	21523.76
659.902	21593.58
660.253	21509.97
660.604	21559.24
660.955	21518.33
661.306	21608.27
661.656	21516.07
662.007	21586.35
662.358	21625.9
662.708	21554.26
663.059	21575.28
663.409	21419.13
663.76	21812.79
664.11	21668.16
664.461	21689.63
664.811	21642.62
665.161	21689.63
665.511	21730.3
665.862	21616.86
666.212	21645.79
666.562	21657.31
666.912	21649.63
667.262	21623.41
667.612	21630.65
667.962	21657.54
668.312	21585.9
668.662	21743.19
669.011	21672.23
669.361	21624.32
669.711	21590.42
670.06	21590.2
670.41	21498.22
670.76	21556.98
671.109	21619.35
671.459	21586.13
671.808	21567.37
672.157	21504.1
672.507	21414.61
672.856	21458
673.205	21505.23
673.554	21533.25
673.904	21393.14
674.253	21553.81
674.602	21487.37
674.951	21159.7
675.3	21005.8
675.649	21446.24
675.998	21342.97
676.346	21343.87
676.695	21477.43
677.044	21272.01
677.393	21345.68
677.741	21320.15
678.09	21337.09
678.438	21151.34
678.787	21274.95
679.135	21208.06
679.484	21018.91
679.832	21167.61
680.181	21106.82
680.529	21083.54
680.877	20908.86
681.225	21076.99
681.573	21119.92
681.922	21006.48
682.27	20818.46
682.618	20942.3
682.966	20826.6
683.314	20891.91
683.661	20837.45
684.009	20790.67
684.357	20668.19
684.705	20643.33
685.053	20708.86
685.4	20630.22
685.748	20463.9
686.095	20535.76
686.443	20409.21
686.79	20400.85
687.138	20460.28
687.485	20304.13
687.832	20324.24
688.18	20266.39
688.527	20161.31
688.874	20097.35
689.221	20187.97
689.568	20103.23
689.915	20002.89
690.262	19940.52
690.609	19940.52
690.956	19781.66
691.303	19750.24
691.65	19695.78
691.997	19625.05
692.344	19641.09
692.69	19520.19
693.037	19524.71
693.383	19460.53
693.73	19430.25
694.077	19215.12
694.423	19286.3
694.769	19181.67
695.116	19238.84
695.462	19210.82
695.808	19155
696.155	19071.39
696.501	18965.63
696.847	18924.73
697.193	18804.51
697.539	18891.06
697.885	18686.09
698.231	18619.43
698.577	18648.13
698.923	18623.04
699.269	18504.4
699.614	18318.19
699.96	18385.99
700.306	18248.14
700.651	18249.27
700.997	18225.99
701.342	18092.89
701.688	18150.74
702.033	18151.42
702.379	18008.37
702.724	17938.09
703.069	18082.49
703.415	17703.74
703.76	17769.05
704.105	17689.51
704.45	17743.29
704.795	17597.76
705.14	17493.13
705.485	17475.5
705.83	17359.57
706.175	17426.01
706.52	17361.38
706.865	17320.25
707.209	17261.72
707.554	17217.2
707.899	17259.91
708.243	17068.96
708.588	17084.1
708.932	16897.21
709.277	16964.78
709.621	16993.25
709.966	16866.7
710.31	16809.08
710.654	16731.34
710.998	16742.41
711.342	16680.95
711.687	16696.54
712.031	16637.78
712.375	16492.02
712.719	16621.51
713.063	16486.37
713.407	16542.64
713.75	16419.03
714.094	16477.34
714.438	16299.03
714.782	16356.21
715.125	16252.03
715.469	16292.93
715.812	16240.96
716.156	16172.71
716.499	16130.68
716.843	16233.73
717.186	16031.02
717.53	16146.5
717.873	16064.69
718.216	16062.88
718.559	15998.48
718.902	15870.35
719.246	15979.5
719.589	15911.93
719.932	15869.22
720.275	15893.62
720.617	15837.58
720.96	15781.08
721.303	15819.05
721.646	15970
721.989	15801.87
722.331	15734.98
722.674	15735.21
723.016	15745.15
723.359	15722.78
723.701	15733.4
724.044	15619.28
724.386	15574.08
724.729	15576.12
725.071	15499.51
725.413	15555.1
725.755	15578.83
726.097	15458.6
726.439	15442.56
726.782	15460.86
727.124	15533.63
727.465	15465.38
727.807	15370.25
728.149	15425.61
728.491	15400.53
728.833	15531.6
729.175	15370.7
729.516	15351.26
729.858	15409.57
730.199	15449.57
730.541	15350.59
730.882	15317.82
731.224	15363.01
731.565	15409.79
731.906	15275.78
732.248	15275.33
732.589	15259.97
732.93	15220.19
733.271	15175
733.612	15276.91
733.953	15265.84
734.294	15217.03
734.635	15184.94
734.976	15288.67
735.317	15206.86
735.658	15190.82
735.999	15224.03
736.339	15203.47
736.68	15284.15
737.021	15217.93
737.361	15118.5
737.702	15230.36
738.042	15193.75
738.383	15273.52
738.723	15320.76
739.063	15236.92
739.404	15237.37
739.744	15292.96
740.084	15215.9
740.424	15231.04
740.764	15246.86
741.104	15327.53
741.444	15259.97
741.784	15292.51
742.124	15263.36
742.464	15308.55
742.804	15279.17
743.143	15231.04
743.483	15375.67
743.823	15227.65
744.162	15378.15
744.502	15353.75
744.841	15344.94
745.181	15480.07
745.52	15443.24
745.86	15545.61
746.199	15515.78
746.538	15581.99
746.877	15646.4
747.216	15647.53
747.556	15713.97
747.895	15709.67
748.234	15739.5
748.573	15896.33
748.911	15903.11
749.25	15931.59
749.589	15937.91
749.928	16142.88
750.267	16094.52
750.605	16258.13
750.944	16235.99
751.283	16259.71
751.621	16376.09
751.96	16414.96
752.298	16476.43
752.636	16638.69
752.975	16612.25
753.313	16665.58
753.651	16863.09
753.989	16972.01
754.327	17022.18
754.666	17074.38
755.004	17178.56
755.342	17236.86
755.679	17366.35
756.017	17388.95
756.355	17608.83
756.693	17647.25
757.031	17771.54
757.368	17886.11
757.706	17869.84
758.044	18089.95
758.381	18205.88
758.719	18190.28
759.056	18365.87
759.394	18453.1
759.731	18404.97
760.068	18595.92
760.405	18693.77
760.743	18743.04
761.08	18922.02
761.417	18891.96
761.754	19044.27
762.091	19101.45
762.428	19334.89
762.765	19192.97
763.102	19358.39
763.438	19466.64
763.775	19438.39
764.112	19585.05
764.449	19788.43
764.785	19686.29
765.122	19756.34
765.458	19777.14
765.795	19825.5
766.131	20014.19
766.467	20052.83
766.804	19957.24
767.14	19999.28
767.476	20077.01
767.812	20145.94
768.148	20243.34
768.485	20202.43
768.821	20177.12
769.157	20242.66
769.492	20225.71
769.828	20389.32
770.164	20237.46
770.5	20183.45
770.836	20305.03
771.171	20180.97
771.507	20347.97
771.842	20171.48
772.178	20233.62
772.513	20275.43
772.849	20345.03
773.184	20254.18
773.519	20370.11
773.855	20276.33
774.19	20234.52
774.525	20216.22
774.86	20302.77
775.195	20325.37
775.53	20291.7
775.865	20192.04
776.2	20078.37
776.535	19987.75
776.87	20108.88
777.205	20006.73
777.539	20060.07
777.874	20139.61
778.209	19935.32
778.543	19916.11
778.878	19821.65
779.212	19929.9
779.547	19885.61
779.881	19827.76
780.215	19738.04
780.55	19889.67
780.884	19711.6
781.218	19552.73
781.552	19672.73
781.886	19553.41
782.22	19466.18
782.554	19390.93
782.888	19316.81
783.222	19374.66
783.556	19228.9
783.889	19301.22
784.223	19023.93
784.557	19088.79
784.89	19103.03
785.224	18938.51
785.557	18986.87
785.891	18979.42
786.224	18802.7
786.558	18956.14
786.891	18729.48
787.224	18663.49
787.557	18619.2
787.891	18614.91
788.224	18654.23
788.557	18646.09
788.89	18567.45
789.223	18584.17
789.556	18457.85
789.888	18338.53
790.221	18334.46
790.554	18162.26
790.887	18192.54
791.219	18140.12
791.552	18018.31
791.884	18031.87
792.217	18023.51
792.549	17909.84
792.882	17890.63
793.214	17786.68
793.546	17802.05
793.879	17639.56
794.211	17686.12
794.543	17664.87
794.875	17605.44
795.207	17532.67
795.539	17548.49
795.871	17573.8
796.203	17378.33
796.535	17322.74
796.867	17219.46
797.198	17209.07
797.53	17187.37
797.862	17102.18
798.193	17118.9
798.525	17058.34
798.856	16948.74
799.188	16795.52
799.519	16850.88
799.85	16751.45
800.182	16754.39
800.513	16694.5
800.844	16665.8
801.175	16654.96
801.506	16685.24
801.837	16615.64
802.168	16458.35
802.499	16473.27
802.83	16367.96
803.161	16338.36
803.491	16407.28
803.822	16297.45
804.153	16244.8
804.483	16162.32
804.814	16162.77
805.145	16100.85
805.475	16033.05
805.805	15962.09
806.136	15976.56
806.466	15901.98
806.796	15889.1
807.126	15825.6
807.457	15718.71
807.787	15724.13
808.117	15665.61
808.447	15628.32
808.777	15707.64
809.107	15681.2
809.436	15591.26
809.766	15616.57
810.096	15550.58
810.426	15428.32
810.755	15460.64
811.085	15392.84
811.414	15379.74
811.744	15220.19
812.073	15268.55
812.403	15255.67
812.732	15210.7
813.061	15144.71
813.39	15074.21
813.719	14965.28
814.049	15008
814.378	15031.27
814.707	14875.12
815.036	14916.92
815.365	14858.17
815.693	14767.32
816.022	14872.86
816.351	14778.4
816.68	14673.77
817.008	14841.67
817.337	14521.91
817.665	14591.73
817.994	14629.93
818.322	14536.37
818.651	14407.33
818.979	14446.43
819.307	14504.28
819.636	14450.27
819.964	14355.13
820.292	14434.68
820.62	14415.92
820.948	14388.12
821.276	14372.08
821.604	14295.02
821.932	14316.04
822.259	14464.73
822.587	14291.86
822.915	14237.39
823.243	14362.59
823.57	14211.63
823.898	14306.77
824.225	14204.63
824.553	14245.53
824.88	14262.25
825.207	14266.77
825.535	14240.33
825.862	14352.87
826.189	14222.25
826.516	14311.29
826.843	14408.01
827.17	14351.06
827.497	14292.76
827.824	14402.59
828.151	14411.17
828.478	14321.01
828.805	14308.8
829.131	14322.36
829.458	14224.06
829.785	14178.41
830.111	14273.33
830.438	14302.25
830.764	14235.59
831.09	14300.67
831.417	14162.82
831.743	14303.15
832.069	14199.88
832.395	14167.34
832.722	14222.93
833.048	14184.51
833.374	14169.15
833.7	14150.39
834.026	14064.52
834.351	14208.69
834.677	14159.88
835.003	14099.32
835.329	14094.8
835.654	14015.03
835.98	14038.98
836.306	14067
836.631	13999.21
836.956	14031.75
837.282	13991.07
837.607	13988.14
837.932	14009.6
838.258	13924.63
838.583	14018.64
838.908	13850.51
839.233	13818.2
839.558	13792.43
839.883	13822.49
840.208	13732.77
840.533	13739.1
840.858	13725.77
841.182	13684.64
841.507	13747.46
841.832	13636.96
842.156	13694.36
842.481	13556.96
842.805	13523.74
843.13	13511.54
843.454	13558.09
843.778	13496.4
844.103	13416.4
844.427	13424.99
844.751	13347.47
845.075	13330.98
845.399	13365.78
845.723	13218.66
846.047	13226.57
846.371	13222.28
846.695	13155.84
847.019	13015.05
847.343	12987.03
847.666	12933.25
847.99	12851.44
848.313	12899.12
848.637	12718.79
848.96	12730.54
849.284	12660.03
849.607	12568.29
849.931	12563.77
850.254	12507.27
850.577	12486.93
850.9	12377.1
851.223	12319.25
851.546	12314.28
851.869	12202.19
852.192	12284.68
852.515	12172.59
852.838	12050.11
853.161	12144.12
853.483	12108.18
853.806	11967.85
854.129	11930.34
854.451	11993.84
854.774	11914.74
855.096	11870.22
855.419	11871.81
855.741	11778.7
856.063	11711.36
856.385	11703
856.708	11650.57
857.03	11611.7
857.352	11569.22
857.674	11573.28
857.996	11475.66
858.318	11437.69
858.64	11525.37
858.961	11422.78
859.283	11357.92
859.605	11373.74
859.926	11367.41
860.248	11372.61
860.57	11313.18
860.891	11262.78
861.212	11166.51
861.534	11211.71
861.855	11138.72
862.176	11204.03
862.498	11208.1
862.819	11178.27
863.14	11111.6
863.461	11027.53
863.782	11055.1
864.103	11040.64
864.424	10944.15
864.745	11042.22
865.065	10978.95
865.386	10858.27
865.707	10841.55
866.027	10935.11
866.348	10855.34
866.668	10872.51
866.989	10864.38
867.309	10759.97
867.63	10817.6
867.95	10788.45
868.27	10670.26
868.59	10645.62
868.91	10711.16
869.23	10715
869.55	10652.18
869.87	10712.51
870.19	10590.03
870.51	10619.86
870.83	10628.45
871.15	10601.56
871.469	10581.44
871.789	10572.86
872.109	10548
872.428	10519.75
872.748	10544.16
873.067	10492.63
873.386	10527.66
873.706	10510.94
874.025	10433.2
874.344	10435.23
874.663	10395.24
874.982	10380.09
875.301	10411.96
875.62	10406.99
875.939	10305.07
876.258	10370.6
876.577	10258.29
876.896	10269.36
877.214	10299.42
877.533	10275.92
877.852	10283.37
878.17	10277.27
878.489	10159.99
878.807	10266.65
879.125	10105.98
879.444	10148.46
879.762	10088.8
880.08	10112.76
880.398	10043.61
880.716	10107.79
881.034	9999.31
881.352	10037.28
881.67	9961.57
881.988	10051.29
882.306	9973.55
882.624	9959.31
882.941	9905.08
883.259	9814.46
883.577	9881.58
883.894	9844.52
884.212	9866.89
884.529	9849.94
884.846	9760
885.164	9764.52
885.481	9758.42
885.798	9730.17
886.115	9677.29
886.432	9742.14
886.75	9692.88
887.067	9670.96
887.383	9597.74
887.7	9595.03
888.017	9614.01
888.334	9607.23
888.651	9554.58
888.967	9495.6
889.284	9457.18
889.6	9485.2
889.917	9359.78
890.233	9421.93
890.55	9348.71
890.866	9353.68
891.182	9278.2
891.498	9256.51
891.815	9284.98
892.131	9179
892.447	9160.92
892.763	9112.78
893.079	9196.4
893.395	9074.82
893.71	9110.75
894.026	9009.28
894.342	9044.76
894.657	8924.09
894.973	8933.35
895.289	8921.6
895.604	8994.14
895.92	8881.38
896.235	8788.27
896.55	8797.54
896.865	8736.07
897.181	8743.08
897.496	8762.96
897.811	8695.39
898.126	8606.13
898.441	8661.72
898.756	8562.74
899.071	8612.23
899.386	8591.44
899.7	8490.43
900.015	8524.1
900.33	8362.75
900.644	8383.54
900.959	8375.63
901.273	8419.69
901.588	8337.66
901.902	8335.4
902.216	8266.93
902.531	8231
902.845	8229.64
903.159	8160.94
903.473	8144.22
903.787	8058.57
904.101	8077.33
904.415	8056.77
904.729	8042.08
905.042	7944.45
905.356	7944.9
905.67	7927.5
905.984	7965.92
906.297	7906.71
906.611	7887.05
906.924	7807.96
907.237	7788.07
907.551	7805.92
907.864	7780.61
908.177	7718.47
908.491	7699.26
908.804	7664.69
909.117	7658.81
909.43	7549.43
909.743	7561.19
910.056	7509.89
910.368	7511.47
910.681	7546.04
910.994	7471.24
911.307	7401.87
911.619	7354.86
911.932	7364.58
912.244	7297.01
912.557	7298.82
912.869	7231.48
913.181	7219.27
913.494	7202.1
913.806	7132.95
914.118	7127.98
914.43	7076.9
914.742	7091.37
915.054	7028.32
915.366	7040.97
915.678	6977.02
915.99	6937.02
916.302	6915.1
916.613	6867.42
916.925	6852.28
917.236	6863.35
917.548	6800.3
917.859	6826.97
918.171	6777.25
918.482	6723.69
918.794	6694.77
919.105	6694.77
919.416	6674.43
919.727	6627.65
920.038	6627.88
920.349	6557.37
920.66	6540.65
920.971	6498.16
921.282	6458.84
921.593	6437.15
921.903	6360.09
922.214	6378.62
922.525	6361.22
922.835	6362.57
923.146	6316.25
923.456	6285.06
923.767	6291.84
924.077	6287.32
924.387	6199.64
924.697	6235.12
925.008	6161.22
925.318	6144.95
925.628	6084.84
925.938	6090.72
926.248	6073.77
926.558	6023.82
926.867	6013.2
927.177	5989.25
927.487	5942.47
927.796	5925.97
928.106	5925.07
928.416	5851.85
928.725	5847.11
929.034	5822.7
929.344	5800.33
929.653	5842.59
929.962	5788.12
930.271	5744.51
930.581	5717.39
930.89	5711.74
931.199	5684.62
931.508	5698.86
931.817	5664.74
932.125	5581.12
932.434	5579.54
932.743	5582.93
933.051	5508.13
933.36	5492.54
933.669	5439.89
933.977	5476.27
934.286	5400.34
934.594	5427.91
934.902	5347.91
935.21	5311.53
935.519	5328.7
935.827	5344.97
936.135	5318.53
936.443	5217.29
936.751	5218.42
937.059	5218.42
937.367	5198.31
937.674	5163.51
937.982	5124.87
938.29	5123.74
938.597	5148.59
938.905	5061.82
939.213	5055.49
939.52	5015.72
939.827	5090.06
940.135	4972.1
940.442	4990.18
940.749	4963.06
941.056	4997.64
941.363	4878.09
941.67	4896.85
941.977	4859.11
942.284	4823.4
942.591	4840.58
942.898	4808.94
943.205	4803.97
943.511	4783.41
943.818	4731.66
944.125	4714.71
944.431	4709.96
944.738	4710.19
945.044	4673.58
945.35	4664.54
945.657	4607.82
945.963	4617.99
946.269	4535.28
946.575	4571.21
946.881	4574.82
947.187	4455.96
947.493	4463.41
947.799	4479.01
948.105	4438.56
948.41	4420.7
948.716	4424.32
949.022	4415.05
949.327	4419.35
949.633	4338.22
949.938	4381.16
950.244	4347.03
950.549	4301.16
950.854	4278.79
951.16	4286.92
951.465	4235.85
951.77	4214.83
952.075	4202.86
952.38	4229.52
952.685	4210.76
952.99	4110.43
953.294	4152.46
953.599	4162.63
953.904	4118.34
954.209	4089.41
954.513	4067.04
954.818	4008.96
955.122	4068.62
955.426	4016.42
955.731	4002.41
956.035	3966.7
956.339	3966.03
956.643	3997.89
956.948	3916.99
957.252	3931
957.556	3933.03
957.86	3892.58
958.163	3885.12
958.467	3860.72
958.771	3836.09
959.075	3812.58
959.378	3780.95
959.682	3810.1
959.985	3784.79
960.289	3756.77
960.592	3730.55
960.896	3675.86
961.199	3718.8
961.502	3699.59
961.805	3662.98
962.108	3653.49
962.411	3653.72
962.714	3672.25
963.017	3637.9
963.32	3626.37
963.623	3573.49
963.926	3570.56
964.228	3571.91
964.531	3544.57
964.833	3552.93
965.136	3472.71
965.438	3488.52
965.741	3486.94
966.043	3438.58
966.345	3425.02
966.648	3412.82
966.95	3377.57
967.252	3372.82
967.554	3366.49
967.856	3369.66
968.158	3308.42
968.46	3355.87
968.761	3326.95
969.063	3318.81
969.365	3288.08
969.666	3290.34
969.968	3280.39
970.269	3252.37
970.571	3254.41
970.872	3259.6
971.174	3202.88
971.475	3188.87
971.776	3189.1
972.077	3174.86
972.378	3164.01
972.679	3148.42
972.98	3158.82
973.281	3110.68
973.582	3114.75
973.883	3111.81
974.183	3056.22
974.484	3097.35
974.785	3017.35
975.085	3030.46
975.386	3030.01
975.686	3008.54
975.986	3013.06
976.287	2974.64
976.587	2964.7
976.887	2973.74
977.187	2919.73
977.487	2924.02
977.787	2917.92
978.087	2895.55
978.387	2888.77
978.687	2900.52
978.987	2898.26
979.286	2829.56
979.586	2863.23
979.885	2816.9
980.185	2809.9
980.484	2775.77
980.784	2766.51
981.083	2777.81
981.382	2796.56
981.682	2772.16
981.981	2766.74
982.28	2734.87
982.579	2685.61
982.878	2723.57
983.177	2694.42
983.475	2693.06
983.774	2662.11
984.073	2644.25
984.372	2623.24
984.67	2622.33
984.969	2619.85
985.267	2606.06
985.566	2633.41
985.864	2597.25
986.162	2586.63
986.461	2510.02
986.759	2542.33
987.057	2513.86
987.355	2544.59
987.653	2494.2
987.951	2521.32
988.249	2484.93
988.547	2486.74
988.844	2481.32
989.142	2453.3
989.44	2425.28
989.737	2415.33
990.035	2423.47
990.332	2444.48
990.63	2420.98
990.927	2346.63
991.224	2391.6
991.521	2360.87
991.819	2363.13
992.116	2364.26
992.413	2329.23
992.71	2310.7
993.006	2329.23
993.303	2330.81
993.6	2316.58
993.897	2262.57
994.193	2275.22
994.49	2248.56
994.787	2265.51
995.083	2248.56
995.379	2218.28
995.676	2223.47
995.972	2175.11
996.268	2194.55
996.565	2196.81
996.861	2206.07
997.157	2147.32
997.453	2133.08
997.749	2150.71
998.044	2107.77
998.34	2103.93
998.636	2109.35
998.932	2105.51
999.227	2110.48
999.523	2090.82
999.818	2090.82
1000.114	2085.62
1000.409	2046.53
1000.704	2021.44
1001	2024.38
1001.295	1999.52
1001.59	1992.52
1001.885	1980.32
1002.18	1986.64
1002.475	1941.67
1002.77	1952.97
1003.065	1976.25
1003.359	1935.34
1003.654	1933.08
1003.949	1889.02
1004.243	1911.39
1004.538	1886.08
1004.832	1880.66
1005.127	1870.71
1005.421	1900.32
1005.715	1836.82
1006.009	1869.13
1006.304	1831.39
1006.598	1807.66
1006.892	1845.18
1007.186	1812.41
1007.48	1784.39
1007.773	1764.28
1008.067	1762.02
1008.361	1784.39
1008.655	1725.18
1008.948	1747.78
1009.242	1724.28
1009.535	1729.02
1009.829	1708.68
1010.122	1696.03
1010.415	1703.71
1010.708	1650.38
1011.001	1661.23
1011.295	1657.84
1011.588	1673.43
1011.881	1660.55
1012.173	1638.63
1012.466	1649.7
1012.759	1603.15
1013.052	1625.3
1013.344	1574.45
1013.637	1590.27
1013.93	1572.42
1014.222	1584.39
1014.514	1579.2
1014.807	1546.43
1015.099	1505.53
1015.391	1512.3
1015.683	1532.42
1015.976	1538.52
1016.268	1511.4
1016.56	1504.17
1016.851	1485.41
1017.143	1447.9
1017.435	1511.17
1017.727	1462.59
1018.018	1456.94
1018.31	1437.28
1018.602	1458.07
1018.893	1392.99
1019.185	1400.9
1019.476	1394.79
1019.767	1388.92
1020.058	1400.22
1020.35	1407.67
1020.641	1349.37
1020.932	1366.77
1021.223	1357.28
1021.514	1338.75
1021.804	1346.66
1022.095	1355.7
1022.386	1310.05
1022.677	1327.68
1022.967	1319.32
1023.258	1288.13
1023.548	1291.75
1023.839	1291.29
1024.129	1268.7
1024.419	1277.51
1024.709	1262.82
1025	1236.83
1025.29	1240.22
1025.58	1213.1
1025.87	1199.77
1026.16	1182.6
1026.449	1225.31
1026.739	1174.23
1027.029	1222.59
1027.319	1179.88
1027.608	1185.08
1027.898	1153.44
1028.187	1154.35
1028.477	1164.29
1028.766	1148.02
1029.055	1140.56
1029.344	1124.07
1029.634	1108.25
1029.923	1096.5
1030.212	1103.05
1030.501	1117.06
1030.79	1106.44
1031.078	1074.12
1031.367	1071.64
1031.656	1072.54
1031.945	1064.63
1032.233	1062.37
1032.522	1059.89
1032.81	1050.17
1033.099	1056.27
1033.387	1007.46
1033.675	1035.93
1033.963	1024.86
1034.251	1019.89
1034.54	1006.56
1034.828	967.46
1035.116	988.25
1035.403	991.19
1035.691	980.12
1035.979	969.27
1036.267	961.36
1036.554	955.94
1036.842	957.74
1037.129	966.56
1037.417	967.46
1037.704	947.8
1037.992	924.07
1038.279	915.03
1038.566	914.35
1038.853	914.35
1039.14	914.35
