Data from hue_320_FLMS001491_25.txt Node
Date: Mon Feb 06 15:46:58 GMT 2017
User: dcchb
Spectrometer: FLMS00149
Trigger mode: 0
Integration Time (sec): 2.000000E-2
Scans to average: 10
Electric dark correction enabled: true
Nonlinearity correction enabled: false
Boxcar width: 0
XAxis mode: Wavelengths
Number of Pixels in Spectrum: 2048
>>>>>Begin Spectral Data<<<<<
341.393	-17.71
341.776	-17.71
342.16	-17.71
342.543	-61.33
342.927	-62.46
343.31	-63.36
343.693	-62
344.077	-60.87
344.46	-49.8
344.843	-51.83
345.226	-56.81
345.61	-57.26
345.993	-4.38
346.376	-8.22
346.759	1.95
347.142	19.35
347.525	28.62
347.908	57.31
348.291	95.28
348.674	102.06
349.057	109.97
349.44	106.35
349.823	121.72
350.206	179.8
350.588	196.29
350.971	209.4
351.354	216.18
351.737	243.98
352.119	236.97
352.502	231.55
352.884	262.06
353.267	287.59
353.65	287.82
354.032	302.05
354.414	276.97
354.797	312.45
355.179	319.45
355.562	316.97
355.944	318.78
356.326	306.57
356.709	322.62
357.091	338.66
357.473	337.31
357.855	342.73
358.238	361.26
358.62	314.71
359.002	325.78
359.384	330.3
359.766	339.57
360.148	327.82
360.53	320.36
360.912	350.19
361.294	340.7
361.676	323.52
362.057	317.87
362.439	328.27
362.821	337.31
363.203	318.32
363.584	317.42
363.966	317.87
364.348	324.43
364.729	321.04
365.111	312
365.493	315.39
365.874	308.61
366.256	306.12
366.637	304.54
367.019	296.86
367.4	306.12
367.781	298.89
368.163	305.9
368.544	319.68
368.925	297.31
369.306	306.12
369.688	318.32
370.069	303.18
370.45	329.17
370.831	321.04
371.212	309.74
371.593	322.62
371.974	307.7
372.355	301.38
372.736	308.83
373.117	310.42
373.498	303.18
373.879	340.25
374.26	312.9
374.641	302.73
375.021	301.38
375.402	295.05
375.783	322.17
376.163	319.23
376.544	334.37
376.925	330.3
377.305	348.15
377.686	338.21
378.066	348.38
378.447	344.76
378.827	328.49
379.208	326.69
379.588	322.84
379.968	327.36
380.349	305.22
380.729	335.5
381.109	334.14
381.489	328.04
381.87	339.34
382.25	335.5
382.63	333.69
383.01	346.12
383.39	348.38
383.77	319.68
384.15	323.97
384.53	342.28
384.91	362.84
385.29	313.13
385.67	350.19
386.049	334.14
386.429	348.38
386.809	352.67
387.189	349.96
387.568	341.15
387.948	345.89
388.328	330.98
388.707	342.28
389.087	358.32
389.466	352.9
389.846	370.75
390.225	350.87
390.605	350.19
390.984	354.48
391.363	355.16
391.743	351.32
392.122	366.91
392.501	351.09
392.881	377.98
393.26	355.39
393.639	359.23
394.018	384.76
394.397	358.1
394.776	377.76
395.155	366.23
395.534	367.36
395.913	362.39
396.292	374.59
396.671	379.11
397.05	395.61
397.429	362.62
397.808	365.78
398.186	377.31
398.565	383.86
398.944	378.21
399.323	398.55
399.701	393.8
400.08	384.31
400.458	396.06
400.837	396.29
401.215	402.16
401.594	407.36
401.972	399.45
402.351	375.95
402.729	394.03
403.107	414.37
403.486	427.93
403.864	408.72
404.242	422.05
404.62	415.95
404.999	404.88
405.377	420.02
405.755	429.06
406.133	417.31
406.511	417.31
406.889	434.71
407.267	434.03
407.645	457.76
408.023	430.64
408.401	441.71
408.779	432.67
409.156	456.63
409.534	449.85
409.912	469.96
410.29	450.98
410.667	465.89
411.045	472.9
411.422	477.64
411.8	481.26
412.178	473.35
412.555	499.34
412.933	484.65
413.31	504.53
413.687	528.04
414.065	507.92
414.442	514.03
414.819	523.29
415.197	544.31
415.574	562.61
415.951	556.06
416.328	553.57
416.705	559
417.082	564.19
417.46	578.66
417.837	581.59
418.214	584.53
418.591	590.41
418.967	591.31
419.344	604.87
419.721	602.84
420.098	605.1
420.475	590.18
420.852	623.18
421.228	625.66
421.605	627.7
421.982	641.48
422.358	650.97
422.735	643.51
423.111	677.19
423.488	663.17
423.864	660.91
424.241	683.06
424.617	692.1
424.994	693.23
425.37	694.13
425.746	702.5
426.123	684.64
426.499	703.63
426.875	706.79
427.251	743.62
427.627	734.81
428.003	743.17
428.379	749.5
428.756	755.38
429.132	740.69
429.507	784.3
429.883	788.6
430.259	788.37
430.635	781.82
431.011	804.41
431.387	810.74
431.763	809.84
432.138	820.46
432.514	844.19
432.89	841.48
433.265	857.97
433.641	851.19
434.016	861.36
434.392	860.46
434.767	890.74
435.143	900.91
435.518	896.84
435.894	906.56
436.269	915.82
436.644	921.02
437.02	940.23
437.395	947.91
437.77	961.25
438.145	956.95
438.52	949.72
438.895	937.97
439.271	981.58
439.646	988.59
440.021	1009.15
440.395	1041.47
440.77	1011.87
441.145	989.72
441.52	991.98
441.895	1007.57
442.27	1007.8
442.645	1049.15
443.019	1043.28
443.394	1036.95
443.769	1055.48
444.143	1041.7
444.518	1056.16
444.892	1060
445.267	1067.23
445.641	1088.25
446.016	1049.38
446.39	1058.42
446.764	1086.89
447.139	1098.87
447.513	1106.55
447.887	1114.01
448.262	1111.98
448.636	1099.32
449.01	1107.91
449.384	1109.04
449.758	1116.95
450.132	1116.5
450.506	1110.39
450.88	1111.98
451.254	1118.08
451.628	1139.55
452.002	1153.33
452.376	1154.01
452.75	1164.86
453.123	1146.1
453.497	1192.43
453.871	1174.12
454.244	1203.73
454.618	1179.32
454.992	1222.93
455.365	1205.08
455.739	1216.38
456.112	1215.7
456.486	1235.14
456.859	1260
457.232	1245.76
457.606	1254.35
457.979	1283.95
458.352	1292.54
458.725	1286.21
459.099	1311.52
459.472	1316.72
459.845	1339.32
460.218	1324.85
460.591	1324.4
460.964	1353.55
461.337	1340.9
461.71	1393.32
462.083	1394.91
462.456	1386.32
462.829	1377.51
463.201	1399.2
463.574	1433.55
463.947	1386.09
464.32	1429.93
464.692	1449.14
465.065	1449.14
465.438	1477.62
465.81	1489.82
466.183	1478.75
466.555	1527.78
466.928	1541.34
467.3	1476.49
467.672	1551.29
468.045	1577.05
468.417	1566.2
468.789	1554.22
469.161	1562.13
469.534	1626.77
469.906	1609.14
470.278	1646.2
470.65	1627.22
471.022	1659.98
471.394	1715.8
471.766	1712.64
472.138	1724.62
472.51	1715.12
472.882	1748.8
473.253	1772.3
473.625	1792.64
473.997	1799.19
474.369	1807.55
474.74	1793.77
475.112	1865.18
475.484	1878.74
475.855	1916.7
476.227	1895.01
476.598	1918.28
476.97	1916.93
477.341	2001.22
477.713	2009.35
478.084	2002.35
478.455	2052.29
478.827	2038.28
479.198	2116.7
479.569	2079.86
479.94	2191.5
480.311	2190.14
480.682	2151.95
481.053	2226.3
481.424	2243.25
481.795	2278.05
482.166	2283.92
482.537	2296.35
482.908	2375.22
483.279	2360.98
483.65	2402.79
484.021	2450.02
484.391	2457.7
484.762	2470.13
485.133	2476.91
485.503	2490.7
485.874	2567.31
486.244	2544.48
486.615	2593.75
486.985	2584.25
487.356	2638.04
487.726	2673.29
488.097	2696.34
488.467	2700.64
488.837	2773.4
489.207	2749.22
489.578	2832.61
489.948	2840.07
490.318	2851.59
490.688	2879.61
491.058	2924.13
491.428	2898.14
491.798	2938.82
492.168	2947.86
492.538	2995.09
492.908	3037.58
493.278	3022.89
493.648	3063.79
494.017	3066.95
494.387	3111.92
494.757	3170
495.126	3090.23
495.496	3095.43
495.866	3160.96
496.235	3182.66
496.605	3232.15
496.974	3235.76
497.344	3277.12
497.713	3301.52
498.082	3260.62
498.452	3291.81
498.821	3307.4
499.19	3330.45
499.559	3273.5
499.928	3332.71
500.298	3349.66
500.667	3390.33
501.036	3398.92
501.405	3405.02
501.774	3367.06
502.143	3451.58
502.512	3458.36
502.88	3491.35
503.249	3447.73
503.618	3483.44
503.987	3510.78
504.356	3539.94
504.724	3514.63
505.093	3566.6
505.462	3501.29
505.83	3556.66
506.199	3568.18
506.567	3581.52
506.936	3629.2
507.304	3634.4
507.672	3668.75
508.041	3660.38
508.409	3652.93
508.777	3662.87
509.145	3703.55
509.514	3709.42
509.882	3723.89
510.25	3726.14
510.618	3723.66
510.986	3722.76
511.354	3760.95
511.722	3788.06
512.09	3791.45
512.458	3732.7
512.826	3799.59
513.193	3813.83
513.561	3827.39
513.929	3826.26
514.297	3858.12
514.664	3871.23
515.032	3856.31
515.4	3901.96
515.767	3852.02
516.135	3890.43
516.502	3894.5
516.869	3976.76
517.237	4000.94
517.604	3961.39
517.972	3963.65
518.339	3953.71
518.706	3945.35
519.073	3987.83
519.44	3981.28
519.808	4034.39
520.175	3993.48
520.542	4072.35
520.909	4061.05
521.276	4035.29
521.643	4095.85
522.009	4103.76
522.376	4108.28
522.743	4130.43
523.11	4169.52
523.477	4159.81
523.843	4174.95
524.21	4216.53
524.577	4250.42
524.943	4237.54
525.31	4234.15
525.676	4247.94
526.043	4313.02
526.409	4369.74
526.776	4357.54
527.142	4379.24
527.508	4355.51
527.874	4409.74
528.241	4402.29
528.607	4422.17
528.973	4488.84
529.339	4465.56
529.705	4483.41
530.071	4532
530.437	4508.05
530.803	4555.05
531.169	4583.07
531.535	4574.71
531.901	4594.82
532.267	4613.58
532.632	4635.5
532.998	4669.85
533.364	4699.9
533.73	4682.5
534.095	4741.03
534.461	4711.66
534.826	4767.93
535.192	4755.27
535.557	4785.1
535.923	4808.15
536.288	4832.33
536.653	4870.52
537.019	4871.2
537.384	4893.8
537.749	4893.12
538.114	4892.22
538.479	4928.6
538.845	4966.79
539.21	4962.5
539.575	4971.31
539.94	5039.78
540.305	5081.14
540.67	5032.33
541.034	5077.3
541.399	5094.02
541.764	5080.01
542.129	5138.54
542.494	5110.29
542.858	5100.35
543.223	5198.2
543.587	5298.53
543.952	5218.76
544.316	5227.57
544.681	5228.7
545.045	5217.63
545.41	5270.29
545.774	5272.09
546.138	5335.59
546.503	5368.36
546.867	5388.25
547.231	5414.24
547.595	5471.64
547.959	5450.39
548.324	5484.29
548.688	5469.6
549.052	5510.28
549.416	5523.61
549.779	5518.64
550.143	5541.69
550.507	5596.6
550.871	5581.24
551.235	5607.45
551.599	5608.58
551.962	5620.11
552.326	5655.81
552.689	5685.87
553.053	5649.26
553.417	5695.36
553.78	5741.23
554.143	5753.44
554.507	5755.7
554.87	5808.12
555.234	5819.42
555.597	5804.73
555.96	5804.73
556.323	5830.27
556.686	5806.09
557.05	5902.81
557.413	5868.24
557.776	5894.22
558.139	5971.06
558.502	5915.47
558.865	5935.8
559.228	6016.25
559.59	6022.58
559.953	5966.76
560.316	6073.43
560.679	6068.46
561.041	6125.63
561.404	6139.64
561.767	6176.7
562.129	6081.79
562.492	6250.82
562.854	6177.38
563.217	6177.83
563.579	6185.29
563.941	6211.5
564.304	6260.99
564.666	6333.31
565.028	6273.2
565.39	6318.85
565.753	6362.69
566.115	6377.15
566.477	6380.09
566.839	6419.18
567.201	6440.42
567.563	6467.09
567.925	6517.94
568.287	6470.03
568.648	6496.24
569.01	6555.9
569.372	6626.86
569.734	6542.79
570.095	6623.02
570.457	6640.19
570.819	6643.13
571.18	6717.25
571.542	6717.93
571.903	6797.7
572.265	6841.32
572.626	6878.6
572.987	6901.65
573.349	6899.62
573.71	6964.7
574.071	6979.62
574.432	7001.09
574.794	7138.71
575.155	7140.07
575.516	7105.49
575.877	7225.71
576.238	7243.79
576.599	7330.12
576.96	7422.09
577.32	7431.58
577.681	7573.05
578.042	7600.39
578.403	7646.95
578.763	7820.73
579.124	7833.61
579.485	7936.43
579.845	8070.21
580.206	8140.94
580.566	8269.3
580.927	8300.26
581.287	8485.57
581.648	8587.03
582.008	8722.17
582.368	8800.36
582.728	8985.89
583.089	9071.77
583.449	9174.36
583.809	9392.44
584.169	9504.98
584.529	9711.3
584.889	9939.77
585.249	10046.43
585.609	10279.19
585.969	10405.74
586.329	10655.23
586.688	10853.42
587.048	11055.9
587.408	11282.56
587.768	11434.19
588.127	11651.59
588.487	11901.3
588.846	12206.15
589.206	12325.24
589.565	12583.09
589.925	12851.78
590.284	13072.79
590.643	13358.89
591.003	13656.73
591.362	13959.55
591.721	14189.15
592.08	14420.1
592.44	14728.12
592.799	15106.41
593.158	15227.99
593.517	15549.11
593.876	15877.92
594.235	16129.66
594.593	16518.12
594.952	16737.33
595.311	16989.3
595.67	17314.71
596.029	17648.26
596.387	18017.97
596.746	18214.58
597.104	18452.99
597.463	18806.43
597.822	19144.5
598.18	19476.47
598.538	19645.27
598.897	20087.07
599.255	20159.84
599.613	20708.52
599.972	20907.39
600.33	21132.24
600.688	21317.55
601.046	21713.47
601.404	22108.03
601.762	22314.81
602.12	22664.63
602.478	23007.22
602.836	23173.77
603.194	23366.08
603.552	23683.13
603.91	23891.04
604.268	24161.54
604.625	24331.03
604.983	24652.6
605.341	24916.1
605.698	25239.7
606.056	25533.48
606.413	25719.92
606.771	25970.53
607.128	26310.64
607.485	26351.54
607.843	26580.91
608.2	26942.71
608.557	27288.46
608.914	27427.67
609.272	27723.93
609.629	27930.71
609.986	28307.65
610.343	28354.65
610.7	28731.14
611.057	29021.53
611.414	29036.67
611.771	29235.3
612.127	29472.59
612.484	29670.32
612.841	30027.6
613.198	30027.37
613.554	30163.42
613.911	30434.82
614.267	30596.4
614.624	30745.32
614.98	30922.72
615.337	31268.92
615.693	31326.78
616.05	31496.26
616.406	31768.12
616.762	31755.69
617.118	31817.16
617.475	31944.39
617.831	32261.21
618.187	32439.97
618.543	32485.39
618.899	32798.37
619.255	32827.07
619.611	33027.97
619.967	33156.11
620.323	33383.44
620.678	33456.66
621.034	33475.42
621.39	33580.5
621.746	33525.36
622.101	34149.07
622.457	33863.21
622.812	34032.69
623.168	34311.78
623.523	34272.23
623.879	34507.48
624.234	34273.14
624.589	34574.37
624.945	34652.11
625.3	34704.54
625.655	34769.4
626.01	34943.63
626.365	35060.24
626.72	35061.37
627.075	34983.18
627.43	35153.57
627.785	35021.14
628.14	35258.65
628.495	35349.27
628.85	35403.05
629.205	35242.38
629.559	35537.06
629.914	35453.22
630.269	35582.93
630.623	35517.85
630.978	35555.14
631.332	35805.53
631.687	35902.47
632.041	35742.03
632.396	35939.99
632.75	35783.83
633.104	35879.42
633.459	35728.02
633.813	35733.66
634.167	35636.49
634.521	35725.98
634.875	35880.33
635.229	35926.43
635.583	35800.56
635.937	35708.58
636.291	35931.17
636.645	35924.39
636.999	35773.44
637.352	35850.95
637.706	35742.7
638.06	35862.7
638.413	35797.62
638.767	35835.13
639.121	35797.17
639.474	35756.72
639.828	35866.32
640.181	35935.47
640.534	35849.59
640.888	35886.88
641.241	35699.32
641.594	35851.18
641.947	35812.98
642.301	35707.68
642.654	35724.85
643.007	35790.84
643.36	35835.36
643.713	35779.77
644.066	35933.21
644.419	35706.1
644.771	35459.1
645.124	35149.05
645.477	35133.91
645.83	35018.88
646.182	34740.24
646.535	34744.99
646.888	34872.22
647.24	34720.13
647.593	34881.71
647.945	34843.29
648.298	34535.28
648.65	34669.06
649.002	34525.34
649.355	34616.18
649.707	34515.39
650.059	34766.23
650.411	35163.51
650.763	35096.39
651.115	35568.92
651.467	35434.69
651.819	35397.85
652.171	35392.43
652.523	35306.78
652.875	35387.46
653.227	35227.46
653.578	35577.28
653.93	35466.78
654.282	35253
654.633	35227.24
654.985	35332.09
655.337	35253.9
655.688	35244.19
656.039	35396.5
656.391	35040.58
656.742	35248.03
657.094	35256.84
657.445	35307.46
657.796	35257.75
658.147	35251.42
658.498	35206.45
658.849	35195.37
659.2	35139.78
659.551	35133.45
659.902	35231.76
660.253	35128.94
660.604	35146.56
660.955	35161.02
661.306	35232.21
661.656	35067.69
662.007	35103.85
662.358	35131.87
662.708	35021.82
663.059	34947.24
663.409	34828.15
663.76	35172.55
664.11	35050.75
664.461	35037.86
664.811	35092.33
665.161	34952.44
665.511	35026.56
665.862	35029.05
666.212	35191.53
666.562	35127.58
666.912	35094.59
667.262	35043.29
667.612	35104.75
667.962	34977.98
668.312	35033.57
668.662	35162.15
669.011	35015.72
669.361	34993.12
669.711	34958.77
670.06	34964.42
670.41	34801.49
670.76	34868.83
671.109	34982.05
671.459	34929.39
671.808	34822.5
672.157	34927.36
672.507	34777.08
672.856	34815.5
673.205	34888.04
673.554	34948.15
673.904	34775.95
674.253	34867.92
674.602	34906.12
674.951	34431.1
675.3	34174.61
675.649	34775.95
675.998	34647.37
676.346	34799.9
676.695	34820.47
677.044	34511.78
677.393	34617.31
677.741	34763.52
678.09	34650.76
678.438	34598.78
678.787	34554.03
679.135	34652.11
679.484	34363.98
679.832	34437.43
680.181	34292.35
680.529	34417.77
680.877	34369.18
681.225	34394.72
681.573	34483.75
681.922	34115.4
682.27	34045.12
682.618	34162.18
682.966	33917.22
683.314	34089.87
683.661	34058
684.009	33930.1
684.357	33907.95
684.705	33781.17
685.053	33831.79
685.4	33865.69
685.748	33595.19
686.095	33638.8
686.443	33500.28
686.79	33453.5
687.138	33516.55
687.485	33585.92
687.832	33320.62
688.18	33331.92
688.527	33173.28
688.874	33274.75
689.221	33183.68
689.568	33088.54
689.915	32995.43
690.262	33043.34
690.609	32957.47
690.956	32801.76
691.303	32779.39
691.65	32628.44
691.997	32693.52
692.344	32446.75
692.69	32574.65
693.037	32491.94
693.383	32144.83
693.73	32301.89
694.077	32250.59
694.423	32157.94
694.769	31994.78
695.116	31968.11
695.462	31878.4
695.808	31836.14
696.155	31846.31
696.501	31565.41
696.847	31615.36
697.193	31355.25
697.539	31452.2
697.885	31169.94
698.231	31226.66
698.577	31166.33
698.923	31249.26
699.269	31047.23
699.614	30939.44
699.96	30864.19
700.306	30814.02
700.651	30723.18
700.997	30583.07
701.342	30592.33
701.688	30549.17
702.033	30461.49
702.379	30463.07
702.724	30303.3
703.069	30348.72
703.415	30007.26
703.76	30146.24
704.105	30121.84
704.45	30000.26
704.795	29760.26
705.14	29754.84
705.485	29721.39
705.83	29618.8
706.175	29713.26
706.52	29578.12
706.865	29504.68
707.209	29418.8
707.554	29323.44
707.899	29446.82
708.243	29315.53
708.588	29227.17
708.932	29077.79
709.277	29044.58
709.621	29147.17
709.966	28891.81
710.31	28977.23
710.654	28626.73
710.998	28764.58
711.342	28720.74
711.687	28573.63
712.031	28472.61
712.375	28420.86
712.719	28370.69
713.063	28377.02
713.407	28386.06
713.75	28298.83
714.094	28189
714.438	28125.5
714.782	28247.99
715.125	28007.54
715.469	28071.95
715.812	27878.28
716.156	27818.39
716.499	27765.74
716.843	27813.2
717.186	27591.96
717.53	27716.93
717.873	27664.72
718.216	27511.73
718.559	27465.18
718.902	27242.81
719.246	27486.42
719.589	27279.2
719.932	27189.93
720.275	27243.94
720.617	27208.47
720.96	27116.49
721.303	27061.35
721.646	27217.28
721.989	26955.82
722.331	27098.64
722.674	26942.71
723.016	27005.53
723.359	26905.87
723.701	26916.5
724.044	26790.4
724.386	26627.01
724.729	26798.31
725.071	26707.01
725.413	26694.13
725.755	26699.55
726.097	26561.93
726.439	26423.85
726.782	26374.81
727.124	26577.97
727.465	26494.59
727.807	26180.7
728.149	26296.85
728.491	26277.87
728.833	26250.07
729.175	26072.22
729.516	26012.56
729.858	25962.85
730.199	26222.28
730.541	26046.69
730.882	25932.11
731.224	26047.14
731.565	25902.96
731.906	25831.1
732.248	25905.9
732.589	25609.86
732.93	25695.74
733.271	25645.12
733.612	25678.79
733.953	25743.42
734.294	25519.47
734.635	25489.64
734.976	25639.69
735.317	25520.37
735.658	25377.33
735.999	25416.87
736.339	25341.85
736.68	25382.3
737.021	25457.32
737.361	25287.16
737.702	25373.26
738.042	25264.11
738.383	25268.4
738.723	25312.92
739.063	25126.03
739.404	25234.73
739.744	25093.72
740.084	24843.33
740.424	25045.81
740.764	24929.43
741.104	24965.81
741.444	24895.76
741.784	24787.51
742.124	24952.25
742.464	24723.11
742.804	24726.04
743.143	24579.38
743.483	24672.26
743.823	24541.64
744.162	24635.65
744.502	24660.74
744.841	24465.26
745.181	24481.53
745.52	24445.6
745.86	24410.8
746.199	24436.11
746.538	24372.38
746.877	24301.88
747.216	24318.82
747.556	24236.79
747.895	24331.03
748.234	24187.53
748.573	24161.09
748.911	24079.28
749.25	24023.69
749.589	23973.52
749.928	24007.87
750.267	24157.92
750.605	23898.95
750.944	23876.58
751.283	23860.53
751.621	23779.85
751.96	23812.85
752.298	23752.96
752.636	23760.65
752.975	23529.69
753.313	23417.38
753.651	23595
753.989	23322.69
754.327	23479.07
754.666	23411.05
755.004	23351.62
755.342	23335.57
755.679	23324.73
756.017	23171.96
756.355	23248.57
756.693	23101.91
757.031	23178.06
757.368	22944.85
757.706	23045.19
758.044	22891.97
758.381	22844.74
758.719	22798.41
759.056	22693.33
759.394	22717.51
759.731	22482.94
760.068	22592.99
760.405	22460.57
760.743	22325.88
761.08	22414.92
761.417	22421.92
761.754	22214.25
762.091	22176.51
762.428	22064.42
762.765	22072.78
763.102	22100.13
763.438	21918.66
763.775	21793.47
764.112	21804.09
764.449	21906.91
764.785	21692.45
765.122	21539.01
765.458	21495.85
765.795	21528.16
766.131	21423.08
766.467	21333.37
766.804	21265.12
767.14	21202.07
767.476	21188.06
767.812	21102.86
768.148	21046.37
768.485	20955.3
768.821	20903.09
769.157	20877.11
769.492	20750.78
769.828	20786.71
770.164	20562.99
770.5	20509.21
770.836	20522.54
771.171	20308.53
771.507	20297.69
771.842	20213.17
772.178	20277.12
772.513	20168.65
772.849	20061.53
773.184	19931.82
773.519	20023.57
773.855	19929.56
774.19	19745.84
774.525	19777.93
774.86	19771.37
775.195	19706.97
775.53	19539.97
775.865	19489.57
776.2	19255
776.535	19262.46
776.87	19229.01
777.205	19146.76
777.539	19085.52
777.874	19057.72
778.209	18909.02
778.543	18819.76
778.878	18698.63
779.212	18754
779.547	18674
779.881	18634.23
780.215	18442.14
780.55	18464.97
780.884	18497.51
781.218	18379.09
781.552	18295.25
781.886	18261.81
782.22	18173
782.554	18157.63
782.888	17957.18
783.222	17968.03
783.556	17836.73
783.889	17844.42
784.223	17603.75
784.557	17633.58
784.89	17778.66
785.224	17550.64
785.557	17452.11
785.891	17520.81
786.224	17350.19
786.558	17415.5
786.891	17151.78
787.224	17178.9
787.557	17114.95
787.891	17139.58
788.224	17079.47
788.557	17077.66
788.89	16899.58
789.223	16992.69
789.556	16879.02
789.888	16732.36
790.221	16718.12
790.554	16611.23
790.887	16575.75
791.219	16452.59
791.552	16428.41
791.884	16344.57
792.217	16303.89
792.549	16271.35
792.882	16145.25
793.214	16086.5
793.546	16123.11
793.879	16021.64
794.211	15987.97
794.543	16054.63
794.875	15960.17
795.207	15926.73
795.539	15761.31
795.871	15804.92
796.203	15679.95
796.535	15576
796.867	15574.42
797.198	15586.4
797.53	15538.72
797.862	15424.82
798.193	15423.46
798.525	15291.94
798.856	15402.22
799.188	15270.25
799.519	15185.05
799.85	15037.49
800.182	15166.52
800.513	15058.5
800.844	14931.5
801.175	14988.67
801.506	14938.28
801.837	14808.79
802.168	14838.85
802.499	14729.7
802.83	14785.06
803.161	14692.18
803.491	14677.04
803.822	14597.5
804.153	14548.69
804.483	14384.17
804.814	14405.64
805.145	14419.42
805.475	14340.56
805.805	14220.56
806.136	14325.41
806.466	14289.71
806.796	14210.84
807.126	14064.63
807.457	14060.34
807.787	14150.5
808.117	14043.61
808.447	13972.2
808.777	14023.5
809.107	13960.9
809.436	13933.79
809.766	13925.2
810.096	13863.28
810.426	13792.77
810.755	13750.74
811.085	13745.99
811.414	13763.4
811.744	13630.74
812.073	13596.62
812.403	13607.24
812.732	13493.57
813.061	13499
813.39	13361.82
813.719	13390.07
814.049	13393.24
814.378	13337.42
814.707	13319.11
815.036	13329.96
815.365	13251.77
815.693	13210.42
816.022	13214.94
816.351	13151.21
816.68	12994.38
817.008	13078.67
817.337	12960.93
817.665	13002.51
817.994	13005.22
818.322	12997.77
818.651	12875.96
818.979	12855.4
819.307	12928.61
819.636	12842.74
819.964	12724.33
820.292	12789.64
820.62	12851.55
820.948	12728.62
821.276	12758.45
821.604	12703.76
821.932	12685.23
822.259	12694.72
822.587	12729.75
822.915	12685.01
823.243	12664.67
823.57	12586.02
823.898	12647.27
824.225	12616.76
824.553	12649.53
824.88	12601.62
825.207	12762.74
825.535	12565.23
825.862	12631
826.189	12625.8
826.516	12666.7
826.843	12742.86
827.17	12640.03
827.497	12670.54
827.824	12668.28
828.151	12686.36
828.478	12667.6
828.805	12630.09
829.131	12532.47
829.458	12670.77
829.785	12527.27
830.111	12551.22
830.438	12633.48
830.764	12598.45
831.09	12645.68
831.417	12544.67
831.743	12598.23
832.069	12613.37
832.395	12491.34
832.722	12594.61
833.048	12515.74
833.374	12486.37
833.7	12518.68
834.026	12460.83
834.351	12503.32
834.677	12474.39
835.003	12519.36
835.329	12375.41
835.654	12352.36
835.98	12441.4
836.306	12393.94
836.631	12347.16
836.956	12413.83
837.282	12325.24
837.607	12274.62
837.932	12245.69
838.258	12295.64
838.583	12312.59
838.908	12247.95
839.233	12191.01
839.558	12237.79
839.883	12160.5
840.208	12056.55
840.533	12088.18
840.858	12164.57
841.182	12108.3
841.507	12034.18
841.832	11996.44
842.156	12002.54
842.481	12007.28
842.805	11972.03
843.13	11970
843.454	11888.42
843.778	11948.75
844.103	11835.99
844.427	11788.98
844.751	11844.8
845.075	11760.96
845.399	11777.91
845.723	11721.19
846.047	11734.3
846.371	11668.53
846.695	11589.44
847.019	11455.21
847.343	11539.72
847.666	11413.85
847.99	11346.96
848.313	11330.01
848.637	11210.69
848.96	11228.55
849.284	11177.47
849.607	11075.1
849.931	11097.48
850.254	11078.95
850.577	10984.94
850.9	10867.2
851.223	10910.14
851.546	10831.27
851.869	10773.42
852.192	10802.34
852.515	10703.14
852.838	10668.34
853.161	10779.29
853.483	10522.12
853.806	10586.08
854.129	10568.9
854.451	10613.42
854.774	10483.93
855.096	10477.61
855.419	10383.37
855.741	10394.44
856.063	10324.16
856.385	10338.85
856.708	10295.69
857.03	10264.96
857.352	10279.87
857.674	10224.05
857.996	10178.4
858.318	10127.33
858.64	10114
858.961	10059.54
859.283	10023.83
859.605	9997.62
859.926	10008.47
860.248	9997.84
860.57	9939.31
860.891	9931.86
861.212	9904.51
861.534	9862.71
861.855	9886.66
862.176	9922.37
862.498	9790.39
862.819	9822.03
863.14	9763.95
863.461	9709.26
863.782	9772.99
864.103	9724.86
864.424	9706.55
864.745	9721.47
865.065	9641.92
865.386	9651.86
865.707	9601.24
866.027	9660.23
866.348	9602.37
866.668	9627.01
866.989	9591.98
867.309	9523.51
867.63	9578.87
867.95	9454.36
868.27	9462.49
868.59	9550.62
868.91	9441.93
869.23	9447.12
869.55	9437.86
869.87	9441.93
870.19	9447.58
870.51	9442.6
870.83	9388.37
871.15	9319.67
871.469	9387.69
871.789	9352.44
872.109	9379.33
872.428	9217.75
872.748	9341.59
873.067	9249.62
873.386	9332.78
873.706	9268.37
874.025	9182.95
874.344	9152.44
874.663	9163.29
874.982	9073.8
875.301	9118.77
875.62	9133.46
875.939	9062.5
876.258	9119.22
876.577	9094.59
876.896	9093.01
877.214	9032.45
877.533	9025.44
877.852	8974.82
878.17	8989.96
878.489	9036.29
878.807	9036.29
879.125	8937.99
879.444	9025.21
879.762	8996.74
880.08	8981.37
880.398	8916.97
880.716	8900.92
881.034	8904.77
881.352	8837.65
881.67	8875.39
881.988	8833.81
882.306	8847.82
882.624	8814.6
882.941	8728.73
883.259	8685.34
883.577	8712.91
883.894	8719.01
884.212	8662.29
884.529	8654.15
884.846	8634.49
885.164	8613.02
885.481	8633.36
885.798	8582.29
886.115	8531.22
886.432	8579.8
886.75	8633.59
887.067	8539.35
887.383	8424.33
887.7	8443.08
888.017	8408.96
888.334	8454.16
888.651	8402.63
888.967	8348.17
889.284	8338
889.6	8290.54
889.917	8279.25
890.233	8296.42
890.55	8236.53
890.866	8293.26
891.182	8216.65
891.498	8161.51
891.815	8146.59
892.131	8209.87
892.447	8109.08
892.763	8090.32
893.079	8044.9
893.395	8025.24
893.71	8059.14
894.026	8037.22
894.342	7998.35
894.657	7915.87
894.973	7939.37
895.289	7915.64
895.604	7907.73
895.92	7842.65
896.235	7793.16
896.55	7795.42
896.865	7750.9
897.181	7752.48
897.496	7783.89
897.811	7733.95
898.126	7627.06
898.441	7652.14
898.756	7596.33
899.071	7625.93
899.386	7564.46
899.7	7483.33
900.015	7526.95
900.33	7431.36
900.644	7415.31
900.959	7463.22
901.273	7412.83
901.588	7349.33
901.902	7389.78
902.216	7315.88
902.531	7292.83
902.845	7286.5
903.159	7226.39
903.473	7155.21
903.787	7173.06
904.101	7134.19
904.415	7084.25
904.729	7106.4
905.042	7058.03
905.356	7048.54
905.67	7039.96
905.984	7003.8
906.297	7014.87
906.611	6921.32
906.924	6881.54
907.237	6985.27
907.551	6879.96
907.864	6885.16
908.177	6865.27
908.491	6827.76
908.804	6739.4
909.117	6731.72
909.43	6712.06
909.743	6663.02
910.056	6723.81
910.368	6641.77
910.681	6637.48
910.994	6556.58
911.307	6530.37
911.619	6515.22
911.932	6503.93
912.244	6427.32
912.557	6455.79
912.869	6462.12
913.181	6319.98
913.494	6381.89
913.806	6368.79
914.118	6310.94
914.43	6311.84
914.742	6332.86
915.054	6213.31
915.366	6217.38
915.678	6205.63
915.99	6141.45
916.302	6149.36
916.613	6141.67
916.925	6156.36
917.236	6079.53
917.548	6083.6
917.859	6026.88
918.171	5976.48
918.482	5973.32
918.794	5960.66
919.105	5950.04
919.416	5912.3
919.727	5903.71
920.038	5864.39
920.349	5764.51
920.66	5791.63
920.971	5776.49
921.282	5764.28
921.593	5705.3
921.903	5611.52
922.214	5670.27
922.525	5634.34
922.835	5669.82
923.146	5590.95
923.456	5630.28
923.767	5579.88
924.077	5547.57
924.387	5553.89
924.697	5501.92
925.008	5503.95
925.318	5467.34
925.628	5426.44
925.938	5447.68
926.248	5364.29
926.558	5367.46
926.867	5346.89
927.177	5402.26
927.487	5283.39
927.796	5240.68
928.106	5276.84
928.416	5207.91
928.725	5155.03
929.034	5148.71
929.344	5169.5
929.653	5132.44
929.962	5105.09
930.271	5113
930.581	5031.65
930.89	5031.2
931.199	4981.48
931.508	5018.31
931.817	4993.46
932.125	4970.41
932.434	4964.76
932.743	4934.7
933.051	4894.7
933.36	4877.3
933.669	4840.47
933.977	4840.01
934.286	4809.28
934.594	4799.79
934.902	4759.79
935.21	4776.29
935.519	4751.65
935.827	4748.04
936.135	4717.53
936.443	4677.76
936.751	4630.08
937.059	4634.82
937.367	4624.88
937.674	4600.7
937.982	4612.22
938.29	4584.88
938.597	4534.71
938.905	4542.39
939.213	4544.2
939.52	4484.77
939.827	4509.4
940.135	4384.66
940.442	4447.93
940.749	4407.03
941.056	4436.63
941.363	4369.07
941.67	4372
941.977	4337.88
942.284	4274.83
942.591	4309.41
942.898	4307.6
943.205	4250.88
943.511	4266.02
943.818	4228.96
944.125	4215.4
944.431	4184.66
944.738	4179.24
945.044	4188.05
945.35	4133.59
945.657	4111.22
945.963	4093.82
946.269	4095.4
946.575	4071.22
946.881	4085.68
947.187	4016.31
947.493	4036.19
947.799	4006.14
948.105	3960.26
948.41	3976.08
948.716	3955.74
949.022	3945.8
949.327	3914.61
949.633	3870.1
949.938	3862.41
950.244	3849.31
950.549	3867.38
950.854	3811.11
951.16	3801.85
951.465	3778.8
951.77	3779.02
952.075	3771.12
952.38	3776.77
952.685	3733.83
952.99	3733.38
953.294	3701.29
953.599	3675.75
953.904	3734.51
954.209	3686.82
954.513	3660.38
954.818	3626.03
955.122	3586.26
955.426	3608.18
955.731	3578.13
956.035	3542.42
956.339	3552.14
956.643	3523.21
956.948	3488.41
957.252	3505.81
957.556	3476.66
957.86	3500.84
958.163	3439.37
958.467	3412.25
958.771	3413.61
959.075	3412.03
959.378	3381.52
959.682	3356.89
959.985	3358.47
960.289	3363.67
960.592	3340.17
960.896	3317.79
961.199	3321.86
961.502	3277.57
961.805	3295.87
962.108	3289.55
962.411	3285.7
962.714	3242.32
963.017	3271.69
963.32	3263.33
963.623	3205.03
963.926	3191.02
964.228	3139.72
964.531	3158.48
964.833	3180.85
965.136	3128.65
965.438	3098.14
965.741	3136.78
966.043	3119.38
966.345	3085.71
966.648	3101.53
966.95	3006.16
967.252	3044.81
967.554	3011.36
967.856	3011.59
968.158	2977.24
968.46	2974.07
968.761	2959.16
969.063	2911.48
969.365	2961.42
969.666	2917.58
969.968	2925.71
970.269	2886.84
970.571	2861.53
970.872	2863.79
971.174	2898.82
971.475	2879.61
971.776	2828.99
972.077	2842.55
972.378	2859.28
972.679	2832.61
972.98	2821.31
973.281	2797.13
973.582	2793.29
973.883	2791.03
974.183	2731.82
974.484	2782.21
974.785	2731.37
975.085	2729.56
975.386	2711.71
975.686	2710.58
975.986	2657.47
976.287	2666.51
976.587	2671.26
976.887	2640.3
977.187	2644.37
977.487	2677.36
977.787	2637.36
978.087	2637.13
978.387	2606.85
978.687	2603.01
978.987	2556.68
979.286	2559.4
979.586	2574.76
979.885	2533.41
980.185	2540.87
980.484	2487.99
980.784	2501.77
981.083	2494.09
981.382	2498.83
981.682	2479.4
981.981	2478.49
982.28	2464.48
982.579	2461.55
982.878	2448.21
983.177	2424.71
983.475	2437.37
983.774	2415.22
984.073	2356.69
984.372	2364.37
984.67	2372.28
984.969	2367.31
985.267	2379.06
985.566	2332.51
985.864	2314.88
986.162	2329.12
986.461	2336.8
986.759	2287.31
987.057	2265.62
987.355	2270.14
987.653	2278.95
987.951	2261.55
988.249	2223.36
988.547	2233.75
988.844	2195.11
989.142	2220.2
989.44	2240.31
989.737	2227.2
990.035	2172.74
990.332	2186.07
990.63	2145.17
990.927	2165.96
991.224	2140.88
991.521	2147.43
991.819	2107.2
992.116	2094.32
992.413	2081.67
992.71	2084.15
993.006	2108.56
993.303	2069.47
993.6	2084.61
993.897	2066.98
994.193	2071.05
994.49	2041.44
994.787	2037.6
995.083	2012.97
995.379	2033.31
995.676	2030.6
995.972	1983.37
996.268	1990.82
996.565	1963.25
996.861	1975.91
997.157	1953.99
997.453	1966.87
997.749	1959.19
998.044	1942.92
998.34	1928.9
998.636	1907.66
998.932	1920.99
999.227	1910.83
999.523	1896.59
999.818	1843.93
1000.114	1860.21
1000.409	1844.84
1000.704	1855.01
1001	1817.95
1001.295	1817.72
1001.59	1808
1001.885	1822.24
1002.18	1801.22
1002.475	1820.66
1002.77	1772.52
1003.065	1768.46
1003.359	1766.87
1003.654	1746.99
1003.949	1747.21
1004.243	1763.03
1004.538	1724.84
1004.832	1725.07
1005.127	1682.58
1005.421	1689.14
1005.715	1684.39
1006.009	1680.1
1006.304	1648.91
1006.598	1687.1
1006.892	1671.51
1007.186	1623.15
1007.48	1648.91
1007.773	1656.82
1008.067	1610.72
1008.361	1591.51
1008.655	1596.48
1008.948	1589.93
1009.242	1578.18
1009.535	1569.82
1009.829	1561.91
1010.122	1586.09
1010.415	1545.19
1010.708	1536.37
1011.001	1523.49
1011.295	1480.1
1011.588	1512.64
1011.881	1507.22
1012.173	1485.98
1012.466	1487.56
1012.759	1482.36
1013.052	1491.85
1013.344	1462.48
1013.637	1432.19
1013.93	1477.16
1014.222	1436.04
1014.514	1423.38
1014.807	1412.31
1015.099	1451.4
1015.391	1414.57
1015.683	1428.8
1015.976	1380.67
1016.268	1396.94
1016.56	1374.57
1016.851	1369.14
1017.143	1351.97
1017.435	1375.92
1017.727	1341.35
1018.018	1323.5
1018.31	1322.37
1018.602	1339.99
1018.893	1328.47
1019.185	1325.53
1019.476	1302.93
1019.767	1277.85
1020.058	1274.01
1020.35	1274.23
1020.641	1264.74
1020.932	1273.78
1021.223	1255.7
1021.514	1236.04
1021.804	1243.05
1022.095	1224.06
1022.386	1201.01
1022.677	1220.67
1022.967	1215.25
1023.258	1195.14
1023.548	1187.45
1023.839	1194.91
1024.129	1182.03
1024.419	1167.79
1024.709	1141.81
1025	1167.34
1025.29	1160.11
1025.58	1105.42
1025.87	1153.33
1026.16	1114.01
1026.449	1137.06
1026.739	1097.06
1027.029	1092.77
1027.319	1106.1
1027.608	1052.09
1027.898	1103.84
1028.187	1077.85
1028.477	1077.4
1028.766	1075.82
1029.055	1052.77
1029.344	1041.02
1029.634	1044.41
1029.923	1043.28
1030.212	1000.11
1030.501	1020.45
1030.79	1014.35
1031.078	1019.78
1031.367	1036.05
1031.656	994.69
1031.945	995.82
1032.233	974.8
1032.522	963.51
1032.81	994.24
1033.099	966.44
1033.387	948.59
1033.675	970.51
1033.963	933.45
1034.251	970.06
1034.54	928.48
1034.828	935.03
1035.116	935.48
1035.403	895.48
1035.691	923.51
1035.979	905.88
1036.267	901.59
1036.554	893.23
1036.842	895.26
1037.129	876.73
1037.417	902.72
1037.704	881.02
1037.992	886.9
1038.279	857.29
1038.566	874.24
1038.853	874.24
1039.14	874.24
