Data from hue_140_FLMS001491_00063.txt Node
Date: Tue Feb 07 16:56:15 GMT 2017
User: dcchb
Spectrometer: FLMS00149
Trigger mode: 0
Integration Time (sec): 2.000000E-2
Scans to average: 10
Electric dark correction enabled: true
Nonlinearity correction enabled: false
Boxcar width: 0
XAxis mode: Wavelengths
Number of Pixels in Spectrum: 2048
>>>>>Begin Spectral Data<<<<<
341.393	-2.43
341.776	-2.43
342.16	-2.43
342.543	-40.85
342.927	-75.2
343.31	-74.52
343.693	-73.39
344.077	-58.93
344.46	-48.08
344.843	-47.17
345.226	-53.28
345.61	-27.51
345.993	-33.39
346.376	-8.76
346.759	5.48
347.142	21.3
347.525	47.74
347.908	68.76
348.291	75.53
348.674	114.63
349.057	91.58
349.44	144.91
349.823	164.12
350.206	149.66
350.588	191.92
350.971	201.63
351.354	214.74
351.737	232.14
352.119	244.12
352.502	280.28
352.884	275.08
353.267	276.21
353.65	278.69
354.032	284.57
354.414	301.74
354.797	307.17
355.179	313.27
355.562	310.1
355.944	336.32
356.326	342.65
356.709	323.21
357.091	331.8
357.473	331.12
357.855	334.28
358.238	358.69
358.62	341.06
359.002	331.35
359.384	342.65
359.766	328.64
360.148	353.49
360.53	334.96
360.912	348.52
361.294	340.39
361.676	329.09
362.057	341.52
362.439	324.57
362.821	321.63
363.203	336.32
363.584	340.61
363.966	334.74
364.348	310.78
364.729	341.29
365.111	324.57
365.493	324.12
365.874	325.7
366.256	305.81
366.637	302.65
367.019	314.17
367.4	315.75
367.781	296.77
368.163	301.29
368.544	332.7
368.925	314.62
369.306	314.62
369.688	315.98
370.069	318.69
370.45	302.65
370.831	324.12
371.212	308.07
371.593	320.27
371.974	311.23
372.355	338.13
372.736	337.45
373.117	311.23
373.498	329.31
373.879	324.79
374.26	320.27
374.641	323.89
375.021	329.77
375.402	298.13
375.783	333.61
376.163	313.72
376.544	330.67
376.925	338.35
377.305	326.15
377.686	330.67
378.066	325.92
378.447	310.1
378.827	327.96
379.208	306.94
379.588	322.53
379.968	340.84
380.349	337.9
380.729	357.79
381.109	354.85
381.489	336.77
381.87	345.58
382.25	337.67
382.63	326.83
383.01	331.35
383.39	331.8
383.77	339.03
384.15	340.16
384.53	336.54
384.91	338.13
385.29	357.79
385.67	338.35
386.049	367.5
386.429	359.6
386.809	342.87
387.189	343.55
387.568	345.81
387.948	369.09
388.328	360.5
388.707	373.61
389.087	370.22
389.466	368.41
389.846	371.8
390.225	364.34
390.605	369.76
390.984	372.48
391.363	379.93
391.743	376.54
392.122	361.18
392.501	384.45
392.881	392.14
393.26	388.75
393.639	383.78
394.018	372.48
394.397	372.48
394.776	384.68
395.155	364.79
395.534	349.43
395.913	399.37
396.292	383.32
396.671	383.1
397.05	384
397.429	394.4
397.808	392.14
398.186	402.76
398.565	388.29
398.944	394.17
399.323	387.62
399.701	387.62
400.08	399.59
400.458	407.28
400.837	386.04
401.215	409.31
401.594	407.28
401.972	392.14
402.351	416.09
402.729	422.19
403.107	420.84
403.486	433.04
403.864	404.57
404.242	405.7
404.62	419.48
404.999	394.85
405.377	399.14
405.755	439.14
406.133	420.84
406.511	431.91
406.889	416.99
407.267	446.82
407.645	434.17
408.023	431.01
408.401	442.53
408.779	426.94
409.156	451.8
409.534	444.11
409.912	460.16
410.29	466.71
410.667	465.58
411.045	458.8
411.422	455.86
411.8	466.26
412.178	465.58
412.555	453.15
412.933	482.3
413.31	477.56
413.687	490.21
414.065	482.98
414.442	497.44
414.819	489.31
415.197	489.99
415.574	511.91
415.951	470.1
416.328	491.34
416.705	486.15
417.082	488.18
417.46	494.96
417.837	504.22
418.214	501.51
418.591	526.14
418.967	508.74
419.344	524.79
419.721	534.28
420.098	540.83
420.475	524.34
420.852	522.98
421.228	539.93
421.605	552.13
421.982	544.22
422.358	540.83
422.735	533.83
423.111	574.96
423.488	589.19
423.864	536.99
424.241	537.22
424.617	565.01
424.994	567.27
425.37	594.84
425.746	582.64
426.123	594.39
426.499	548.06
426.875	573.6
427.251	575.86
427.627	609.98
428.003	591.23
428.379	614.28
428.756	605.24
429.132	634.16
429.507	607.05
429.883	626.71
430.259	628.74
430.635	640.94
431.011	648.4
431.387	664.45
431.763	664.45
432.138	654.95
432.514	658.34
432.89	655.63
433.265	674.39
433.641	673.71
434.016	698.34
434.392	685.69
434.767	684.11
435.143	705.57
435.518	703.31
435.894	711.9
436.269	712.81
436.644	721.85
437.02	739.25
437.395	735.86
437.77	711.45
438.145	734.27
438.52	749.87
438.895	770.21
439.271	749.87
439.646	775.18
440.021	780.15
440.395	779.02
440.77	786.25
441.145	802.97
441.52	795.52
441.895	793.71
442.27	793.93
442.645	801.39
443.019	824.89
443.394	809.07
443.769	808.17
444.143	830.54
444.518	835.29
444.892	831.22
445.267	849.53
445.641	828.96
446.016	833.03
446.39	828.96
446.764	843.42
447.139	824.44
447.513	854.5
447.887	869.64
448.262	888.17
448.636	885.23
449.01	907.38
449.384	900.15
449.758	899.69
450.132	911.9
450.506	922.97
450.88	930.65
451.254	932.91
451.628	936.76
452.002	948.73
452.376	957.09
452.75	961.84
453.123	938.79
453.497	985.79
453.871	958.22
454.244	1008.39
454.618	997.77
454.992	1025.11
455.365	1018.33
455.739	1036.64
456.112	1051.33
456.486	1040.48
456.859	1075.73
457.232	1087.71
457.606	1105.79
457.979	1096.52
458.352	1117.32
458.725	1119.8
459.099	1156.86
459.472	1168.61
459.845	1193.92
460.218	1205.45
460.591	1175.84
460.964	1214.71
461.337	1249.74
461.71	1232.79
462.083	1248.84
462.456	1275.5
462.829	1289.74
463.201	1291.32
463.574	1308.95
463.947	1322.96
464.32	1347.82
464.692	1348.27
465.065	1338.55
465.438	1410.87
465.81	1418.55
466.183	1453.58
466.555	1456.06
466.928	1461.26
467.3	1519.79
467.672	1514.37
468.045	1559.34
468.417	1561.82
468.789	1600.47
469.161	1610.86
469.534	1649.73
469.906	1666.91
470.278	1677.98
470.65	1716.17
471.022	1734.25
471.394	1816.05
471.766	1804.75
472.138	1866
472.51	1900.12
472.882	1954.36
473.253	1955.49
473.625	2014.24
473.997	2048.14
474.369	2084.3
474.74	2164.52
475.112	2171.98
475.484	2200.45
475.855	2301.01
476.227	2328.58
476.598	2395.02
476.97	2390.28
477.341	2521.12
477.713	2592.3
478.084	2593.89
478.455	2696.71
478.827	2706.88
479.198	2846.54
479.569	2872.98
479.94	3010.15
480.311	3044.27
480.682	3153.42
481.053	3246.07
481.424	3295.79
481.795	3406.29
482.166	3478.16
482.537	3577.82
482.908	3680.64
483.279	3752.73
483.65	3876.11
484.021	3998.6
484.391	4052.15
484.762	4121.76
485.133	4212.6
485.503	4349.77
485.874	4508.64
486.244	4607.62
486.615	4716.09
486.985	4848.52
487.356	4940.04
487.726	5064.33
488.097	5208.96
488.467	5314.49
488.837	5445.56
489.207	5599.46
489.578	5709.51
489.948	5838.32
490.318	5962.61
490.688	6057.75
491.058	6219.55
491.428	6340
491.798	6466.33
492.168	6717.85
492.538	6697.51
492.908	6871.06
493.278	7023.37
493.648	7105.18
494.017	7263.59
494.387	7368.45
494.757	7505.17
495.126	7612.06
495.496	7786.74
495.866	7797.14
496.235	7959.4
496.605	8039.85
496.974	8184.47
497.344	8319.39
497.713	8414.75
498.082	8560.28
498.452	8644.12
498.821	8748.08
499.19	8790.56
499.559	8982.87
499.928	9014.51
500.298	9188.29
500.667	9268.06
501.036	9369.53
501.405	9462.41
501.774	9505.8
502.143	9595.96
502.512	9647.49
502.88	9779.69
503.249	9781.49
503.618	9988.27
503.987	9930.19
504.356	10095.38
504.724	10151.65
505.093	10246.11
505.462	10309.16
505.83	10381.93
506.199	10504.87
506.567	10607.46
506.936	10648.14
507.304	10787.8
507.672	10809.49
508.041	10852.88
508.409	10917.74
508.777	11031.18
509.145	11085.64
509.514	11106.88
509.882	11173.55
510.25	11210.61
510.618	11266.43
510.986	11283.83
511.354	11378.51
511.722	11368.8
512.09	11590.71
512.458	11552.97
512.826	11681.78
513.193	11627.77
513.561	11661.22
513.929	11803.36
514.297	11818.28
514.664	11900.31
515.032	11817.6
515.4	11985.28
515.767	12038.16
516.135	12075.22
516.502	11991.38
516.869	12185.72
517.237	12171.04
517.604	12094.88
517.972	12229.79
518.339	12270.24
518.706	12260.98
519.073	12246.97
519.44	12325.83
519.808	12450.12
520.175	12359.96
520.542	12557.92
520.909	12455.55
521.276	12485.15
521.643	12663
522.009	12639.72
522.376	12599.27
522.743	12709.33
523.11	12786.84
523.477	12806.73
523.843	12806.95
524.21	12828.65
524.577	12959.94
524.943	12927.4
525.31	12863
525.676	12974.63
526.043	13021.41
526.409	13032.26
526.776	13132.59
527.142	13106.6
527.508	13148.19
527.874	13077
528.241	13173.04
528.607	13172.82
528.973	13178.92
529.339	13136.89
529.705	13257.79
530.071	13267.73
530.437	13208.97
530.803	13231.12
531.169	13277.22
531.535	13256.66
531.901	13170.78
532.267	13146.6
532.632	13287.39
532.998	13170.11
533.364	13290.1
533.73	13185.92
534.095	13206.04
534.461	13207.17
534.826	13307.96
535.192	13299.37
535.557	13188.64
535.923	13209.65
536.288	13021.64
536.653	13205.81
537.019	13077
537.384	13063.67
537.749	13070.9
538.114	13067.06
538.479	12967.63
538.845	13051.92
539.21	12939.38
539.575	12994.29
539.94	12892.15
540.305	12823.22
540.67	12809.66
541.034	12816.22
541.399	12861.87
541.764	12805.82
542.129	12834.75
542.494	12724.47
542.858	12761.75
543.223	12647.18
543.587	12731.02
543.952	12599.73
544.316	12584.81
544.681	12488.77
545.045	12564.47
545.41	12622.1
545.774	12489.45
546.138	12500.07
546.503	12436.11
546.867	12371.26
547.231	12471.37
547.595	12384.82
547.959	12382.78
548.324	12375.32
548.688	12257.59
549.052	12312.05
549.416	12240.86
549.779	12196.57
550.143	12120.87
550.507	12184.59
550.871	12079.51
551.235	12164.71
551.599	12150.92
551.962	12093.07
552.326	12073.86
552.689	12061.66
553.053	11970.82
553.417	11976.01
553.78	12131.49
554.143	11919.07
554.507	11959.29
554.87	11949.8
555.234	12040.64
555.597	11952.96
555.96	11941.66
556.323	11871.16
556.686	11848.11
557.05	11905.96
557.413	11924.94
557.776	11866.41
558.139	11874.55
558.502	11840.42
558.865	11780.09
559.228	11857.82
559.59	11895.56
559.953	11901.66
560.316	11968.1
560.679	11867.54
561.041	11907.31
561.404	11861.67
561.767	11931.72
562.129	11836.81
562.492	11949.12
562.854	11864.6
563.217	11877.71
563.579	11885.39
563.941	11962.23
564.304	11990.7
564.666	12020.98
565.028	12032.73
565.39	11969.46
565.753	12050.59
566.115	12060.98
566.477	12096.01
566.839	12072.51
567.201	12114.54
567.563	12031.83
567.925	12101.89
568.287	12098.72
568.648	12098.72
569.01	12076.8
569.372	12146.4
569.734	12144.82
570.095	12178.27
570.457	12156.8
570.819	12185.27
571.18	12193.41
571.542	12241.09
571.903	12252.84
572.265	12228.89
572.626	12263.24
572.987	12314.76
573.349	12359.05
573.71	12292.84
574.071	12362.44
574.432	12329.22
574.794	12333.52
575.155	12341.2
575.516	12256.91
575.877	12350.92
576.238	12372.61
576.599	12379.39
576.96	12478.15
577.32	12451.03
577.681	12404.7
578.042	12449.22
578.403	12432.72
578.763	12471.82
579.124	12467.75
579.485	12423.91
579.845	12451.93
580.206	12444.25
580.566	12428.2
580.927	12445.83
581.287	12450.35
581.648	12395.89
582.008	12432.5
582.368	12368.09
582.728	12494.19
583.089	12360.41
583.449	12405.61
583.809	12408.54
584.169	12343.46
584.529	12352.27
584.889	12404.48
585.249	12325.38
585.609	12290.35
585.969	12422.33
586.329	12323.12
586.688	12401.31
587.048	12397.02
587.408	12297.36
587.768	12287.64
588.127	12247.42
588.487	12217.36
588.846	12406.28
589.206	12209.68
589.565	12225.5
589.925	12380.07
590.284	12228.44
590.643	12276.12
591.003	12291.48
591.362	12220.75
591.721	12218.27
592.08	12229.57
592.44	12246.97
592.799	12267.76
593.158	12270.02
593.517	12171.94
593.876	12259.4
594.235	12175.56
594.593	12118.83
594.952	12234.31
595.311	12216.23
595.67	12205.61
596.029	12204.48
596.387	12251.03
596.746	12243.12
597.104	12136.46
597.463	12154.77
597.822	12229.34
598.18	12186.18
598.538	12157.93
598.897	12234.31
599.255	12121.32
599.613	12314.31
599.972	12171.04
600.33	12211.71
600.688	12137.36
601.046	12115.67
601.404	12171.04
601.762	12150.47
602.12	12266.4
602.478	12236.8
602.836	12224.59
603.194	12185.95
603.552	12151.6
603.91	12070.7
604.268	12172.39
604.625	12124.03
604.983	12255.33
605.341	12158.38
605.698	12125.16
606.056	12248.32
606.413	12180.98
606.771	12213.52
607.128	12197.93
607.485	12147.08
607.843	12241.54
608.2	12233.86
608.557	12299.62
608.914	12227.76
609.272	12239.28
609.629	12322.44
609.986	12370.13
610.343	12290.58
610.7	12358.6
611.057	12271.82
611.414	12320.86
611.771	12332.61
612.127	12357.7
612.484	12379.84
612.841	12364.7
613.198	12339.17
613.554	12326.74
613.911	12469.56
614.267	12385.27
614.624	12360.18
614.98	12380.07
615.337	12421.88
615.693	12409.67
616.05	12432.5
616.406	12502.55
616.762	12484.02
617.118	12481.54
617.475	12397.7
617.831	12446.73
618.187	12503.46
618.543	12446.28
618.899	12588.43
619.255	12606.73
619.611	12606.05
619.967	12605.37
620.323	12634.07
620.678	12621.19
621.034	12542.1
621.39	12577.58
621.746	12611.7
622.101	12685.82
622.457	12508.2
622.812	12573.74
623.168	12690.34
623.523	12606.05
623.879	12645.15
624.234	12573.06
624.589	12582.55
624.945	12615.09
625.3	12561.53
625.655	12563.57
626.01	12558.14
626.365	12591.59
626.72	12591.14
627.075	12617.8
627.43	12479.95
627.785	12467.3
628.14	12587.07
628.495	12588.88
628.85	12533.96
629.205	12480.18
629.559	12548.88
629.914	12500.07
630.269	12470.92
630.623	12483.34
630.978	12467.98
631.332	12492.61
631.687	12558.82
632.041	12494.42
632.396	12503.68
632.75	12453.29
633.104	12475.43
633.459	12421.88
633.813	12411.48
634.167	12468.2
634.521	12309.79
634.875	12333.29
635.229	12351.37
635.583	12286.74
635.937	12265.95
636.291	12289.45
636.645	12331.71
636.999	12285.61
637.352	12269.34
637.706	12199.51
638.06	12264.37
638.413	12166.52
638.767	12188.66
639.121	12132.17
639.474	12091.04
639.828	12092.62
640.181	12091.72
640.534	12089.46
640.888	12105.05
641.241	12108.21
641.594	12092.62
641.947	12131.26
642.301	12076.58
642.654	12044.49
643.007	12129.68
643.36	12123.13
643.713	12054.88
644.066	12035.45
644.419	12106.18
644.771	11959.29
645.124	11846.3
645.477	11807.43
645.83	11788.22
646.182	11673.65
646.535	11743.93
646.888	11749.58
647.24	11627.77
647.593	11723.36
647.945	11686.3
648.298	11547.55
648.65	11590.03
649.002	11602.69
649.355	11597.04
649.707	11661.67
650.059	11630.49
650.411	11868.44
650.763	11785.28
651.115	11933.75
651.467	11890.37
651.819	11914.09
652.171	11891.04
652.523	11829.12
652.875	11900.08
653.227	11815.34
653.578	11938.5
653.93	11856.02
654.282	11850.37
654.633	11844.94
654.985	11870.25
655.337	11819.63
655.688	11894.88
656.039	11935.34
656.391	11827.09
656.742	11895.34
657.094	11904.15
657.445	11910.48
657.796	11915.45
658.147	11851.72
658.498	11829.12
658.849	11864.15
659.2	11849.46
659.551	11903.02
659.902	11918.16
660.253	11772.63
660.604	11894.88
660.955	11796.58
661.306	11904.38
661.656	11894.66
662.007	11861.21
662.358	11828.45
662.708	11872.51
663.059	11931.95
663.409	11821.89
663.76	11879.07
664.11	11870.25
664.461	11929.69
664.811	11897.6
665.161	11834.1
665.511	11858.5
665.862	11871.38
666.212	11945.51
666.562	11905.51
666.912	11861.44
667.262	11897.82
667.612	11927.2
667.962	11896.69
668.312	11949.57
668.662	11932.85
669.011	11855.79
669.361	11863.93
669.711	11891.27
670.06	11836.13
670.41	11757.04
670.76	11799.75
671.109	11828.22
671.459	11775.79
671.808	11738.73
672.157	11868.44
672.507	11788.67
672.856	11733.53
673.205	11764.04
673.554	11836.58
673.904	11773.98
674.253	11867.32
674.602	11802.68
674.951	11665.96
675.3	11626.87
675.649	11781.44
675.998	11757.71
676.346	11692.63
676.695	11770.37
677.044	11650.15
677.393	11649.02
677.741	11692.18
678.09	11635.23
678.438	11632.97
678.787	11647.43
679.135	11608.11
679.484	11542.35
679.832	11557.72
680.181	11509.58
680.529	11591.84
680.877	11605.18
681.225	11555.91
681.573	11588.23
681.922	11532.63
682.27	11418.97
682.618	11420.77
682.966	11432.98
683.314	11441.11
683.661	11409.93
684.009	11366.31
684.357	11312.98
684.705	11335.8
685.053	11333.77
685.4	11359.76
685.748	11254.45
686.095	11240.21
686.443	11158.18
686.79	11181.68
687.138	11171.51
687.485	11209.48
687.832	11174.9
688.18	11097.84
688.527	11108.01
688.874	11063.04
689.221	11011.29
689.568	10953.67
689.915	10976.04
690.262	10881.8
690.609	10870.05
690.956	10818.3
691.303	10867.12
691.65	10717.74
691.997	10810.85
692.344	10745.54
692.69	10700.34
693.037	10750.73
693.383	10603.17
693.73	10657.86
694.077	10590.51
694.423	10515.49
694.769	10536.73
695.116	10451.99
695.462	10454.02
695.808	10358.2
696.155	10445.21
696.501	10271.2
696.847	10316.85
697.193	10248.15
697.539	10301.48
697.885	10203.86
698.231	10178.32
698.577	10155.27
698.923	10144.65
699.269	10081.15
699.614	9995.95
699.96	9941.04
700.306	9967.03
700.651	9890.87
700.997	9976.29
701.342	9885.9
701.688	9834.15
702.033	9764.77
702.379	9793.25
702.724	9802.96
703.069	9817.65
703.415	9715.06
703.76	9654.49
704.105	9671.44
704.45	9567.94
704.795	9484.55
705.14	9550.54
705.485	9504.89
705.83	9496.98
706.175	9541.27
706.52	9424.89
706.865	9442.52
707.209	9417.44
707.554	9340.6
707.899	9331.56
708.243	9291.34
708.588	9298.34
708.932	9222.64
709.277	9210.89
709.621	9200.27
709.966	9192.13
710.31	9155.97
710.654	9104
710.998	9109.87
711.342	9070.33
711.687	9024.23
712.031	8975.87
712.375	8955.75
712.719	8940.61
713.063	8945.58
713.407	8962.76
713.75	8848.41
714.094	8929.99
714.438	8907.17
714.782	8892.03
715.125	8832.59
715.469	8897.68
715.812	8793.05
716.156	8737.68
716.499	8738.81
716.843	8792.59
717.186	8702.2
717.53	8782.42
717.873	8709.21
718.216	8718.02
718.559	8718.02
718.902	8629.66
719.246	8685.7
719.589	8682.99
719.932	8571.36
720.275	8561.19
720.617	8593.28
720.96	8583.11
721.303	8622.65
721.646	8612.03
721.989	8565.71
722.331	8589.89
722.674	8499.49
723.016	8533.17
723.359	8507.86
723.701	8512.38
724.044	8501.3
724.386	8433.73
724.729	8501.3
725.071	8471.92
725.413	8504.47
725.755	8504.24
726.097	8488.19
726.439	8357.35
726.782	8427.63
727.124	8500.4
727.465	8430.57
727.807	8410.46
728.149	8464.69
728.491	8421.98
728.833	8429.21
729.175	8391.47
729.516	8441.64
729.858	8360.29
730.199	8374.07
730.541	8428.31
730.882	8343.11
731.224	8432.6
731.565	8288.43
731.906	8342.44
732.248	8359.38
732.589	8285.94
732.93	8289.33
733.271	8270.35
733.612	8339.72
733.953	8375.66
734.294	8315.09
734.635	8304.92
734.976	8347.41
735.317	8306.28
735.658	8304.92
735.999	8322.1
736.339	8322.78
736.68	8359.61
737.021	8342.21
737.361	8325.94
737.702	8379.27
738.042	8325.49
738.383	8352.38
738.723	8362.1
739.063	8364.81
739.404	8368.88
739.744	8420.17
740.084	8371.14
740.424	8426.28
740.764	8457.24
741.104	8463.11
741.444	8360.97
741.784	8378.59
742.124	8488.87
742.464	8493.17
742.804	8459.27
743.143	8483.45
743.483	8493.39
743.823	8486.84
744.162	8497.46
744.502	8641.41
744.841	8570.23
745.181	8584.92
745.52	8640.28
745.86	8673.95
746.199	8698.58
746.538	8753.27
746.877	8779.26
747.216	8889.99
747.556	8896.09
747.895	8922.31
748.234	9008.18
748.573	8984
748.911	9068.07
749.25	9120.27
749.589	9184.9
749.928	9256.54
750.267	9219.48
750.605	9346.7
750.944	9405.23
751.283	9464.21
751.621	9535.17
751.96	9604.55
752.298	9716.19
752.636	9869.85
752.975	9839.57
753.313	9919.12
753.651	10040.24
753.989	10023.3
754.327	10179.68
754.666	10222.84
755.004	10380.35
755.342	10531.08
755.679	10678.42
756.017	10776.04
756.355	10894.91
756.693	10958.86
757.031	11198.18
757.368	11298.29
757.706	11392.98
758.044	11512.07
758.381	11659.41
758.719	11765.4
759.056	11920.2
759.394	12138.95
759.731	12164.48
760.068	12349.34
760.405	12436.79
760.743	12563.34
761.08	12776.22
761.417	12874.07
761.754	13145.7
762.091	13243.1
762.428	13457.78
762.765	13467.5
763.102	13725.8
763.438	13799.69
763.775	13925.57
764.112	14206.01
764.449	14360.36
764.785	14466.34
765.122	14549.5
765.458	14675.15
765.795	14864.75
766.131	15047.8
766.467	15004.41
766.804	15337.05
767.14	15294.57
767.476	15513.55
767.812	15611.4
768.148	15713.32
768.485	15893.2
768.821	15938.85
769.157	16072.18
769.492	16216.13
769.828	16358.72
770.164	16372.06
770.5	16490.02
770.836	16626.74
771.171	16621.77
771.507	16792.61
771.842	16848.2
772.178	16930.01
772.513	17057.24
772.849	17109.89
773.184	17173.62
773.519	17343.56
773.855	17317.79
774.19	17379.94
774.525	17411.12
774.86	17574.06
775.195	17622.19
775.53	17584
775.865	17613.15
776.2	17565.92
776.535	17649.31
776.87	17772.92
777.205	17727.95
777.539	17723.66
777.874	17859.93
778.209	17814.28
778.543	17882.75
778.878	17770.66
779.212	17875.29
779.547	17957.55
779.881	17880.94
780.215	18000.94
780.55	17972.47
780.884	17915.74
781.218	17908.29
781.552	18061.28
781.886	17975.4
782.22	17983.76
782.554	17925.91
782.888	17879.13
783.222	17846.59
783.556	17856.99
783.889	17881.85
784.223	17809.08
784.557	17816.76
784.89	17887.27
785.224	17816.76
785.557	17735.18
785.891	17878.46
786.224	17755.3
786.558	17766.82
786.891	17626.94
787.224	17655.19
787.557	17685.02
787.891	17748.74
788.224	17665.58
788.557	17748.29
788.89	17689.76
789.223	17626.71
789.556	17597.79
789.888	17571.35
790.221	17572.48
790.554	17404.57
790.887	17400.95
791.219	17328.87
791.552	17255.2
791.884	17298.13
792.217	17322.99
792.549	17345.59
792.882	17270.34
793.214	17146.5
793.546	17232.15
793.879	17102.88
794.211	17030.8
794.543	17175.42
794.875	17081.19
795.207	17103.56
795.539	17007.52
795.871	16988.08
796.203	16915.54
796.535	16841.2
796.867	16789.22
797.198	16863.79
797.53	16785.6
797.862	16661.09
798.193	16688.88
798.525	16612.05
798.856	16664.7
799.188	16504.71
799.519	16452.96
799.85	16413.64
800.182	16482.11
800.513	16352.39
800.844	16272.17
801.175	16411.15
801.506	16391.49
801.837	16369.12
802.168	16163.25
802.499	16231.49
802.83	16166.64
803.161	16120.76
803.491	16085.51
803.822	16083.25
804.153	16050.26
804.483	15971.39
804.814	15803.48
805.145	15824.95
805.475	15923.71
805.805	15768.68
806.136	15755.12
806.466	15709.7
806.796	15820.66
807.126	15612.08
807.457	15527.78
807.787	15620.66
808.117	15559.87
808.447	15506.54
808.777	15506.77
809.107	15508.58
809.436	15312.42
809.766	15348.35
810.096	15409.37
810.426	15345.64
810.755	15267.9
811.085	15248.7
811.414	15271.52
811.744	15274.01
812.073	15172.09
812.403	15129.83
812.732	15085.99
813.061	15059.55
813.39	14983.39
813.719	14960.34
814.049	14972.32
814.378	14960.34
814.707	14920.57
815.036	14974.35
815.365	14827.01
815.693	14736.84
816.022	14829.5
816.351	14695.04
816.68	14628.6
817.008	14788.14
817.337	14584.31
817.665	14580.69
817.994	14517.64
818.322	14565.78
818.651	14494.14
818.979	14498.88
819.307	14530.97
819.636	14474.93
819.964	14437.64
820.292	14540.69
820.62	14508.6
820.948	14430.41
821.276	14460.24
821.604	14353.13
821.932	14434.93
822.259	14468.15
822.587	14387.47
822.915	14336.63
823.243	14396.29
823.57	14440.35
823.898	14330.75
824.225	14375.05
824.553	14339.57
824.88	14403.75
825.207	14393.58
825.535	14371.66
825.862	14394.03
826.189	14397.19
826.516	14484.2
826.843	14504.76
827.17	14438.77
827.497	14448.72
827.824	14386.8
828.151	14429.51
828.478	14442.16
828.805	14490.97
829.131	14367.14
829.458	14391.77
829.785	14435.84
830.111	14399.45
830.438	14486.46
830.764	14361.26
831.09	14368.94
831.417	14309.74
831.743	14467.92
832.069	14288.72
832.395	14281.71
832.722	14429.96
833.048	14245.33
833.374	14313.35
833.7	14298.44
834.026	14365.33
834.351	14366.68
834.677	14308.15
835.003	14288.04
835.329	14276.07
835.654	14301.38
835.98	14155.84
836.306	14184.99
836.631	14181.15
836.956	14255.5
837.282	14220.93
837.607	14179.8
837.932	14058.9
838.258	14149.06
838.583	14070.2
838.908	14059.8
839.233	14054.15
839.558	13987.03
839.883	13986.58
840.208	13953.59
840.533	13985.68
840.858	13875.4
841.182	13893.25
841.507	13838.34
841.832	13746.36
842.156	13733.48
842.481	13859.35
842.805	13775.06
843.13	13703.88
843.454	13718.79
843.778	13629.08
844.103	13628.85
844.427	13519.93
844.751	13613.71
845.075	13522.86
845.399	13507.05
845.723	13478.8
846.047	13511.57
846.371	13290.1
846.695	13457.33
847.019	13197.9
847.343	13204
847.666	13092.59
847.99	13078.13
848.313	13063.44
848.637	13039.71
848.96	12888.53
849.284	12889.44
849.607	12834.3
849.931	12764.24
850.254	12829.32
850.577	12698.93
850.9	12542.55
851.223	12561.08
851.546	12514.98
851.869	12448.99
852.192	12439.73
852.515	12391.82
852.838	12347.98
853.161	12291.71
853.483	12309.34
853.806	12186.63
854.129	12171.49
854.451	12119.74
854.774	12034.54
855.096	12053.52
855.419	12001.55
855.741	11894.43
856.063	11863.02
856.385	11882.23
856.708	11873.87
857.03	11804.04
857.352	11770.14
857.674	11756.36
857.996	11693.53
858.318	11565.63
858.64	11647.21
858.961	11652.63
859.283	11631.62
859.605	11547.55
859.926	11540.77
860.248	11460.32
860.57	11491.51
860.891	11521.11
861.212	11417.61
861.534	11359.08
861.855	11370.38
862.176	11310.49
862.498	11358.63
862.819	11343.94
863.14	11254.22
863.461	11226.43
863.782	11219.87
864.103	11221.23
864.424	11171.74
864.745	11211.97
865.065	11176.03
865.386	11140.33
865.707	11041.8
866.027	11091.52
866.348	11127
866.668	11064.85
866.989	10968.58
867.309	10953.89
867.63	10982.37
867.95	10970.84
868.27	10952.31
868.59	10974.68
868.91	10884.52
869.23	10897.85
869.55	10858.53
869.87	10916.61
870.19	10869.6
870.51	10906.66
870.83	10851.07
871.15	10776.27
871.469	10724.29
871.789	10894.46
872.109	10834.57
872.428	10677.06
872.748	10734.46
873.067	10703.05
873.386	10730.4
873.706	10622.6
874.025	10643.39
874.344	10601.81
874.663	10685.2
874.982	10655.6
875.301	10527.92
875.62	10554.36
875.939	10506.45
876.258	10528.82
876.577	10513.23
876.896	10492.89
877.214	10482.72
877.533	10412.21
877.852	10418.31
878.17	10425.77
878.489	10444.3
878.807	10390.74
879.125	10457.18
879.444	10397.75
879.762	10310.29
880.08	10371.76
880.398	10260.13
880.716	10254.02
881.034	10217.19
881.352	10298.32
881.67	10193.46
881.988	10240.69
882.306	10188.49
882.624	10146.91
882.941	10122.28
883.259	10135.84
883.577	10043.18
883.894	10127.7
884.212	10020.13
884.529	10042.05
884.846	9951.89
885.164	9957.31
885.481	9976.29
885.798	9947.82
886.115	9877.99
886.432	9926.58
886.75	9850.64
887.067	9869.63
887.383	9798.89
887.7	9774.49
888.017	9664.44
888.334	9724.77
888.651	9769.74
888.967	9720.03
889.284	9604.78
889.6	9561.39
889.917	9555.96
890.233	9560.71
890.55	9507.38
890.866	9531.56
891.182	9518
891.498	9462.63
891.815	9417.66
892.131	9398.68
892.447	9336.08
892.763	9321.85
893.079	9301.73
893.395	9295.18
893.71	9265.8
894.026	9265.58
894.342	9209.08
894.657	9120.04
894.973	9181.74
895.289	9101.29
895.604	9089.76
895.92	8992.36
896.235	8981.74
896.55	8981.52
896.865	8915.98
897.181	8893.16
897.496	8980.39
897.811	8885.25
898.126	8895.42
898.441	8783.55
898.756	8829.2
899.071	8763.22
899.386	8772.71
899.7	8658.36
900.015	8638.7
900.33	8578.14
900.644	8580.62
900.959	8530.45
901.273	8546.95
901.588	8555.09
901.902	8451.13
902.216	8428.54
902.531	8399.84
902.845	8433.73
903.159	8368.88
903.473	8288.43
903.787	8263.79
904.101	8209.11
904.415	8164.59
904.729	8199.16
905.042	8126.85
905.356	8134.76
905.67	8158.94
905.984	8054.76
906.297	8051.37
906.611	8004.82
906.924	7981.99
907.237	8014.54
907.551	7953.29
907.864	7893.41
908.177	7901.32
908.491	7809.79
908.804	7814.77
909.117	7669.91
909.43	7679.18
909.743	7644.38
910.056	7662.68
910.368	7661.1
910.681	7577.26
910.994	7533.19
911.307	7579.52
911.619	7476.47
911.932	7475.57
912.244	7447.54
912.557	7391.95
912.869	7359.64
913.181	7353.31
913.494	7314.67
913.806	7316.47
914.118	7213.65
914.43	7197.16
914.742	7187.21
915.054	7163.48
915.366	7135.46
915.678	7089.14
915.99	7090.04
916.302	7001
916.613	6992.87
916.925	6982.02
917.236	6966.65
917.548	6915.81
917.859	6914
918.171	6872.87
918.482	6865.86
918.794	6795.58
919.105	6872.19
919.416	6816.15
919.727	6767.11
920.038	6743.61
920.349	6658.41
920.66	6645.08
920.971	6632.65
921.282	6652.08
921.593	6616.83
921.903	6563.05
922.214	6529.38
922.525	6508.36
922.835	6527.57
923.146	6391.07
923.456	6449.15
923.767	6413.9
924.077	6407.57
924.387	6323.73
924.697	6296.61
925.008	6325.99
925.318	6287.12
925.628	6252.55
925.938	6199.89
926.248	6155.37
926.558	6205.09
926.867	6183.17
927.177	6138.65
927.487	6140.91
927.796	6033.12
928.106	6065.89
928.416	6003.29
928.725	5987.7
929.034	5929.17
929.344	5959.67
929.653	5939.56
929.962	5911.31
930.271	5857.98
930.581	5879
930.89	5791.32
931.199	5788.6
931.508	5720.81
931.817	5733.92
932.125	5781.6
932.434	5731.66
932.743	5659.12
933.051	5656.63
933.36	5637.42
933.669	5601.27
933.977	5579.57
934.286	5541.61
934.594	5587.71
934.902	5522.17
935.21	5497.54
935.519	5445.56
935.827	5466.81
936.135	5453.25
936.443	5408.95
936.751	5380.93
937.059	5408.73
937.367	5305.68
937.674	5322.18
937.982	5325.79
938.29	5250.09
938.597	5212.12
938.905	5198.34
939.213	5205.34
939.52	5182.07
939.827	5118.79
940.135	5145.46
940.442	5138.9
940.749	5065.91
941.056	5124.89
941.363	5020.04
941.67	5014.61
941.977	5036.99
942.284	4975.52
942.591	4970.55
942.898	4923.77
943.205	4962.64
943.511	4910.66
943.818	4911.34
944.125	4841.74
944.431	4887.16
944.738	4811
945.044	4789.99
945.35	4742.3
945.657	4758.8
945.963	4755.64
946.269	4699.37
946.575	4653.49
946.881	4675.41
947.187	4650.1
947.493	4629.54
947.799	4611.23
948.105	4566.72
948.41	4542.99
948.716	4579.6
949.022	4542.54
949.327	4546.15
949.633	4495.53
949.938	4503.21
950.244	4441.3
950.549	4472.03
950.854	4405.14
951.16	4400.39
951.465	4430.22
951.77	4381.64
952.075	4370.79
952.38	4349.09
952.685	4322.2
952.99	4253.96
953.294	4266.16
953.599	4267.74
953.904	4241.75
954.209	4180.29
954.513	4205.14
954.818	4197.69
955.122	4179.16
955.426	4158.59
955.731	4135.77
956.035	4126.95
956.339	4082.21
956.643	4094.41
956.948	4057.35
957.252	4073.62
957.556	4051.93
957.86	4044.92
958.163	4017.35
958.467	3936.68
958.771	3980.74
959.075	3917.92
959.378	3925.6
959.682	3904.36
959.985	3937.81
960.289	3879.95
960.592	3845.38
960.896	3867.98
961.199	3844.25
961.502	3808.09
961.805	3778.71
962.108	3764.48
962.411	3764.93
962.714	3735.33
963.017	3723.8
963.32	3704.59
963.623	3702.56
963.926	3685.84
964.228	3666.4
964.531	3644.03
964.833	3640.86
965.136	3612.16
965.438	3596.35
965.741	3562
966.043	3559.51
966.345	3595.89
966.648	3548.89
966.95	3511.83
967.252	3486.74
967.554	3482.68
967.856	3494.2
968.158	3483.13
968.46	3441.55
968.761	3438.84
969.063	3442
969.365	3403.81
969.666	3410.59
969.968	3340.76
970.269	3360.65
970.571	3365.39
970.872	3373.3
971.174	3338.95
971.475	3326.75
971.776	3248.78
972.077	3273.87
972.378	3272.06
972.679	3209.24
972.98	3225.73
973.281	3237.49
973.582	3200.65
973.883	3150.93
974.183	3165.4
974.484	3146.19
974.785	3158.84
975.085	3170.59
975.386	3177.6
975.686	3091.5
975.986	3126.53
976.287	3080.88
976.587	3067.09
976.887	3046.53
977.187	3025.51
977.487	3050.82
977.787	3034.55
978.087	2990.03
978.387	2973.31
978.687	2978.51
978.987	2917.49
979.286	2915.46
979.586	2942.58
979.885	2920.43
980.185	2931.96
980.484	2912.75
980.784	2899.19
981.083	2827.33
981.382	2851.73
981.682	2868
981.981	2833.65
982.28	2866.42
982.579	2799.3
982.878	2809.93
983.177	2789.59
983.475	2786.42
983.774	2749.59
984.073	2724.96
984.372	2721.11
984.67	2699.42
984.969	2693.54
985.267	2719.98
985.566	2666.43
985.864	2668.91
986.162	2661.46
986.461	2658.29
986.759	2644.73
987.057	2632.76
987.355	2598.86
987.653	2600.44
987.951	2604.28
988.249	2581.23
988.547	2572.19
988.844	2553.89
989.142	2581.68
989.44	2501.91
989.737	2520.22
990.035	2507.79
990.332	2478.86
990.63	2494
990.927	2476.15
991.224	2469.14
991.521	2422.37
991.819	2425.08
992.116	2412.65
992.413	2435.02
992.71	2368.13
993.006	2387.79
993.303	2379.88
993.6	2366.77
993.897	2363.16
994.193	2335.81
994.49	2368.36
994.787	2318.64
995.083	2295.36
995.379	2320.22
995.676	2302.37
995.972	2274.57
996.268	2259.21
996.565	2255.59
996.861	2255.82
997.157	2220.56
997.453	2235.48
997.749	2240.22
998.044	2183.28
998.34	2167.23
998.636	2159.55
998.932	2190.73
999.227	2181.69
999.523	2143.73
999.818	2148.25
1000.114	2162.26
1000.409	2152.99
1000.704	2115.03
1001	2116.39
1001.295	2109.61
1001.59	2083.84
1001.885	2054.01
1002.18	2057.86
1002.475	2054.24
1002.77	2028.48
1003.065	2002.04
1003.359	1984.86
1003.654	1979.44
1003.949	1982.15
1004.243	2005.2
1004.538	1981.25
1004.832	1976.95
1005.127	1962.26
1005.421	1926.11
1005.715	1890.63
1006.009	1891.53
1006.304	1896.5
1006.598	1896.5
1006.892	1897.63
1007.186	1871.42
1007.48	1847.47
1007.773	1866.22
1008.067	1837.75
1008.361	1827.35
1008.655	1829.84
1008.948	1790.97
1009.242	1788.26
1009.535	1788.26
1009.829	1771.99
1010.122	1753.91
1010.415	1727.47
1010.708	1736.51
1011.001	1743.74
1011.295	1726.34
1011.588	1712.1
1011.881	1665.55
1012.173	1684.08
1012.466	1670.3
1012.759	1689.73
1013.052	1683.63
1013.344	1644.98
1013.637	1655.83
1013.93	1633.23
1014.222	1635.95
1014.514	1643.18
1014.807	1612.44
1015.099	1583.07
1015.391	1585.78
1015.683	1581.71
1015.976	1579.22
1016.268	1540.81
1016.56	1558.43
1016.851	1529.73
1017.143	1536.51
1017.435	1554.59
1017.727	1503.52
1018.018	1474.37
1018.31	1487.93
1018.602	1498.1
1018.893	1458.78
1019.185	1489.06
1019.476	1454.93
1019.767	1433.69
1020.058	1458.55
1020.35	1428.49
1020.641	1424.65
1020.932	1430.53
1021.223	1395.73
1021.514	1394.37
1021.804	1382.17
1022.095	1370.87
1022.386	1365.67
1022.677	1349.4
1022.967	1379.23
1023.258	1332.68
1023.548	1323.19
1023.839	1323.19
1024.129	1306.24
1024.419	1306.01
1024.709	1292.9
1025	1277.31
1025.29	1280.25
1025.58	1263.98
1025.87	1255.39
1026.16	1240.48
1026.449	1255.39
1026.739	1252.68
1027.029	1237.99
1027.319	1222.62
1027.608	1216.07
1027.898	1215.84
1028.187	1216.3
1028.477	1198.67
1028.766	1194.83
1029.055	1175.39
1029.344	1187.6
1029.634	1164.77
1029.923	1187.37
1030.212	1133.13
1030.501	1149.63
1030.79	1123.19
1031.078	1129.52
1031.367	1107.82
1031.656	1130.42
1031.945	1092.01
1032.233	1113.47
1032.522	1088.84
1032.81	1087.94
1033.099	1077.54
1033.387	1071.44
1033.675	1053.36
1033.963	1054.49
1034.251	1048.16
1034.54	1046.81
1034.828	1038.45
1035.116	1038.45
1035.403	999.13
1035.691	1014.95
1035.979	1033.02
1036.267	1025.79
1036.554	1003.65
1036.842	996.87
1037.129	980.37
1037.417	999.8
1037.704	987.83
1037.992	992.57
1038.279	943.31
1038.566	941.27
1038.853	941.27
1039.14	941.27
