Data from hue_20_FLMS001491_32.txt Node
Date: Mon Feb 06 15:33:58 GMT 2017
User: dcchb
Spectrometer: FLMS00149
Trigger mode: 0
Integration Time (sec): 2.000000E-2
Scans to average: 10
Electric dark correction enabled: true
Nonlinearity correction enabled: false
Boxcar width: 0
XAxis mode: Wavelengths
Number of Pixels in Spectrum: 2048
>>>>>Begin Spectral Data<<<<<
341.393	-13.05
341.776	-13.05
342.16	-13.05
342.543	-46.95
342.927	-68.42
343.31	-65.7
343.693	-93.73
344.077	-60.51
344.46	-65.93
344.843	-40.17
345.226	-41.3
345.61	-40.17
345.993	-15.31
346.376	-20.28
346.759	31.69
347.142	32.6
347.525	31.02
347.908	51.81
348.291	100.39
348.674	97.91
349.057	97.68
349.44	145.14
349.823	139.49
350.206	167.51
350.588	207.96
350.971	203.21
351.354	212.03
351.737	247.73
352.119	257.68
352.502	272.59
352.884	271.24
353.267	277.56
353.65	300.16
354.032	299.48
354.414	327.51
354.797	312.82
355.179	313.49
355.562	342.87
355.944	332.7
356.326	338.13
356.709	367.73
357.091	346.94
357.473	342.19
357.855	344.23
358.238	341.52
358.62	359.37
359.002	354.62
359.384	348.3
359.766	335.41
360.148	339.26
360.53	340.84
360.912	335.19
361.294	341.06
361.676	327.96
362.057	325.7
362.439	334.96
362.821	323.21
363.203	326.15
363.584	340.61
363.966	326.15
364.348	332.48
364.729	333.61
365.111	336.54
365.493	312.82
365.874	319.82
366.256	304.46
366.637	326.15
367.019	323.44
367.4	320.73
367.781	318.92
368.163	305.81
368.544	311.69
368.925	291.57
369.306	314.62
369.688	301.74
370.069	330.9
370.45	311.69
370.831	328.18
371.212	311.91
371.593	305.36
371.974	313.27
372.355	331.8
372.736	309.43
373.117	316.88
373.498	335.64
373.879	312.82
374.26	320.5
374.641	312.59
375.021	322.31
375.402	351.46
375.783	348.3
376.163	327.05
376.544	346.49
376.925	326.6
377.305	333.16
377.686	326.83
378.066	331.12
378.447	324.79
378.827	340.84
379.208	328.64
379.588	305.81
379.968	324.34
380.349	315.3
380.729	313.04
381.109	326.6
381.489	334.74
381.87	361.18
382.25	332.7
382.63	316.21
383.01	340.61
383.39	330.67
383.77	330.9
384.15	326.6
384.53	305.59
384.91	327.96
385.29	355.08
385.67	345.36
386.049	362.08
386.429	360.05
386.809	352.59
387.189	348.3
387.568	347.17
387.948	346.49
388.328	347.17
388.707	355.3
389.087	344.23
389.466	367.73
389.846	357.79
390.225	353.49
390.605	346.26
390.984	346.94
391.363	358.01
391.743	351.23
392.122	351.69
392.501	374.51
392.881	363.44
393.26	364.79
393.639	376.77
394.018	370.44
394.397	380.16
394.776	368.18
395.155	366.37
395.534	372.48
395.913	357.11
396.292	391.01
396.671	388.75
397.05	387.62
397.429	358.69
397.808	366.6
398.186	374.28
398.565	366.6
398.944	379.71
399.323	382.19
399.701	388.52
400.08	404.34
400.458	381.97
400.837	394.17
401.215	391.23
401.594	391.68
401.972	374.06
402.351	392.36
402.729	384
403.107	395.75
403.486	399.37
403.864	400.72
404.242	392.36
404.62	392.81
404.999	392.14
405.377	398.24
405.755	408.18
406.133	429.65
406.511	409.99
406.889	409.54
407.267	409.31
407.645	397.33
408.023	424.45
408.401	402.76
408.779	413.6
409.156	428.97
409.534	436.88
409.912	426.26
410.29	416.77
410.667	438.92
411.045	447.28
411.422	417.45
411.8	445.24
412.178	418.8
412.555	471.46
412.933	453.38
413.31	453.15
413.687	454.96
414.065	454.06
414.442	469.42
414.819	474.39
415.197	461.74
415.574	449.54
415.951	482.53
416.328	473.49
416.705	455.64
417.082	461.74
417.46	472.59
417.837	471
418.214	473.04
418.591	473.94
418.967	484.11
419.344	487.28
419.721	484.11
420.098	463.1
420.475	497.44
420.852	480.95
421.228	491.12
421.605	486.15
421.982	496.77
422.358	501.29
422.735	491.12
423.111	504.22
423.488	512.81
423.864	503.32
424.241	509.2
424.617	528.63
424.994	518.01
425.37	522.75
425.746	506.94
426.123	496.54
426.499	520.49
426.875	511
427.251	518.69
427.627	543.32
428.003	538.8
428.379	527.95
428.756	522.53
429.132	574.28
429.507	567.95
429.883	566.6
430.259	557.56
430.635	553.71
431.011	566.14
431.387	579.48
431.763	578.12
432.138	576.99
432.514	578.35
432.89	590.55
433.265	585.35
433.641	609.98
434.016	598.68
434.392	598.91
434.767	603.66
435.143	620.83
435.518	600.04
435.894	612.47
436.269	631
436.644	618.8
437.02	638.46
437.395	626.03
437.77	627.84
438.145	673.49
438.52	657.89
438.895	654.95
439.271	649.3
439.646	655.86
440.021	663.32
440.395	661.51
440.77	655.41
441.145	660.83
441.52	694.73
441.895	666.48
442.27	673.26
442.645	689.08
443.019	685.01
443.394	702.18
443.769	696.54
444.143	707.83
444.518	696.08
444.892	693.82
445.267	713.26
445.641	725.24
446.016	717.55
446.39	715.07
446.764	720.04
447.139	696.76
447.513	725.91
447.887	726.37
448.262	720.94
448.636	747.83
449.01	740.15
449.384	733.14
449.758	722.3
450.132	752.13
450.506	739.92
450.88	764.78
451.254	748.29
451.628	739.7
452.002	789.19
452.376	791
452.75	789.64
453.123	793.48
453.497	810.2
453.871	793.26
454.244	809.07
454.618	831
454.992	823.09
455.365	828.28
455.739	823.31
456.112	866.25
456.486	855.18
456.859	848.85
457.232	894.04
457.606	852.69
457.979	852.01
458.352	888.17
458.725	896.98
459.099	916.42
459.472	913.93
459.845	917.55
460.218	927.26
460.591	947.83
460.964	934.72
461.337	935.17
461.71	972.69
462.083	956.64
462.456	979.92
462.829	984.21
463.201	985.57
463.574	987.6
463.947	1026.7
464.32	1026.02
464.692	1045.45
465.065	1028.73
465.438	1063.53
465.81	1080.71
466.183	1079.58
466.555	1089.07
466.928	1099.01
467.3	1120.48
467.672	1130.65
468.045	1130.87
468.417	1151.89
468.789	1189.86
469.161	1164.09
469.534	1203.19
469.906	1202.06
470.278	1225.79
470.65	1216.07
471.022	1214.94
471.394	1254.49
471.766	1286.12
472.138	1292
472.51	1323.41
472.882	1361.6
473.253	1356.86
473.625	1366.57
473.997	1386.01
474.369	1399.79
474.74	1426.91
475.112	1456.74
475.484	1486.57
475.855	1522.95
476.227	1512.79
476.598	1538.1
476.97	1564.54
477.341	1601.82
477.713	1640.24
478.084	1680.24
478.455	1682.27
478.827	1690.86
479.198	1759.56
479.569	1756.39
479.94	1805.88
480.311	1851.76
480.682	1874.81
481.053	1894.92
481.424	1962.04
481.795	1969.27
482.166	1988.03
482.537	2042.71
482.908	2049.27
483.279	2109.38
483.65	2120.9
484.021	2182.15
484.391	2213.56
484.762	2242.48
485.133	2272.77
485.503	2275.02
485.874	2378.53
486.244	2339.2
486.615	2442.7
486.985	2426.43
487.356	2512.08
487.726	2516.37
488.097	2567.22
488.467	2589.59
488.837	2637.5
489.207	2690.38
489.578	2724.73
489.948	2768.57
490.318	2809.7
490.688	2812.19
491.058	2868.46
491.428	2942.35
491.798	2959.75
492.168	2971.96
492.538	2966.76
492.908	3061.9
493.278	3088.34
493.648	3076.36
494.017	3130.6
494.387	3142.35
494.757	3186.19
495.126	3261.67
495.496	3256.47
495.866	3287.88
496.235	3298.5
496.605	3330.59
496.974	3332.62
497.344	3399.74
497.713	3426.63
498.082	3455.11
498.452	3487.65
498.821	3512.73
499.19	3530.59
499.559	3557.93
499.928	3595.89
500.298	3604.71
500.667	3606.97
501.036	3634.09
501.405	3680.41
501.774	3679.06
502.143	3729
502.512	3724.25
502.88	3780.52
503.249	3757.92
503.618	3829.56
503.987	3788.66
504.356	3855.32
504.724	3881.31
505.093	3873.17
505.462	3872.27
505.83	3959.27
506.199	3945.49
506.567	3952.95
506.936	3968.31
507.304	4021.87
507.672	4032.04
508.041	4066.62
508.409	4070.23
508.777	4093.06
509.145	4169.89
509.514	4121.08
509.882	4155.43
510.25	4162.43
510.618	4199.95
510.986	4196.56
511.354	4224.8
511.722	4256.89
512.09	4281.75
512.458	4256.67
512.826	4294.63
513.193	4288.08
513.561	4320.85
513.929	4329.89
514.297	4401.97
514.664	4380.51
515.032	4405.14
515.4	4444.46
515.767	4484.68
516.135	4481.75
516.502	4440.84
516.869	4513.16
517.237	4564.91
517.604	4518.81
517.972	4524.91
518.339	4551.8
518.706	4592.03
519.073	4617.56
519.44	4605.36
519.808	4618.47
520.175	4569.88
520.542	4643.1
520.909	4664.34
521.276	4696.2
521.643	4732.36
522.009	4752.7
522.376	4776.2
522.743	4764.45
523.11	4872.7
523.477	4839.48
523.843	4876.76
524.21	4922.86
524.577	4946.59
524.943	4938.46
525.31	4929.87
525.676	5031.34
526.043	5016.2
526.409	5064.56
526.776	5118.79
527.142	5178.9
527.508	5106.36
527.874	5180.49
528.241	5175.06
528.607	5250.54
528.973	5213.93
529.339	5248.28
529.705	5290.31
530.071	5311.56
530.437	5392.68
530.803	5317.66
531.169	5407.37
531.535	5397.65
531.901	5445.34
532.267	5461.83
532.632	5496.64
532.998	5529.85
533.364	5540.25
533.73	5590.87
534.095	5601.04
534.461	5597.42
534.826	5616.63
535.192	5648.95
535.557	5712.45
535.923	5699.34
536.288	5720.13
536.653	5724.88
537.019	5755.61
537.384	5770.07
537.749	5800.36
538.114	5806.68
538.479	5829.96
538.845	5832.22
539.21	5778.66
539.575	5845.1
539.94	5910.41
540.305	5971.88
540.67	5951.76
541.034	5983.85
541.399	5996.28
541.764	6005.77
542.129	6034.7
542.494	6085.77
542.858	6077.41
543.223	6093.68
543.587	6173.91
543.952	6184.53
544.316	6174.36
544.681	6199.22
545.045	6198.76
545.41	6323.51
545.774	6252.77
546.138	6304.3
546.503	6356.05
546.867	6335.26
547.231	6437.63
547.595	6402.6
547.959	6410.96
548.324	6455.03
548.688	6456.61
549.052	6481.69
549.416	6507.68
549.779	6502.03
550.143	6539.55
550.507	6618.41
550.871	6628.13
551.235	6611.41
551.599	6627.45
551.962	6659.99
552.326	6672.88
552.689	6710.16
553.053	6652.08
553.417	6700.67
553.78	6794.45
554.143	6776.83
554.507	6812.31
554.87	6763.27
555.234	6926.2
555.597	6834.45
555.96	6877.62
556.323	6948.57
556.686	6897.95
557.05	6903.83
557.413	6972.53
557.776	7035.35
558.139	6995.8
558.502	7049.14
558.865	7090.72
559.228	7106.54
559.59	7115.12
559.953	7209.81
560.316	7209.58
560.679	7213.2
561.041	7235.57
561.404	7297.49
561.767	7292.07
562.129	7249.36
562.492	7323.48
562.854	7324.84
563.217	7361.67
563.579	7390.82
563.941	7435.12
564.304	7491.84
564.666	7426.3
565.028	7481.67
565.39	7532.74
565.753	7554.43
566.115	7563.25
566.477	7631.04
566.839	7593.08
567.201	7690.93
567.563	7654.77
567.925	7777.48
568.287	7730.7
568.648	7737.03
569.01	7795.78
569.372	7854.31
569.734	7866.52
570.095	7906.29
570.457	7963.69
570.819	7927.53
571.18	8012.5
571.542	8046.17
571.903	8085.49
572.265	8141.54
572.626	8219.95
572.987	8170.92
573.349	8264.7
573.71	8315.77
574.071	8294.53
574.432	8369.55
574.794	8430.12
575.155	8462.21
575.516	8464.47
575.877	8534.75
576.238	8543.79
576.599	8722.31
576.96	8699.04
577.32	8776.32
577.681	8903.33
578.042	8876.66
578.403	8980.84
578.763	9055.86
579.124	9125.01
579.485	9227.38
579.845	9292.92
580.206	9466.47
580.566	9507.15
580.927	9585.12
581.287	9699.24
581.648	9820.14
582.008	9885.9
582.368	10037.08
582.728	10125.67
583.089	10230.97
583.449	10406.34
583.809	10553
584.169	10692.66
584.529	10850.39
584.889	11126.54
585.249	11196.15
585.609	11296.48
585.969	11520.88
586.329	11711.39
586.688	11885.39
587.048	12001.1
587.408	12254.65
587.768	12442.67
588.127	12736.44
588.487	12845.59
588.846	13162.65
589.206	13215.75
589.565	13586.14
589.925	13784.1
590.284	13985.23
590.643	14260.25
591.003	14550.63
591.362	14740.23
591.721	14971.87
592.08	15298.64
592.44	15581.57
592.799	15902.24
593.158	16097.03
593.517	16297.71
593.876	16679.84
594.235	16916.9
594.593	17116.67
594.952	17548.52
595.311	17732.25
595.67	18039.58
596.029	18401.15
596.387	18743.97
596.746	19021.25
597.104	19191.87
597.463	19434.12
597.822	19809.48
598.18	19994.11
598.538	20359.3
598.897	20717.48
599.255	20812.16
599.613	21472.94
599.972	21595.65
600.33	21912.25
600.688	22044.67
601.046	22454.61
601.404	22809.85
601.762	22958.55
602.12	23328.03
602.478	23669.26
602.836	23898.41
603.194	24109.48
603.552	24393.77
603.91	24598.73
604.268	24988.33
604.625	25099.28
604.983	25459.27
605.341	25532.27
605.698	25953.5
606.056	26266.71
606.413	26471.9
606.771	26804.1
607.128	27069.4
607.485	27117.31
607.843	27436.4
608.2	27742.83
608.557	28055.14
608.914	28145.31
609.272	28515.69
609.629	28772.86
609.986	29079.97
610.343	29054.21
610.7	29540.52
611.057	29665.49
611.414	29763.57
611.771	30056.67
612.127	30232.93
612.484	30438.8
612.841	30727.16
613.198	30941.62
613.554	31023.65
613.911	31303.19
614.267	31533.01
614.624	31600.36
614.98	31835.83
615.337	32180.23
615.693	32217.74
616.05	32210.96
616.406	32611.85
616.762	32626.09
617.118	32721.23
617.475	33008.68
617.831	33220.2
618.187	33428.78
618.543	33615.9
618.899	33842.33
619.255	33895.21
619.611	33904.02
619.967	34131.14
620.323	34346.05
620.678	34330.91
621.034	34399.38
621.39	34606.83
621.746	34596.66
622.101	35147.15
622.457	34887.5
622.812	34961.85
623.168	35163.2
623.523	35372.46
623.879	35530.2
624.234	35344.89
624.589	35450.88
624.945	35777.42
625.3	35839.79
625.655	35820.58
626.01	35988.26
626.365	36019.45
626.72	36028.94
627.075	36116.39
627.43	36142.38
627.785	36251.08
628.14	36351.19
628.495	36527.01
628.85	36458.76
629.205	36392.55
629.559	36680.45
629.914	36674.8
630.269	36720.22
630.623	36665.99
630.978	36654.01
631.332	36948.92
631.687	37049.03
632.041	36798.41
632.396	36997.05
632.75	36999.99
633.104	36927.67
633.459	36855.36
633.813	36819.43
634.167	36896.71
634.521	36980.1
634.875	37048.12
635.229	36869.37
635.583	36748.47
635.937	36890.39
636.291	36887.45
636.645	36983.94
636.999	36750.28
637.352	37066.65
637.706	36818.3
638.06	37147.33
638.413	37009.03
638.767	36895.13
639.121	36991.4
639.474	36855.13
639.828	36888.13
640.181	36976.26
640.534	36972.64
640.888	36988.24
641.241	36688.36
641.594	36917.96
641.947	36973.1
642.301	36893.32
642.654	36876.6
643.007	36960.89
643.36	36872.31
643.713	36880.22
644.066	36941.68
644.419	36750.5
644.771	36554.35
645.124	36231.42
645.477	36127.02
645.83	35903.75
646.182	35906.01
646.535	35816.74
646.888	35894.48
647.24	35709.85
647.593	35954.82
647.945	35816.06
648.298	35626.01
648.65	35591.44
649.002	35623.75
649.355	35657.65
649.707	35649.29
650.059	35892.45
650.411	36245.43
650.763	36251.53
651.115	36578.08
651.467	36461.7
651.819	36594.8
652.171	36483.62
652.523	36374.02
652.875	36396.39
653.227	36362.94
653.578	36634.12
653.93	36273.68
654.282	36286.11
654.633	36261.25
654.985	36240.69
655.337	36367.46
655.688	36437.52
656.039	36492.2
656.391	36126.79
656.742	36292.44
657.094	36151.65
657.445	36477.97
657.796	36267.58
658.147	36275.71
658.498	36247.24
658.849	36399.33
659.2	36260.8
659.551	36176.73
659.902	36344.19
660.253	36068.94
660.604	36354.13
660.955	36082.95
661.306	36207.92
661.656	36129.73
662.007	36182.38
662.358	36166.11
662.708	36206.34
663.059	36194.59
663.409	35902.62
663.76	36152.78
664.11	36146
664.461	36128.6
664.811	36092.67
665.161	36107.36
665.511	36082.5
665.862	36141.48
666.212	36115.72
666.562	36162.27
666.912	36195.94
667.262	36054.02
667.612	35913.01
667.962	36147.35
668.312	36072.33
668.662	36078.43
669.011	36094.93
669.361	36023.97
669.711	35984.42
670.06	35930.41
670.41	35932.67
670.76	35866.46
671.109	36042.72
671.459	35937.19
671.808	35934.93
672.157	35917.98
672.507	35790.08
672.856	35781.71
673.205	35756.63
673.554	35851.54
673.904	35764.99
674.253	35953.01
674.602	35873.01
674.951	35275.06
675.3	35213.59
675.649	35785.78
675.998	35718.89
676.346	35775.61
676.695	35832.56
677.044	35574.49
677.393	35731.32
677.741	35673.02
678.09	35589.86
678.438	35466.47
678.787	35606.8
679.135	35485
679.484	35369.52
679.832	35531.55
680.181	35404.78
680.529	35399.13
680.877	35337.66
681.225	35368.39
681.573	35460.14
681.922	35066.25
682.27	35013.37
682.618	35176.76
682.966	35111.68
683.314	35218.79
683.661	35105.35
684.009	34887.73
684.357	34765.24
684.705	34672.59
685.053	34710.78
685.4	34735.19
685.748	34530.9
686.095	34580.16
686.443	34374.75
686.79	34478.92
687.138	34559.15
687.485	34572.25
687.832	34393.28
688.18	34287.52
688.527	34114.64
688.874	34221.53
689.221	34068.09
689.568	34031.25
689.915	33900.63
690.262	33939.28
690.609	33876.23
690.956	33717.59
691.303	33748.55
691.65	33577.93
691.997	33565.73
692.344	33344.72
692.69	33385.39
693.037	33443.24
693.383	33109.24
693.73	33378.39
694.077	33000.32
694.423	33183.14
694.769	32970.49
695.116	32805.3
695.462	32758.97
695.808	32789.02
696.155	32802.81
696.501	32544.51
696.847	32503.16
697.193	32260
697.539	32466.77
697.885	32208.25
698.231	32057.74
698.577	32055.48
698.923	32036.05
699.269	31785.21
699.614	31688.94
699.96	31624.08
700.306	31652.78
700.651	31627.47
700.997	31554.26
701.342	31361.04
701.688	31405.11
702.033	31325.33
702.379	31216.86
702.724	31269.74
703.069	31151.33
703.415	30932.58
703.76	30846.7
704.105	30872.92
704.45	30872.92
704.795	30647.16
705.14	30529.2
705.485	30490.55
705.83	30419.14
706.175	30517.9
706.52	30357.9
706.865	30225.48
707.209	30154.97
707.554	30019.61
707.899	30126.95
708.243	29963.34
708.588	29976.67
708.932	29866.84
709.277	29767.18
709.621	29705.04
709.966	29539.39
710.31	29634.08
710.654	29337.82
710.998	29533.97
711.342	29440.86
711.687	29447.64
712.031	29281.77
712.375	29221.89
712.719	29148.67
713.063	29064.83
713.407	29224.15
713.75	28987.09
714.094	29072.29
714.438	28846.76
714.782	28953.65
715.125	28774.89
715.469	28809.47
715.812	28678.85
716.156	28564.96
716.499	28710.71
716.843	28665.74
717.186	28376.49
717.53	28472.08
717.873	28464.39
718.216	28362.25
718.559	28239.99
718.902	28042.71
719.246	28142.82
719.589	28058.3
719.932	27976.72
720.275	28028.7
720.617	27994.57
720.96	27864.41
721.303	27979.89
721.646	27870.06
721.989	27618.54
722.331	27745.09
722.674	27642.95
723.016	27722.72
723.359	27592.78
723.701	27746.67
724.044	27413.57
724.386	27450.41
724.729	27451.76
725.071	27403.4
725.413	27469.62
725.755	27255.39
726.097	27229.62
726.439	27012.91
726.782	27035.28
727.124	27288.6
727.465	26978.56
727.807	27020.36
728.149	26918.44
728.491	26925.9
728.833	26979.01
729.175	26797.09
729.516	26768.39
729.858	26751.44
730.199	26782.18
730.541	26717.09
730.882	26653.14
731.224	26661.95
731.565	26473.71
731.906	26624.67
732.248	26587.83
732.589	26431
732.93	26480.72
733.271	26447.72
733.612	26431
733.953	26431.9
734.294	26289.76
734.635	26291.79
734.976	26261.74
735.317	26150.1
735.658	26234.17
735.999	26196.43
736.339	26148.52
736.68	26170.67
737.021	25985.81
737.361	25924.8
737.702	25989.2
738.042	25967.28
738.383	25878.25
738.723	25962.99
739.063	25860.62
739.404	25813.84
739.744	25651.13
740.084	25755.76
740.424	25694.3
740.764	25611.81
741.104	25709.89
741.444	25449.1
741.784	25472.83
742.124	25525.04
742.464	25454.75
742.804	25364.14
743.143	25339.05
743.483	25405.94
743.823	25285.72
744.162	25216.57
744.502	25222.22
744.841	25162.56
745.181	25260.41
745.52	25106.97
745.86	25117.81
746.199	25152.16
746.538	25054.09
746.877	25094.54
747.216	25119.17
747.556	25011.6
747.895	25073.3
748.234	24895.45
748.573	24932.73
748.911	24917.37
749.25	24851.38
749.589	24636.47
749.928	24753.3
750.267	24783.59
750.605	24682.35
750.944	24658.17
751.283	24527.77
751.621	24595.79
751.96	24494.78
752.298	24470.37
752.636	24420.88
752.975	24268.12
753.313	24237.39
753.651	24440.09
753.989	24174.11
754.327	24245.29
754.666	24132.98
755.004	24167.78
755.342	24165.52
755.679	24075.58
756.017	23985.87
756.355	24063.38
756.693	23833.55
757.031	23922.59
757.368	23772.31
757.706	23864.51
758.044	23772.99
758.381	23802.37
758.719	23655.25
759.056	23547.46
759.394	23551.98
759.731	23353.79
760.068	23357.86
760.405	23249.61
760.743	23218.43
761.08	23203.06
761.417	23081.26
761.754	23142.5
762.091	23032.22
762.428	22977.76
762.765	22725.79
763.102	22830.87
763.438	22851.89
763.775	22673.13
764.112	22711.32
764.449	22643.3
764.785	22468.84
765.122	22389.52
765.458	22260.49
765.795	22273.82
766.131	22273.6
766.467	22141.62
766.804	22161.51
767.14	21901.63
767.476	22021.62
767.812	21875.87
768.148	21906.83
768.485	21786.6
768.821	21551.13
769.157	21582.99
769.492	21507.51
769.828	21574.86
770.164	21473.62
770.5	21256.9
770.836	21318.37
771.171	21171.03
771.507	21184.13
771.842	20992.5
772.178	20986.85
772.513	21036.57
772.849	20897.36
773.184	20723.13
773.519	20668.44
773.855	20690.36
774.19	20582.11
774.525	20642
774.86	20465.96
775.195	20411.05
775.53	20362.01
775.865	20290.82
776.2	20050.6
776.535	20029.36
776.87	19917.27
777.205	19981.45
777.539	19788.69
777.874	19793.89
778.209	19692.65
778.543	19575.59
778.878	19542.37
779.212	19473.67
779.547	19427.79
779.881	19524.97
780.215	19277.29
780.55	19299.89
780.884	19134.92
781.218	19066
781.552	19136.05
781.886	18960.91
782.22	18919.79
782.554	18753.46
782.888	18623.75
783.222	18630.53
783.556	18490.42
783.889	18435.96
784.223	18389.63
784.557	18271.44
784.89	18420.82
785.224	18306.69
785.557	18187.83
785.891	18162.74
786.224	18075.51
786.558	18103.99
786.891	18021.05
787.224	17865.35
787.557	17840.94
787.891	17855.18
788.224	17763.43
788.557	17713.04
788.89	17680.5
789.223	17574.51
789.556	17530.89
789.888	17403.44
790.221	17294.29
790.554	17285.7
790.887	17171.81
791.219	17214.07
791.552	17135.2
791.884	17085.26
792.217	17073.51
792.549	16948.76
792.882	16811.14
793.214	16813.85
793.546	16798.71
793.879	16710.58
794.211	16504.48
794.543	16662.9
794.875	16492.05
795.207	16665.16
795.539	16416.8
795.871	16400.76
796.203	16251.38
796.535	16172.51
796.867	16129.12
797.198	16142.68
797.53	16113.76
797.862	15997.83
798.193	16076.02
798.525	15958.05
798.856	15890.94
799.188	15761
799.519	15844.39
799.85	15674.22
800.182	15687.33
800.513	15716.25
800.844	15500.44
801.175	15634.9
801.506	15599.65
801.837	15539.08
802.168	15388.13
802.499	15352.42
802.83	15289.15
803.161	15287.56
803.491	15228.58
803.822	15313.1
804.153	15164.18
804.483	15079.89
804.814	15021.81
805.145	15025.65
805.475	14914.01
805.805	14906.33
806.136	14880.57
806.466	14934.58
806.796	14812.77
807.126	14639.22
807.457	14667.02
807.787	14665.89
808.117	14612.55
808.447	14613.68
808.777	14627.24
809.107	14491.88
809.436	14506.57
809.766	14439.68
810.096	14393.12
810.426	14365.78
810.755	14330.3
811.085	14312.22
811.414	14274.26
811.744	14121.95
812.073	14090.99
812.403	14167.37
812.732	14044.66
813.061	14067.94
813.39	13972.34
813.719	13955.85
814.049	14024.77
814.378	13935.28
814.707	13847.6
815.036	13851.22
815.365	13779.36
815.693	13653.26
816.022	13672.47
816.351	13627.95
816.68	13501.85
817.008	13636.08
817.337	13407.16
817.665	13485.35
817.994	13415.07
818.322	13463.43
818.651	13412.13
818.979	13307.05
819.307	13389.53
819.636	13320.38
819.964	13292.14
820.292	13320.16
820.62	13257.56
820.948	13232.7
821.276	13208.3
821.604	13292.59
821.932	13306.37
822.259	13246.49
822.587	13191.8
822.915	13177.79
823.243	13220.95
823.57	13202.2
823.898	13237
824.225	13151.35
824.553	13164
824.88	13134.63
825.207	13209.43
825.535	13178.02
825.862	13266.83
826.189	13132.59
826.516	13183.44
826.843	13255.98
827.17	13188.64
827.497	13176.66
827.824	13215.3
828.151	13187.51
828.478	13102.99
828.805	13211.01
829.131	13155.64
829.458	13126.94
829.785	13058.02
830.111	13172.14
830.438	13123.78
830.764	13102.31
831.09	13126.27
831.417	13060.28
831.743	13149.09
832.069	13067.74
832.395	13070
832.722	13062.09
833.048	13073.16
833.374	13060.73
833.7	12953.61
834.026	13029.54
834.351	13083.33
834.677	12925.14
835.003	12890.79
835.329	12971.92
835.654	12916.55
835.98	12814.18
836.306	12916.78
836.631	12825.26
836.956	12825.48
837.282	12863.9
837.607	12804.01
837.932	12799.04
838.258	12697.58
838.583	12772.6
838.908	12672.72
839.233	12707.52
839.558	12704.81
839.883	12646.05
840.208	12639.95
840.533	12562.89
840.858	12644.47
841.182	12635.2
841.507	12545.94
841.832	12540.97
842.156	12449.67
842.481	12476.11
842.805	12417.58
843.13	12458.03
843.454	12375.55
843.778	12379.62
844.103	12356.57
844.427	12341.2
844.751	12332.61
845.075	12270.02
845.399	12266.63
845.723	12159.74
846.047	12182.34
846.371	12068.67
846.695	12069.57
847.019	11923.58
847.343	11943.25
847.666	11858.95
847.99	11831.16
848.313	11808.11
848.637	11762.46
848.96	11677.72
849.284	11680.2
849.607	11571.28
849.931	11513.2
850.254	11526.53
850.577	11389.14
850.9	11301.23
851.223	11333.09
851.546	11276.82
851.869	11190.95
852.192	11272.53
852.515	11114.11
852.838	11131.52
853.161	11159.76
853.483	11129.03
853.806	11005.42
854.129	10995.93
854.451	10910.05
854.774	10956.83
855.096	10862.14
855.419	10785.99
855.741	10871.64
856.063	10717.06
856.385	10720.9
856.708	10724.52
857.03	10663.5
857.352	10609.27
857.674	10684.3
857.996	10562.72
858.318	10532.43
858.64	10585.54
858.961	10485.88
859.283	10487.69
859.605	10385.09
859.926	10361.82
860.248	10383.06
860.57	10308.71
860.891	10389.61
861.212	10325.66
861.534	10275.94
861.855	10222.61
862.176	10282.95
862.498	10201.82
862.819	10197.3
863.14	10171.31
863.461	10117.98
863.782	10101.03
864.103	10098.32
864.424	10068.27
864.745	10122.05
865.065	10040.24
865.386	9937.2
865.707	10024.2
866.027	10004.09
866.348	10063.29
866.668	10021.94
866.989	9985.33
867.309	9853.36
867.63	9878.44
867.95	9912.56
868.27	9865.79
868.59	9809.06
868.91	9786.47
869.23	9811.78
869.55	9760.93
869.87	9837.31
870.19	9766.81
870.51	9801.38
870.83	9736.52
871.15	9719.12
871.469	9716.19
871.789	9731.78
872.109	9772
872.428	9653.81
872.748	9690.65
873.067	9693.59
873.386	9649.29
873.706	9610.88
874.025	9564.55
874.344	9519.35
874.663	9532.01
874.982	9525
875.301	9529.3
875.62	9541.05
875.939	9478.45
876.258	9486.36
876.577	9387.38
876.896	9404.1
877.214	9405.91
877.533	9392.35
877.852	9436.87
878.17	9389.19
878.489	9384.67
878.807	9364.33
879.125	9257.44
879.444	9320.26
879.762	9294.5
880.08	9232.81
880.398	9236.2
880.716	9242.75
881.034	9193.04
881.352	9269.87
881.67	9161.85
881.988	9179.93
882.306	9145.8
882.624	9114.17
882.941	9072.59
883.259	9069.42
883.577	9113.26
883.894	9015.41
884.212	9035.07
884.529	8993.04
884.846	9020.38
885.164	8991.23
885.481	8950.56
885.798	8953.95
886.115	8884.34
886.432	8877.56
886.75	8847.28
887.067	8879.37
887.383	8767.51
887.7	8812.48
888.017	8828.07
888.334	8746.49
888.651	8758.47
888.967	8682.99
889.284	8635.31
889.6	8627.63
889.917	8572.94
890.233	8632.82
890.55	8545.14
890.866	8592.37
891.182	8544.24
891.498	8532.49
891.815	8501.3
892.131	8430.34
892.447	8424.47
892.763	8375.66
893.079	8387.18
893.395	8359.16
893.71	8349.44
894.026	8335.43
894.342	8276
894.657	8235.55
894.973	8176.11
895.289	8227.18
895.604	8204.59
895.92	8161.42
896.235	8138.83
896.55	8091.14
896.865	8101.09
897.181	8014.31
897.496	8061.77
897.811	8025.83
898.126	7978.83
898.441	7940.86
898.756	7947.42
899.071	7917.81
899.386	7907.42
899.7	7867.65
900.015	7753.98
900.33	7752.62
900.644	7752.4
900.959	7702.9
901.273	7680.98
901.588	7626.3
901.902	7621.1
902.216	7558.5
902.531	7614.32
902.845	7552.4
903.159	7525.73
903.473	7488.9
903.787	7432.18
904.101	7431.73
904.415	7390.82
904.729	7415
905.042	7349.92
905.356	7301.56
905.67	7271.28
905.984	7346.08
906.297	7317.6
906.611	7239.19
906.924	7244.16
907.237	7157.83
907.551	7149.92
907.864	7105.18
908.177	7091.4
908.491	7058.18
908.804	7043.26
909.117	7017.05
909.43	6943.15
909.743	6968.23
910.056	6934.56
910.368	6899.76
910.681	6845.75
910.994	6843.04
911.307	6807.79
911.619	6779.77
911.932	6769.37
912.244	6667
912.557	6707.45
912.869	6695.47
913.181	6649.83
913.494	6601.69
913.806	6586.1
914.118	6576.61
914.43	6535.48
914.742	6561.24
915.054	6451.64
915.366	6455.71
915.678	6424.97
915.99	6471.75
916.302	6372.77
916.613	6397.85
916.925	6342.94
917.236	6321.02
917.548	6274.02
917.859	6246.67
918.171	6158.09
918.482	6203.06
918.794	6104.53
919.105	6214.13
919.416	6103.17
919.727	6099.78
920.038	6135.71
920.349	6025.89
920.66	6059.78
920.971	6012.33
921.282	6024.3
921.593	5966.68
921.903	5933.91
922.214	5914.48
922.525	5843.52
922.835	5871.54
923.146	5849.85
923.456	5813.01
923.767	5799
924.077	5732.34
924.387	5764.65
924.697	5681.94
925.008	5665.9
925.318	5684.2
925.628	5640.13
925.938	5623.64
926.248	5586.58
926.558	5515.84
926.867	5486.01
927.177	5530.53
927.487	5494.15
927.796	5480.82
928.106	5448.5
928.416	5442.4
928.725	5427.71
929.034	5422.96
929.344	5328.73
929.653	5311.33
929.962	5306.81
930.271	5250.99
930.581	5248.73
930.89	5245.79
931.199	5174.84
931.508	5166.7
931.817	5154.95
932.125	5173.03
932.434	5114.5
932.743	5147.04
933.051	5112.92
933.36	5022.52
933.669	5035.4
933.977	5051.9
934.286	5024.78
934.594	5001.05
934.902	4949.53
935.21	4879.93
935.519	4906.59
935.827	4856.88
936.135	4887.16
936.443	4796.77
936.751	4855.3
937.059	4834.96
937.367	4767.84
937.674	4778.46
937.982	4783.66
938.29	4765.13
938.597	4749.54
938.905	4655.08
939.213	4669.31
939.52	4625.47
939.827	4674.06
940.135	4591.57
940.442	4598.13
940.749	4573.72
941.056	4617.56
941.363	4535.3
941.67	4481.75
941.977	4488.07
942.284	4477
942.591	4490.11
942.898	4435.42
943.205	4413.27
943.511	4434.74
943.818	4372.82
944.125	4365.37
944.431	4333.73
944.738	4328.53
945.044	4300.73
945.35	4324.24
945.657	4287.4
945.963	4246.95
946.269	4247.63
946.575	4235.2
946.881	4194.52
947.187	4179.83
947.493	4132.6
947.799	4188.87
948.105	4152.49
948.41	4174.86
948.716	4070.91
949.022	4105.49
949.327	4054.19
949.633	4018.03
949.938	3980.29
950.244	4051.02
950.549	4005.83
950.854	4011.02
951.16	3924.47
951.465	3926.51
951.77	3919.28
952.075	3916.11
952.38	3901.2
952.685	3902.55
952.99	3872.05
953.294	3844.02
953.599	3804.48
953.904	3783.23
954.209	3792.27
954.513	3791.14
954.818	3735.1
955.122	3735.55
955.426	3738.04
955.731	3681.99
956.035	3674.76
956.339	3686.06
956.643	3622.33
956.948	3628.66
957.252	3632.73
957.556	3624.14
957.86	3628.21
958.163	3591.37
958.467	3567.65
958.771	3563.35
959.075	3545.05
959.378	3509.79
959.682	3537.14
959.985	3512.73
960.289	3511.15
960.592	3482
960.896	3449.46
961.199	3457.14
961.502	3443.58
961.805	3403.81
962.108	3366.3
962.411	3400.19
962.714	3354.54
963.017	3337.6
963.32	3337.14
963.623	3298.27
963.926	3317.26
964.228	3280.65
964.531	3270.25
964.833	3266.86
965.136	3268.45
965.438	3246.07
965.741	3199.97
966.043	3230.03
966.345	3188
966.648	3182.35
966.95	3172.63
967.252	3173.53
967.554	3139.63
967.856	3162.46
968.158	3119.75
968.46	3080.88
968.761	3060.99
969.063	3033.88
969.365	3053.76
969.666	3043.14
969.968	3044.5
970.269	3033.65
970.571	2985.51
970.872	2984.61
971.174	2967.44
971.475	2988
971.776	2981.9
972.077	2908.91
972.378	2920.88
972.679	2901
972.98	2898.51
973.281	2929.47
973.582	2896.03
973.883	2899.19
974.183	2865.52
974.484	2857.83
974.785	2800.66
975.085	2800.66
975.386	2813.54
975.686	2806.54
975.986	2783.94
976.287	2741.68
976.587	2756.14
976.887	2743.49
977.187	2726.31
977.487	2731.28
977.787	2769.25
978.087	2706.43
978.387	2666.43
978.687	2689.7
978.987	2662.59
979.286	2631.17
979.586	2652.87
979.885	2627.11
980.185	2601.8
980.484	2572.64
980.784	2596.15
981.083	2594.34
981.382	2551.63
981.682	2553.21
981.981	2540.78
982.28	2532.19
982.579	2513.66
982.878	2521.35
983.177	2503.04
983.475	2529.26
983.774	2495.58
984.073	2486.09
984.372	2468.01
984.67	2463.95
984.969	2445.64
985.267	2421.91
985.566	2410.61
985.864	2409.26
986.162	2432.53
986.461	2377.4
986.759	2384.4
987.057	2372.42
987.355	2336.27
987.653	2324.52
987.951	2352.09
988.249	2338.3
988.547	2318.19
988.844	2322.93
989.142	2304.18
989.44	2284.06
989.737	2277.51
990.035	2283.84
990.332	2242.03
990.63	2247.23
990.927	2237.74
991.224	2258.3
991.521	2235.48
991.819	2211.3
992.116	2186.89
992.413	2215.59
992.71	2171.75
993.006	2163.16
993.303	2141.7
993.6	2157.51
993.897	2112.32
994.193	2109.38
994.49	2128.14
994.787	2107.57
995.083	2115.48
995.379	2075.48
995.676	2089.49
995.972	2068.7
996.268	2061.92
996.565	2040.91
996.861	2053.56
997.157	2039.55
997.453	2011.98
997.749	2017.4
998.044	1978.99
998.34	2003.62
998.636	1960.46
998.932	1928.37
999.227	1964.75
999.523	1977.86
999.818	1938.54
1000.114	1923.62
1000.409	1908.71
1000.704	1887.46
1001	1899.44
1001.295	1890.18
1001.59	1875.26
1001.885	1888.37
1002.18	1871.42
1002.475	1846.79
1002.77	1832.55
1003.065	1797.07
1003.359	1844.53
1003.654	1816.05
1003.949	1843.4
1004.243	1794.13
1004.538	1753.46
1004.832	1762.27
1005.127	1775.6
1005.421	1737.19
1005.715	1740.8
1006.009	1731.54
1006.304	1738.32
1006.598	1710.52
1006.892	1699.22
1007.186	1704.64
1007.48	1685.89
1007.773	1702.84
1008.067	1687.47
1008.361	1648.83
1008.655	1647.02
1008.948	1646.79
1009.242	1632.1
1009.535	1647.02
1009.829	1618.77
1010.122	1616.29
1010.415	1623.52
1010.708	1593.23
1011.001	1554.82
1011.295	1542.16
1011.588	1570.86
1011.881	1548.26
1012.173	1573.35
1012.466	1530.86
1012.759	1528.6
1013.052	1538.32
1013.344	1542.61
1013.637	1503.29
1013.93	1457.19
1014.222	1479.57
1014.514	1469.62
1014.807	1482.73
1015.099	1441.37
1015.391	1433.92
1015.683	1433.47
1015.976	1444.76
1016.268	1448.83
1016.56	1419
1016.851	1392.79
1017.143	1413.8
1017.435	1381.49
1017.727	1400.47
1018.018	1382.62
1018.31	1363.18
1018.602	1344.43
1018.893	1399.79
1019.185	1361.83
1019.476	1348.72
1019.767	1353.92
1020.058	1318.21
1020.35	1316.18
1020.641	1308.04
1020.932	1275.5
1021.223	1296.29
1021.514	1302.62
1021.804	1261.72
1022.095	1275.73
1022.386	1262.85
1022.677	1273.92
1022.967	1242.74
1023.258	1245
1023.548	1228.95
1023.839	1206.13
1024.129	1216.52
1024.419	1220.59
1024.709	1200.48
1025	1188.5
1025.29	1191.21
1025.58	1182.62
1025.87	1183.75
1026.16	1158.9
1026.449	1171.55
1026.739	1152.34
1027.029	1131.33
1027.319	1128.16
1027.608	1136.98
1027.898	1103.98
1028.187	1116.86
1028.477	1090.2
1028.766	1116.64
1029.055	1075.06
1029.344	1096.75
1029.634	1074.38
1029.923	1075.28
1030.212	1078.22
1030.501	1065.57
1030.79	1038.22
1031.078	1031.44
1031.367	1042.06
1031.656	1019.92
1031.945	1009.3
1032.233	1029.18
1032.522	987.15
1032.81	994.83
1033.099	1012.01
1033.387	1010.88
1033.675	1004.1
1033.963	995.06
1034.251	968.17
1034.54	975.17
1034.828	957.32
1035.116	952.12
1035.403	940.14
1035.691	934.27
1035.979	930.2
1036.267	932.01
1036.554	910.09
1036.842	938.34
1037.129	939.92
1037.417	920.71
1037.704	906.93
1037.992	922.97
1038.279	884.78
1038.566	880.94
1038.853	880.94
1039.14	880.94
