Data from hue_320_FLMS001491_48.txt Node
Date: Mon Feb 06 15:47:16 GMT 2017
User: dcchb
Spectrometer: FLMS00149
Trigger mode: 0
Integration Time (sec): 2.000000E-2
Scans to average: 10
Electric dark correction enabled: true
Nonlinearity correction enabled: false
Boxcar width: 0
XAxis mode: Wavelengths
Number of Pixels in Spectrum: 2048
>>>>>Begin Spectral Data<<<<<
341.393	-10.89
341.776	-10.89
342.16	-10.89
342.543	-62.41
342.927	-73.94
343.31	-64.9
343.693	-70.55
344.077	-66.48
344.46	-45.69
344.843	-89.08
345.226	-20.83
345.61	-5.01
345.993	-26.48
346.376	4.7
346.759	-5.24
347.142	16.68
347.525	39.28
347.908	55.55
348.291	58.04
348.674	96.45
349.057	123.57
349.44	122.44
349.823	139.84
350.206	147.98
350.588	185.26
350.971	202.44
351.354	229.78
351.737	226.17
352.119	237.69
352.502	264.13
352.884	269.56
353.267	277.46
353.65	312.72
354.032	297.8
354.414	304.81
354.797	323.34
355.179	318.82
355.562	324.24
355.944	329.21
356.326	328.76
356.709	303.45
357.091	326.5
357.473	340.06
357.855	350.91
358.238	333.51
358.62	320.85
359.002	311.36
359.384	333.28
359.766	350.68
360.148	334.64
360.53	344.36
360.912	331.7
361.294	324.02
361.676	344.81
362.057	294.87
362.439	340.51
362.821	337.35
363.203	324.69
363.584	331.47
363.966	324.92
364.348	328.08
364.729	325.82
365.111	319.95
365.493	330.8
365.874	308.65
366.256	320.4
366.637	299.84
367.019	296.22
367.4	312.49
367.781	296.22
368.163	318.59
368.544	302.55
368.925	306.62
369.306	320.4
369.688	327.86
370.069	309.55
370.45	298.03
370.831	297.58
371.212	303.9
371.593	304.13
371.974	305.03
372.355	283.11
372.736	330.12
373.117	307.97
373.498	310.91
373.879	332.15
374.26	311.36
374.641	332.15
375.021	298.03
375.402	313.85
375.783	300.29
376.163	332.6
376.544	310.68
376.925	314.07
377.305	313.62
377.686	316.79
378.066	316.79
378.447	323.34
378.827	341.87
379.208	328.99
379.588	335.99
379.968	325.6
380.349	318.82
380.729	336.22
381.109	332.83
381.489	322.44
381.87	333.28
382.25	326.5
382.63	321.08
383.01	327.63
383.39	343.68
383.77	344.58
384.15	314.75
384.53	347.75
384.91	353.39
385.29	351.36
385.67	352.04
386.049	338.71
386.429	337.12
386.809	327.41
387.189	336.9
387.568	323.56
387.948	346.16
388.328	352.04
388.707	357.24
389.087	347.29
389.466	355.65
389.846	340.29
390.225	346.84
390.605	345.71
390.984	360.63
391.363	343.68
391.743	337.58
392.122	352.94
392.501	350.91
392.881	349.33
393.26	369.89
393.639	355.2
394.018	379.38
394.397	340.51
394.776	379.83
395.155	377.12
395.534	369.67
395.913	362.89
396.292	383.45
396.671	350.91
397.05	374.41
397.429	378.93
397.808	362.43
398.186	380.74
398.565	382.77
398.944	367.41
399.323	385.94
399.701	397.69
400.08	385.94
400.458	394.98
400.837	383.68
401.215	387.74
401.594	419.16
401.972	399.72
402.351	388.87
402.729	405.37
403.107	393.85
403.486	410.79
403.864	413.73
404.242	406.95
404.62	400.85
404.999	401.08
405.377	431.36
405.755	402.21
406.133	404.69
406.511	431.13
406.889	436.78
407.267	439.27
407.645	414.18
408.023	424.35
408.401	441.98
408.779	441.53
409.156	456.89
409.534	456.44
409.912	436.78
410.29	452.6
410.667	462.54
411.045	456.22
411.422	463.22
411.8	470.68
412.178	474.3
412.555	477.69
412.933	474.07
413.31	475.88
413.687	501.19
414.065	516.55
414.442	520.17
414.819	544.8
415.197	518.59
415.574	534.86
415.951	543.45
416.328	538.93
416.705	541.41
417.082	539.83
417.46	569.89
417.837	544.58
418.214	585.93
418.591	557.01
418.967	593.61
419.344	595.2
419.721	596.33
420.098	601.52
420.475	608.3
420.852	622.77
421.228	620.28
421.605	637.91
421.982	620.96
422.358	606.5
422.735	626.83
423.111	637.91
423.488	647.4
423.864	658.25
424.241	691.92
424.617	677.45
424.994	665.48
425.37	700.5
425.746	698.47
426.123	686.04
426.499	680.62
426.875	696.66
427.251	707.51
427.627	717.45
428.003	753.38
428.379	717.9
428.756	751.12
429.132	748.64
429.507	763.1
429.883	779.37
430.259	801.29
430.635	783.89
431.011	791.58
431.387	813.72
431.763	825.02
432.138	829.09
432.514	843.1
432.89	824.57
433.265	870.44
433.641	849.2
434.016	840.39
434.392	882.87
434.767	901.63
435.143	887.62
435.518	909.54
435.894	884.23
436.269	925.81
436.644	938.24
437.02	916.77
437.395	926.26
437.77	946.37
438.145	961.97
438.52	967.39
438.895	948.63
439.271	962.64
439.646	977.33
440.021	1001.51
440.395	995.19
440.77	995.19
441.145	983.43
441.52	1006.71
441.895	1009.87
442.27	1024.11
442.645	1005.81
443.019	1027.73
443.394	1036.09
443.769	1036.77
444.143	1022.98
444.518	1073.15
444.892	1055.52
445.267	1057.56
445.641	1079.7
446.016	1068.86
446.39	1076.54
446.764	1071.57
447.139	1091.45
447.513	1076.77
447.887	1100.49
448.262	1085.13
448.636	1087.84
449.01	1107.95
449.384	1109.08
449.758	1113.37
450.132	1136.88
450.506	1116.76
450.88	1118.12
451.254	1102.98
451.628	1146.82
452.002	1127.39
452.376	1120.61
452.75	1171.45
453.123	1172.58
453.497	1173.03
453.871	1172.13
454.244	1166.25
454.618	1197.67
454.992	1200.83
455.365	1185.92
455.739	1229.98
456.112	1236.08
456.486	1222.07
456.859	1247.16
457.232	1238.12
457.606	1227.04
457.979	1256.2
458.352	1301.17
458.725	1297.1
459.099	1268.4
459.472	1295.74
459.845	1323.99
460.218	1294.61
460.591	1308.4
460.964	1303.2
461.337	1361.28
461.71	1360.83
462.083	1357.89
462.456	1371.22
462.829	1363.76
463.201	1354.72
463.574	1388.17
463.947	1394.95
464.32	1435.4
464.692	1415.51
465.065	1411.45
465.438	1462.29
465.81	1456.64
466.183	1503.65
466.555	1510.2
466.928	1498.22
467.3	1510.88
467.672	1531.67
468.045	1552.69
468.417	1539.8
468.789	1534.38
469.161	1524.44
469.534	1587.49
469.906	1586.36
470.278	1615.73
470.65	1617.54
471.022	1639.01
471.394	1674.49
471.766	1690.08
472.138	1700.7
472.51	1726.24
472.882	1728.5
473.253	1721.72
473.625	1751.1
473.997	1740.93
474.369	1800.14
474.74	1798.33
475.112	1815.05
475.484	1864.77
475.855	1836.07
476.227	1859.57
476.598	1921.72
476.97	1928.95
477.341	1941.38
477.713	1957.19
478.084	1964.2
478.455	2013.01
478.827	2002.39
479.198	2049.4
479.569	2038.32
479.94	2111.77
480.311	2108.15
480.682	2156.06
481.053	2192.89
481.424	2219.33
481.795	2203.29
482.166	2219.33
482.537	2259.56
482.908	2307.47
483.279	2259.33
483.65	2340.24
484.021	2413.23
484.391	2391.08
484.762	2358.77
485.133	2425.88
485.503	2444.19
485.874	2467.46
486.244	2482.15
486.615	2517.63
486.985	2524.64
487.356	2555.6
487.726	2568.48
488.097	2643.05
488.467	2643.05
488.837	2666.33
489.207	2686.21
489.578	2727.12
489.948	2758.08
490.318	2780.68
490.688	2783.16
491.058	2813.67
491.428	2852.09
491.798	2847.57
492.168	2882.14
492.538	2916.72
492.908	2949.03
493.278	2979.77
493.648	2967.79
494.017	3019.31
494.387	3029.26
494.757	3036.04
495.126	3070.84
495.496	3019.77
495.866	3061.35
496.235	3081.01
496.605	3117.84
496.974	3090.27
497.344	3168.01
497.713	3191.74
498.082	3222.92
498.452	3206.2
498.821	3215.69
499.19	3194.45
499.559	3284.39
499.928	3260.66
500.298	3284.17
500.667	3278.06
501.036	3313.99
501.405	3334.11
501.774	3289.36
502.143	3300.89
502.512	3358.29
502.88	3383.37
503.249	3362.13
503.618	3368.91
503.987	3423.14
504.356	3431.05
504.724	3410.04
505.093	3426.76
505.462	3434.22
505.83	3427.44
506.199	3455.46
506.567	3502.01
506.936	3484.16
507.304	3528.9
507.672	3500.88
508.041	3569.36
508.409	3524.61
508.777	3569.58
509.145	3572.29
509.514	3582.46
509.882	3631.5
510.25	3615.23
510.618	3650.71
510.986	3629.24
511.354	3636.7
511.722	3628.56
512.09	3674.44
512.458	3660.2
512.826	3669.47
513.193	3635.12
513.561	3654.55
513.929	3705.4
514.297	3709.01
514.664	3718.28
515.032	3742.46
515.4	3770.48
515.767	3739.29
516.135	3762.34
516.502	3743.81
516.869	3800.54
517.237	3804.83
517.604	3812.29
517.972	3816.35
518.339	3835.79
518.706	3820.42
519.073	3840.31
519.44	3852.29
519.808	3852.51
520.175	3899.97
520.542	3860.2
520.909	3910.14
521.276	3855.22
521.643	3930.48
522.009	3943.13
522.376	3970.25
522.743	3970.47
523.11	3967.76
523.477	3984.03
523.843	3988.78
524.21	4052.73
524.577	4030.59
524.943	4044.82
525.31	4086.63
525.676	4109.91
526.043	4116.01
526.409	4155.1
526.776	4149
527.142	4168.44
527.508	4166.85
527.874	4198.27
528.241	4254.76
528.607	4203.01
528.973	4272.61
529.339	4243.91
529.705	4299.28
530.071	4338.83
530.437	4339.05
530.803	4348.09
531.169	4370.69
531.535	4355.78
531.901	4366.62
532.267	4421.54
532.632	4428.77
532.998	4427.41
533.364	4473.06
533.73	4480.52
534.095	4544.24
534.461	4519.39
534.826	4534.75
535.192	4570.23
535.557	4588.76
535.923	4598.71
536.288	4624.92
536.653	4666.5
537.019	4636.9
537.384	4648.87
537.749	4660.63
538.114	4691.59
538.479	4738.14
538.845	4709.44
539.21	4705.6
539.575	4772.71
539.94	4782.2
540.305	4846.16
540.67	4778.82
541.034	4795.09
541.399	4887.96
541.764	4908.08
542.129	4876.89
542.494	4873.73
542.858	4896.1
543.223	4901.3
543.587	4961.86
543.952	4988.08
544.316	5015.42
544.681	4979.71
545.045	5007.51
545.41	5082.31
545.774	5078.69
546.138	5032.14
546.503	5088.86
546.867	5144.68
547.231	5184.45
547.595	5162.08
547.959	5192.59
548.324	5222.87
548.688	5199.14
549.052	5235.75
549.416	5269.65
549.779	5286.6
550.143	5276.66
550.507	5349.2
550.871	5324.34
551.235	5287.05
551.599	5367.5
551.962	5351.46
552.326	5386.26
552.689	5445.92
553.053	5386.03
553.417	5402.75
553.78	5519.81
554.143	5467.16
554.507	5469.87
554.87	5564.56
555.234	5549.64
555.597	5515.29
555.96	5592.13
556.323	5588.06
556.686	5602.97
557.05	5619.02
557.413	5598.68
557.776	5662.86
558.139	5631.22
558.502	5667.15
558.865	5649.75
559.228	5721.39
559.59	5732.91
559.953	5737.21
560.316	5797.55
560.679	5752.35
561.041	5802.06
561.404	5798.45
561.767	5805.68
562.129	5813.82
562.492	5887.49
562.854	5844.32
563.217	5876.64
563.579	5938.56
563.941	5944.21
564.304	5942.85
564.666	5993.47
565.028	5987.37
565.39	6032.57
565.753	6023.08
566.115	6032.34
566.477	6069.18
566.839	6123.64
567.201	6092.68
567.563	6174.94
567.925	6128.38
568.287	6181.26
568.648	6132.23
569.01	6215.61
569.372	6325.67
569.734	6280.47
570.095	6313.92
570.457	6303.52
570.819	6331.77
571.18	6360.92
571.542	6420.58
571.903	6438.66
572.265	6508.04
572.626	6558.2
572.987	6558.2
573.349	6579.9
573.71	6614.7
574.071	6668.93
574.432	6698.99
574.794	6748.03
575.155	6786.45
575.516	6817.41
575.877	6884.07
576.238	6941.24
576.599	7025.99
576.96	7099.43
577.32	7220.78
577.681	7183.05
578.042	7281.35
578.403	7360.22
578.763	7404.28
579.124	7436.15
579.485	7583.04
579.845	7654.67
580.206	7761.79
580.566	7922.69
580.927	7972.4
581.287	8108.67
581.648	8308.44
582.008	8399.74
582.368	8515.67
582.728	8623.46
583.089	8736.9
583.449	8938.03
583.809	9062.77
584.169	9234.29
584.529	9427.28
584.889	9592.7
585.249	9695.75
585.609	9887.83
585.969	10133.25
586.329	10254.83
586.688	10429.29
587.048	10667.47
587.408	10912.67
587.768	11099.33
588.127	11348.13
588.487	11489.15
588.846	11888.46
589.206	11926.2
589.565	12258.84
589.925	12609.12
590.284	12791.26
590.643	12988.99
591.003	13270.57
591.362	13625.14
591.721	13865.36
592.08	14129.98
592.44	14420.14
592.799	14713.92
593.158	14927.47
593.517	15256.96
593.876	15520.91
594.235	15719.77
594.593	16060.55
594.952	16328.12
595.311	16595
595.67	16854.43
596.029	17273.18
596.387	17710.45
596.746	17925.36
597.104	18131.46
597.463	18305.92
597.822	18816.41
598.18	18949.52
598.538	19278.32
598.897	19623.62
599.255	19773.9
599.613	20321.23
599.972	20522.13
600.33	20756.93
600.688	20889.58
601.046	21332.05
601.404	21752.83
601.762	21976.55
602.12	22274.63
602.478	22539.03
602.836	22757.78
603.194	22888.62
603.552	23315.73
603.91	23358.44
604.268	23771.99
604.625	24085.88
604.983	24301.24
605.341	24456.94
605.698	24771.51
606.056	25108.9
606.413	25349.57
606.771	25626.85
607.128	25803.57
607.485	25940.29
607.843	26185.48
608.2	26597.68
608.557	26898.46
608.914	26891.45
609.272	27229.3
609.629	27498.44
609.986	27742.28
610.343	27837.19
610.7	28122.83
611.057	28301.81
611.414	28495.71
611.771	28688.47
612.127	29024.51
612.484	29173.43
612.841	29399.86
613.198	29452.97
613.554	29582.91
613.911	29941.77
614.267	30189.9
614.624	30219.05
614.98	30385.15
615.337	30654.97
615.693	30756.66
616.05	30981.29
616.406	31027.39
616.762	31239.36
617.118	31322.75
617.475	31635.96
617.831	31670.31
618.187	31896.52
618.543	31965.44
618.899	32336.28
619.255	32340.35
619.611	32389.39
619.967	32731.75
620.323	32869.38
620.678	32750.73
621.034	32857.4
621.39	32988.02
621.746	32980.79
622.101	33440.21
622.457	33257.61
622.812	33405.18
623.168	33506.42
623.523	33810.37
623.879	33874.32
624.234	33606.31
624.589	33841.78
624.945	34039.06
625.3	34050.36
625.655	34126.74
626.01	34264.59
626.365	34290.58
626.72	34448.09
627.075	34372.84
627.43	34519.28
627.785	34451.03
628.14	34617.58
628.495	34702.55
628.85	34719.95
629.205	34673.62
629.559	34874.97
629.914	34742.32
630.269	34878.81
630.623	34796.33
630.978	34814.64
631.332	35026.83
631.687	35032.26
632.041	34983.9
632.396	35065.02
632.75	35035.65
633.104	35177.56
633.459	35009.43
633.813	34935.54
634.167	35123.78
634.521	35130.79
634.875	35230.44
635.229	35091.01
635.583	35098.92
635.937	35184.8
636.291	35065.48
636.645	35193.16
636.999	35085.59
637.352	35260.27
637.706	35083.1
638.06	35234.74
638.413	35136.21
638.767	35158.81
639.121	35261.18
639.474	35126.72
639.828	35198.35
640.181	35144.57
640.534	35281.06
640.888	35053.73
641.241	34946.38
641.594	35119.26
641.947	35208.07
642.301	35127.85
642.654	35187.06
643.007	35170.78
643.36	35065.48
643.713	35043.56
644.066	35244.45
644.419	35051.01
644.771	34700.74
645.124	34364.25
645.477	34430.01
645.83	34367.42
646.182	34240.64
646.535	34006.07
646.888	34097.82
647.24	33944.38
647.593	34143.92
647.945	34069.12
648.298	33842.01
648.65	33865.28
649.002	33898.5
649.355	34140.08
649.707	33982.57
650.059	34164.71
650.411	34490.8
650.763	34513.17
651.115	34930.11
651.467	34778.03
651.819	34707.29
652.171	34664.36
652.523	34651.93
652.875	34790.23
653.227	34482.21
653.578	34731.93
653.93	34725.15
654.282	34556.79
654.633	34326.51
654.985	34599.95
655.337	34559.5
655.688	34507.75
656.039	34705.26
656.391	34392.5
656.742	34477.02
657.094	34535.77
657.445	34500.52
657.796	34581.65
658.147	34368.32
658.498	34439.28
658.849	34551.59
659.2	34411.48
659.551	34348.66
659.902	34519.73
660.253	34416.23
660.604	34543.46
660.955	34300.07
661.306	34381.88
661.656	34394.08
662.007	34274.31
662.358	34352.95
662.708	34383.23
663.059	34334.42
663.409	34229.57
663.76	34424.82
664.11	34317.47
664.461	34394.99
664.811	34436.57
665.161	34409.45
665.511	34389.34
665.862	34350.01
666.212	34415.1
666.562	34545.72
666.912	34412.39
667.262	34370.81
667.612	34365.83
667.962	34373.97
668.312	34273.41
668.662	34531.48
669.011	34388.66
669.361	34226.18
669.711	34257.14
670.06	34162.68
670.41	34223.69
670.76	34145.05
671.109	34319.51
671.459	34226.4
671.808	34176.01
672.157	34166.29
672.507	34020.31
672.856	33971.72
673.205	34157.48
673.554	34256.46
673.904	34068.89
674.253	34234.99
674.602	34098.04
674.951	33533.54
675.3	33444.5
675.649	33992.74
675.998	33899.41
676.346	33915.22
676.695	34008.33
677.044	33826.19
677.393	33960.65
677.741	33972.4
678.09	33886.3
678.438	33820.54
678.787	33814.21
679.135	33828.67
679.484	33620.09
679.832	33746.41
680.181	33611.28
680.529	33694.89
680.877	33408.12
681.225	33566.31
681.573	33719.75
681.922	33457.83
682.27	33309.59
682.618	33409.47
682.966	33424.62
683.314	33464.84
683.661	33278.4
684.009	33175.36
684.357	33167.22
684.705	32966.32
685.053	33067.34
685.4	33025.3
685.748	32784.63
686.095	32821.24
686.443	32728.59
686.79	32839.55
687.138	32708.93
687.485	32758.87
687.832	32740.79
688.18	32735.14
688.527	32652.88
688.874	32530.4
689.221	32516.16
689.568	32528.82
689.915	32331.31
690.262	32284.98
690.609	32172.45
690.956	32118.21
691.303	32088.61
691.65	31924.77
691.997	31973.58
692.344	31762.06
692.69	31717.99
693.037	31680.48
693.383	31560.26
693.73	31566.81
694.077	31405.46
694.423	31412.24
694.769	31274.39
695.116	31222.19
695.462	31170.44
695.808	31149.42
696.155	31207.95
696.501	30785.36
696.847	30824.68
697.193	30666.95
697.539	30801.63
697.885	30620.85
698.231	30542.21
698.577	30548.98
698.923	30559.83
699.269	30294.75
699.614	30124.36
699.96	30171.14
700.306	30198.71
700.651	30056.79
700.997	29857.03
701.342	29874.65
701.688	29876.46
702.033	29769.34
702.379	29667.88
702.724	29574.55
703.069	29747.42
703.415	29302.92
703.76	29364.84
704.105	29297.27
704.45	29334.55
704.795	29251.62
705.14	29076.71
705.485	29048.23
705.83	28816.83
706.175	28956.94
706.52	28830.84
706.865	28756.94
707.209	28729.37
707.554	28686.66
707.899	28676.94
708.243	28414.35
708.588	28635.14
708.932	28359.89
709.277	28262.72
709.621	28471.07
709.966	28149.05
710.31	28312.89
710.654	27977.75
710.998	28085.77
711.342	27920.13
711.687	27935.49
712.031	27856.85
712.375	27707.03
712.719	27808.04
713.063	27733.69
713.407	27869.96
713.75	27605.11
714.094	27634.94
714.438	27533.47
714.782	27505.45
715.125	27291.9
715.469	27352.01
715.812	27253.48
716.156	27162.63
716.499	27142.97
716.843	27187.27
717.186	26991.79
717.53	27178.68
717.873	26975.52
718.216	27114.5
718.559	26893.26
718.902	26743.21
719.246	26863.21
719.589	26712.25
719.932	26571.69
720.275	26548.86
720.617	26609.65
720.96	26432.48
721.303	26499.6
721.646	26442.43
721.989	26384.57
722.331	26404.91
722.674	26308.42
723.016	26245.82
723.359	26359.26
723.701	26354.52
724.044	26079.5
724.386	26012.61
724.729	26091.02
725.071	26011.48
725.413	25948.43
725.755	25907.75
726.097	25908.65
726.439	25659.85
726.782	25839.28
727.124	25875.21
727.465	25680.41
727.807	25587.31
728.149	25588.89
728.491	25548.21
728.833	25555.44
729.175	25564.48
729.516	25483.58
729.858	25508.67
730.199	25473.86
730.541	25456.01
730.882	25409.46
731.224	25435.67
731.565	25312.29
731.906	25246.3
732.248	25346.18
732.589	25289.46
732.93	25096.7
733.271	25071.61
733.612	25044.04
733.953	25168.34
734.294	25025.51
734.635	24901.45
734.976	25079.75
735.317	24824.84
735.658	24844.73
735.999	24846.08
736.339	24744.39
736.68	24849.47
737.021	24716.14
737.361	24551.4
737.702	24776.03
738.042	24718.86
738.383	24665.75
738.723	24562.7
739.063	24536.26
739.404	24587.33
739.744	24434.57
740.084	24376.49
740.424	24365.42
740.764	24388.69
741.104	24349.15
741.444	24186.67
741.784	24184.18
742.124	24321.35
742.464	24115.93
742.804	24049.95
743.143	23985.99
743.483	24181.92
743.823	23895.37
744.162	24020.34
744.502	23964.3
744.841	23845.21
745.181	24024.86
745.52	23850.18
745.86	23861.03
746.199	23844.75
746.538	23730.86
746.877	23729.73
747.216	23764.08
747.556	23734.7
747.895	23678.43
748.234	23617.64
748.573	23523.18
748.911	23552.11
749.25	23504.2
749.589	23479.79
749.928	23511.88
750.267	23506.68
750.605	23442.96
750.944	23309.63
751.283	23222.4
751.621	23362.51
751.96	23164.77
752.298	23110.31
752.636	23122.06
752.975	23087.94
753.313	22888.4
753.651	23025.11
753.989	22835.97
754.327	22861.5
754.666	22679.36
755.004	22763.43
755.342	22667.61
755.679	22625.35
756.017	22591
756.355	22680.27
756.693	22480.72
757.031	22537.67
757.368	22401.63
757.706	22346.26
758.044	22331.35
758.381	22380.61
758.719	22204.57
759.056	22233.05
759.394	22188.98
759.731	21982.2
760.068	22023.79
760.405	21817.69
760.743	21901.3
761.08	21886.61
761.417	21689.1
761.754	21846.84
762.091	21770.23
762.428	21525.49
762.765	21498.6
763.102	21491.14
763.438	21479.39
763.775	21256.35
764.112	21189.46
764.449	21284.82
764.785	21210.02
765.122	21009.35
765.458	21049.12
765.795	20977.26
766.131	20873.31
766.467	20843.48
766.804	20717.15
767.14	20620.43
767.476	20616.36
767.812	20432.64
768.148	20559.87
768.485	20406.43
768.821	20285.75
769.157	20324.62
769.492	20287.11
769.828	20162.14
770.164	19996.49
770.5	20133.89
770.836	19990.84
771.171	19831.75
771.507	19812.09
771.842	19598.31
772.178	19672.89
772.513	19609.61
772.849	19505.21
773.184	19520.8
773.519	19504.98
773.855	19329.62
774.19	19181.15
774.525	19211.43
774.86	19224.99
775.195	19190.19
775.53	19041.72
775.865	19009.4
776.2	18742.52
776.535	18724.66
776.87	18741.61
777.205	18704.78
777.539	18625
777.874	18579.36
778.209	18543.2
778.543	18440.38
778.878	18238.12
779.212	18342.75
779.547	18161.06
779.881	18238.57
780.215	18124.23
780.55	18106.37
780.884	17993.38
781.218	17942.76
781.552	17983.44
781.886	17816.21
782.22	17742.54
782.554	17738.7
782.888	17552.26
783.222	17510.01
783.556	17351.59
783.889	17332.61
784.223	17229.11
784.557	17225.95
784.89	17242.67
785.224	17157.47
785.557	17092.16
785.891	17084.48
786.224	16944.14
786.558	16916.8
786.891	16745.28
787.224	16649.01
787.557	16687.65
787.891	16537.38
788.224	16654.66
788.557	16647.43
788.89	16526.53
789.223	16443.37
789.556	16325.4
789.888	16292.18
790.221	16228.68
790.554	16070.72
790.887	16063.94
791.219	16004.06
791.552	16109.14
791.884	15855.81
792.217	15947.56
792.549	15886.32
792.882	15757.74
793.214	15663.27
793.546	15763.16
793.879	15534.92
794.211	15467.8
794.543	15544.41
794.875	15555.25
795.207	15444.52
795.539	15356.62
795.871	15436.84
796.203	15218.99
796.535	15158.66
796.867	15140.58
797.198	15079.11
797.53	15054.48
797.862	15004.99
798.193	15066.68
798.525	14901.26
798.856	14908.94
799.188	14902.39
799.519	14779.68
799.85	14720.47
800.182	14692.9
800.513	14717.76
800.844	14576.98
801.175	14646.35
801.506	14545.79
801.837	14522.51
802.168	14447.94
802.499	14464.89
802.83	14298.56
803.161	14360.26
803.491	14267.61
803.822	14334.95
804.153	14177.44
804.483	14130.43
804.814	14046.82
805.145	14046.59
805.475	14098.34
805.805	13952.13
806.136	13965.92
806.466	13944.22
806.796	13836.88
807.126	13789.88
807.457	13796.88
807.787	13730.67
808.117	13678.47
808.447	13610
808.777	13651.35
809.107	13552.37
809.436	13595.08
809.766	13590.56
810.096	13415.42
810.426	13398.02
810.755	13379.27
811.085	13394.18
811.414	13349.89
811.744	13273.05
812.073	13188.54
812.403	13264.92
812.732	13122.32
813.061	13202.1
813.39	13095.88
813.719	13041.87
814.049	13118.71
814.378	13053.4
814.707	12994.42
815.036	13020.63
815.365	12871.71
815.693	12834.2
816.022	12783.12
816.351	12777.93
816.68	12690.25
817.008	12772.28
817.337	12627.42
817.665	12592.17
817.994	12662
818.322	12584.49
818.651	12536.8
818.979	12489.12
819.307	12542.9
819.636	12485.05
819.964	12426.07
820.292	12474.66
820.62	12465.62
820.948	12438.95
821.276	12404.83
821.604	12441.66
821.932	12380.65
822.259	12410.93
822.587	12322.8
822.915	12362.8
823.243	12412.06
823.57	12315.34
823.898	12377.26
824.225	12283.48
824.553	12297.94
824.88	12330.93
825.207	12374.32
825.535	12288.45
825.862	12341.55
826.189	12302.68
826.516	12351.72
826.843	12330.71
827.17	12437.82
827.497	12322.35
827.824	12370.25
828.151	12304.49
828.478	12356.47
828.805	12335
829.131	12345.85
829.458	12289.13
829.785	12243.25
830.111	12254.32
830.438	12343.81
830.764	12296.81
831.09	12310.59
831.417	12219.52
831.743	12266.53
832.069	12268.79
832.395	12250.03
832.722	12178.17
833.048	12147.66
833.374	12183.82
833.7	12109.47
834.026	12156.93
834.351	12196.7
834.677	12140.66
835.003	12187.89
835.329	12134.78
835.654	12145.85
835.98	12015.01
836.306	12079.41
836.631	12038.96
836.956	12072.86
837.282	12065.4
837.607	12033.09
837.932	12056.36
838.258	11921.23
838.583	11905.18
838.908	11856.82
839.233	11982.69
839.558	11815.92
839.883	11908.57
840.208	11771.85
840.533	11783.83
840.858	11759.65
841.182	11839.42
841.507	11795.13
841.832	11759.65
842.156	11699.31
842.481	11724.85
842.805	11650.5
843.13	11683.04
843.454	11649.59
843.778	11591.74
844.103	11557.17
844.427	11493.44
844.751	11486.21
845.075	11491.41
845.399	11452.31
845.723	11430.62
846.047	11405.08
846.371	11253.45
846.695	11249.15
847.019	11172.32
847.343	11159.66
847.666	11137.29
847.99	11064.3
848.313	11167.35
848.637	11032.89
848.96	10983.62
849.284	10983.17
849.607	10845.1
849.931	10846.9
850.254	10745.89
850.577	10692.33
850.9	10648.72
851.223	10647.14
851.546	10581.6
851.869	10550.87
852.192	10568.04
852.515	10403.3
852.838	10461.15
853.161	10436.29
853.483	10355.39
853.806	10273.36
854.129	10336.41
854.451	10299.12
854.774	10272
855.096	10139.8
855.419	10188.62
855.741	10137.54
856.063	10086.25
856.385	10062.74
856.708	10026.13
857.03	10034.27
857.352	9973.93
857.674	9918.79
857.996	9882.86
858.318	9855.74
858.64	9786.82
858.961	9801.51
859.283	9784.56
859.605	9751.79
859.926	9804.67
860.248	9697.1
860.57	9692.81
860.891	9700.72
861.212	9649.87
861.534	9692.13
861.855	9596.54
862.176	9599.71
862.498	9588.63
862.819	9616.2
863.14	9516.77
863.461	9520.39
863.782	9520.39
864.103	9555.41
864.424	9417.34
864.745	9453.04
865.065	9406.26
865.386	9381.18
865.707	9363.33
866.027	9463.66
866.348	9366.72
866.668	9363.1
866.989	9312.26
867.309	9265.48
867.63	9287.62
867.95	9283.33
868.27	9229.32
868.59	9238.36
868.91	9231.13
869.23	9238.13
869.55	9176.21
869.87	9231.13
870.19	9223.44
870.51	9148.64
870.83	9171.69
871.15	9065.71
871.469	9076.78
871.789	9122.88
872.109	9123.33
872.428	9032.49
872.748	9099.61
873.067	9019.83
873.386	8994.07
873.706	9007.86
874.025	8937.58
874.344	8920.85
874.663	9011.25
874.982	8898.71
875.301	8924.02
875.62	8868.88
875.939	8899.38
876.258	8896.22
876.577	8836.56
876.896	8817.8
877.214	8776.9
877.533	8815.55
877.852	8785.04
878.17	8814.19
878.489	8816
878.807	8749.11
879.125	8686.06
879.444	8735.55
879.762	8738.48
880.08	8723.34
880.398	8666.85
880.716	8698.03
881.034	8628.43
881.352	8662.33
881.67	8583.01
881.988	8572.39
882.306	8568.77
882.624	8569.22
882.941	8510.24
883.259	8495.33
883.577	8530.13
883.894	8425.27
884.212	8405.61
884.529	8435.67
884.846	8388.21
885.164	8412.17
885.481	8397.93
885.798	8409.45
886.115	8302.79
886.432	8320.64
886.75	8298.27
887.067	8314.54
887.383	8265.5
887.7	8262.11
888.017	8168.33
888.334	8221.21
888.651	8175.79
888.967	8135.34
889.284	8162
889.6	8169.46
889.917	8038.84
890.233	8098.05
890.55	8036.13
890.866	8065.28
891.182	8008.11
891.498	7952.29
891.815	7961.78
892.131	7944.83
892.447	7879.3
892.763	7903.48
893.079	7887.21
893.395	7846.53
893.71	7813.09
894.026	7834.78
894.342	7844.27
894.657	7707.78
894.973	7757.72
895.289	7621
895.604	7698.29
895.92	7613.77
896.235	7611.06
896.55	7597.5
896.865	7579.65
897.181	7470.27
897.496	7571.74
897.811	7514.56
898.126	7508.46
898.441	7431.4
898.756	7399.99
899.071	7406.32
899.386	7395.24
899.7	7303.72
900.015	7301.69
900.33	7310.73
900.644	7239.54
900.959	7221.46
901.273	7200.22
901.588	7154.12
901.902	7145.31
902.216	7073.67
902.531	7090.84
902.845	7108.7
903.159	7004.07
903.473	7092.2
903.787	7002.03
904.101	6954.58
904.415	6960.23
904.729	6938.08
905.042	6915.26
905.356	6902.15
905.67	6898.08
905.984	6817.86
906.297	6793
906.611	6756.39
906.924	6805.88
907.237	6722.04
907.551	6692.66
907.864	6659.44
908.177	6656.28
908.491	6633.91
908.804	6602.04
909.117	6553.46
909.43	6506.45
909.743	6491.54
910.056	6507.81
910.368	6539.9
910.681	6445.44
910.994	6412.22
911.307	6398.89
911.619	6350.3
911.932	6363.18
912.244	6321.37
912.557	6316.4
912.869	6257.19
913.181	6202.05
913.494	6169.96
913.806	6199.34
914.118	6145.78
914.43	6167.93
914.742	6107.37
915.054	6075.5
915.366	6097.42
915.678	6061.72
915.99	6009.97
916.302	5996.18
916.613	5929.07
916.925	5942.85
917.236	5970.42
917.548	5883.64
917.859	5932.23
918.171	5818.56
918.482	5856.75
918.794	5855.4
919.105	5823.76
919.416	5727.26
919.727	5719.81
920.038	5696.08
920.349	5676.64
920.66	5648.62
920.971	5652.01
921.282	5606.36
921.593	5595.52
921.903	5536.31
922.214	5536.99
922.525	5532.47
922.835	5537.89
923.146	5456.09
923.456	5446.82
923.767	5422.41
924.077	5388.29
924.387	5380.38
924.697	5336.99
925.008	5329.54
925.318	5322.98
925.628	5305.13
925.938	5305.35
926.248	5261.06
926.558	5174.96
926.867	5245.7
927.177	5215.64
927.487	5148.07
927.796	5074.85
928.106	5153.95
928.416	5120.95
928.725	5104.46
929.034	5078.02
929.344	5020.62
929.653	5076.21
929.962	5016.77
930.271	5028.3
930.581	4932.48
930.89	4897.46
931.199	4915.08
931.508	4904.69
931.817	4892.03
932.125	4837.8
932.434	4840.28
932.743	4767.52
933.051	4800.74
933.36	4742.43
933.669	4708.53
933.977	4749.89
934.286	4696.56
934.594	4671.02
934.902	4692.04
935.21	4661.08
935.519	4645.49
935.827	4613.17
936.135	4610.01
936.443	4576.33
936.751	4518.93
937.059	4531.36
937.367	4464.92
937.674	4504.25
937.982	4462.89
938.29	4425.38
938.597	4456.34
938.905	4385.38
939.213	4351.71
939.52	4440.74
939.827	4395.32
940.135	4360.29
940.442	4323.69
940.749	4301.54
941.056	4312.39
941.363	4258.38
941.67	4236.23
941.977	4261.31
942.284	4192.16
942.591	4198.49
942.898	4161.66
943.205	4202.33
943.511	4154.2
943.818	4158.49
944.125	4092.73
944.431	4052.05
944.738	4068.78
945.044	4070.13
945.35	4031.94
945.657	4025.39
945.963	4016.12
946.269	3978.38
946.575	3973.19
946.881	3968.67
947.187	3925.28
947.493	3935.9
947.799	3922.11
948.105	3896.58
948.41	3866.3
948.716	3879.63
949.022	3866.75
949.327	3808.9
949.633	3765.06
949.938	3807.09
950.244	3847.09
950.549	3760.31
950.854	3694.55
951.16	3690.71
951.465	3721.22
951.77	3709.69
952.075	3664.72
952.38	3679.86
952.685	3661.1
952.99	3656.58
953.294	3614.1
953.599	3598.06
953.904	3607.32
954.209	3524.16
954.513	3553.76
954.818	3597.83
955.122	3540.66
955.426	3499.53
955.731	3508.11
956.035	3440.32
956.339	3469.92
956.643	3481.45
956.948	3451.84
957.252	3447.78
957.556	3434.44
957.86	3363.94
958.163	3354.67
958.467	3349.7
958.771	3355.12
959.075	3319.87
959.378	3324.39
959.682	3306.54
959.985	3282.81
960.289	3295.92
960.592	3224.28
960.896	3252.75
961.199	3250.04
961.502	3236.93
961.805	3182.02
962.108	3171.4
962.411	3181.57
962.714	3175.02
963.017	3140.89
963.32	3139.31
963.623	3147.22
963.926	3109.93
964.228	3083.72
964.531	3078.97
964.833	3081.91
965.136	3033.78
965.438	3024.28
965.741	2997.84
966.043	3043.04
966.345	3018.41
966.648	2971.63
966.95	3026.32
967.252	2925.08
967.554	2966.89
967.856	2951.97
968.158	2955.81
968.46	2882.82
968.761	2885.76
969.063	2888.7
969.365	2888.24
969.666	2870.16
969.968	2866.1
970.269	2842.14
970.571	2818.64
970.872	2847.34
971.174	2819.32
971.475	2802.6
971.776	2783.39
972.077	2745.65
972.378	2772.77
972.679	2733.67
972.98	2743.84
973.281	2696.84
973.582	2744.74
973.883	2704.29
974.183	2668.59
974.484	2674.46
974.785	2649.38
975.085	2631.3
975.386	2649.15
975.686	2614.8
975.986	2591.98
976.287	2633.79
976.587	2574.35
976.887	2556.27
977.187	2563.51
977.487	2560.57
977.787	2533.9
978.087	2567.8
978.387	2527.12
978.687	2543.62
978.987	2496.16
979.286	2491.64
979.586	2497.52
979.885	2490.29
980.185	2476.05
980.484	2412.32
980.784	2439.44
981.083	2455.26
981.382	2403.74
981.682	2429.5
981.981	2382.27
982.28	2379.33
982.579	2389.05
982.878	2386.34
983.177	2341.36
983.475	2363.29
983.774	2356.73
984.073	2303.4
984.372	2296.17
984.67	2315.6
984.969	2358.31
985.267	2264.98
985.566	2294.36
985.864	2252.33
986.162	2259.79
986.461	2259.33
986.759	2223.85
987.057	2202.61
987.355	2194.93
987.653	2201.03
987.951	2185.66
988.249	2184.31
988.547	2195.38
988.844	2176.62
989.142	2177.75
989.44	2174.36
989.737	2141.82
990.035	2140.92
990.332	2160.58
990.63	2092.11
990.927	2122.16
991.224	2093.46
991.521	2075.61
991.819	2080.35
992.116	2085.78
992.413	2043.07
992.71	2020.47
993.006	2057.98
993.303	2039.68
993.6	2006.01
993.897	2020.02
994.193	2031.32
994.49	1997.42
994.787	1966.23
995.083	2000.58
995.379	1957.87
995.676	1962.17
995.972	1976.63
996.268	1928.95
996.565	1935.05
996.861	1938.66
997.157	1921.26
997.453	1898.89
997.749	1874.94
998.044	1891.21
998.34	1857.76
998.636	1867.03
998.932	1838.1
999.227	1855.05
999.523	1844.65
999.818	1820.7
1000.114	1830.87
1000.409	1823.19
1000.704	1794.49
1001	1768.95
1001.295	1776.18
1001.59	1780.7
1001.885	1783.19
1002.18	1766.69
1002.475	1776.18
1002.77	1727.37
1003.065	1742.28
1003.359	1705.22
1003.654	1693.92
1003.949	1676.3
1004.243	1702.96
1004.538	1690.53
1004.832	1701.16
1005.127	1658.45
1005.421	1677.88
1005.715	1630.65
1006.009	1629.07
1006.304	1636.3
1006.598	1601.95
1006.892	1643.53
1007.186	1608.05
1007.48	1589.07
1007.773	1587.26
1008.067	1583.42
1008.361	1545.45
1008.655	1573.7
1008.948	1533.93
1009.242	1547.26
1009.535	1544.32
1009.829	1550.65
1010.122	1507.71
1010.415	1483.76
1010.708	1509.52
1011.001	1479.01
1011.295	1499.13
1011.588	1476.75
1011.881	1490.54
1012.173	1483.31
1012.466	1436.3
1012.759	1462.07
1013.052	1440.15
1013.344	1427.26
1013.637	1429.75
1013.93	1399.02
1014.222	1403.99
1014.514	1391.33
1014.807	1412.12
1015.099	1402.86
1015.391	1385.01
1015.683	1403.31
1015.976	1354.05
1016.268	1330.54
1016.56	1352.46
1016.851	1323.76
1017.143	1326.93
1017.435	1328.96
1017.727	1333.71
1018.018	1317.21
1018.31	1298.68
1018.602	1296.65
1018.893	1289.19
1019.185	1264.11
1019.476	1271.56
1019.767	1282.64
1020.058	1243.09
1020.35	1226.59
1020.641	1215.97
1020.932	1250.09
1021.223	1229.3
1021.514	1206.93
1021.804	1202.19
1022.095	1213.26
1022.386	1187.27
1022.677	1169.87
1022.967	1201.06
1023.258	1163.77
1023.548	1171
1023.839	1160.15
1024.129	1157.44
1024.419	1133.26
1024.709	1106.82
1025	1138.46
1025.29	1105.92
1025.58	1105.69
1025.87	1123.32
1026.16	1117.89
1026.449	1100.72
1026.739	1094.39
1027.029	1089.42
1027.319	1082.64
1027.608	1058.46
1027.898	1038.12
1028.187	1067.95
1028.477	1046.94
1028.766	1044.68
1029.055	1016.65
1029.344	1037.67
1029.634	1029.54
1029.923	1022.53
1030.212	1021.17
1030.501	1003.77
1030.79	1006.26
1031.078	980.27
1031.367	978.01
1031.656	985.47
1031.945	979.59
1032.233	978.69
1032.522	978.24
1032.81	953.6
1033.099	965.36
1033.387	957.22
1033.675	942.31
1033.963	945.7
1034.251	940.72
1034.54	946.15
1034.828	904.11
1035.116	899.14
1035.403	893.27
1035.691	888.75
1035.979	895.08
1036.267	884.91
1036.554	886.04
1036.842	865.47
1037.129	880.39
1037.417	872.93
1037.704	865.02
1037.992	883.1
1038.279	857.11
1038.566	853.95
1038.853	853.95
1039.14	853.95
