Data from hue_50_FLMS001491_37.txt Node
Date: Mon Feb 06 15:10:03 GMT 2017
User: dcchb
Spectrometer: FLMS00149
Trigger mode: 0
Integration Time (sec): 2.000000E-2
Scans to average: 10
Electric dark correction enabled: true
Nonlinearity correction enabled: false
Boxcar width: 0
XAxis mode: Wavelengths
Number of Pixels in Spectrum: 2048
>>>>>Begin Spectral Data<<<<<
341.393	2.16
341.776	2.16
342.16	2.16
342.543	-62.02
342.927	-62.7
343.31	-67.44
343.693	-85.29
344.077	-67.44
344.46	-79.87
344.843	-52.75
345.226	-47.33
345.61	-21.57
345.993	-28.12
346.376	-2.13
346.759	26.57
347.142	23.63
347.525	56.17
347.908	55.94
348.291	71.99
348.674	92.33
349.057	125.32
349.44	116.96
349.823	132.1
350.206	144.98
350.588	204.42
350.971	202.61
351.354	213.23
351.737	231.99
352.119	256.62
352.502	278.76
352.884	271.53
353.267	303.4
353.65	300.01
354.032	302.04
354.414	309.95
354.797	305.66
355.179	313.11
355.562	335.26
355.944	340.46
356.326	330.06
356.709	337.29
357.091	332.77
357.473	321.25
357.855	357.41
358.238	334.58
358.62	337.07
359.002	332.55
359.384	330.97
359.766	343.17
360.148	345.88
360.53	331.19
360.912	352.21
361.294	336.16
361.676	344.75
362.057	339.55
362.439	310.4
362.821	319.44
363.203	338.42
363.584	334.81
363.966	313.34
364.348	317.41
364.729	329.38
365.111	315.83
365.493	317.86
365.874	328.03
366.256	330.29
366.637	320.57
367.019	317.41
367.4	326.45
367.781	324.64
368.163	314.02
368.544	299.55
368.925	313.57
369.306	321.02
369.688	300.01
370.069	304.3
370.45	310.63
370.831	331.42
371.212	305.2
371.593	314.92
371.974	301.59
372.355	295.94
372.736	327.58
373.117	309.72
373.498	318.54
373.879	308.37
374.26	322.83
374.641	329.16
375.021	301.59
375.402	304.98
375.783	328.03
376.163	341.36
376.544	309.95
376.925	324.41
377.305	315.37
377.686	327.12
378.066	332.32
378.447	332.55
378.827	333.23
379.208	320.34
379.588	309.27
379.968	333.45
380.349	343.62
380.729	319.44
381.109	336.39
381.489	317.86
381.87	321.47
382.25	339.78
382.63	333.68
383.01	319.89
383.39	324.19
383.77	345.65
384.15	354.24
384.53	342.72
384.91	348.59
385.29	346.33
385.67	330.29
386.049	343.62
386.429	336.62
386.809	337.29
387.189	371.42
387.568	320.34
387.948	351.53
388.328	365.09
388.707	332.1
389.087	350.17
389.466	343.39
389.846	346.33
390.225	339.78
390.605	348.37
390.984	335.49
391.363	344.75
391.743	358.76
392.122	375.48
392.501	368.93
392.881	375.26
393.26	371.87
393.639	373.68
394.018	379.1
394.397	337.75
394.776	368.7
395.155	336.16
395.534	353.79
395.913	367.58
396.292	371.42
396.671	383.85
397.05	374.35
397.429	373
397.808	372.55
398.186	354.69
398.565	374.35
398.944	358.54
399.323	375.26
399.701	381.13
400.08	370.74
400.458	359.21
400.837	389.95
401.215	381.36
401.594	390.17
401.972	377.29
402.351	370.51
402.729	389.04
403.107	377.52
403.486	382.04
403.864	396.27
404.242	390.85
404.62	380.68
404.999	384.07
405.377	382.04
405.755	390.85
406.133	397.86
406.511	380
406.889	402.38
407.267	406.9
407.645	386.78
408.023	399.21
408.401	400.57
408.779	398.08
409.156	408.93
409.534	405.31
409.912	438.31
410.29	450.28
410.667	415.48
411.045	411.19
411.422	425.2
411.8	437.86
412.178	429.04
412.555	435.14
412.933	430.4
413.31	434.01
413.687	432.43
414.065	448.7
414.442	450.06
414.819	434.24
415.197	427.91
415.574	463.84
415.951	451.19
416.328	452.09
416.705	468.36
417.082	476.95
417.46	448.25
417.837	468.59
418.214	469.27
418.591	472.21
418.967	459.1
419.344	468.82
419.721	480.34
420.098	473.56
420.475	474.01
420.852	480.57
421.228	473.56
421.605	476.5
421.982	503.62
422.358	490.74
422.735	492.09
423.111	513.56
423.488	501.81
423.864	511.53
424.241	500.68
424.617	509.72
424.994	529.38
425.37	517.18
425.746	513.79
426.123	538.19
426.499	518.08
426.875	500.45
427.251	519.89
427.627	521.24
428.003	514.92
428.379	535.25
428.756	539.55
429.132	543.16
429.507	532.54
429.883	551.3
430.259	566.89
430.635	556.95
431.011	578.42
431.387	568.7
431.763	528.7
432.138	545.2
432.514	594.24
432.89	565.31
433.265	598.3
433.641	586.55
434.016	598.98
434.392	594.69
434.767	599.89
435.143	576.61
435.518	607.79
435.894	617.51
436.269	606.66
436.644	617.06
437.02	622.26
437.395	604.63
437.77	639.21
438.145	627.91
438.52	615.93
438.895	649.15
439.271	638.75
439.646	646.89
440.021	666.55
440.395	661.58
440.77	643.05
441.145	664.52
441.52	679.66
441.895	671.3
442.27	685.53
442.645	699.77
443.019	692.31
443.394	674.69
443.769	706.1
444.143	684.85
444.518	706.78
444.892	695.93
445.267	715.81
445.641	720.79
446.016	726.89
446.39	729.83
446.764	725.53
447.139	717.4
447.513	702.93
447.887	725.76
448.262	730.73
448.636	725.31
449.01	744.74
449.384	732.09
449.758	748.58
450.132	751.97
450.506	764.63
450.88	766.89
451.254	749.26
451.628	759.43
452.002	797.39
452.376	790.39
452.75	789.71
453.123	792.65
453.497	792.65
453.871	804.17
454.244	806.21
454.618	817.28
454.992	822.03
455.365	800.56
455.739	834.68
456.112	828.81
456.486	848.69
456.859	834.23
457.232	856.15
457.606	872.42
457.979	883.04
458.352	890.95
458.725	891.86
459.099	901.12
459.472	905.41
459.845	930.95
460.218	951.74
460.591	968.24
460.964	952.87
461.337	949.48
461.71	980.89
462.083	989.93
462.456	963.72
462.829	982.93
463.201	1032.64
463.574	1007.33
463.947	1049.82
464.32	1064.51
464.692	1050.27
465.065	1087.56
465.438	1094.56
465.81	1093.66
466.183	1123.71
466.555	1145.41
466.928	1143.15
467.3	1150.83
467.672	1165.75
468.045	1196.25
468.417	1215.01
468.789	1215.91
469.161	1205.75
469.534	1258.85
469.906	1273.31
470.278	1294.56
470.65	1322.8
471.022	1366.64
471.394	1366.19
471.766	1415.46
472.138	1429.24
472.51	1458.39
472.882	1498.84
473.253	1511.73
473.625	1507.21
473.997	1586.07
474.369	1596.47
474.74	1625.62
475.112	1673.08
475.484	1713.98
475.855	1757.82
476.227	1803.7
476.598	1853.19
476.97	1886.63
477.341	1944.93
477.713	1998.27
478.084	2043.92
478.455	2056.8
478.827	2097.93
479.198	2212.72
479.569	2249.33
479.94	2343.12
480.311	2373.17
480.682	2443.9
481.053	2549.89
481.424	2636.22
481.795	2702.43
482.166	2719.6
482.537	2834.63
482.908	2935.64
483.279	3003.66
483.65	3095.64
484.021	3218.35
484.391	3265.58
484.762	3353.71
485.133	3439.13
485.503	3507.15
485.874	3636.64
486.244	3748.73
486.615	3873.25
486.985	3967.25
487.356	4097.42
487.726	4179.45
488.097	4323.86
488.467	4323.63
488.837	4518.65
489.207	4617.18
489.578	4768.36
489.948	4921.13
490.318	5011.75
490.688	5116.83
491.058	5261.46
491.428	5380.55
491.798	5483.15
492.168	5669.81
492.538	5754.78
492.908	5868.9
493.278	6037.71
493.648	6105.5
494.017	6254.88
494.387	6444.25
494.757	6544.59
495.126	6659.16
495.496	6763.11
495.866	6864.81
496.235	7054.4
496.605	7167.62
496.974	7262.54
497.344	7411.46
497.713	7454.85
498.082	7644.9
498.452	7818.23
498.821	7874.27
499.19	7991.78
499.559	8163.53
499.928	8221.61
500.298	8395.16
500.667	8499.79
501.036	8561.03
501.405	8747.47
501.774	8787.69
502.143	8970.29
502.512	8996.73
502.88	9142.71
503.249	9225.42
503.618	9370.5
503.987	9532.31
504.356	9612.3
504.724	9622.47
505.093	9770.72
505.462	9864.27
505.83	9942.24
506.199	10083.48
506.567	10323.47
506.936	10300.87
507.304	10419.51
507.672	10580.19
508.041	10671.71
508.409	10750.35
508.777	10821.54
509.145	11002.32
509.514	11083.45
509.882	11114.41
510.25	11292.26
510.618	11341.98
510.986	11448.64
511.354	11654.74
511.722	11694.73
512.09	11791
512.458	11861.51
512.826	11900.61
513.193	12083.2
513.561	12079.58
513.929	12260.82
514.297	12408.39
514.664	12493.81
515.032	12609.29
515.4	12701.49
515.767	12725.22
516.135	12900.8
516.502	12818.32
516.869	13096.73
517.237	13190.06
517.604	13142.83
517.972	13272.09
518.339	13414.24
518.706	13494.46
519.073	13586.44
519.44	13640.9
519.808	13827.33
520.175	13813.78
520.542	13995.47
520.909	14089.47
521.276	14162.24
521.643	14407.21
522.009	14338.28
522.376	14478.62
522.743	14721.32
523.11	14767.2
523.477	14887.19
523.843	14988.66
524.21	15156.79
524.577	15251.48
524.943	15302.78
525.31	15376.45
525.676	15642.65
526.043	15601.07
526.409	15728.08
526.776	15893.49
527.142	15905.92
527.508	16180.27
527.874	16246.25
528.241	16319.25
528.607	16359.7
528.973	16523.53
529.339	16420.03
529.705	16694.38
530.071	16895.73
530.437	16963.75
530.803	17011.66
531.169	17088.04
531.535	17095.27
531.901	17198.09
532.267	17247.58
532.632	17441.93
532.998	17487.12
533.364	17555.37
533.73	17589.04
534.095	17812.09
534.461	17831.97
534.826	18030.84
535.192	17988.58
535.557	18164.4
535.923	18184.73
536.288	18210.5
536.653	18318.29
537.019	18290.49
537.384	18345.41
537.749	18543.14
538.114	18576.14
538.479	18542.01
538.845	18706.53
539.21	18620.43
539.575	18760.31
539.94	18869.01
540.305	19029.23
540.67	18912.17
541.034	19064.26
541.399	19195.55
541.764	19186.74
542.129	19283.69
542.494	19412.5
542.858	19379.73
543.223	19422.22
543.587	19482.78
543.952	19536.11
544.316	19637.12
544.681	19687.97
545.045	19728.42
545.41	19942.88
545.774	19914.86
546.138	19965.7
546.503	19987.4
546.867	20063.1
547.231	20182.65
547.595	20303.32
547.959	20308.97
548.324	20407.5
548.688	20425.35
549.052	20537.89
549.416	20615.63
549.779	20515.07
550.143	20633.48
550.507	20879.13
550.871	20922.51
551.235	20855.4
551.599	20955.28
551.962	21020.14
552.326	21155.5
552.689	21363.18
553.053	21188.04
553.417	21287.03
553.78	21553.01
554.143	21393.91
554.507	21653.57
554.87	21682.72
555.234	21811.98
555.597	21696.73
555.96	21881.13
556.323	21967.69
556.686	22052.88
557.05	22156.15
557.413	22190.05
557.776	22172.43
558.139	22362.7
558.502	22404.06
558.865	22483.83
559.228	22688.34
559.59	22771.28
559.953	22759.3
560.316	22982.57
560.679	22997.26
561.041	23116.58
561.404	23279.97
561.767	23383.02
562.129	23303.24
562.492	23517.25
562.854	23542.11
563.217	23583.24
563.579	23699.16
563.941	23819.16
564.304	23882.66
564.666	24162.2
565.028	24097.35
565.39	24206.95
565.753	24290.34
566.115	24338.02
566.477	24545.24
566.839	24650.78
567.201	24716.99
567.563	24794.73
567.925	25015.29
568.287	24958.57
568.648	25066.59
569.01	25142.29
569.372	25277.65
569.734	25208.28
570.095	25478.33
570.457	25613.01
570.819	25605.78
571.18	25723.52
571.542	25829.28
571.903	25886.9
572.265	25988.37
572.626	26054.36
572.987	26080.57
573.349	26307.01
573.71	26424.52
574.071	26374.35
574.432	26536.15
574.794	26747.22
575.155	26636.49
575.516	26707.22
575.877	26881.91
576.238	26903.15
576.599	27008.91
576.96	27066.08
577.32	27156.48
577.681	27342.01
578.042	27435.11
578.403	27480.08
578.763	27555.33
579.124	27649.8
579.485	27718.49
579.845	27867.42
580.206	27935.66
580.566	27880.52
580.927	28071.93
581.287	28316.67
581.648	28151.25
582.008	28487.06
582.368	28567.06
582.728	28748.3
583.089	28688.64
583.449	28648.64
583.809	28882.98
584.169	28997.33
584.529	29007.05
584.889	29270.09
585.249	29200.49
585.609	29122.98
585.969	29463.53
586.329	29313.71
586.688	29660.82
587.048	29693.81
587.408	29753.24
587.768	29774.03
588.127	29867.59
588.487	29948.04
588.846	30115.72
589.206	30152.55
589.565	30307.13
589.925	30521.58
590.284	30452.66
590.643	30648.36
591.003	30715.7
591.362	30959.99
591.721	30969.71
592.08	31030.72
592.44	31280.21
592.799	31292.19
593.158	31101
593.517	31400.21
593.876	31660.76
594.235	31597.71
594.593	31716.81
594.952	31920.42
595.311	31717.94
595.67	31994.09
596.029	32101.66
596.387	32204.93
596.746	32394.3
597.104	32251.71
597.463	32420.29
597.822	32524.92
598.18	32505.49
598.538	32594.07
598.897	32744.35
599.255	32645.82
599.613	33257.56
599.972	32956.1
600.33	33265.02
600.688	33201.74
601.046	33316.54
601.404	33589.98
601.762	33544.78
602.12	33768.73
602.478	33836.3
602.836	33820.48
603.194	33718.11
603.552	33876.98
603.91	33799.01
604.268	34011.66
604.625	34044.2
604.983	34274.48
605.341	34115.16
605.698	34404.65
606.056	34361.03
606.413	34443.29
606.771	34580.69
607.128	34705.88
607.485	34613.45
607.843	34695.03
608.2	34853
608.557	34878.08
608.914	34925.99
609.272	35147.68
609.629	35341.12
609.986	35397.39
610.343	35223.61
610.7	35584.73
611.057	35527.33
611.414	35637.61
611.771	35505.41
612.127	35859.3
612.484	35697.72
612.841	35872.63
613.198	35875.79
613.554	35958.73
613.911	36097.03
614.267	36139.29
614.624	36146.75
614.98	36300.64
615.337	36455.44
615.693	36554.19
616.05	36360.08
616.406	36713.06
616.762	36499.05
617.118	36567.75
617.475	36667.41
617.831	36845.71
618.187	36773.85
618.543	36921.19
618.899	37022.2
619.255	36993.05
619.611	37123.9
619.967	37222.43
620.323	37299.94
620.678	37148.3
621.034	37172.26
621.39	37250.9
621.746	37309.2
622.101	37675.07
622.457	37361.4
622.812	37452.93
623.168	37577.22
623.523	37515.3
623.879	37707.38
624.234	37459.03
624.589	37658.8
624.945	37628.74
625.3	37733.82
625.655	37639.36
626.01	37739.25
626.365	37727.27
626.72	37791
627.075	37774.95
627.43	37532.93
627.785	37689.98
628.14	37736.08
628.495	37804.78
628.85	37805.23
629.205	37734.95
629.559	37933.14
629.914	37830.77
630.269	37948.73
630.623	37676.42
630.978	37701.06
631.332	37845.23
631.687	38039.8
632.041	37618.8
632.396	37777.89
632.75	37700.83
633.104	37848.62
633.459	37685.01
633.813	37659.02
634.167	37660.83
634.521	37672.13
634.875	37787.61
635.229	37746.48
635.583	37544.68
635.937	37585.58
636.291	37546.03
636.645	37723.88
636.999	37433.49
637.352	37702.64
637.706	37334.51
638.06	37591.46
638.413	37462.19
638.767	37566.15
639.121	37394.85
639.474	37334.74
639.828	37389.88
640.181	37369.09
640.534	37421.52
640.888	37254.06
641.241	37187.62
641.594	37297
641.947	37312.82
642.301	37222.43
642.654	37252.25
643.007	37175.87
643.36	37281.86
643.713	37035.09
644.066	37209.32
644.419	36967.06
644.771	36591.93
645.124	36546.28
645.477	36442.78
645.83	36178.84
646.182	36007.77
646.535	36075.79
646.888	36146.97
647.24	35780.88
647.593	36054.32
647.945	35997.82
648.298	35665.18
648.65	35805.06
649.002	35744.5
649.355	35956.47
649.707	35739.3
650.059	36008.67
650.411	36294.77
650.763	36374.76
651.115	36567.98
651.467	36648.88
651.819	36466.06
652.171	36543.12
652.523	36440.52
652.875	36405.95
653.227	36338.61
653.578	36619.73
653.93	36469.45
654.282	36294.77
654.633	36335.67
654.985	36376.57
655.337	36325.73
655.688	36277.14
656.039	36476.91
656.391	36088.9
656.742	36055.9
657.094	36158.05
657.445	36326.63
657.796	36230.36
658.147	36091.61
658.498	36213.86
658.849	36161.21
659.2	36132.28
659.551	35944.04
659.902	36199.85
660.253	36101.32
660.604	36196.24
660.955	35913.53
661.306	36229.01
661.656	36071.72
662.007	36015
662.358	36006.19
662.708	36036.92
663.059	35917.15
663.409	35777.49
663.76	35923.25
664.11	35982.01
664.461	35971.38
664.811	36072.17
665.161	35982.01
665.511	35900.2
665.862	36035.79
666.212	36104.26
666.562	36073.3
666.912	35968.9
667.262	35858.17
667.612	35890.03
667.962	35872.86
668.312	35951.27
668.662	36076.69
669.011	36072.17
669.361	36006.64
669.711	35929.35
670.06	35839.64
670.41	35790.82
670.76	35726.42
671.109	35904.72
671.459	35726.87
671.808	35674.44
672.157	35839.18
672.507	35688.45
672.856	35664.73
673.205	35649.13
673.554	35773.42
673.904	35715.57
674.253	35826.98
674.602	35630.83
674.951	35162.82
675.3	34995.59
675.649	35571.85
675.998	35425.18
676.346	35530.04
676.695	35627.66
677.044	35392.87
677.393	35391.74
677.741	35566.42
678.09	35461.12
678.438	35352.42
678.787	35406.65
679.135	35308.35
679.484	35285.53
679.832	35282.82
680.181	35170.73
680.529	35300.67
680.877	35046.21
681.225	35085.76
681.573	35151.07
681.922	34985.65
682.27	34982.03
682.618	34980
682.966	34776.84
683.314	34992.43
683.661	34875.37
684.009	34612.32
684.357	34573.91
684.705	34422.95
685.053	34567.35
685.4	34549.05
685.748	34458.43
686.095	34415.04
686.443	34335.72
686.79	34236.97
687.138	34338.21
687.485	34292.56
687.832	34085.33
688.18	34126.46
688.527	33881.95
688.874	34085.56
689.221	33875.85
689.568	33932.34
689.915	33739.58
690.262	33765.34
690.609	33602.86
690.956	33541.39
691.303	33604.44
691.65	33158.58
691.997	33460.94
692.344	33169.88
692.69	33144.34
693.037	33178.01
693.383	32925.59
693.73	33026.6
694.077	32857.12
694.423	32857.12
694.769	32677.69
695.116	32678.36
695.462	32567.18
695.808	32343.91
696.155	32484.02
696.501	32293.29
696.847	32336.23
697.193	32096.68
697.539	32273.85
697.885	31939.85
698.231	31779.18
698.577	31930.36
698.923	31725.85
699.269	31705.96
699.614	31555
699.96	31550.26
700.306	31485.17
700.651	31451.05
700.997	31362.24
701.342	31317.5
701.688	31227.78
702.033	31077.5
702.379	31088.58
702.724	31086.09
703.069	30992.53
703.415	30615.14
703.76	30731.97
704.105	30641.13
704.45	30658.3
704.795	30481.13
705.14	30415.6
705.485	30286.79
705.83	30243.63
706.175	30123.18
706.52	30210.63
706.865	30064.87
707.209	30133.35
707.554	29915.5
707.899	29983.75
708.243	29776.52
708.588	29830.76
708.932	29570.88
709.277	29576.75
709.621	29670.76
709.966	29364.1
710.31	29565.23
710.654	29256.31
710.998	29292.69
711.342	29236.65
711.687	29120.49
712.031	29078.01
712.375	29036.65
712.719	29089.53
713.063	28935.41
713.407	29025.58
713.75	28821.52
714.094	28840.72
714.438	28775.64
714.782	28813.61
715.125	28600.96
715.469	28618.36
715.812	28485.03
716.156	28278.93
716.499	28361.19
716.843	28444.58
717.186	28248.88
717.53	28309.67
717.873	28325.48
718.216	28150.8
718.559	28023.8
718.902	27894.08
719.246	28042.55
719.589	27792.39
719.932	27806.18
720.275	27871.26
720.617	27876.68
720.96	27746.97
721.303	27697.48
721.646	27650.7
721.989	27554.66
722.331	27545.84
722.674	27500.65
723.016	27461.1
723.359	27537.93
723.701	27371.84
724.044	27334.55
724.386	27149.92
724.729	27368.67
725.071	27176.81
725.413	27158.96
725.755	27015.46
726.097	27133.65
726.439	26846.65
726.782	26836.26
727.124	27025.86
727.465	26900.89
727.807	26827.44
728.149	26608.92
728.491	26586.09
728.833	26821.34
729.175	26617.73
729.516	26626.09
729.858	26559.65
730.199	26525.08
730.541	26589.71
730.882	26481.46
731.224	26472.2
731.565	26375.03
731.906	26367.12
732.248	26394.91
732.589	26235.82
732.93	26021.14
733.271	26192.21
733.612	26224.3
733.953	26191.08
734.294	26056.62
734.635	25916.96
734.976	26092.1
735.317	25824.31
735.658	25751.54
735.999	25865.89
736.339	25845.55
736.68	25926
737.021	25731.65
737.361	25705.67
737.702	25753.57
738.042	25716.74
738.383	25642.84
738.723	25660.92
739.063	25500.93
739.404	25578.66
739.744	25581.83
740.084	25405.56
740.424	25528.72
740.764	25463.19
741.104	25409.4
741.444	25371.21
741.784	25294.38
742.124	25295.73
742.464	25242.85
742.804	25186.81
743.143	25118.11
743.483	25208.73
743.823	25012.8
744.162	24958.11
744.502	25018.23
744.841	24905.46
745.181	25065.46
745.52	24886.25
745.86	24939.58
746.199	24855.07
746.538	24831.34
746.877	24802.64
747.216	24731.68
747.556	24717.22
747.895	24786.14
748.234	24668.63
748.573	24665.47
748.911	24387.96
749.25	24424.57
749.589	24407.85
749.928	24225.03
750.267	24387.28
750.605	24369.66
750.944	24230.22
751.283	24075.43
751.621	24306.38
751.96	24048.53
752.298	24064.81
752.636	24090.12
752.975	23901.42
753.313	23966.73
753.651	24005.6
753.989	23835.66
754.327	23802.44
754.666	23725.6
755.004	23747.98
755.342	23742.1
755.679	23597.02
756.017	23521.54
756.355	23634.76
756.693	23463.01
757.031	23442.22
757.368	23393.64
757.706	23286.07
758.044	23072.74
758.381	23190.25
758.719	23141.67
759.056	23092.4
759.394	23089.69
759.731	22914.1
760.068	22831.39
760.405	22794.33
760.743	22672.53
761.08	22738.51
761.417	22643.83
761.754	22537.16
762.091	22593.21
762.428	22336.26
762.765	22210.84
763.102	22350.95
763.438	22301.01
763.775	22125.87
764.112	22209.94
764.449	22120
764.785	22002.94
765.122	22000.68
765.458	21907.57
765.795	21713.91
766.131	21813.11
766.467	21613.34
766.804	21522.5
767.14	21409.96
767.476	21536.51
767.812	21292.9
768.148	21387.36
768.485	21228.27
768.821	21181.94
769.157	21132.45
769.492	21029.4
769.828	21044.77
770.164	20801.84
770.5	20802.29
770.836	20812.24
771.171	20674.39
771.507	20622.41
771.842	20452.24
772.178	20500.83
772.513	20358.91
772.849	20348.07
773.184	20341.06
773.519	20164.12
773.855	20171.8
774.19	19923.9
774.525	20016.78
774.86	19989.21
775.195	19898.81
775.53	19770
775.865	19763.22
776.2	19563.23
776.535	19381.31
776.87	19551.7
777.205	19319.62
777.539	19283.46
777.874	19280.75
778.209	19147.42
778.543	19185.61
778.878	19009.34
779.212	18985.62
779.547	18841.21
779.881	18947.43
780.215	18798.05
780.55	18844.6
780.884	18678.51
781.218	18614.33
781.552	18611.16
781.886	18473.31
782.22	18602.12
782.554	18396.71
782.888	18151.97
783.222	18110.84
783.556	18109.71
783.889	18022.25
784.223	17935.02
784.557	17841.92
784.89	17934.34
785.224	17777.96
785.557	17768.25
785.891	17702.03
786.224	17635.14
786.558	17638.08
786.891	17446
787.224	17435.6
787.557	17370.52
787.891	17335.49
788.224	17220.01
788.557	17221.6
788.89	17143.41
789.223	17092.11
789.556	16971.88
789.888	16902.06
790.221	16933.02
790.554	16747.26
790.887	16707.48
791.219	16677.2
791.552	16666.36
791.884	16565.79
792.217	16508.39
792.549	16488.51
792.882	16335.06
793.214	16247.38
793.546	16375.74
793.879	16248.74
794.211	16145.47
794.543	16149.53
794.875	15997.45
795.207	16113.83
795.539	15965.81
795.871	16002.19
796.203	15851.01
796.535	15805.36
796.867	15730.11
797.198	15648.98
797.53	15555.88
797.862	15587.51
798.193	15534.41
798.525	15525.59
798.856	15472.71
799.188	15321.53
799.519	15331.93
799.85	15244.7
800.182	15205.38
800.513	15304.81
800.844	15046.29
801.175	15190.24
801.506	15125.38
801.837	15039.96
802.168	14994.54
802.499	14924.93
802.83	14853.75
803.161	14821.21
803.491	14875.44
803.822	14717.48
804.153	14733.3
804.483	14660.98
804.814	14556.58
805.145	14538.28
805.475	14533.76
805.805	14511.38
806.136	14442.69
806.466	14463.48
806.796	14373.76
807.126	14271.16
807.457	14350.94
807.787	14241.11
808.117	14195.01
808.447	14106.2
808.777	14171.96
809.107	13981.23
809.436	14053.54
809.766	14115.69
810.096	13986.2
810.426	13909.59
810.755	13924.51
811.085	13896.48
811.414	13829.14
811.744	13804.28
812.073	13690.16
812.403	13733.33
812.732	13675.47
813.061	13686.55
813.39	13525.42
813.719	13562.48
814.049	13660.11
814.378	13520
814.707	13508.47
815.036	13499.21
815.365	13389.83
815.693	13210.85
816.022	13291.08
816.351	13244.07
816.68	13196.84
817.008	13256.95
817.337	13150.97
817.665	13062.16
817.994	13049.73
818.322	13106
818.651	13074.59
818.979	13105.32
819.307	13023.29
819.636	12999.11
819.964	12881.14
820.292	12981.03
820.62	12957.98
820.948	12820.58
821.276	12995.27
821.604	12845.44
821.932	12933.35
822.259	12887.47
822.587	12825.1
822.915	12892.67
823.243	12851.09
823.57	12741.26
823.898	12878.88
824.225	12794.59
824.553	12805.21
824.88	12725.22
825.207	12827.59
825.535	12775.61
825.862	12825.78
826.189	12748.27
826.516	12816.06
826.843	12886.57
827.17	12878.43
827.497	12901.71
827.824	12860.81
828.151	12768.6
828.478	12822.16
828.805	12802.95
829.131	12762.05
829.458	12748.49
829.785	12786.23
830.111	12726.12
830.438	12769.73
830.764	12758.44
831.09	12785.1
831.417	12689.96
831.743	12696.52
832.069	12658.78
832.395	12685.44
832.722	12739.91
833.048	12631.43
833.374	12641.38
833.7	12618.78
834.026	12626.46
834.351	12607.71
834.677	12627.82
835.003	12548.5
835.329	12568.38
835.654	12492.91
835.98	12491.55
836.306	12543.3
836.631	12463.98
836.956	12523.19
837.282	12466.01
837.607	12441.83
837.932	12426.24
838.258	12483.64
838.583	12381.04
838.908	12327.49
839.233	12426.24
839.558	12266.92
839.883	12313.93
840.208	12247.26
840.533	12328.16
840.858	12215.4
841.182	12242.07
841.507	12253.14
841.832	12195.96
842.156	12103.09
842.481	12112.35
842.805	12127.49
843.13	12043.65
843.454	12030.77
843.778	11992.58
844.103	11919.81
844.427	11876.88
844.751	11979.93
845.075	11896.99
845.399	11777.9
845.723	11831.45
846.047	11784.9
846.371	11712.36
846.695	11815.18
847.019	11584.91
847.343	11555.53
847.666	11467.17
847.99	11433.95
848.313	11487.96
848.637	11410.9
848.96	11392.37
849.284	11292.26
849.607	11278.25
849.931	11214.97
850.254	11181.53
850.577	11083.45
850.9	11038.25
851.223	11028.09
851.546	10985.37
851.869	10895.66
852.192	10908.54
852.515	10864.02
852.838	10786.96
853.161	10817.02
853.483	10623.12
853.806	10733.4
854.129	10650.47
854.451	10595.1
854.774	10611.37
855.096	10502.9
855.419	10529.79
855.741	10490.92
856.063	10468.1
856.385	10462.68
856.708	10347.65
857.03	10370.7
857.352	10351.49
857.674	10326.18
857.996	10356.46
858.318	10180.88
858.64	10268.33
858.961	10179.52
859.283	10103.59
859.605	10145.17
859.926	10085.06
860.248	10072.4
860.57	10042.8
860.891	10016.81
861.212	9981.56
861.534	9942.92
861.855	10016.59
862.176	9950.37
862.498	9959.41
862.819	9965.74
863.14	9922.13
863.461	9893.88
863.782	9830.38
864.103	9880.77
864.424	9813.2
864.745	9876.7
865.065	9800.77
865.386	9742.92
865.707	9760.32
866.027	9726.2
866.348	9729.59
866.668	9647.11
866.989	9624.73
867.309	9602.13
867.63	9558.07
867.95	9656.82
868.27	9536.15
868.59	9623.38
868.91	9561.23
869.23	9563.27
869.55	9484.4
869.87	9538.18
870.19	9486.66
870.51	9491.85
870.83	9436.94
871.15	9408.02
871.469	9421.57
871.789	9417.05
872.109	9468.35
872.428	9351.07
872.748	9317.17
873.067	9357.17
873.386	9383.61
873.706	9275.14
874.025	9283.27
874.344	9289.37
874.663	9253.67
874.982	9220.22
875.301	9284.4
875.62	9228.13
875.939	9205.08
876.258	9175.48
876.577	9103.84
876.896	9124.41
877.214	9076.72
877.533	9161.24
877.852	9066.56
878.17	9117.18
878.489	9105.65
878.807	9065.65
879.125	9147.68
879.444	8981.59
879.762	8991.08
880.08	8989.72
880.398	9005.54
880.716	8987.91
881.034	8849.39
881.352	8975.48
881.67	8883.74
881.988	8900.01
882.306	8901.14
882.624	8798.31
882.941	8846.22
883.259	8812.55
883.577	8785.43
883.894	8735.94
884.212	8782.04
884.529	8714.93
884.846	8712.21
885.164	8722.84
885.481	8582.5
885.798	8709.95
886.115	8666.34
886.432	8617.53
886.75	8589.28
887.067	8599.9
887.383	8506.57
887.7	8554.48
888.017	8532.11
888.334	8512.67
888.651	8559.22
888.967	8499.34
889.284	8401.94
889.6	8422.96
889.917	8426.12
890.233	8319.46
890.55	8319.68
890.866	8301.83
891.182	8282.62
891.498	8269.74
891.815	8275.39
892.131	8250.31
892.447	8219.57
892.763	8129.63
893.079	8173.02
893.395	8132.57
893.71	8112.91
894.026	8014.38
894.342	8054.83
894.657	8105.68
894.973	8028.39
895.289	8020.93
895.604	8041.27
895.92	7940.48
896.235	7859.81
896.55	7893.48
896.865	7852.12
897.181	7794.05
897.496	7827.04
897.811	7792.92
898.126	7741.62
898.441	7735.74
898.756	7716.31
899.071	7716.76
899.386	7611.23
899.7	7576.65
900.015	7539.36
900.33	7496.2
900.644	7461.17
900.959	7495.07
901.273	7524.45
901.588	7460.27
901.902	7437.22
902.216	7412.36
902.531	7381.4
902.845	7389.54
903.159	7281.52
903.473	7275.42
903.787	7215.53
904.101	7190.67
904.415	7220.73
904.729	7161.97
905.042	7138.92
905.356	7150.22
905.67	7091.69
905.984	7072.94
906.297	7080.39
906.611	7011.47
906.924	7003.56
907.237	6929.44
907.551	6933.05
907.864	6900.28
908.177	6913.62
908.491	6879.04
908.804	6861.42
909.117	6786.39
909.43	6769.44
909.743	6694.87
910.056	6746.39
910.368	6661.42
910.681	6666.62
910.994	6642.21
911.307	6624.13
911.619	6617.13
911.932	6595.89
912.244	6489
912.557	6517.24
912.869	6495.78
913.181	6490.58
913.494	6462.56
913.806	6392.05
914.118	6400.86
914.43	6378.49
914.742	6297.14
915.054	6295.1
915.366	6253.75
915.678	6291.49
915.99	6214.43
916.302	6174.65
916.613	6109.57
916.925	6099.63
917.236	6060.53
917.548	6083.36
917.859	6074.32
918.171	6057.14
918.482	5978.5
918.794	5988.9
919.105	5976.02
919.416	5920.88
919.727	5879.52
920.038	5900.76
920.349	5847.21
920.66	5859.63
920.971	5808.56
921.282	5730.15
921.593	5750.03
921.903	5733.31
922.214	5744.61
922.525	5709.13
922.835	5714.55
923.146	5581.9
923.456	5668
923.767	5566.99
924.077	5588
924.387	5486.54
924.697	5556.14
925.008	5536.93
925.318	5514.56
925.628	5527.67
925.938	5413.09
926.248	5452.41
926.558	5432.75
926.867	5339.42
927.177	5346.43
927.487	5340.55
927.796	5335.58
928.106	5258.75
928.416	5244.06
928.725	5258.97
929.034	5224.4
929.344	5245.41
929.653	5199.31
929.962	5181.01
930.271	5122.7
930.581	5119.31
930.89	5079.99
931.199	5011.29
931.508	5031.86
931.817	5042.71
932.125	4987.11
932.434	5008.81
932.743	5003.39
933.051	4904.63
933.36	4893.56
933.669	4853.33
933.977	4824.18
934.286	4833.45
934.594	4829.6
934.902	4817.63
935.21	4787.12
935.519	4754.13
935.827	4720.45
936.135	4753.9
936.443	4684.3
936.751	4688.82
937.059	4685.88
937.367	4659.89
937.674	4621.7
937.982	4643.39
938.29	4591.42
938.597	4603.62
938.905	4482.95
939.213	4535.15
939.52	4481.82
939.827	4486.11
940.135	4453.34
940.442	4449.73
940.749	4390.97
941.056	4459.22
941.363	4369.05
941.67	4339.22
941.977	4369.5
942.284	4312.78
942.591	4311.43
942.898	4355.94
943.205	4307.13
943.511	4315.95
943.818	4285.89
944.125	4261.26
944.431	4229.39
944.738	4198.89
945.044	4148.04
945.35	4168.61
945.657	4161.37
945.963	4143.52
946.269	4073.92
946.575	4117.08
946.881	4056.07
947.187	4072.34
947.493	4046.8
947.799	4018.1
948.105	4032.79
948.41	3962.73
948.716	3979.91
949.022	3995.73
949.327	3983.98
949.633	3910.08
949.938	3869.18
950.244	3880.7
950.549	3896.52
950.854	3861.49
951.16	3852
951.465	3807.26
951.77	3833.92
952.075	3778.33
952.38	3732.01
952.685	3752.34
952.99	3721.84
953.294	3720.71
953.599	3749.41
953.904	3681.61
954.209	3661.73
954.513	3692.69
954.818	3671.67
955.122	3637.09
955.426	3625.57
955.731	3609.07
956.035	3574.27
956.339	3584.89
956.643	3563.42
956.948	3541.95
957.252	3549.86
957.556	3536.31
957.86	3497.66
958.163	3493.14
958.467	3472.58
958.771	3440.04
959.075	3439.81
959.378	3442.07
959.682	3416.99
959.985	3380.38
960.289	3345.8
960.592	3374.05
960.896	3373.37
961.199	3336.31
961.502	3333.37
961.805	3341.73
962.108	3305.12
962.411	3289.31
962.714	3259.7
963.017	3266.93
963.32	3235.3
963.623	3236.88
963.926	3192.13
964.228	3165.69
964.531	3136.77
964.833	3163.66
965.136	3152.59
965.438	3124.79
965.741	3139.48
966.043	3135.19
966.345	3109.2
966.648	3097.67
966.95	3048.18
967.252	3057.22
967.554	3058.8
967.856	3010.22
968.158	3022.42
968.46	2984.91
968.761	2986.72
969.063	2948.52
969.365	2965.25
969.666	2962.54
969.968	2939.48
970.269	2919.6
970.571	2935.87
970.872	2904.46
971.174	2868.53
971.475	2893.61
971.776	2861.07
972.077	2898.36
972.378	2819.71
972.679	2840.05
972.98	2824.69
973.281	2823.78
973.582	2770
973.883	2772.03
974.183	2804.12
974.484	2745.82
974.785	2692.49
975.085	2746.04
975.386	2743.11
975.686	2674.63
975.986	2681.86
976.287	2691.81
976.587	2720.96
976.887	2630.11
977.187	2695.65
977.487	2643
977.787	2611.13
978.087	2631.24
978.387	2630.11
978.687	2604.35
978.987	2582.43
979.286	2547.63
979.586	2584.47
979.885	2574.52
980.185	2560.51
980.484	2534.07
980.784	2525.48
981.083	2523.68
981.382	2484.13
981.682	2469.44
981.981	2491.81
982.28	2492.94
982.579	2432.15
982.878	2447.75
983.177	2437.8
983.475	2398.93
983.774	2382.66
984.073	2427.41
984.372	2371.59
984.67	2357.81
984.969	2379.95
985.267	2333.17
985.566	2349.44
985.864	2342.89
986.162	2338.6
986.461	2334.3
986.759	2291.37
987.057	2288.2
987.355	2271.48
987.653	2305.83
987.951	2261.99
988.249	2280.29
988.547	2274.64
988.844	2230.8
989.142	2235.77
989.44	2229
989.737	2208.43
990.035	2183.8
990.332	2172.73
990.63	2165.49
990.927	2195.55
991.224	2188.54
991.521	2127.53
991.819	2144.25
992.116	2139.96
992.413	2132.05
992.71	2085.95
993.006	2118.26
993.303	2082.33
993.6	2072.16
993.897	2071.03
994.193	2077.36
994.49	2064.71
994.787	2039.17
995.083	2041.2
995.379	2034.88
995.676	2002.56
995.972	1997.36
996.268	2015.67
996.565	1984.71
996.861	1973.63
997.157	1954.43
997.453	1958.04
997.749	1964.37
998.044	1914.65
998.34	1927.08
998.636	1944.71
998.932	1924.14
999.227	1912.85
999.523	1905.16
999.818	1846.86
1000.114	1851.6
1000.409	1861.55
1000.704	1830.14
1001	1861.1
1001.295	1832.62
1001.59	1798.95
1001.885	1801.21
1002.18	1789.46
1002.475	1813.41
1002.77	1764.37
1003.065	1788.78
1003.359	1771.15
1003.654	1774.32
1003.949	1755.56
1004.243	1751.27
1004.538	1741.1
1004.832	1740.42
1005.127	1714.21
1005.421	1696.35
1005.715	1711.49
1006.009	1686.18
1006.304	1668.78
1006.598	1669.91
1006.892	1668.11
1007.186	1676.02
1007.48	1638.05
1007.773	1626.75
1008.067	1643.02
1008.361	1600.31
1008.655	1592.63
1008.948	1625.85
1009.242	1613.42
1009.535	1592.18
1009.829	1570.03
1010.122	1556.7
1010.415	1546.08
1010.708	1551.72
1011.001	1528.9
1011.295	1540.65
1011.588	1493.87
1011.881	1497.04
1012.173	1512.86
1012.466	1509.69
1012.759	1461.33
1013.052	1462.69
1013.344	1486.64
1013.637	1468.56
1013.93	1432.18
1014.222	1433.54
1014.514	1434.21
1014.807	1426.3
1015.099	1409.13
1015.391	1410.71
1015.683	1409.81
1015.976	1392.63
1016.268	1368
1016.56	1387.89
1016.851	1369.13
1017.143	1357.15
1017.435	1377.04
1017.727	1348.34
1018.018	1321.67
1018.31	1336.82
1018.602	1335.46
1018.893	1313.54
1019.185	1299.98
1019.476	1295.46
1019.767	1289.13
1020.058	1299.53
1020.35	1271.28
1020.641	1253.65
1020.932	1265.63
1021.223	1268.34
1021.514	1235.8
1021.804	1222.24
1022.095	1220.66
1022.386	1229.25
1022.677	1245.52
1022.967	1215.24
1023.258	1173.43
1023.548	1197.38
1023.839	1184.28
1024.129	1164.39
1024.419	1156.48
1024.709	1155.35
1025	1151.96
1025.29	1125.52
1025.58	1137.05
1025.87	1121.68
1026.16	1109.7
1026.449	1124.17
1026.739	1114.9
1027.029	1109.93
1027.319	1078.06
1027.608	1109.48
1027.898	1061.12
1028.187	1074
1028.477	1081.45
1028.766	1052.98
1029.055	1037.61
1029.344	1048.24
1029.634	1048.01
1029.923	1019.08
1030.212	1048.91
1030.501	1043.72
1030.79	1020.89
1031.078	1020.21
1031.367	1005.52
1031.656	1003.26
1031.945	1001.91
1032.233	982.7
1032.522	992.19
1032.81	966.66
1033.099	970.5
1033.387	961.68
1033.675	939.76
1033.963	974.56
1034.251	937.96
1034.54	895.02
1034.828	909.03
1035.116	932.53
1035.403	921.01
1035.691	906.09
1035.979	909.93
1036.267	907.67
1036.554	904.74
1036.842	910.16
1037.129	902.7
1037.417	902.48
1037.704	890.27
1037.992	869.26
1038.279	863.61
1038.566	866.77
1038.853	866.77
1039.14	866.77
