Data from hue_250_FLMS001491_00047.txt Node
Date: Tue Feb 07 16:01:02 GMT 2017
User: dcchb
Spectrometer: FLMS00149
Trigger mode: 0
Integration Time (sec): 2.000000E-2
Scans to average: 10
Electric dark correction enabled: true
Nonlinearity correction enabled: false
Boxcar width: 0
XAxis mode: Wavelengths
Number of Pixels in Spectrum: 2048
>>>>>Begin Spectral Data<<<<<
341.393	-27.98
341.776	-27.98
342.16	-27.98
342.543	-73.85
342.927	-68.43
343.31	-73.63
343.693	-93.74
344.077	-49
344.46	-56
344.843	-47.87
345.226	-44.02
345.61	-28.88
345.993	-26.62
346.376	-3.35
346.759	17.67
347.142	24
347.525	28.06
347.908	59.02
348.291	81.4
348.674	93.15
349.057	119.81
349.44	122.75
349.823	146.48
350.206	168.17
350.588	205.01
350.971	198.23
351.354	231.9
351.737	217.21
352.119	222.41
352.502	271.67
352.884	268.06
353.267	258.34
353.65	286.14
354.032	279.36
354.414	296.53
354.797	304.22
355.179	323.65
355.562	319.58
355.944	325.23
356.326	322.97
356.709	322.29
357.091	320.49
357.473	327.94
357.855	325.68
358.238	338.11
358.62	347.15
359.002	337.66
359.384	330.66
359.766	325.01
360.148	342.63
360.53	340.6
360.912	309.19
361.294	319.81
361.676	328.4
362.057	338.11
362.439	315.97
362.821	308.06
363.203	306.02
363.584	331.79
363.966	303.76
364.348	317.1
364.729	312.12
365.111	304.67
365.493	299.92
365.874	309.19
366.256	293.59
366.637	303.76
367.019	313.03
367.4	306.25
367.781	329.3
368.163	306.02
368.544	288.4
368.925	306.93
369.306	299.24
369.688	313.03
370.069	289.75
370.45	292.46
370.831	297.21
371.212	306.02
371.593	284.33
371.974	324.1
372.355	299.92
372.736	318.9
373.117	332.46
373.498	301.96
373.879	309.64
374.26	317.55
374.641	294.95
375.021	295.4
375.402	318
375.783	318.23
376.163	313.48
376.544	300.37
376.925	321.62
377.305	300.37
377.686	322.75
378.066	333.37
378.447	334.04
378.827	329.07
379.208	321.84
379.588	309.64
379.968	343.99
380.349	329.3
380.729	321.62
381.109	325.23
381.489	317.55
381.87	331.11
382.25	336.53
382.63	313.71
383.01	327.04
383.39	331.56
383.77	346.25
384.15	327.94
384.53	339.92
384.91	330.43
385.29	335.63
385.67	355.74
386.049	363.65
386.429	352.58
386.809	334.27
387.189	358
387.568	337.89
387.948	347.6
388.328	347.6
388.707	357.77
389.087	364.55
389.466	356.87
389.846	374.27
390.225	354.84
390.605	354.38
390.984	366.81
391.363	348.06
391.743	383.31
392.122	362.52
392.501	362.97
392.881	371.33
393.26	349.41
393.639	386.02
394.018	365.68
394.397	364.55
394.776	391.22
395.155	365.46
395.534	379.92
395.913	372.24
396.292	392.12
396.671	375.63
397.05	394.16
397.429	393.48
397.808	393.03
398.186	411.11
398.565	401.61
398.944	398
399.323	410.2
399.701	393.25
400.08	424.44
400.458	418.79
400.837	395.96
401.215	403.87
401.594	430.31
401.972	419.47
402.351	427.38
402.729	434.16
403.107	425.57
403.486	416.08
403.864	450.2
404.242	443.42
404.62	438.9
404.999	449.97
405.377	433.25
405.755	448.84
406.133	430.09
406.511	455.4
406.889	473.7
407.267	472.35
407.645	484.1
408.023	459.01
408.401	483.42
408.779	477.32
409.156	470.09
409.534	490.2
409.912	493.81
410.29	513.93
410.667	520.71
411.045	509.18
411.422	524.55
411.8	514.83
412.178	529.07
412.555	550.31
412.933	545.34
413.31	543.98
413.687	577.43
414.065	560.48
414.442	544.66
414.819	580.37
415.197	588.95
415.574	577.43
415.951	586.47
416.328	596.41
416.705	606.35
417.082	618.33
417.46	608.61
417.837	622.4
418.214	623.53
418.591	619.69
418.967	643.42
419.344	665.34
419.721	645.68
420.098	666.24
420.475	656.75
420.852	681.15
421.228	684.09
421.605	697.43
421.982	695.62
422.358	721.15
422.735	734.71
423.111	724.77
423.488	727.25
423.864	754.15
424.241	771.77
424.617	752.79
424.994	762.51
425.37	771.32
425.746	783.3
426.123	807.03
426.499	787.14
426.875	812
427.251	805.22
427.627	826.91
428.003	828.27
428.379	863.07
428.756	872.34
429.132	869.4
429.507	880.25
429.883	875.5
430.259	899.45
430.635	906.69
431.011	916.4
431.387	948.94
431.763	961.6
432.138	960.92
432.514	971.32
432.89	982.39
433.265	992.33
433.641	1017.42
434.016	1025.33
434.392	1047.47
434.767	1083.86
435.143	1066.91
435.518	1099.67
435.894	1104.65
436.269	1096.96
436.644	1126.34
437.02	1146.9
437.395	1154.81
437.77	1184.19
438.145	1188.26
438.52	1205.21
438.895	1212.89
439.271	1230.07
439.646	1241.37
440.021	1298.31
440.395	1275.26
440.77	1271.2
441.145	1334.24
441.52	1310.97
441.895	1346
442.27	1320.69
442.645	1331.53
443.019	1347.8
443.394	1389.84
443.769	1382.83
444.143	1359.1
444.518	1401.81
444.892	1416.05
445.267	1414.02
445.641	1428.71
446.016	1453.11
446.39	1450.63
446.764	1467.8
447.139	1451.98
447.513	1457.41
447.887	1451.76
448.262	1503.28
448.636	1523.62
449.01	1520.91
449.384	1526.1
449.758	1546.22
450.132	1555.48
450.506	1571.53
450.88	1587.12
451.254	1592.77
451.628	1590.96
452.002	1609.27
452.376	1647.46
452.75	1644.97
453.123	1611.98
453.497	1670.28
453.871	1647.68
454.244	1728.36
454.618	1725.65
454.992	1735.36
455.365	1747.12
455.739	1789.83
456.112	1814.01
456.486	1817.62
456.859	1840.67
457.232	1880.67
457.606	1829.37
457.979	1894.23
458.352	1899.43
458.725	1906.21
459.099	1943.27
459.472	1962.7
459.845	2006.77
460.218	2016.71
460.591	2011.29
460.964	2020.55
461.337	2072.76
461.71	2091.51
462.083	2125.64
462.456	2127.67
462.829	2132.64
463.201	2186.2
463.574	2189.59
463.947	2225.97
464.32	2268.91
464.692	2282.92
465.065	2301.68
465.438	2303.48
465.81	2335.8
466.183	2361.34
466.555	2420.54
466.928	2442.01
467.3	2402.47
467.672	2425.74
468.045	2511.84
468.417	2505.97
468.789	2515.91
469.161	2554.78
469.534	2588
469.906	2651.5
470.278	2658.28
470.65	2690.37
471.022	2740.31
471.394	2760.2
471.766	2771.95
472.138	2815.11
472.51	2873.19
472.882	2920.87
473.253	2919.06
473.625	2955.22
473.997	2988.44
474.369	3074.76
474.74	3089.68
475.112	3119.51
475.484	3166.51
475.855	3221.43
476.227	3211.94
476.598	3322.89
476.97	3341.65
477.341	3355.43
477.713	3407.18
478.084	3459.39
478.455	3520.4
478.827	3567.63
479.198	3638.14
479.569	3655.31
479.94	3756.1
480.311	3771.47
480.682	3812.82
481.053	3929.66
481.424	4008.98
481.795	3974.85
482.166	4024.12
482.537	4082.87
482.908	4163.32
483.279	4183.44
483.65	4257.56
484.021	4340.95
484.391	4326.93
484.762	4393.6
485.133	4409.87
485.503	4448.06
485.874	4563.31
486.244	4580.94
486.615	4695.96
486.985	4687.38
487.356	4782.06
487.726	4819.12
488.097	4875.39
488.467	4925.56
488.837	5006.69
489.207	5072.9
489.578	5128.72
489.948	5155.84
490.318	5212.11
490.688	5220.02
491.058	5301.6
491.428	5319.45
491.798	5393.12
492.168	5481.93
492.538	5521.03
492.908	5542.95
493.278	5609.16
493.648	5592.21
494.017	5678.31
494.387	5680.12
494.757	5754.24
495.126	5814.35
495.496	5812.77
495.866	5862.26
496.235	5892.77
496.605	5967.12
496.974	5932.99
497.344	5978.19
497.713	5997.85
498.082	6018.87
498.452	6147.23
498.821	6113.78
499.19	6179.09
499.559	6245.98
499.928	6243.49
500.298	6280.56
500.667	6306.77
501.036	6335.02
501.405	6351.29
501.774	6352.19
502.143	6349.48
502.512	6418.4
502.88	6459.76
503.249	6443.26
503.618	6476.03
503.987	6475.8
504.356	6504.96
504.724	6588.12
505.093	6565.52
505.462	6586.99
505.83	6641.68
506.199	6688.23
506.567	6704.5
506.936	6768
507.304	6797.38
507.672	6754.44
508.041	6792.18
508.409	6851.16
508.777	6890.48
509.145	6883.7
509.514	6829.92
509.882	6866.08
510.25	6911.5
510.618	7015.68
510.986	6978.84
511.354	7011.16
511.722	7063.13
512.09	7117.82
512.458	7097.48
512.826	7147.43
513.193	7184.26
513.561	7201.43
513.929	7141.32
514.297	7243.02
514.664	7313.3
515.032	7266.97
515.4	7268.33
515.767	7313.97
516.135	7332.96
516.502	7349.91
516.869	7410.02
517.237	7410.24
517.604	7323.69
517.972	7459.73
518.339	7441.43
518.706	7451.6
519.073	7480.75
519.44	7500.18
519.808	7537.47
520.175	7507.42
520.542	7568.66
520.909	7591.48
521.276	7573.18
521.643	7626.06
522.009	7619.96
522.376	7700.18
522.743	7633.06
523.11	7786.96
523.477	7810.01
523.843	7826.05
524.21	7919.83
524.577	7811.14
524.943	7815.2
525.31	7861.53
525.676	7959.16
526.043	7989.44
526.409	7962.77
526.776	7993.96
527.142	7972.04
527.508	8025.14
527.874	8047.29
528.241	8059.94
528.607	8065.14
528.973	8100.39
529.339	8151.47
529.705	8112.37
530.071	8170.22
530.437	8236.66
530.803	8132.03
531.169	8198.47
531.535	8170.67
531.901	8220.39
532.267	8297.23
532.632	8184.46
532.998	8244.35
533.364	8311.69
533.73	8278.02
534.095	8287.51
534.461	8357.79
534.826	8286.38
535.192	8285.7
535.557	8309.88
535.923	8259.71
536.288	8305.13
536.653	8348.98
537.019	8267.17
537.384	8268.98
537.749	8365.25
538.114	8354.4
538.479	8308.75
538.845	8329.54
539.21	8283.89
539.575	8288.64
539.94	8352.14
540.305	8346.26
540.67	8321.41
541.034	8345.13
541.399	8354.62
541.764	8361.86
542.129	8323.21
542.494	8335.19
542.858	8324.57
543.223	8305.81
543.587	8351.01
543.952	8294.51
544.316	8323.89
544.681	8350.33
545.045	8318.24
545.41	8393.95
545.774	8298.13
546.138	8341.97
546.503	8284.12
546.867	8317.11
547.231	8322.54
547.595	8292.03
547.959	8294.06
548.324	8289.09
548.688	8343.1
549.052	8370.22
549.416	8364.79
549.779	8294.29
550.143	8352.59
550.507	8340.61
550.871	8329.09
551.235	8361.63
551.599	8452.7
551.962	8350.33
552.326	8358.24
552.689	8349.88
553.053	8249.54
553.417	8340.16
553.78	8377
554.143	8364.34
554.507	8364.57
554.87	8402.99
555.234	8449.09
555.597	8375.19
555.96	8338.81
556.323	8369.54
556.686	8382.19
557.05	8501.74
557.413	8425.81
557.776	8449.99
558.139	8507.84
558.502	8436.66
558.865	8444.57
559.228	8513.26
559.59	8517.78
559.953	8543.55
560.316	8607.95
560.679	8566.82
561.041	8609.53
561.404	8630.32
561.767	8688.18
562.129	8720.27
562.492	8668.29
562.854	8809.08
563.217	8722.75
563.579	8764.78
563.941	8765.46
564.304	8791.22
564.666	8824.44
565.028	8842.52
565.39	8842.97
565.753	8927.72
566.115	8874.16
566.477	8919.13
566.839	9038.45
567.201	9038.9
567.563	9027.83
567.925	9058.34
568.287	9048.17
568.648	9058.11
569.01	9053.82
569.372	9070.31
569.734	9125
570.095	9137.88
570.457	9167.26
570.819	9219.01
571.18	9169.29
571.542	9222.17
571.903	9260.59
572.265	9305.33
572.626	9293.36
572.987	9361.83
573.349	9341.94
573.71	9394.82
574.071	9410.42
574.432	9429.62
574.794	9450.19
575.155	9516.85
575.516	9403.86
575.877	9539.23
576.238	9519.11
576.599	9588.04
576.96	9563.63
577.32	9565.89
577.681	9644.53
578.042	9608.83
578.403	9641.14
578.763	9587.59
579.124	9658.32
579.485	9690.86
579.845	9699.67
580.206	9710.07
580.566	9744.64
580.927	9720.01
581.287	9818.54
581.648	9711.2
582.008	9837.3
582.368	9815.38
582.728	9808.37
583.089	9892.89
583.449	9852.89
583.809	9875.94
584.169	9871.42
584.529	9857.64
584.889	9969.5
585.249	9959.33
585.609	9917.07
585.969	9960.46
586.329	9943.96
586.688	10029.61
587.048	10008.59
587.408	9972.21
587.768	9993.9
588.127	9991.87
588.487	9956.84
588.846	10037.29
589.206	9986.22
589.565	10039.1
589.925	10102.6
590.284	10036.84
590.643	9997.97
591.003	10137.18
591.362	10071.64
591.721	10151.41
592.08	10160
592.44	10149.61
592.799	10172.43
593.158	10155.48
593.517	10157.29
593.876	10222.6
594.235	10199.55
594.593	10190.06
594.952	10224.18
595.311	10151.41
595.67	10259.66
596.029	10287.68
596.387	10290.39
596.746	10308.02
597.104	10228.7
597.463	10237.51
597.822	10285.2
598.18	10259.66
598.538	10238.87
598.897	10362.93
599.255	10259.21
599.613	10317.29
599.972	10333.56
600.33	10357.96
600.688	10341.69
601.046	10378.07
601.404	10450.39
601.762	10341.47
602.12	10405.87
602.478	10404.51
602.836	10412.65
603.194	10365.19
603.552	10366.32
603.91	10303.27
604.268	10368.81
604.625	10350.5
604.983	10370.62
605.341	10379.88
605.698	10467.34
606.056	10378.3
606.413	10390.73
606.771	10458.52
607.128	10451.74
607.485	10458.3
607.843	10522.25
608.2	10479.09
608.557	10446.32
608.914	10439.32
609.272	10517.96
609.629	10548.69
609.986	10607
610.343	10481.35
610.7	10629.59
611.057	10683.15
611.414	10583.49
611.771	10587.79
612.127	10620.33
612.484	10615.81
612.841	10646.99
613.198	10607
613.554	10676.15
613.911	10665.52
614.267	10661
614.624	10631.85
614.98	10697.39
615.337	10785.97
615.693	10692.19
616.05	10668.46
616.406	10669.37
616.762	10720.44
617.118	10678.18
617.475	10755.69
617.831	10697.61
618.187	10791.62
618.543	10715.69
618.899	10762.92
619.255	10746.43
619.611	10753.88
619.967	10783.94
620.323	10781.45
620.678	10855.8
621.034	10779.19
621.39	10778.29
621.746	10759.99
622.101	10857.38
622.457	10761.34
622.812	10822.58
623.168	10852.86
623.523	10819.42
623.879	10767.67
624.234	10736.48
624.589	10772.87
624.945	10893.09
625.3	10901.9
625.655	10797.27
626.01	10838.18
626.365	10838.4
626.72	10752.08
627.075	10813.77
627.43	10796.37
627.785	10751.62
628.14	10747.1
628.495	10753.43
628.85	10740.78
629.205	10792.53
629.559	10821.45
629.914	10675.47
630.269	10759.76
630.623	10714.56
630.978	10703.49
631.332	10755.69
631.687	10779.65
632.041	10611.06
632.396	10687.67
632.75	10657.62
633.104	10651.06
633.459	10590.05
633.813	10559.99
634.167	10546.88
634.521	10567.45
634.875	10598.63
635.229	10629.82
635.583	10509.6
635.937	10527.9
636.291	10546.21
636.645	10567
636.999	10542.82
637.352	10501.69
637.706	10461.46
638.06	10452.87
638.413	10513.89
638.767	10388.92
639.121	10425.08
639.474	10364.97
639.828	10384.63
640.181	10455.13
640.534	10430.5
640.888	10360.67
641.241	10314.35
641.594	10288.13
641.947	10335.82
642.301	10403.84
642.654	10386.44
643.007	10332.2
643.36	10286.33
643.713	10329.04
644.066	10274.12
644.419	10217.63
644.771	10212.2
645.124	10150.06
645.477	10100.34
645.83	9984.86
646.182	9991.64
646.535	9954.36
646.888	9950.74
647.24	9901.48
647.593	9991.87
647.945	9941.7
648.298	9854.7
648.65	9864.64
649.002	9904.64
649.355	9907.58
649.707	9944.19
650.059	10016.05
650.411	10061.02
650.763	10044.98
651.115	10227.12
651.467	10147.57
651.819	10158.65
652.171	10195.48
652.523	10119.32
652.875	10097.18
653.227	10102.6
653.578	10106.9
653.93	10163.16
654.282	10110.51
654.633	10040.23
654.985	10084.97
655.337	10116.39
655.688	10058.08
656.039	10115.71
656.391	10020.34
656.742	10039.1
657.094	10065.31
657.445	10113.22
657.796	10066.44
658.147	10015.82
658.498	10050.4
658.849	10108.25
659.2	10102.15
659.551	9963.4
659.902	10062.6
660.253	10056.95
660.604	10086.56
660.955	9989.61
661.306	10079.55
661.656	10063.51
662.007	10059.21
662.358	10060.57
662.708	10045.88
663.059	10050.4
663.409	9964.3
663.76	10075.71
664.11	10025.32
664.461	10093.79
664.811	10136.05
665.161	10068.7
665.511	9976.05
665.862	10080.46
666.212	10083.85
666.562	10064.64
666.912	10006.56
667.262	9993.23
667.612	10008.37
667.962	9995.71
668.312	10042.04
668.662	10050.17
669.011	10064.86
669.361	9999.33
669.711	9970.4
670.06	9992.1
670.41	9937.86
670.76	9995.94
671.109	9993
671.459	10036.39
671.808	9941.7
672.157	10014.92
672.507	9979.22
672.856	9986.67
673.205	9936.73
673.554	9956.84
673.904	9892.44
674.253	10036.84
674.602	9953.45
674.951	9823.29
675.3	9730.18
675.649	9930.63
675.998	9925.66
676.346	9890.18
676.695	9961.81
677.044	9801.14
677.393	9876.17
677.741	9868.71
678.09	9786
678.438	9809.28
678.787	9817.64
679.135	9811.76
679.484	9713.23
679.832	9815.6
680.181	9725.21
680.529	9729.73
680.877	9662.16
681.225	9695.38
681.573	9813.8
681.922	9609.51
682.27	9631.2
682.618	9687.92
682.966	9619
683.314	9643.4
683.661	9608.15
684.009	9588.04
684.357	9545.1
684.705	9525.44
685.053	9541.49
685.4	9502.17
685.748	9483.41
686.095	9480.47
686.443	9493.58
686.79	9371.55
687.138	9369.97
687.485	9440.02
687.832	9414.26
688.18	9374.03
688.527	9308.05
688.874	9309.18
689.221	9270.76
689.568	9243.87
689.915	9207.48
690.262	9248.39
690.609	9127.49
690.956	9172.23
691.303	9176.52
691.65	9112.35
691.997	9153.47
692.344	9049.75
692.69	9096.3
693.037	9025.34
693.383	8989.18
693.73	8963.42
694.077	8919.58
694.423	8926.59
694.769	8910.32
695.116	8791.9
695.462	8792.81
695.808	8803.88
696.155	8816.99
696.501	8720.49
696.847	8726.82
697.193	8638.91
697.539	8682.3
697.885	8597.56
698.231	8576.77
698.577	8595.07
698.923	8565.69
699.269	8552.36
699.614	8474.17
699.96	8401.86
700.306	8473.27
700.651	8409.99
700.997	8344.68
701.342	8372.25
701.688	8305.36
702.033	8320.05
702.379	8302.42
702.724	8275.31
703.069	8261.52
703.415	8223.78
703.76	8201.18
704.105	8145.82
704.45	8161.86
704.795	8087.51
705.14	8048.42
705.485	8095.2
705.83	8044.8
706.175	8063.56
706.52	7953.51
706.865	8032.83
707.209	7942.66
707.554	7946.73
707.899	7916.22
708.243	7928.42
708.588	7850.01
708.932	7836.9
709.277	7880.74
709.621	7855.43
709.966	7727.52
710.31	7791.25
710.654	7666.06
710.998	7747.64
711.342	7725.49
711.687	7759.39
712.031	7649.56
712.375	7636.68
712.719	7597.36
713.063	7647.98
713.407	7662.89
713.75	7583.35
714.094	7601.88
714.438	7571.59
714.782	7481.2
715.125	7516.23
715.469	7536.12
715.812	7477.13
716.156	7478.72
716.499	7449.11
716.843	7458.15
717.186	7406.85
717.53	7432.62
717.873	7441.2
718.216	7412.28
718.559	7324.37
718.902	7279.62
719.246	7379.51
719.589	7269.91
719.932	7215.45
720.275	7310.36
720.617	7319.4
720.96	7307.87
721.303	7296.12
721.646	7267.2
721.989	7193.07
722.331	7250.93
722.674	7218.61
723.016	7225.39
723.359	7287.53
723.701	7197.14
724.044	7158.05
724.386	7109.46
724.729	7198.05
725.071	7194.66
725.413	7138.16
725.755	7175.45
726.097	7052.74
726.439	7076.24
726.782	7134.09
727.124	7149.91
727.465	7122.11
727.807	7088.22
728.149	7066.75
728.491	7131.83
728.833	7142.68
729.175	7083.47
729.516	7062.91
729.858	7094.09
730.199	7073.08
730.541	7062.68
730.882	7055.68
731.224	7063.59
731.565	7048.9
731.906	7077.37
732.248	7027.2
732.589	7072.4
732.93	7065.85
733.271	7009.12
733.612	7044.38
733.953	7049.8
734.294	6951.05
734.635	7024.04
734.976	7041.89
735.317	7012.97
735.658	7010.03
735.999	7007.99
736.339	7037.82
736.68	6974.77
737.021	6966.41
737.361	6987.66
737.702	7035.34
738.042	7030.59
738.383	6968.45
738.723	7022.23
739.063	6955.11
739.404	7037.6
739.744	7073.98
740.084	6977.49
740.424	7016.58
740.764	7003.25
741.104	7041.21
741.444	7023.36
741.784	6985.85
742.124	7054.32
742.464	7092.51
742.804	7072.85
743.143	7066.98
743.483	7112.17
743.823	7076.01
744.162	7088.22
744.502	7123.02
744.841	7064.26
745.181	7175.9
745.52	7142
745.86	7166.63
746.199	7177.71
746.538	7242.79
746.877	7274.88
747.216	7258.83
747.556	7262.45
747.895	7300.87
748.234	7342.45
748.573	7371.15
748.911	7410.02
749.25	7405.27
749.589	7485.5
749.928	7538.38
750.267	7596
750.605	7576.79
750.944	7699.95
751.283	7668.09
751.621	7715.09
751.96	7729.56
752.298	7803.23
752.636	7958.7
752.975	7918.93
753.313	7919.16
753.651	8068.53
753.989	8140.39
754.327	8124.35
754.666	8241.41
755.004	8296.1
755.342	8384.23
755.679	8402.08
756.017	8546.48
756.355	8643.66
756.693	8684.56
757.031	8806.59
757.368	8896.53
757.706	8925.01
758.044	9049.3
758.381	9130.88
758.719	9213.13
759.056	9348.05
759.394	9424.2
759.731	9466.91
760.068	9600.69
760.405	9706
760.743	9822.83
761.08	9844.3
761.417	9903.96
761.754	10010.17
762.091	10123.39
762.428	10149.15
762.765	10363.61
763.102	10510.73
763.438	10529.03
763.775	10604.51
764.112	10759.53
764.449	10805.41
764.785	10889.02
765.122	10887.89
765.458	10970.15
765.795	11135.79
766.131	11149.81
766.467	11215.57
766.804	11352.06
767.14	11443.58
767.476	11503.47
767.812	11539.85
768.148	11650.13
768.485	11657.59
768.821	11752.95
769.157	11875.66
769.492	11863.91
769.828	11980.52
770.164	12040.86
770.5	12061.65
770.836	12181.64
771.171	12134.86
771.507	12233.17
771.842	12299.15
772.178	12299.61
772.513	12380.28
772.849	12474.97
773.184	12407.4
773.519	12531.92
773.855	12530.33
774.19	12554.06
774.525	12586.83
774.86	12640.61
775.195	12661.18
775.53	12639.71
775.865	12637.9
776.2	12622.76
776.535	12622.99
776.87	12651.24
777.205	12684.68
777.539	12602.42
777.874	12752.02
778.209	12581.86
778.543	12698.47
778.878	12612.82
779.212	12649.2
779.547	12665.25
779.881	12662.08
780.215	12599.49
780.55	12762.87
780.884	12711.8
781.218	12669.77
781.552	12666.6
781.886	12657.56
782.22	12702.99
782.554	12561.52
782.888	12541.18
783.222	12619.37
783.556	12545.25
783.889	12579.15
784.223	12477.68
784.557	12477.45
784.89	12606.04
785.224	12464.35
785.557	12467.29
785.891	12489.43
786.224	12464.35
786.558	12415.99
786.891	12330.79
787.224	12327.85
787.557	12363.11
787.891	12375.76
788.224	12461.18
788.557	12384.12
788.89	12361.3
789.223	12339.6
789.556	12302.32
789.888	12250.34
790.221	12178.48
790.554	12127.18
790.887	12157.91
791.219	12086.96
791.552	12085.37
791.884	12092.83
792.217	12062.78
792.549	12084.47
792.882	11971.93
793.214	11910.24
793.546	11974.87
793.879	11894.64
794.211	11914.76
794.543	11927.41
794.875	11848.77
795.207	11951.59
795.539	11912.95
795.871	11842.22
796.203	11748.89
796.535	11760.64
796.867	11662.56
797.198	11689.9
797.53	11634.31
797.862	11581.43
798.193	11617.59
798.525	11537.59
798.856	11631.6
799.188	11514.32
799.519	11383.47
799.85	11346.18
800.182	11427.31
800.513	11377.6
800.844	11312.06
801.175	11365.62
801.506	11343.92
801.837	11265.28
802.168	11242.01
802.499	11274.55
802.83	11186.64
803.161	11185.06
803.491	11156.59
803.822	11188
804.153	11054.89
804.483	11056.25
804.814	10983.03
805.145	11084.72
805.475	11034.33
805.805	10938.06
806.136	10997.72
806.466	10892.19
806.796	10932.64
807.126	10832.07
807.457	10862.81
807.787	10778.52
808.117	10778.29
808.447	10734.9
808.777	10791.4
809.107	10750.72
809.436	10687.9
809.766	10671.63
810.096	10672.3
810.426	10632.98
810.755	10603.61
811.085	10619.88
811.414	10580.56
811.744	10529.03
812.073	10481.35
812.403	10521.35
812.732	10475.47
813.061	10450.62
813.39	10412.65
813.719	10288.81
814.049	10441.35
814.378	10377.4
814.707	10282.71
815.036	10363.61
815.365	10325.65
815.693	10177.85
816.022	10161.36
816.351	10209.04
816.68	10175.14
817.008	10190.51
817.337	10077.29
817.665	10052.43
817.994	10090.4
818.322	10129.04
818.651	10073
818.979	10008.82
819.307	9992.77
819.636	10103.73
819.964	10026.67
820.292	9978.99
820.62	9930.4
820.948	9948.71
821.276	9997.75
821.604	9985.77
821.932	9987.8
822.259	10007.01
822.587	9869.84
822.915	9951.87
823.243	9881.14
823.57	9943.28
823.898	10000.68
824.225	9879.78
824.553	9915.49
824.88	9914.13
825.207	9980.12
825.535	9925.88
825.862	9967.46
826.189	9912.78
826.516	9969.72
826.843	9967.24
827.17	10022.15
827.497	9975.6
827.824	10030.29
828.151	10051.08
828.478	9959.33
828.805	9914.58
829.131	9945.32
829.458	9958.42
829.785	9921.82
830.111	9948.93
830.438	9986.45
830.764	9894.25
831.09	9970.85
831.417	9944.19
831.743	9988.25
832.069	9941.7
832.395	9863.74
832.722	9944.19
833.048	9966.79
833.374	9878.2
833.7	9866.45
834.026	9976.5
834.351	9928.82
834.677	9959.1
835.003	9907.8
835.329	9943.28
835.654	9790.97
835.98	9797.3
836.306	9802.72
836.631	9788.26
836.956	9795.04
837.282	9872.78
837.607	9728.15
837.932	9764.76
838.258	9793.91
838.583	9700.8
838.908	9666.23
839.233	9718.43
839.558	9733.57
839.883	9602.28
840.208	9590.07
840.533	9668.04
840.858	9622.39
841.182	9688.15
841.507	9599.34
841.832	9602.95
842.156	9501.71
842.481	9514.37
842.805	9579
843.13	9475.73
843.454	9451.09
843.778	9476.4
844.103	9439.79
844.427	9368.38
844.751	9402.73
845.075	9409.06
845.399	9388.5
845.723	9300.81
846.047	9357.54
846.371	9259.01
846.695	9219.46
847.019	9178.78
847.343	9132.91
847.666	9144.21
847.99	9043.65
848.313	9010.88
848.637	9060.14
848.96	8984.66
849.284	8908.06
849.607	8908.28
849.931	8907.38
850.254	8864.67
850.577	8791.22
850.9	8814.27
851.223	8781.51
851.546	8691.34
851.869	8664.22
852.192	8670.1
852.515	8662.64
852.838	8532.47
853.161	8521.4
853.483	8466.94
853.806	8487.5
854.129	8452.93
854.451	8467.16
854.774	8375.19
855.096	8394.85
855.419	8399.82
855.741	8362.31
856.063	8360.73
856.385	8330.44
856.708	8265.59
857.03	8282.31
857.352	8215.42
857.674	8195.08
857.996	8132.71
858.318	8077.12
858.64	8066.72
858.961	8089.32
859.283	8091.81
859.605	8015.42
859.926	7975.65
860.248	7955.09
860.57	7994.86
860.891	8052.03
861.212	7897.46
861.534	7913.28
861.855	7857.69
862.176	7900.17
862.498	7913.51
862.819	7864.47
863.14	7835.09
863.461	7814.75
863.782	7786.5
864.103	7829.22
864.424	7791.25
864.745	7835.77
865.065	7767.07
865.386	7732.27
865.707	7714.19
866.027	7725.04
866.348	7718.94
866.668	7743.34
866.989	7713.06
867.309	7636.23
867.63	7677.81
867.95	7636.9
868.27	7637.13
868.59	7647.98
868.91	7636
869.23	7606.62
869.55	7582.89
869.87	7587.64
870.19	7586.28
870.51	7615.89
870.83	7580.18
871.15	7560.52
871.469	7546.06
871.789	7566.4
872.109	7533.63
872.428	7504.25
872.748	7516.23
873.067	7498.15
873.386	7482.11
873.706	7487.53
874.025	7444.59
874.344	7384.25
874.663	7420.86
874.982	7347.87
875.301	7360.3
875.62	7418.15
875.939	7316.91
876.258	7407.53
876.577	7304.71
876.896	7272.62
877.214	7275.78
877.533	7304.26
877.852	7275.11
878.17	7294.77
878.489	7274.2
878.807	7262
879.125	7247.54
879.444	7228.1
879.762	7225.16
880.08	7214.54
880.398	7224.26
880.716	7172.96
881.034	7154.88
881.352	7177.93
881.67	7130.02
881.988	7121.66
882.306	7090.03
882.624	7076.92
882.941	7015.68
883.259	7067.65
883.577	6980.65
883.894	6987.88
884.212	7012.97
884.529	7011.38
884.846	6946.07
885.164	6951.27
885.481	6918.05
885.798	6902.46
886.115	6894.55
886.432	6918.73
886.75	6878.73
887.067	6871.73
887.383	6878.28
887.7	6856.59
888.017	6818.39
888.334	6830.37
888.651	6792.18
888.967	6768.45
889.284	6742.24
889.6	6698.85
889.917	6696.14
890.233	6692.52
890.55	6625.86
890.866	6680.77
891.182	6662.47
891.498	6662.92
891.815	6549.7
892.131	6551.51
892.447	6577.27
892.763	6596.71
893.079	6494.56
893.395	6489.59
893.71	6525.75
894.026	6528.46
894.342	6409.59
894.657	6463.6
894.973	6439.65
895.289	6470.83
895.604	6446.65
895.92	6346.77
896.235	6302.25
896.55	6322.36
896.865	6323.94
897.181	6234
897.496	6272.19
897.811	6251.63
898.126	6188.13
898.441	6170.28
898.756	6213.66
899.071	6151.97
899.386	6135.25
899.7	6109.26
900.015	6075.36
900.33	6077.17
900.644	6010.28
900.959	5997.17
901.273	5990.85
901.588	5913.33
901.902	5896.61
902.216	5935.93
902.531	5899.32
902.845	5849.15
903.159	5859.32
903.473	5915.37
903.787	5774.13
904.101	5791.53
904.415	5724.19
904.729	5754.02
905.042	5709.04
905.356	5747.01
905.67	5723.73
905.984	5671.76
906.297	5649.84
906.611	5647.8
906.924	5621.36
907.237	5629.5
907.551	5570.97
907.864	5597.18
908.177	5521.25
908.491	5515.6
908.804	5487.58
909.117	5446.45
909.43	5440.35
909.743	5415.04
910.056	5405.32
910.368	5341.6
910.681	5369.39
910.994	5351.31
911.307	5279.9
911.619	5295.04
911.932	5288.72
912.244	5249.85
912.557	5254.14
912.869	5173.01
913.181	5211.66
913.494	5147.93
913.806	5159.91
914.118	5105.9
914.43	5110.87
914.742	5073.13
915.054	5080.81
915.366	5073.58
915.678	4982.74
915.99	4957.43
916.302	4916.3
916.613	4981.83
916.925	4962.17
917.236	4921.27
917.548	4863.64
917.859	4854.38
918.171	4863.87
918.482	4822.29
918.794	4812.35
919.105	4823.64
919.416	4809.63
919.727	4741.61
920.038	4774.38
920.349	4757.43
920.66	4720.37
920.971	4727.6
921.282	4682.41
921.593	4692.35
921.903	4648.73
922.214	4580.03
922.525	4596.53
922.835	4560.83
923.146	4556.76
923.456	4532.35
923.767	4551.11
924.077	4546.36
924.387	4518.12
924.697	4464.33
925.008	4487.16
925.318	4448.51
925.628	4468.17
925.938	4424.33
926.248	4405.35
926.558	4349.98
926.867	4344.79
927.177	4360.38
927.487	4323.09
927.796	4303.43
928.106	4318.12
928.416	4281.96
928.725	4287.61
929.034	4228.86
929.344	4258.91
929.653	4233.83
929.962	4185.02
930.271	4175.75
930.581	4181.4
930.89	4173.94
931.199	4106.83
931.508	4106.6
931.817	4105.25
932.125	4092.59
932.434	4090.1
932.743	4023.44
933.051	4030.44
933.36	4047.17
933.669	3987.73
933.977	3976.21
934.286	3993.38
934.594	3967.17
934.902	3918.81
935.21	3871.58
935.519	3914.97
935.827	3890.79
936.135	3859.38
936.443	3858.02
936.751	3836.78
937.059	3873.39
937.367	3825.93
937.674	3817.12
937.982	3786.84
938.29	3760.62
938.597	3740.96
938.905	3715.88
939.213	3737.12
939.52	3713.84
939.827	3727.18
940.135	3712.04
940.442	3665.03
940.749	3683.56
941.056	3632.49
941.363	3620.51
941.67	3593.62
941.977	3559.5
942.284	3518.37
942.591	3552.04
942.898	3534.41
943.205	3508.2
943.511	3511.59
943.818	3475.66
944.125	3464.36
944.431	3456
944.738	3474.53
945.044	3429.78
945.35	3432.49
945.657	3356.34
945.963	3350.46
946.269	3375.77
946.575	3380.74
946.881	3328.09
947.187	3377.13
947.493	3334.87
947.799	3312.5
948.105	3305.49
948.41	3270.92
948.716	3310.46
949.022	3239.28
949.327	3214.42
949.633	3206.06
949.938	3176.23
950.244	3221.43
950.549	3190.47
950.854	3134.42
951.16	3190.47
951.465	3146.4
951.77	3123.35
952.075	3120.41
952.38	3107.98
952.685	3094.88
952.99	3056.46
953.294	3105.05
953.599	3038.38
953.904	3047.65
954.209	3015.78
954.513	3005.84
954.818	3034.76
955.122	2987.76
955.426	2971.04
955.731	2989.12
956.035	2984.37
956.339	2959.06
956.643	2977.37
956.948	2905.95
957.252	2912.28
957.556	2906.41
957.86	2871.61
958.163	2869.8
958.467	2875.67
958.771	2868.22
959.075	2829.8
959.378	2838.84
959.682	2816.47
959.985	2830.48
960.289	2811.72
960.592	2788.9
960.896	2795.22
961.199	2802.23
961.502	2746.41
961.805	2708.22
962.108	2733.53
962.411	2698.28
962.714	2693.08
963.017	2705.73
963.32	2680.2
963.623	2633.42
963.926	2665.51
964.228	2626.87
964.531	2620.99
964.833	2603.36
965.136	2611.05
965.438	2549.81
965.741	2567.43
966.043	2552.07
966.345	2580.09
966.648	2547.55
966.95	2545.51
967.252	2516.59
967.554	2516.59
967.856	2549.13
968.158	2529.24
968.46	2528.11
968.761	2489.47
969.063	2468.45
969.365	2430.49
969.666	2493.31
969.968	2409.92
970.269	2435.23
970.571	2418.96
970.872	2433.88
971.174	2401.56
971.475	2391.17
971.776	2373.77
972.077	2378.06
972.378	2344.61
972.679	2353.2
972.98	2358.4
973.281	2349.36
973.582	2345.52
973.883	2338.74
974.183	2307.1
974.484	2297.38
974.785	2279.3
975.085	2289.02
975.386	2301.9
975.686	2277.27
975.986	2280.66
976.287	2284.05
976.587	2223.03
976.887	2209.93
977.187	2224.84
977.487	2199.76
977.787	2176.03
978.087	2173.77
978.387	2200.66
978.687	2197.5
978.987	2165.86
979.286	2139.87
979.586	2118.63
979.885	2143.94
980.185	2117.95
980.484	2108.69
980.784	2082.93
981.083	2125.41
981.382	2099.65
981.682	2090.38
981.981	2087.67
982.28	2068.01
982.579	2033.66
982.878	2040.44
983.177	2042.93
983.475	2019.2
983.774	2025.3
984.073	2006.09
984.372	2009.48
984.67	1995.92
984.969	1970.16
985.267	1958.18
985.566	1971.74
985.864	1970.39
986.162	1960.89
986.461	1939.65
986.759	1918.86
987.057	1937.17
987.355	1910.95
987.653	1913.44
987.951	1917.28
988.249	1881.8
988.547	1905.75
988.844	1909.6
989.142	1847.9
989.44	1858.75
989.737	1887.22
990.035	1853.1
990.332	1809.94
990.63	1808.13
990.927	1812.2
991.224	1815.14
991.521	1830.28
991.819	1815.36
992.116	1817.62
992.413	1822.59
992.71	1753.67
993.006	1764.97
993.303	1755.48
993.6	1768.81
993.897	1776.94
994.193	1728.81
994.49	1748.24
994.787	1728.58
995.083	1704.86
995.379	1699.43
995.676	1695.82
995.972	1657.85
996.268	1649.49
996.565	1665.76
996.861	1662.82
997.157	1655.14
997.453	1633.22
997.749	1636.84
998.044	1642.49
998.34	1633.45
998.636	1613.79
998.932	1587.8
999.227	1589.83
999.523	1587.12
999.818	1577.18
1000.114	1599.32
1000.409	1556.84
1000.704	1568.81
1001	1544.18
1001.295	1531.3
1001.59	1530.4
1001.885	1526.33
1002.18	1517.97
1002.475	1489.27
1002.77	1503.05
1003.065	1480
1003.359	1515.48
1003.654	1495.82
1003.949	1452.21
1004.243	1479.1
1004.538	1485.65
1004.832	1485.43
1005.127	1453.56
1005.421	1468.93
1005.715	1418.54
1006.009	1410.17
1006.304	1423.06
1006.598	1424.64
1006.892	1387.58
1007.186	1362.04
1007.48	1358.65
1007.773	1375.15
1008.067	1392.1
1008.361	1374.7
1008.655	1361.59
1008.948	1345.54
1009.242	1326.34
1009.535	1351.42
1009.829	1299.44
1010.122	1322.49
1010.415	1344.41
1010.708	1293.79
1011.001	1301.93
1011.295	1320.46
1011.588	1314.13
1011.881	1275.49
1012.173	1281.36
1012.466	1275.94
1012.759	1259.44
1013.052	1245.43
1013.344	1248.37
1013.637	1247.92
1013.93	1267.35
1014.222	1241.37
1014.514	1208.37
1014.807	1230.97
1015.099	1230.29
1015.391	1201.82
1015.683	1193.23
1015.976	1186.68
1016.268	1185.55
1016.56	1181.71
1016.851	1163.18
1017.143	1166.34
1017.435	1158.66
1017.727	1173.34
1018.018	1181.93
1018.31	1126.11
1018.602	1140.13
1018.893	1114.36
1019.185	1138.32
1019.476	1118.88
1019.767	1104.19
1020.058	1098.54
1020.35	1105.32
1020.641	1088.6
1020.932	1064.2
1021.223	1072.33
1021.514	1078.21
1021.804	1073.23
1022.095	1070.07
1022.386	1054.25
1022.677	1036.85
1022.967	1027.59
1023.258	1028.26
1023.548	1049.28
1023.839	1039.56
1024.129	1001.82
1024.419	992.33
1024.709	1010.64
1025	980.58
1025.29	1001.82
1025.58	987.14
1025.87	973.12
1026.16	956.18
1026.449	997.08
1026.739	962.73
1027.029	971.09
1027.319	959.57
1027.608	960.02
1027.898	920.7
1028.187	949.62
1028.477	929.74
1028.766	927.93
1029.055	905.56
1029.344	904.88
1029.634	907.36
1029.923	924.09
1030.212	891.09
1030.501	867.14
1030.79	866.91
1031.078	889.96
1031.367	877.76
1031.656	872.79
1031.945	853.81
1032.233	863.52
1032.522	868.72
1032.81	847.48
1033.099	847.03
1033.387	833.01
1033.675	842.96
1033.963	849.29
1034.251	817.42
1034.54	822.17
1034.828	821.72
1035.116	815.84
1035.403	794.82
1035.691	815.39
1035.979	787.59
1036.267	785.56
1036.554	806.12
1036.842	792.34
1037.129	763.64
1037.417	777.2
1037.704	786.69
1037.992	769.74
1038.279	759.34
1038.566	751.44
1038.853	751.44
1039.14	751.44
