Data from hue_100_FLMS001491_00011.txt Node
Date: Tue Feb 07 17:02:42 GMT 2017
User: dcchb
Spectrometer: FLMS00149
Trigger mode: 0
Integration Time (sec): 2.000000E-2
Scans to average: 10
Electric dark correction enabled: true
Nonlinearity correction enabled: false
Boxcar width: 0
XAxis mode: Wavelengths
Number of Pixels in Spectrum: 2048
>>>>>Begin Spectral Data<<<<<
341.393	-2.36
341.776	-2.36
342.16	-2.36
342.543	-59.53
342.927	-72.87
343.31	-74.22
343.693	-70.38
344.077	-63.6
344.46	-55.69
344.843	-60.21
345.226	-52.53
345.61	-26.76
345.993	-9.59
346.376	-0.1
346.759	-4.17
347.142	18.88
347.525	47.81
347.908	70.41
348.291	96.85
348.674	71.99
349.057	111.31
349.44	119.67
349.823	143.17
350.206	169.84
350.588	181.37
350.971	215.94
351.354	230.4
351.737	222.95
352.119	245.54
352.502	277.41
352.884	290.74
353.267	295.03
353.65	298.2
354.032	288.03
354.414	305.2
354.797	320.12
355.179	331.42
355.562	323.28
355.944	316.95
356.326	327.35
356.709	337.97
357.091	346.56
357.473	370.06
357.855	339.33
358.238	333.9
358.62	342.49
359.002	346.11
359.384	353.11
359.766	335.94
360.148	339.55
360.53	346.11
360.912	350.4
361.294	344.52
361.676	353.79
362.057	334.58
362.439	340.46
362.821	338.42
363.203	324.86
363.584	345.43
363.966	314.7
364.348	315.15
364.729	317.86
365.111	334.81
365.493	340.68
365.874	331.64
366.256	333.68
366.637	332.32
367.019	315.6
367.4	336.39
367.781	330.29
368.163	328.93
368.544	316.28
368.925	306.79
369.306	334.13
369.688	320.12
370.069	336.39
370.45	311.08
370.831	317.41
371.212	307.01
371.593	299.1
371.974	329.61
372.355	312.66
372.736	333
373.117	313.79
373.498	324.86
373.879	327.12
374.26	328.48
374.641	317.63
375.021	344.3
375.402	344.75
375.783	326.45
376.163	329.38
376.544	339.78
376.925	331.19
377.305	342.72
377.686	330.29
378.066	330.74
378.447	316.28
378.827	336.84
379.208	322.38
379.588	342.72
379.968	315.83
380.349	343.17
380.729	350.63
381.109	362.15
381.489	347.24
381.87	349.04
382.25	368.03
382.63	370.06
383.01	343.62
383.39	358.08
383.77	380.68
384.15	364.64
384.53	359.89
384.91	351.76
385.29	377.74
385.67	354.69
386.049	365.32
386.429	376.61
386.809	386.78
387.189	359.67
387.568	362.38
387.948	373.22
388.328	365.99
388.707	392.89
389.087	368.7
389.466	375.48
389.846	368.93
390.225	367.35
390.605	379.78
390.984	374.13
391.363	383.85
391.743	372.55
392.122	366.45
392.501	392.21
392.881	397.86
393.26	387.01
393.639	398.76
394.018	406.67
394.397	408.25
394.776	383.62
395.155	391.08
395.534	393.11
395.913	414.35
396.292	401.47
396.671	393.34
397.05	395.82
397.429	422.71
397.808	393.79
398.186	423.17
398.565	392.89
398.944	398.99
399.323	436.95
399.701	429.27
400.08	412.32
400.458	419.55
400.837	404.86
401.215	439.89
401.594	440.12
401.972	439.21
402.351	416.16
402.729	424.07
403.107	427.01
403.486	423.84
403.864	453.67
404.242	456.61
404.62	426.78
404.999	445.54
405.377	448.93
405.755	460.68
406.133	455.26
406.511	447.35
406.889	438.99
407.267	452.77
407.645	451.87
408.023	454.13
408.401	479.44
408.779	462.71
409.156	471.98
409.534	481.92
409.912	483.96
410.29	476.95
410.667	476.27
411.045	489.38
411.422	480.11
411.8	486.44
412.178	517.85
412.555	518.31
412.933	489.83
413.31	523.5
413.687	525.31
414.065	517.18
414.442	504.75
414.819	521.02
415.197	515.37
415.574	516.95
415.951	516.72
416.328	530.06
416.705	537.51
417.082	543.39
417.46	554.01
417.837	572.54
418.214	567.34
418.591	560.56
418.967	556.27
419.344	541.13
419.721	560.56
420.098	558.53
420.475	572.32
420.852	558.53
421.228	562.6
421.605	577.51
421.982	592.43
422.358	601.47
422.735	572.09
423.111	601.02
423.488	599.43
423.864	609.83
424.241	614.57
424.617	619.09
424.994	613.22
425.37	619.32
425.746	617.96
426.123	674.69
426.499	637.4
426.875	642.6
427.251	633.33
427.627	633.78
428.003	652.77
428.379	669.04
428.756	660
429.132	663.84
429.507	676.72
429.883	679.66
430.259	684.4
430.635	698.87
431.011	680.34
431.387	720.56
431.763	701.8
432.138	717.62
432.514	740.45
432.89	724.4
433.265	730.28
433.641	737.06
434.016	768.24
434.392	764.4
434.767	754.01
435.143	774.57
435.518	779.09
435.894	777.51
436.269	822.03
436.644	799.2
437.02	812.31
437.395	798.52
437.77	829.03
438.145	841.46
438.52	833.78
438.895	840.78
439.271	837.39
439.646	862.48
440.021	877.17
440.395	825.19
440.77	877.39
441.145	859.77
441.52	892.31
441.895	880.33
442.27	882.82
442.645	893.44
443.019	886.66
443.394	926.2
443.769	917.39
444.143	921.68
444.518	909.03
444.892	929.59
445.267	935.24
445.641	950.16
446.016	920.78
446.39	953.1
446.764	958.29
447.139	983.6
447.513	984.51
447.887	960.78
448.262	962.14
448.636	1010.27
449.01	1012.98
449.384	1004.62
449.758	1004.62
450.132	1018.18
450.506	1030.61
450.88	1042.13
451.254	1055.47
451.628	1043.72
452.002	1063.15
452.376	1080.55
452.75	1096.6
453.123	1071.74
453.497	1108.8
453.871	1122.36
454.244	1137.05
454.618	1147.89
454.992	1167.1
455.365	1149.02
455.739	1167.33
456.112	1208.46
456.486	1221.56
456.859	1214.56
457.232	1234.22
457.606	1255.69
457.979	1226.54
458.352	1278.96
458.725	1314.22
459.099	1296.36
459.472	1299.75
459.845	1297.72
460.218	1305.63
460.591	1356.7
460.964	1347.89
461.337	1404.84
461.71	1404.16
462.083	1464.5
462.456	1459.75
462.829	1456.13
463.201	1476.25
463.574	1478.73
463.947	1523.7
464.32	1556.92
464.692	1546.53
465.065	1575
465.438	1598.28
465.81	1633.76
466.183	1668.56
466.555	1667.88
466.928	1697.03
467.3	1724.15
467.672	1752.85
468.045	1820.42
468.417	1775.67
468.789	1812.96
469.161	1861.32
469.534	1894.99
469.906	1907.42
470.278	1960.75
470.65	1991.71
471.022	2037.14
471.394	2084.59
471.766	2113.07
472.138	2148.09
472.51	2205.49
472.882	2263.12
473.253	2279.62
473.625	2354.19
473.997	2326.39
474.369	2434.87
474.74	2426.73
475.112	2499.5
475.484	2591.25
475.855	2623.79
476.227	2682.54
476.598	2786.49
476.97	2847.06
477.341	2903.78
477.713	2967.28
478.084	3002.08
478.455	3146.26
478.827	3219.03
479.198	3333.82
479.569	3356.88
479.94	3467.38
480.311	3565.01
480.682	3657.21
481.053	3776.3
481.424	3887.03
481.795	3962.06
482.166	4080.92
482.537	4130.41
482.908	4265.55
483.279	4366.57
483.65	4542.83
484.021	4673.45
484.391	4745.31
484.762	4878.19
485.133	5001.58
485.503	5141.01
485.874	5252.42
486.244	5392.08
486.615	5534.67
486.985	5661.45
487.356	5820.54
487.726	5956.58
488.097	6131.72
488.467	6283.13
488.837	6432.73
489.207	6564.7
489.578	6739.61
489.948	6829.55
490.318	7043.56
490.688	7177.57
491.058	7363.32
491.428	7489.2
491.798	7667.04
492.168	7883.54
492.538	7889.64
492.908	8180.7
493.278	8309.51
493.648	8377.08
494.017	8570.3
494.387	8778.65
494.757	8869.5
495.126	9047.57
495.496	9142.03
495.866	9242.14
496.235	9436.94
496.605	9616.37
496.974	9690.04
497.344	9894.1
497.713	10058.17
498.082	10095.68
498.452	10280.76
498.821	10371.83
499.19	10433.75
499.559	10604.14
499.928	10764.59
500.298	10864.02
500.667	11044.81
501.036	11096.11
501.405	11290
501.774	11281.86
502.143	11462.42
502.512	11533.84
502.88	11690.44
503.249	11746.71
503.618	11908.51
503.987	11950.77
504.356	12141.5
504.724	12170.43
505.093	12233.48
505.462	12315.51
505.83	12355.73
506.199	12505.34
506.567	12692
506.936	12667.82
507.304	12984.19
507.672	12899
508.041	13001.37
508.409	13126.56
508.777	13282.94
509.145	13288.14
509.514	13285.88
509.882	13402.49
510.25	13473.9
510.618	13501.92
510.986	13549.6
511.354	13687
511.722	13736.26
512.09	13874.56
512.458	13872.98
512.826	13979.65
513.193	14031.62
513.561	14058.06
513.929	14254.67
514.297	14319.98
514.664	14359.07
515.032	14332.18
515.4	14493.53
515.767	14463.48
516.135	14566.52
516.502	14456.7
516.869	14626.41
517.237	14750.25
517.604	14583.92
517.972	14751.15
518.339	14754.54
518.706	14796.57
519.073	14932.84
519.44	14953.63
519.808	15086.96
520.175	14972.39
520.542	15077.47
520.909	15190.91
521.276	15185.49
521.643	15329.22
522.009	15332.38
522.376	15382.77
522.743	15385.49
523.11	15430.46
523.477	15509.32
523.843	15573.05
524.21	15661.86
524.577	15752.26
524.943	15778.47
525.31	15740.5
525.676	15877.45
526.043	15887.62
526.409	15867.96
526.776	16030.21
527.142	16045.81
527.508	16039.25
527.874	16113.83
528.241	16093.04
528.607	16108.63
528.973	16206.25
529.339	16131
529.705	16161.51
530.071	16238.34
530.437	16237.67
530.803	16341.17
531.169	16363.09
531.535	16222.07
531.901	16268.63
532.267	16286.25
532.632	16216.88
532.998	16245.35
533.364	16308.4
533.73	16218.01
534.095	16264.78
534.461	16270.43
534.826	16271.34
535.192	16288.96
535.557	16404.22
535.923	16292.13
536.288	16269.76
536.653	16174.84
537.019	16197.44
537.384	16214.39
537.749	16198.57
538.114	16150.66
538.479	16157.44
538.845	16101.62
539.21	16048.97
539.575	16099.82
539.94	16082.19
540.305	16076.09
540.67	15917.67
541.034	15954.28
541.399	16027.28
541.764	15893.72
542.129	15931.01
542.494	15874.06
542.858	15802.2
543.223	15823.21
543.587	15812.59
543.952	15787.73
544.316	15774.85
544.681	15686.72
545.045	15704.8
545.41	15778.92
545.774	15681.75
546.138	15599.49
546.503	15609.66
546.867	15577.34
547.231	15601.07
547.595	15516.78
547.959	15470.45
548.324	15490.34
548.688	15488.08
549.052	15404.92
549.416	15318.59
549.779	15268.88
550.143	15241.53
550.507	15394.52
550.871	15334.19
551.235	15224.36
551.599	15337.58
551.962	15255.32
552.326	15206.05
552.689	15307.07
553.053	15107.75
553.417	15067.75
553.78	15199.73
554.143	15112.05
554.507	15035.89
554.87	15028.43
555.234	15166.06
555.597	14964.48
555.96	15051.71
556.323	15074.53
556.686	14984.82
557.05	15013.52
557.413	15048.32
557.776	14971.03
558.139	14995.67
558.502	14985.04
558.865	14944.59
559.228	15026.17
559.59	14904.59
559.953	14912.05
560.316	15090.13
560.679	15109.56
561.041	15046.29
561.404	15095.78
561.767	15135.77
562.129	15044.48
562.492	15165.15
562.854	15081.76
563.217	15063.01
563.579	15122.89
563.941	15053.06
564.304	15112.72
564.666	15204.7
565.028	15169.67
565.39	15141.42
565.753	15216.22
566.115	15188.65
566.477	15249.9
566.839	15291.7
567.201	15312.04
567.563	15279.27
567.925	15281.99
568.287	15364.02
568.648	15379.84
569.01	15394.52
569.372	15424.13
569.734	15296.9
570.095	15477.23
570.457	15471.58
570.819	15400.63
571.18	15446.95
571.542	15510.91
571.903	15528.98
572.265	15490.34
572.626	15677
572.987	15482.21
573.349	15532.6
573.71	15566.05
574.071	15651.24
574.432	15589.32
574.794	15717.23
575.155	15669.77
575.516	15621.41
575.877	15597.68
576.238	15603.33
576.599	15667.74
576.96	15646.27
577.32	15599.26
577.681	15685.36
578.042	15722.2
578.403	15611.02
578.763	15673.16
579.124	15710.9
579.485	15706.83
579.845	15829.77
580.206	15686.04
580.566	15686.72
580.927	15636.1
581.287	15848.98
581.648	15670
582.008	15830.22
582.368	15695.76
582.728	15661.41
583.089	15689.21
583.449	15734.4
583.809	15655.53
584.169	15695.53
584.529	15546.16
584.889	15681.3
585.249	15636.78
585.609	15520.17
585.969	15535.09
586.329	15606.04
586.688	15649.89
587.048	15661.18
587.408	15534.63
587.768	15524.46
588.127	15514.3
588.487	15460.74
588.846	15536.67
589.206	15445.82
589.565	15580.28
589.925	15536.67
590.284	15532.37
590.643	15507.06
591.003	15572.15
591.362	15506.39
591.721	15468.19
592.08	15463.68
592.44	15518.59
592.799	15441.53
593.158	15500.28
593.517	15409.21
593.876	15456.67
594.235	15399.95
594.593	15433.39
594.952	15365.6
595.311	15402.21
595.67	15407.41
596.029	15458.7
596.387	15481.08
596.746	15493.51
597.104	15317.92
597.463	15402.89
597.822	15466.39
598.18	15377.58
598.538	15316.79
598.897	15401.08
599.255	15296.22
599.613	15388.65
599.972	15452.38
600.33	15441.98
600.688	15251.25
601.046	15379.16
601.404	15367.86
601.762	15372.6
602.12	15373.28
602.478	15500.06
602.836	15461.64
603.194	15301.87
603.552	15411.02
603.91	15389.1
604.268	15428.65
604.625	15328.76
604.983	15468.87
605.341	15311.36
605.698	15479.95
606.056	15453.73
606.413	15383.45
606.771	15371.25
607.128	15440.63
607.485	15407.18
607.843	15418.25
608.2	15418.25
608.557	15422.09
608.914	15454.64
609.272	15448.76
609.629	15492.83
609.986	15539.15
610.343	15409.67
610.7	15556.78
611.057	15450.12
611.414	15568.98
611.771	15518.59
612.127	15653.27
612.484	15509.78
612.841	15600.85
613.198	15575.99
613.554	15544.35
613.911	15674.52
614.267	15677.23
614.624	15582.77
614.98	15654.4
615.337	15683.1
615.693	15666.61
616.05	15638.36
616.406	15822.54
616.762	15668.64
617.118	15644.24
617.475	15820.5
617.831	15771.46
618.187	15776.66
618.543	15801.52
618.899	15818.47
619.255	15777.11
619.611	15820.5
619.967	15837.22
620.323	15845.13
620.678	15809.88
621.034	15782.31
621.39	15825.02
621.746	15785.02
622.101	15983.89
622.457	15804.01
622.812	15821.41
623.168	15871.8
623.523	15751.8
623.879	15928.52
624.234	15834.06
624.589	15887.84
624.945	15786.38
625.3	15904.57
625.655	15874.74
626.01	15880.39
626.365	15860.5
626.72	15842.87
627.075	15759.26
627.43	15815.3
627.785	15766.72
628.14	15837.68
628.495	15791.12
628.85	15855.76
629.205	15734.18
629.559	15865.92
629.914	15687.4
630.269	15793.38
630.623	15736.89
630.978	15665.25
631.332	15799.26
631.687	15718.58
632.041	15572.37
632.396	15734.85
632.75	15702.09
633.104	15672.03
633.459	15531.02
633.813	15627.74
634.167	15561.07
634.521	15505.93
634.875	15573.5
635.229	15519.72
635.583	15487.4
635.937	15413.73
636.291	15531.7
636.645	15495.76
636.999	15431.59
637.352	15404.24
637.706	15381.64
638.06	15424.81
638.413	15428.65
638.767	15251.7
639.121	15348.88
639.474	15279.95
639.828	15241.08
640.181	15254.19
640.534	15289.89
640.888	15247.86
641.241	15096.68
641.594	15248.31
641.947	15171.03
642.301	15261.87
642.654	15166.73
643.007	15174.64
643.36	15206.96
643.713	15162.89
644.066	15092.39
644.419	15046.74
644.771	14996.12
645.124	14898.27
645.477	14869.11
645.83	14784.82
646.182	14717.03
646.535	14725.39
646.888	14656.92
647.24	14625.28
647.593	14678.84
647.945	14652.62
648.298	14603.58
648.65	14598.16
649.002	14593.87
649.355	14618.05
649.707	14609.46
650.059	14799.06
650.411	14898.04
650.763	14919.51
651.115	15091.93
651.467	15011.94
651.819	15017.13
652.171	14970.81
652.523	14905.5
652.875	14851.49
653.227	14872.5
653.578	15006.51
653.93	14960.19
654.282	14875.22
654.633	14844.48
654.985	15059.17
655.337	14961.54
655.688	14941.43
656.039	15016.68
656.391	14833.41
656.742	14853.07
657.094	14950.69
657.445	15022.11
657.796	14941.2
658.147	14915.67
658.498	14939.85
658.849	15024.82
659.2	14946.17
659.551	14917.7
659.902	15018.49
660.253	14862.79
660.604	15040.41
660.955	14890.36
661.306	15039.05
661.656	14987.53
662.007	14989.11
662.358	15009.22
662.708	15027.53
663.059	15013.07
663.409	14912.96
663.76	15098.04
664.11	15042.22
664.461	15120.41
664.811	15026.17
665.161	14967.64
665.511	14992.73
665.862	15002.9
666.212	15082.22
666.562	15045.61
666.912	15085.61
667.262	15004.93
667.612	15111.14
667.962	15025.49
668.312	15014.2
668.662	15100.07
669.011	14990.47
669.361	15025.72
669.711	14999.73
670.06	14990.92
670.41	14988.43
670.76	14960.19
671.109	15036.12
671.459	15008.09
671.808	14941.88
672.157	15022.56
672.507	14927.19
672.856	14918.15
673.205	14803.13
673.554	14959.51
673.904	14852.39
674.253	14981.43
674.602	14893.75
674.951	14732.4
675.3	14591.83
675.649	14845.84
675.998	14802.22
676.346	14841.09
676.695	14785.5
677.044	14653.98
677.393	14805.16
677.741	14760.87
678.09	14707.76
678.438	14686.97
678.787	14711.6
679.135	14694.66
679.484	14605.62
679.832	14595.9
680.181	14579.63
680.529	14625.96
680.877	14454.66
681.225	14501.67
681.573	14676.13
681.922	14453.76
682.27	14399.07
682.618	14411.73
682.966	14449.01
683.314	14450.37
683.661	14347.09
684.009	14337.6
684.357	14301.45
684.705	14214.44
685.053	14273.88
685.4	14213.76
685.748	14212.18
686.095	14207.44
686.443	14064.84
686.79	14014.22
687.138	14101.9
687.485	14103.71
687.832	14042.02
688.18	14034.56
688.527	13934.9
688.874	13859.88
689.221	13784.62
689.568	13864.62
689.915	13737.62
690.262	13782.82
690.609	13701.24
690.956	13674.12
691.303	13619.2
691.65	13508.25
691.997	13553.9
692.344	13458.53
692.69	13491.75
693.037	13455.14
693.383	13353
693.73	13403.62
694.077	13284.52
694.423	13274.35
694.769	13344.18
695.116	13199.78
695.462	13182.38
695.808	13091.31
696.155	13047.69
696.501	13014.93
696.847	12949.84
697.193	12864.2
697.539	12898.55
697.885	12871.65
698.231	12883.18
698.577	12679.79
698.923	12758.66
699.269	12646.12
699.614	12524.09
699.96	12579.01
700.306	12546.01
700.651	12461.49
700.997	12445.22
701.342	12361.38
701.688	12390.99
702.033	12296.3
702.379	12258.56
702.724	12310.09
703.069	12282.52
703.415	12052.01
703.76	12163.65
704.105	12129.3
704.45	12080.26
704.795	11992.58
705.14	11920.94
705.485	11849.76
705.83	11832.58
706.175	11872.81
706.52	11748.52
706.865	11796.2
707.209	11803.88
707.554	11738.8
707.899	11735.19
708.243	11712.59
708.588	11584
708.932	11551.24
709.277	11509.43
709.621	11585.13
709.966	11400.73
710.31	11388.3
710.654	11334.29
710.998	11380.62
711.342	11306.5
711.687	11313.73
712.031	11280.96
712.375	11268.76
712.719	11289.77
713.063	11193.51
713.407	11227.85
713.75	11219.04
714.094	11210.68
714.438	11112.83
714.782	11140.4
715.125	11100.63
715.469	11090.46
715.812	11031.25
716.156	11003.91
716.499	10951.25
716.843	10967.3
717.186	10952.83
717.53	10991.48
717.873	10965.26
718.216	11007.75
718.559	10923
718.902	10833.74
719.246	10836.68
719.589	10750.8
719.932	10793.74
720.275	10801.2
720.617	10705.16
720.96	10752.16
721.303	10745.83
721.646	10776.34
721.989	10747.19
722.331	10720.75
722.674	10622.9
723.016	10724.59
723.359	10721.88
723.701	10685.5
724.044	10599.62
724.386	10590.81
724.729	10699.96
725.071	10582
725.413	10676.23
725.755	10574.99
726.097	10517.59
726.439	10499.74
726.782	10560.08
727.124	10563.01
727.465	10527.08
727.807	10535.22
728.149	10514.2
728.491	10519.17
728.833	10472.85
729.175	10443.47
729.516	10519.62
729.858	10460.19
730.199	10535.67
730.541	10466.74
730.882	10462
731.224	10455.22
731.565	10416.35
731.906	10474.88
732.248	10452.73
732.589	10346.97
732.93	10451.38
733.271	10391.49
733.612	10435.33
733.953	10409.12
734.294	10415.22
734.635	10416.35
734.976	10440.76
735.317	10380.87
735.658	10340.65
735.999	10407.76
736.339	10433.75
736.68	10476.01
737.021	10446.86
737.361	10434.66
737.702	10500.19
738.042	10414.77
738.383	10459.51
738.723	10427.42
739.063	10453.86
739.404	10541.54
739.744	10485.05
740.084	10454.77
740.424	10506.07
740.764	10489.57
741.104	10512.62
741.444	10525.73
741.784	10520.75
742.124	10557.59
742.464	10551.71
742.804	10571.6
743.143	10577.7
743.483	10628.55
743.823	10537.25
744.162	10760.3
744.502	10753.97
744.841	10763.69
745.181	10791.93
745.52	10837.81
745.86	10857.24
746.199	10899.28
746.538	10913.51
746.877	10998.03
747.216	11023.34
747.556	11146.05
747.895	11186.05
748.234	11103.11
748.573	11296.55
748.911	11264.69
749.25	11386.04
749.589	11494.29
749.928	11548.07
750.267	11619.03
750.605	11673.27
750.944	11668.07
751.283	11867.84
751.621	11933.82
751.96	11937.21
752.298	12071.67
752.636	12196.42
752.975	12331.78
753.313	12356.86
753.651	12573.13
753.989	12639.12
754.327	12740.36
754.666	12818.1
755.004	12970.86
755.342	13141.02
755.679	13318.87
756.017	13407.68
756.355	13567.23
756.693	13686.55
757.031	13781.69
757.368	14021
757.706	14150.49
758.044	14249.7
758.381	14392.74
758.719	14633.19
759.056	14812.17
759.394	14895.33
759.731	14999.96
760.068	15255.32
760.405	15344.81
760.743	15630.9
761.08	15743.67
761.417	15898.47
761.754	16149.98
762.091	16201.74
762.428	16400.6
762.765	16533.25
763.102	16718.78
763.438	16830.65
763.775	16977.31
764.112	17285.32
764.449	17382.04
764.785	17548.59
765.122	17625.65
765.458	17779.32
765.795	17889.6
766.131	18034
766.467	18201
766.804	18351.73
767.14	18477.61
767.476	18582.46
767.812	18744.27
768.148	18948.33
768.485	19013.64
768.821	19108.78
769.157	19234.2
769.492	19406.4
769.828	19411.59
770.164	19463.12
770.5	19638.48
770.836	19757.12
771.171	19748.99
771.507	19847.06
771.842	19888.87
772.178	20059.26
772.513	20080.5
772.849	20147.85
773.184	20234.4
773.519	20404.79
773.855	20402.3
774.19	20452.7
774.525	20499.7
774.86	20565.46
775.195	20598.23
775.53	20573.82
775.865	20697.89
776.2	20653.82
776.535	20667.38
776.87	20715.06
777.205	20642.3
777.539	20739.69
777.874	20747.83
778.209	20692.69
778.543	20713.93
778.878	20801.61
779.212	20830.99
779.547	20758.23
779.881	20908.28
780.215	20875.06
780.55	20918.67
780.884	20847.71
781.218	20906.24
781.552	20914.38
781.886	20838.9
782.22	20730.88
782.554	20747.15
782.888	20652.24
783.222	20657.21
783.556	20616.53
783.889	20689.75
784.223	20540.6
784.557	20613.14
784.89	20563.65
785.224	20539.93
785.557	20485.24
785.891	20570.89
786.224	20335.41
786.558	20497.22
786.891	20455.63
787.224	20324.56
787.557	20359.59
787.891	20361.63
788.224	20259.93
788.557	20312.81
788.89	20265.13
789.223	20271.91
789.556	20228.3
789.888	20160.5
790.221	20057.9
790.554	20088.64
790.887	20074.63
791.219	19911.92
791.552	19919.6
791.884	19926.61
792.217	19911.92
792.549	19757.12
792.882	19652.04
793.214	19669.67
793.546	19862.43
793.879	19545.6
794.211	19475.32
794.543	19585.6
794.875	19490.46
795.207	19598.71
795.539	19528.2
795.871	19505.83
796.203	19379.73
796.535	19283.01
796.867	19252.05
797.198	19149.68
797.53	19230.58
797.862	19110.13
798.193	19077.59
798.525	18993.07
798.856	19067.65
799.188	18823.81
799.519	18873.3
799.85	18764.15
800.182	18751.05
800.513	18697.04
800.844	18643.25
801.175	18752.85
801.506	18636.47
801.837	18549.47
802.168	18518.06
802.499	18469.25
802.83	18362.13
803.161	18359.87
803.491	18365.07
803.822	18385.86
804.153	18287.33
804.483	18071.52
804.814	18084.62
805.145	18108.13
805.475	18019.31
805.805	18019.77
806.136	17965.3
806.466	17956.04
806.796	17941.35
807.126	17792.43
807.457	17740.68
807.787	17741.58
808.117	17760.79
808.447	17639.44
808.777	17749.72
809.107	17538.87
809.436	17518.08
809.766	17552.66
810.096	17527.58
810.426	17363.29
810.755	17340.91
811.085	17360.8
811.414	17365.32
811.744	17232.44
812.073	17184.53
812.403	17230.63
812.732	17114.93
813.061	17170.98
813.39	17086.68
813.719	17034.26
814.049	17123.52
814.378	16990.19
814.707	16976.18
815.036	16938.89
815.365	16923.98
815.693	16681.27
816.022	16782.96
816.351	16725.11
816.68	16587.04
817.008	16641.95
817.337	16599.92
817.665	16597.43
817.994	16654.83
818.322	16633.81
818.651	16402.63
818.979	16372.58
819.307	16468.85
819.636	16456.19
819.964	16439.47
820.292	16405.12
820.62	16381.39
820.948	16356.53
821.276	16406.48
821.604	16436.08
821.932	16341.17
822.259	16334.84
822.587	16311.34
822.915	16229.53
823.243	16326.03
823.57	16327.38
823.898	16327.61
824.225	16241.06
824.553	16279.93
824.88	16252.36
825.207	16361.05
825.535	16308.85
825.862	16308.85
826.189	16195.63
826.516	16312.47
826.843	16385.46
827.17	16406.02
827.497	16321.05
827.824	16361.96
828.151	16362.86
828.478	16250.55
828.805	16495.96
829.131	16268.63
829.458	16296.42
829.785	16255.52
830.111	16227.95
830.438	16403.99
830.764	16322.64
831.09	16375.74
831.417	16310.21
831.743	16350.88
832.069	16265.24
832.395	16185.69
832.722	16340.49
833.048	16247.38
833.374	16251.9
833.7	16137.1
834.026	16128.29
834.351	16257.1
834.677	16083.77
835.003	16246.48
835.329	16128.29
835.654	16136.2
835.98	16094.39
836.306	16122.42
836.631	16006.26
836.956	16159.25
837.282	16105.47
837.607	15954.96
837.932	15925.36
838.258	15945.47
838.583	15908.64
838.908	15773.5
839.233	15919.03
839.558	15828.64
839.883	15756.55
840.208	15785.25
840.533	15731.92
840.858	15752.03
841.182	15672.71
841.507	15700.73
841.832	15674.29
842.156	15556.1
842.481	15581.64
842.805	15579.38
843.13	15476.56
843.454	15535.54
843.778	15479.72
844.103	15397.46
844.427	15348.65
844.751	15336.45
845.075	15334.19
845.399	15311.81
845.723	15199.5
846.047	15207.86
846.371	15049.9
846.695	15087.64
847.019	15024.14
847.343	14971.94
847.666	14789.34
847.99	14675
848.313	14761.77
848.637	14615.79
848.96	14628.44
849.284	14568.78
849.607	14456.92
849.931	14508.22
850.254	14373.99
850.577	14199.98
850.9	14210.15
851.223	14182.81
851.546	14133.31
851.869	14065.75
852.192	14126.76
852.515	13931.29
852.838	13861.91
853.161	13871.17
853.483	13775.36
853.806	13821.46
854.129	13759.99
854.451	13670.95
854.774	13662.14
855.096	13557.51
855.419	13542.37
855.741	13564.06
856.063	13414.01
856.385	13442.03
856.708	13411.53
857.03	13326.78
857.352	13312.77
857.674	13361.36
857.996	13281.36
858.318	13150.52
858.64	13123.62
858.961	13138.99
859.283	13064.64
859.605	12986.9
859.926	13086.34
860.248	12967.7
860.57	12933.12
860.891	12971.31
861.212	12924.99
861.534	12820.58
861.855	12802.73
862.176	12781.71
862.498	12755.27
862.819	12754.59
863.14	12729.06
863.461	12674.14
863.782	12716.85
864.103	12745.55
864.424	12708.04
864.745	12634.82
865.065	12640.47
865.386	12538.1
865.707	12443.64
866.027	12511.44
866.348	12516.41
866.668	12501.72
866.989	12479.57
867.309	12376.98
867.63	12432.34
867.95	12457.88
868.27	12332.68
868.59	12371.78
868.91	12391.21
869.23	12311.67
869.55	12231.9
869.87	12289.75
870.19	12212.46
870.51	12244.55
870.83	12268.51
871.15	12199.35
871.469	12172.01
871.789	12265.34
872.109	12146.93
872.428	12046.36
872.748	12135.4
873.067	12049.3
873.386	12046.82
873.706	12083.2
874.025	11998.68
874.344	11955.29
874.663	11868.52
874.982	11905.35
875.301	11894.5
875.62	11853.83
875.939	11896.09
876.258	11923.2
876.577	11842.3
876.896	11802.98
877.214	11761.85
877.533	11741.74
877.852	11754.85
878.17	11783.32
878.489	11719.82
878.807	11734.51
879.125	11707.39
879.444	11664.91
879.762	11633.95
880.08	11618.8
880.398	11574.51
880.716	11556.21
881.034	11566.38
881.352	11539.94
881.67	11426.72
881.988	11464.91
882.306	11456.32
882.624	11421.97
882.941	11374.52
883.259	11359.6
883.577	11280.06
883.894	11398.25
884.212	11282.09
884.529	11248.87
884.846	11244.35
885.164	11185.14
885.481	11152.6
885.798	11192.6
886.115	11103.56
886.432	11148.99
886.75	11098.82
887.067	11172.71
887.383	11037.58
887.7	11085.94
888.017	10953.06
888.334	11027.41
888.651	10941.08
888.967	10992.61
889.284	10808.88
889.6	10823.57
889.917	10757.36
890.233	10772.73
890.55	10757.36
890.866	10755.32
891.182	10684.37
891.498	10615.89
891.815	10650.02
892.131	10603.01
892.447	10553.97
892.763	10499.96
893.079	10491.83
893.395	10408.44
893.71	10448.44
894.026	10399.4
894.342	10319.18
894.657	10323.7
894.973	10238.5
895.289	10242.34
895.604	10292.06
895.92	10149.24
896.235	10085.96
896.55	10120.99
896.865	10135.68
897.181	10018.39
897.496	10058.85
897.811	10017.26
898.126	9995.12
898.441	9897.72
898.756	9844.39
899.071	9846.2
899.386	9854.78
899.7	9744.05
900.015	9714.22
900.33	9653.66
900.644	9696.6
900.959	9585.64
901.273	9647.11
901.588	9545.19
901.902	9551.97
902.216	9474.23
902.531	9435.81
902.845	9431.52
903.159	9338.19
903.473	9359.2
903.787	9253.22
904.101	9262.03
904.415	9246.66
904.729	9158.3
905.042	9149.49
905.356	9134.58
905.67	9127.8
905.984	9111.98
906.297	9038.53
906.611	9050.28
906.924	9023.17
907.237	8994.24
907.551	8927.8
907.864	8913.11
908.177	8841.7
908.491	8846.9
908.804	8711.54
909.117	8698.88
909.43	8664.76
909.743	8624.76
910.056	8602.84
910.368	8564.2
910.681	8554.25
910.994	8463.41
911.307	8488.04
911.619	8482.16
911.932	8467.25
912.244	8318.55
912.557	8340.47
912.869	8310.87
913.181	8244.2
913.494	8201.27
913.806	8131.21
914.118	8173.47
914.43	8099.35
914.742	8146.13
915.054	8095.51
915.366	8010.76
915.678	7980.03
915.99	7935.74
916.302	7916.76
916.613	7874.72
916.925	7834.72
917.236	7872.69
917.548	7795.63
917.859	7810.32
918.171	7777.78
918.482	7667.5
918.794	7639.02
919.105	7603.09
919.416	7514.28
919.727	7586.82
920.038	7508.4
920.349	7445.81
920.66	7446.94
920.971	7434.73
921.282	7417.56
921.593	7373.94
921.903	7343.44
922.214	7337.79
922.525	7284.23
922.835	7295.08
923.146	7213.5
923.456	7202.2
923.767	7227.73
924.077	7135.98
924.387	7190.45
924.697	7030
925.008	7074.74
925.318	7030.68
925.628	6996.1
925.938	7024.8
926.248	6903
926.558	6888.76
926.867	6902.32
927.177	6853.96
927.487	6870.68
927.796	6806.28
928.106	6735.09
928.416	6751.81
928.725	6726.73
929.034	6732.83
929.344	6660.97
929.653	6647.64
929.962	6605.6
930.271	6576
930.581	6541.88
930.89	6507.75
931.199	6492.16
931.508	6461.65
931.817	6488.32
932.125	6461.2
932.434	6438.83
932.743	6365.38
933.051	6363.12
933.36	6295.78
933.669	6306.4
933.977	6201.32
934.286	6257.59
934.594	6219.85
934.902	6193.86
935.21	6112.51
935.519	6110.25
935.827	6108.44
936.135	5984.15
936.443	6032.06
936.751	5950.93
937.059	5983.7
937.367	5988.67
937.674	5923.36
937.982	5870.03
938.29	5872.74
938.597	5862.12
938.905	5862.8
939.213	5812.63
939.52	5744.61
939.827	5777.6
940.135	5710.03
940.442	5695.12
940.749	5663.71
941.056	5719.98
941.363	5616.93
941.67	5642.69
941.977	5582.35
942.284	5568.57
942.591	5553.88
942.898	5535.35
943.205	5544.84
943.511	5483.15
943.818	5535.8
944.125	5461.23
944.431	5425.97
944.738	5365.18
945.044	5295.58
945.35	5334.45
945.657	5255.13
945.963	5280.89
946.269	5248.8
946.575	5236.83
946.881	5200.44
947.187	5226.88
947.493	5146.66
947.799	5176.04
948.105	5138.07
948.41	5084.06
948.716	5076.83
949.022	5049.94
949.327	5050.62
949.633	4985.31
949.938	5018.07
950.244	4980.11
950.549	4923.39
950.854	4952.31
951.16	4918.19
951.465	4854.91
951.77	4880.68
952.075	4828.7
952.38	4860.79
952.685	4845.88
952.99	4771.75
953.294	4781.24
953.599	4747.57
953.904	4739.21
954.209	4684.52
954.513	4691.53
954.818	4635.26
955.122	4649.72
955.426	4610.85
955.731	4618.76
956.035	4605.2
956.339	4576.96
956.643	4548.93
956.948	4489.95
957.252	4510.74
957.556	4524.98
957.86	4477.3
958.163	4486.56
958.467	4459.9
958.771	4436.62
959.075	4389.16
959.378	4391.88
959.682	4385.1
959.985	4330.86
960.289	4304.42
960.592	4287.47
960.896	4289.28
961.199	4230.98
961.502	4270.75
961.805	4179.45
962.108	4232.56
962.411	4220.81
962.714	4152.11
963.017	4154.59
963.32	4145.78
963.623	4136.52
963.926	4096.52
964.228	4066.01
964.531	4060.13
964.833	4060.81
965.136	4043.86
965.438	4033.02
965.741	3970.87
966.043	3977.2
966.345	3971.55
966.648	3956.63
966.95	3939.68
967.252	3866.24
967.554	3871.21
967.856	3906.24
968.158	3828.28
968.46	3848.61
968.761	3823.98
969.063	3837.54
969.365	3788.28
969.666	3772.46
969.968	3755.06
970.269	3778.33
970.571	3753.93
970.872	3699.69
971.174	3680.93
971.475	3724.32
971.776	3666.47
972.077	3666.02
972.378	3642.52
972.679	3637.77
972.98	3586.93
973.281	3562.75
973.582	3576.08
973.883	3504.67
974.183	3551.67
974.484	3509.64
974.785	3520.03
975.085	3486.59
975.386	3461.28
975.686	3440.26
975.986	3444.33
976.287	3439.13
976.587	3388.74
976.887	3414.27
977.187	3389.87
977.487	3382.41
977.787	3327.72
978.087	3375.18
978.387	3302.41
978.687	3310.77
978.987	3264.67
979.286	3269.87
979.586	3247.5
979.885	3260.83
980.185	3229.65
980.484	3184.68
980.784	3205.69
981.083	3169.76
981.382	3140.84
981.682	3137.22
981.981	3152.59
982.28	3099.93
982.579	3105.36
982.878	3102.87
983.177	3096.54
983.475	3040.73
983.774	3041.86
984.073	3007.51
984.372	3021.74
984.67	3034.4
984.969	3045.47
985.267	3019.48
985.566	2988.3
985.864	3006.6
986.162	2947.39
986.461	2953.04
986.759	2913.95
987.057	2877.34
987.355	2910.33
987.653	2868.98
987.951	2872.82
988.249	2858.58
988.547	2848.87
988.844	2814.74
989.142	2834.63
989.44	2804.12
989.737	2771.81
990.035	2802.77
990.332	2780.62
990.63	2777
990.927	2719.15
991.224	2714.86
991.521	2680.73
991.819	2687.97
992.116	2664.92
992.413	2679.38
992.71	2635.76
993.006	2651.81
993.303	2639.15
993.6	2661.75
993.897	2626.72
994.193	2582.43
994.49	2621.98
994.787	2583.79
995.083	2533.17
995.379	2544.02
995.676	2556.9
995.972	2511.25
996.268	2517.12
996.565	2485.71
996.861	2474.64
997.157	2491.59
997.453	2436.22
997.749	2436
998.044	2456.56
998.34	2423.11
998.636	2464.92
998.932	2393.28
999.227	2383.57
999.523	2358.94
999.818	2351.25
1000.114	2337.92
1000.409	2345.15
1000.704	2334.75
1001	2328.2
1001.295	2289.78
1001.59	2273.97
1001.885	2288.2
1002.18	2235.32
1002.475	2239.84
1002.77	2234.42
1003.065	2211.37
1003.359	2239.62
1003.654	2228.09
1003.949	2179.73
1004.243	2189.67
1004.538	2172.05
1004.832	2151.48
1005.127	2137.02
1005.421	2153.29
1005.715	2112.84
1006.009	2124.59
1006.304	2100.41
1006.598	2061.99
1006.892	2075.78
1007.186	2041.88
1007.48	2004.82
1007.773	1996.68
1008.067	2031.94
1008.361	2000.75
1008.655	1982.22
1008.948	1983.58
1009.242	1989.23
1009.535	1959.4
1009.829	1943.35
1010.122	1925.05
1010.415	1918.72
1010.708	1892.28
1011.001	1902
1011.295	1855.22
1011.588	1899.06
1011.881	1818.61
1012.173	1847.08
1012.466	1826.75
1012.759	1829.68
1013.052	1809.57
1013.344	1812.06
1013.637	1815.45
1013.93	1797.82
1014.222	1809.8
1014.514	1788.1
1014.807	1778.61
1015.099	1760.53
1015.391	1761.44
1015.683	1727.31
1015.976	1710.14
1016.268	1700.42
1016.56	1704.49
1016.851	1700.42
1017.143	1718.5
1017.435	1662.91
1017.727	1644.6
1018.018	1630.82
1018.31	1645.06
1018.602	1624.49
1018.893	1634.89
1019.185	1577.71
1019.476	1573.42
1019.767	1605.28
1020.058	1552.85
1020.35	1549.46
1020.641	1569.8
1020.932	1538.39
1021.223	1512.63
1021.514	1495.23
1021.804	1491.16
1022.095	1506.75
1022.386	1470.14
1022.677	1487.55
1022.967	1484.16
1023.258	1466.08
1023.548	1479.86
1023.839	1419.75
1024.129	1417.72
1024.419	1421.56
1024.709	1371.16
1025	1408.68
1025.29	1417.49
1025.58	1384.5
1025.87	1376.36
1026.16	1363.03
1026.449	1364.16
1026.739	1342.01
1027.029	1337.27
1027.319	1355.57
1027.608	1283.03
1027.898	1292.3
1028.187	1273.54
1028.477	1292.3
1028.766	1288.91
1029.055	1268.79
1029.344	1275.12
1029.634	1281
1029.923	1264.27
1030.212	1276.7
1030.501	1250.72
1030.79	1216.37
1031.078	1221.11
1031.367	1217.72
1031.656	1210.49
1031.945	1227.44
1032.233	1169.14
1032.522	1201.68
1032.81	1203.26
1033.099	1169.36
1033.387	1180.21
1033.675	1161.23
1033.963	1180.44
1034.251	1136.14
1034.54	1128.91
1034.828	1116.71
1035.116	1120.32
1035.403	1119.87
1035.691	1116.03
1035.979	1105.41
1036.267	1095.69
1036.554	1084.17
1036.842	1074
1037.129	1077.61
1037.417	1073.09
1037.704	1067.67
1037.992	1057.27
1038.279	1038.74
1038.566	1011.4
1038.853	1011.4
1039.14	1011.4
