Data from hue_60_FLMS001491_62.txt Node
Date: Mon Feb 06 15:17:43 GMT 2017
User: dcchb
Spectrometer: FLMS00149
Trigger mode: 0
Integration Time (sec): 2.000000E-2
Scans to average: 10
Electric dark correction enabled: true
Nonlinearity correction enabled: false
Boxcar width: 0
XAxis mode: Wavelengths
Number of Pixels in Spectrum: 2048
>>>>>Begin Spectral Data<<<<<
341.393	-9.18
341.776	-9.18
342.16	-9.18
342.543	-50.76
342.927	-69.52
343.31	-74.94
343.693	-67.03
344.077	-65.9
344.46	-62.51
344.843	-63.19
345.226	-69.74
345.61	-20.48
345.993	-19.35
346.376	23.36
346.759	8.45
347.142	27.65
347.525	30.82
347.908	64.72
348.291	85.28
348.674	111.95
349.057	90.93
349.44	135.9
349.823	154.66
350.206	166.86
350.588	187.88
350.971	225.84
351.354	223.58
351.737	234.65
352.119	247.08
352.502	249.8
352.884	260.87
353.267	278.04
353.65	285.73
354.032	307.2
354.414	287.76
354.797	306.29
355.179	331.15
355.562	324.37
355.944	311.04
356.326	345.39
356.709	338.61
357.091	335.44
357.473	337.93
357.855	342.45
358.238	335.9
358.62	355.56
359.002	360.98
359.384	348.55
359.766	335.9
360.148	345.39
360.53	319.4
360.912	334.77
361.294	328.44
361.676	338.15
362.057	330.47
362.439	349.45
362.821	331.38
363.203	316.46
363.584	322.11
363.966	331.6
364.348	324.14
364.729	333.18
365.111	314.65
365.493	315.33
365.874	334.09
366.256	312.84
366.637	333.41
367.019	311.71
367.4	337.48
367.781	330.7
368.163	309.23
368.544	302.9
368.925	316.01
369.306	325.95
369.688	307.42
370.069	325.95
370.45	320.08
370.831	311.49
371.212	323.47
371.593	326.18
371.974	324.14
372.355	316.46
372.736	334.31
373.117	311.49
373.498	327.31
373.879	314.65
374.26	305.84
374.641	303.58
375.021	308.1
375.402	323.69
375.783	335.9
376.163	333.41
376.544	321.88
376.925	322.34
377.305	330.02
377.686	339.74
378.066	335.67
378.447	309
378.827	308.1
379.208	332.05
379.588	332.28
379.968	335.44
380.349	326.18
380.729	345.39
381.109	330.25
381.489	339.28
381.87	349.23
382.25	325.95
382.63	343.13
383.01	352.62
383.39	341.77
383.77	334.99
384.15	331.83
384.53	356.01
384.91	320.75
385.29	341.09
385.67	363.01
386.049	343.13
386.429	362.56
386.809	358.95
387.189	356.91
387.568	350.13
387.948	358.04
388.328	348.1
388.707	356.46
389.087	363.24
389.466	363.47
389.846	370.47
390.225	353.97
390.605	363.47
390.984	359.85
391.363	344.93
391.743	359.62
392.122	360.98
392.501	368.21
392.881	390.13
393.26	367.53
393.639	354.43
394.018	361.21
394.397	345.39
394.776	382
395.155	382.67
395.534	359.85
395.913	354.88
396.292	356.91
396.671	363.47
397.05	383.13
397.429	370.24
397.808	373.18
398.186	373.63
398.565	372.5
398.944	382.22
399.323	377.48
399.701	374.09
400.08	377.93
400.458	374.31
400.837	391.94
401.215	390.58
401.594	393.75
401.972	402.79
402.351	407.08
402.729	386.29
403.107	398.49
403.486	413.18
403.864	389.45
404.242	383.13
404.62	402.11
404.999	407.08
405.377	406.85
405.755	393.75
406.133	407.31
406.511	409.34
406.889	412.05
407.267	412.96
407.645	430.81
408.023	419.51
408.401	444.82
408.779	425.61
409.156	445.27
409.534	401.2
409.912	428.32
410.29	440.98
410.667	440.75
411.045	435.33
411.422	452.5
411.8	457.47
412.178	442.78
412.555	463.58
412.933	439.4
413.31	426.97
413.687	465.16
414.065	449.79
414.442	443.46
414.819	434.42
415.197	468.77
415.574	454.31
415.951	472.39
416.328	457.02
416.705	490.92
417.082	470.58
417.46	483.91
417.837	466.06
418.214	481.65
418.591	482.78
418.967	484.59
419.344	505.38
419.721	501.31
420.098	484.82
420.475	505.38
420.852	494.99
421.228	514.2
421.605	492.05
421.982	495.89
422.358	501.99
422.735	515.78
423.111	513.29
423.488	505.16
423.864	525.95
424.241	530.92
424.617	542.22
424.994	530.92
425.37	529.56
425.746	527.08
426.123	519.17
426.499	519.39
426.875	553.29
427.251	539.51
427.627	564.14
428.003	554.87
428.379	554.19
428.756	604.14
429.132	577.92
429.507	572.95
429.883	590.8
430.259	570.24
430.635	585.15
431.011	593.97
431.387	611.14
431.763	595.1
432.138	618.37
432.514	594.65
432.89	584.25
433.265	633.51
433.641	612.27
434.016	640.07
434.392	614.08
434.767	635.55
435.143	612.27
435.518	632.16
435.894	641.2
436.269	650.46
436.644	659.5
437.02	645.04
437.395	683.68
437.77	649.56
438.145	685.72
438.52	659.28
438.895	666.06
439.271	674.19
439.646	701.08
440.021	689.11
440.395	707.64
440.77	697.02
441.145	717.13
441.52	705.6
441.895	704.92
442.27	702.89
442.645	728.43
443.019	719.61
443.394	719.16
443.769	742.44
444.143	743.12
444.518	720.52
444.892	726.85
445.267	734.98
445.641	750.8
446.016	744.7
446.39	766.39
446.764	738.82
447.139	761.65
447.513	783.79
447.887	772.49
448.262	811.14
448.636	770.46
449.01	782.66
449.384	797.58
449.758	810.46
450.132	819.95
450.506	789.22
450.88	810.46
451.254	796.9
451.628	825.6
452.002	798.03
452.376	822.89
452.75	853.17
453.123	844.81
453.497	840.51
453.871	859.05
454.244	850.68
454.618	885.49
454.992	860.18
455.365	882.77
455.739	908.08
456.112	910.34
456.486	891.81
456.859	942.88
457.232	931.59
457.606	923.22
457.979	941.08
458.352	988.99
458.725	983.11
459.099	960.74
459.472	994.63
459.845	983.11
460.218	1022.88
460.591	1044.13
460.964	1023.56
461.337	1042.32
461.71	1046.61
462.083	1085.93
462.456	1070.57
462.829	1070.79
463.201	1101.52
463.574	1114.41
463.947	1130.22
464.32	1126.61
464.692	1151.47
465.065	1188.53
465.438	1163.22
465.81	1198.7
466.183	1224.23
466.555	1246.83
466.928	1280.05
467.3	1279.15
467.672	1306.27
468.045	1314.63
468.417	1314.85
468.789	1322.99
469.161	1382.2
469.534	1406.83
469.906	1401.63
470.278	1418.13
470.65	1469.42
471.022	1477.56
471.394	1523.66
471.766	1540.61
472.138	1548.97
472.51	1587.39
472.882	1645.92
473.253	1672.13
473.625	1705.12
473.997	1757.78
474.369	1774.28
474.74	1790.09
475.112	1849.75
475.484	1937.66
475.855	1952.12
476.227	1976.53
476.598	2080.26
476.97	2067.6
477.341	2183.53
477.713	2216.52
478.084	2260.59
478.455	2321.38
478.827	2367.48
479.198	2485.22
479.569	2508.04
479.94	2613.35
480.311	2661.03
480.682	2764.98
481.053	2840.91
481.424	2888.14
481.795	3002.49
482.166	3038.65
482.537	3151.41
482.908	3264.41
483.279	3342.82
483.65	3431.41
484.021	3520.9
484.391	3657.84
484.762	3710.27
485.133	3822.81
485.503	3962.24
485.874	4077.72
486.244	4151.16
486.615	4290.37
486.985	4400.2
487.356	4571.94
487.726	4635.67
488.097	4817.81
488.467	4897.81
488.837	5097.8
489.207	5237.46
489.578	5330.11
489.948	5468.87
490.318	5619.37
490.688	5725.58
491.058	5891.91
491.428	6030.89
491.798	6169.87
492.168	6367.83
492.538	6403.76
492.908	6599.01
493.278	6796.97
493.648	6917.42
494.017	7056.4
494.387	7239.67
494.757	7384.52
495.126	7501.81
495.496	7684.18
495.866	7825.64
496.235	7992.42
496.605	8161.45
496.974	8291.84
497.344	8474.44
497.713	8582.46
498.082	8716.01
498.452	8875.11
498.821	9075.78
499.19	9084.82
499.559	9268.09
499.928	9415.66
500.298	9624.92
500.667	9711.69
501.036	9821.75
501.405	9984.45
501.774	10078.01
502.143	10199.82
502.512	10454.95
502.88	10617.21
503.249	10635.74
503.618	10782.63
503.987	10994.82
504.356	11028.95
504.724	11237.53
505.093	11306.45
505.462	11431.2
505.83	11616.95
506.199	11757.97
506.567	11918.87
506.936	12057.17
507.304	12240.89
507.672	12388.91
508.041	12533.77
508.409	12611.5
508.777	12757.72
509.145	12930.37
509.514	13007.65
509.882	13122.9
510.25	13241.77
510.618	13454.87
510.986	13486.06
511.354	13647.18
511.722	13861.64
512.09	13946.84
512.458	14005.82
512.826	14205.36
513.193	14321.52
513.561	14369.65
513.929	14593.6
514.297	14756.53
514.664	14803.54
515.032	14952.23
515.4	15121.5
515.767	15229.29
516.135	15411.66
516.502	15246.01
516.869	15638.32
517.237	15751.08
517.604	15763.74
517.972	15909.04
518.339	16119.66
518.706	16159.21
519.073	16334.12
519.44	16451.4
519.808	16621.79
520.175	16624.73
520.542	16901.34
520.909	16983.14
521.276	16968.9
521.643	17218.39
522.009	17426.29
522.376	17563.92
522.743	17709.68
523.11	17886.62
523.477	18050.23
523.843	18124.58
524.21	18314.63
524.577	18560.5
524.943	18595.98
525.31	18720.27
525.676	18883.66
526.043	19044.78
526.409	19105.57
526.776	19225.57
527.142	19457.2
527.508	19473.25
527.874	19722.05
528.241	19792.78
528.607	19828.26
528.973	20102.16
529.339	20115.71
529.705	20281.59
530.071	20517.96
530.437	20582.14
530.803	20750.05
531.169	20787.79
531.535	20814.23
531.901	21066.88
532.267	21040.21
532.632	21155.91
532.998	21380.54
533.364	21393.87
533.73	21489.92
534.095	21644.49
534.461	21846.29
534.826	21816.46
535.192	21946.17
535.557	22039.28
535.923	22018.04
536.288	22190.24
536.653	22332.15
537.019	22260.52
537.384	22384.13
537.749	22429.1
538.114	22541.64
538.479	22650.11
538.845	22831.12
539.21	22731.01
539.575	22967.62
539.94	22985.47
540.305	23184.56
540.67	23078.12
541.034	23181.62
541.399	23288.06
541.764	23261.17
542.129	23405.35
542.494	23442.86
542.858	23661.84
543.223	23653.7
543.587	23866.8
543.952	23842.85
544.316	23897.54
544.681	23871.77
545.045	23995.39
545.41	24113.58
545.774	24162.61
546.138	24259.56
546.503	24382.27
546.867	24352.89
547.231	24560.57
547.595	24569.83
547.959	24675.14
548.324	24617.74
548.688	24768.25
549.052	24947
549.416	24820.9
549.779	25011.63
550.143	25031.97
550.507	25206.65
550.871	25189.03
551.235	25289.36
551.599	25404.84
551.962	25592.18
552.326	25594.44
552.689	25779.52
553.053	25628.34
553.417	25776.36
553.78	26042.34
554.143	26016.58
554.507	26212.73
554.87	26217.02
555.234	26535.21
555.597	26408.66
555.96	26432.16
556.323	26584.24
556.686	26680.74
557.05	26840.96
557.413	26925.48
557.776	26939.49
558.139	27180.16
558.502	27204.34
558.865	27296.09
559.228	27448.85
559.59	27632.8
559.953	27694.5
560.316	27927.26
560.679	27904.21
561.041	28163.64
561.404	28240.7
561.767	28347.36
562.129	28332.67
562.492	28572.44
562.854	28634.81
563.217	28708.03
563.579	28783.96
563.941	28938.31
564.304	29098.98
564.666	29323.83
565.028	29389.59
565.39	29427.79
565.753	29588.91
566.115	29570.38
566.477	29727.89
566.839	29958.85
567.201	30075.23
567.563	30013.08
567.925	30189.12
568.287	30311.6
568.648	30406.97
569.01	30617.36
569.372	30853.51
569.734	30819.61
570.095	30940.06
570.457	30996.56
570.819	30980.29
571.18	31159.49
571.542	31349.99
571.903	31324.01
572.265	31489.2
572.626	31632.25
572.987	31579.37
573.349	31807.16
573.71	31874.05
574.071	31910.43
574.432	31999.92
574.794	32255.06
575.155	32218.67
575.516	32111.56
575.877	32364.43
576.238	32428.84
576.599	32597.19
576.96	32597.65
577.32	32572.11
577.681	32669.73
578.042	32868.15
578.403	32849.84
578.763	32865.66
579.124	33019.33
579.485	33075.15
579.845	33144.07
580.206	33084.86
580.566	33141.81
580.927	33152.89
581.287	33312.66
581.648	33258.19
582.008	33344.29
582.368	33287.35
582.728	33423.61
583.089	33353.11
583.449	33439.43
583.809	33405.99
584.169	33467.45
584.529	33528.24
584.889	33736.82
585.249	33571.41
585.609	33448.24
585.969	33549.94
586.329	33562.14
586.688	33670.16
587.048	33636.71
587.408	33589.71
587.768	33599.88
588.127	33729.59
588.487	33507.9
588.846	33831.51
589.206	33552.87
589.565	33719.88
589.925	33887.1
590.284	33921.68
590.643	33762.13
591.003	33824.73
591.362	33887.56
591.721	33881.45
592.08	33937.05
592.44	33992.41
592.799	33979.53
593.158	34026.08
593.517	33933.43
593.876	34137.49
594.235	34029.02
594.593	34088.91
594.952	34139.98
595.311	34047.33
595.67	34073.77
596.029	34341.33
596.387	34352.4
596.746	34416.81
597.104	34139.53
597.463	34408.9
597.822	34404.83
598.18	34309.47
598.538	34254.55
598.897	34451.38
599.255	34220.65
599.613	34860.86
599.972	34665.39
600.33	34593.3
600.688	34488.9
601.046	34614.09
601.404	34836.23
601.762	34645.5
602.12	34836.68
602.478	34842.33
602.836	34963.23
603.194	34767.08
603.552	35004.36
603.91	34795.55
604.268	35164.58
604.625	34844.14
604.983	35158.03
605.341	34821.09
605.698	35174.75
606.056	35326.84
606.413	35200.06
606.771	35284.35
607.128	35457.68
607.485	35264.69
607.843	35497
608.2	35565.7
608.557	35724.12
608.914	35604.12
609.272	35648.41
609.629	35768.64
609.986	35907.84
610.343	35743.33
610.7	36163.43
611.057	36040.95
611.414	36007.27
611.771	36158.46
612.127	36149.19
612.484	36270.77
612.841	36355.06
613.198	36287.27
613.554	36297.44
613.911	36491.33
614.267	36475.96
614.624	36475.06
614.98	36668.5
615.337	36774.94
615.693	36699.68
616.05	36662.85
616.406	36927.48
616.762	36760.02
617.118	36731.55
617.475	36894.03
617.831	36991.88
618.187	37026.23
618.543	37074.82
618.899	37287.24
619.255	37300.12
619.611	37354.36
619.967	37503.28
620.323	37564.07
620.678	37286.56
621.034	37316.62
621.39	37328.14
621.746	37317.52
622.101	37705.31
622.457	37599.77
622.812	37542.37
623.168	37687.23
623.523	37509.38
623.879	37818.3
624.234	37462.6
624.589	37689.49
624.945	37658.53
625.3	37875.47
625.655	37678.42
626.01	37956.37
626.365	37875.93
626.72	37794.35
627.075	37807.23
627.43	37734.23
627.785	37700.56
628.14	37859.2
628.495	37903.49
628.85	37828.92
629.205	37816.27
629.559	38146.88
629.914	37765.19
630.269	37887.22
630.623	37723.84
630.978	37804.51
631.332	37922.48
631.687	37960.22
632.041	37788.7
632.396	37929.03
632.75	37773.1
633.104	37826.43
633.459	37749.15
633.813	37665.31
634.167	37717.74
634.521	37689.49
634.875	37573.11
635.229	37605.88
635.583	37474.35
635.937	37447.46
636.291	37484.3
636.645	37546.44
636.999	37386.45
637.352	37582.37
637.706	37343.51
638.06	37438.42
638.413	37378.76
638.767	37401.36
639.121	37357.07
639.474	37180.35
639.828	37260.8
640.181	37275.49
640.534	37199.33
640.888	37146.68
641.241	37121.14
641.594	37085.66
641.947	37214.93
642.301	37093.12
642.654	37216.51
643.007	37134.02
643.36	37197.98
643.713	36957.53
644.066	37146
644.419	36860.58
644.771	36857.65
645.124	36322.52
645.477	36430.99
645.83	36075.29
646.182	36044.79
646.535	36014.28
646.888	35903.1
647.24	35777.9
647.593	35965.01
647.945	35803.44
648.298	35694.29
648.65	35693.16
649.002	35591.47
649.355	35723.89
649.707	35657.68
650.059	35656.77
650.411	36079.14
650.763	36163.43
651.115	36633.47
651.467	36443.19
651.819	36496.75
652.171	36427.15
652.523	36370.43
652.875	36449.07
653.227	36217.89
653.578	36497.43
653.93	36282.97
654.282	36198.68
654.633	36132.24
654.985	36256.76
655.337	36249.75
655.688	36197.55
656.039	36400.26
656.391	36014.96
656.742	36012.02
657.094	36060.15
657.445	36230.09
657.796	36131.56
658.147	36223.09
658.498	36170.21
658.849	36189.64
659.2	35990.1
659.551	35858.58
659.902	36104.45
660.253	35895.41
660.604	36076.88
660.955	35863.77
661.306	36046.82
661.656	36005.01
662.007	35874.85
662.358	35949.2
662.708	36009.31
663.059	35938.8
663.409	35691.8
663.76	35959.82
664.11	35881.18
664.461	35900.61
664.811	35881.18
665.161	35859.71
665.511	35803.89
665.862	35792.14
666.212	35982.42
666.562	35983.77
666.912	35778.13
667.262	35873.49
667.612	35737
667.962	35789.88
668.312	35782.87
668.662	35861.74
669.011	35839.37
669.361	35764.79
669.711	35766.38
670.06	35595.76
670.41	35583.78
670.76	35640.73
671.109	35668.3
671.459	35659.71
671.808	35665.14
672.157	35589.43
672.507	35450.23
672.856	35515.08
673.205	35544.23
673.554	35731.8
673.904	35460.85
674.253	35601.63
674.602	35436.22
674.951	35043.01
675.3	34924.14
675.649	35407.74
675.998	35267.86
676.346	35346.73
676.695	35559.38
677.044	35141.99
677.393	35330.46
677.741	35363.45
678.09	35287.29
678.438	35174.98
678.787	35245.71
679.135	35235.09
679.484	34954.87
679.832	35357.8
680.181	35022.44
680.529	35144.25
680.877	34933.63
681.225	35057.47
681.573	35215.2
681.922	34904.25
682.27	34763.24
682.618	34835.78
682.966	34738.83
683.314	34672.39
683.661	34577.25
684.009	34511.49
684.357	34372.06
684.705	34545.17
685.053	34526.86
685.4	34483.7
685.748	34142.92
686.095	34236.25
686.443	34098.17
686.79	34110.83
687.138	34149.47
687.485	34005.74
687.832	33948.12
688.18	33993.54
688.527	33898.4
688.874	33792.64
689.221	33895.92
689.568	33753.55
689.915	33710.61
690.262	33605.98
690.609	33490.96
690.956	33427.68
691.303	33329.6
691.65	33213
691.997	33239.44
692.344	32910.63
692.69	32970.74
693.037	32934.13
693.383	32701.82
693.73	32880.35
694.077	32565.33
694.423	32708.15
694.769	32465.9
695.116	32531.66
695.462	32465.9
695.808	32409.4
696.155	32394.26
696.501	32191.1
696.847	32022.52
697.193	31935.06
697.539	32075.63
697.885	31795.41
698.231	31727.84
698.577	31870.66
698.923	31628.18
699.269	31489.65
699.614	31426.15
699.96	31283.1
700.306	31421.86
700.651	31310
700.997	31054.86
701.342	31099.15
701.688	30976.22
702.033	30927.41
702.379	31003.34
702.724	30801.08
703.069	30778.71
703.415	30528.32
703.76	30467.31
704.105	30401.77
704.45	30432.05
704.795	30384.6
705.14	30118.16
705.485	30148.44
705.83	30047.2
706.175	30144.83
706.52	29907.32
706.865	29788.45
707.209	29765.18
707.554	29729.47
707.899	29773.99
708.243	29585.97
708.588	29563.83
708.932	29414.23
709.277	29393.66
709.621	29337.39
709.966	29298.07
710.31	29391.4
710.654	29071.64
710.998	29155.7
711.342	29145.99
711.687	29104.18
712.031	28931.53
712.375	28790.51
712.719	28854.02
713.063	28843.17
713.407	28755.94
713.75	28749.84
714.094	28611.76
714.438	28556.17
714.782	28549.16
715.125	28406.57
715.469	28321.37
715.812	28356.4
716.156	28209.96
716.499	28139.68
716.843	28131.77
717.186	27980.59
717.53	28076.41
717.873	28065.11
718.216	27924.55
718.559	27879.8
718.902	27702.63
719.246	27845
719.589	27685.01
719.932	27626.93
720.275	27564.11
720.617	27640.49
720.96	27469.19
721.303	27495.86
721.646	27594.61
721.989	27399.82
722.331	27505.58
722.674	27249.76
723.016	27325.47
723.359	27245.47
723.701	27267.84
724.044	27058.58
724.386	27024.68
724.729	27201.63
725.071	26940.62
725.413	27024.01
725.755	26977.23
726.097	26763.45
726.439	26660.4
726.782	26722.32
727.124	26744.01
727.465	26641.64
727.807	26626.73
728.149	26526.39
728.491	26474.19
728.833	26631.93
729.175	26464.02
729.516	26368.2
729.858	26401.65
730.199	26400.07
730.541	26412.5
730.882	26247.08
731.224	26349.9
731.565	26178.83
731.906	26163.92
732.248	26163.46
732.589	25994.2
732.93	25999.4
733.271	25959.63
733.612	25931.38
733.953	25923.47
734.294	25974.77
734.635	25800.76
734.976	25916.24
735.317	25909.46
735.658	25710.6
735.999	25641.9
736.339	25637.83
736.68	25718.5
737.021	25616.59
737.361	25574.55
737.702	25611.61
738.042	25587.89
738.383	25476.25
738.723	25582.91
739.063	25389.02
739.404	25436.93
739.744	25269.48
740.084	25230.16
740.424	25291.85
740.764	25075.36
741.104	25258.86
741.444	25083.04
741.784	25086.43
742.124	25108.35
742.464	25030.16
742.804	25066.09
743.143	24924.18
743.483	25035.58
743.823	24811.86
744.162	24866.78
744.502	24922.14
744.841	24839.88
745.181	24880.33
745.52	24770.96
745.86	24709.04
746.199	24622.26
746.538	24627.01
746.877	24657.74
747.216	24702.26
747.556	24611.87
747.895	24515.82
748.234	24497.52
748.573	24391.76
748.911	24418.2
749.25	24348.37
749.589	24292.1
749.928	24251.42
750.267	24243.29
750.605	24286.45
750.944	24090.52
751.283	24128.72
751.621	24133.91
751.96	23796.3
752.298	23948.16
752.636	23949.96
752.975	23909.51
753.313	23683.08
753.651	23862.28
753.989	23702.06
754.327	23714.26
754.666	23520.14
755.004	23739.57
755.342	23549.52
755.679	23506.59
756.017	23365.57
756.355	23387.72
756.693	23296.87
757.031	23334.61
757.368	23164.45
757.706	23245.12
758.044	23089.2
758.381	23089.42
758.719	22974.4
759.056	23063.43
759.394	22912.7
759.731	22853.72
760.068	22779.82
760.405	22656.66
760.743	22666.16
761.08	22639.72
761.417	22481.08
761.754	22398.82
762.091	22323.79
762.428	22358.59
762.765	22164.02
763.102	22250.57
763.438	22126.51
763.775	22068.88
764.112	22069.33
764.449	22105.72
764.785	21910.7
765.122	21724.71
765.458	21687.42
765.795	21682.45
766.131	21755.67
766.467	21609.69
766.804	21468.22
767.14	21333.99
767.476	21369.92
767.812	21268.68
768.148	21334.44
768.485	21256.7
768.821	21072.53
769.157	21009.25
769.492	20955.24
769.828	20968.35
770.164	20709.6
770.5	20797.05
770.836	20760.67
771.171	20563.61
771.507	20468.47
771.842	20463.95
772.178	20409.72
772.513	20324.07
772.849	20276.61
773.184	20105.54
773.519	20169.95
773.855	20102.83
774.19	20059.44
774.525	19894.48
774.86	19883.4
775.195	19851.31
775.53	19808.6
775.865	19657.42
776.2	19404.09
776.535	19389.86
776.87	19349.86
777.205	19409.74
777.539	19251.33
777.874	19241.84
778.209	19032.8
778.543	19039.36
778.878	18998.23
779.212	18936.08
779.547	18810.89
779.881	18818.12
780.215	18623.78
780.55	18766.82
780.884	18547.62
781.218	18459.71
781.552	18493.84
781.886	18355.31
782.22	18341.75
782.554	18216.1
782.888	18058.14
783.222	18007.97
783.556	17894.3
783.889	17914.19
784.223	17777.24
784.557	17764.14
784.89	17792.16
785.224	17701.54
785.557	17633.29
785.891	17561.88
786.224	17481.88
786.558	17574.54
786.891	17406.18
787.224	17296.35
787.557	17273.53
787.891	17245.73
788.224	17219.52
788.557	17188.11
788.89	17067.88
789.223	17022.91
789.556	16925.06
789.888	16870.6
790.221	16904.05
790.554	16650.95
790.887	16784.5
791.219	16652.3
791.552	16513.55
791.884	16625.86
792.217	16402.14
792.549	16410.5
792.882	16302.93
793.214	16225.65
793.546	16275.59
793.879	16239.88
794.211	16053.9
794.543	16116.72
794.875	15937.07
795.207	16075.37
795.539	15964.18
795.871	15954.24
796.203	15732.1
796.535	15756.73
796.867	15705.66
797.198	15738.88
797.53	15678.09
797.862	15493.01
798.193	15537.3
798.525	15519
798.856	15466.12
799.188	15388.83
799.519	15304.99
799.85	15149.74
800.182	15136.41
800.513	15203.3
800.844	15068.62
801.175	15173.02
801.506	15166.92
801.837	15018.45
802.168	14961.73
802.499	14932.57
802.83	14809.19
803.161	14794.5
803.491	14786.14
803.822	14794.5
804.153	14752.92
804.483	14578.46
804.814	14577.55
805.145	14501.4
805.475	14496.2
805.805	14369.65
806.136	14443.55
806.466	14472.02
806.796	14396.54
807.126	14230.45
807.457	14265.02
807.787	14317.22
808.117	14167.85
808.447	14146.83
808.777	14152.93
809.107	14061.41
809.436	14018.25
809.766	13992.94
810.096	13936.67
810.426	13856.67
810.755	13811.47
811.085	13866.39
811.414	13875.2
811.744	13721.76
812.073	13657.8
812.403	13744.36
812.732	13599.05
813.061	13598.15
813.39	13504.59
813.719	13471.82
814.049	13576.68
814.378	13510.24
814.707	13389.34
815.036	13455.55
815.365	13345.27
815.693	13181.66
816.022	13242.67
816.351	13206.07
816.68	13112.96
817.008	13152.96
817.337	13070.25
817.665	13088.1
817.994	13019.86
818.322	13098.05
818.651	13002.45
818.979	12847.66
819.307	12980.08
819.636	12957.94
819.964	12872.06
820.292	12868.22
820.62	12887.43
820.948	12791.16
821.276	12793.87
821.604	12822.8
821.932	12819.63
822.259	12831.16
822.587	12820.31
822.915	12759.52
823.243	12868.67
823.57	12757.94
823.898	12756.13
824.225	12626.19
824.553	12708
824.88	12749.81
825.207	12825.96
825.535	12730.6
825.862	12726.53
826.189	12673.42
826.516	12675.23
826.843	12736.02
827.17	12800.43
827.497	12841.78
827.824	12748.45
828.151	12736.25
828.478	12728.79
828.805	12755.23
829.131	12728.56
829.458	12670.49
829.785	12642.46
830.111	12689.24
830.438	12761.56
830.764	12712.74
831.09	12642.01
831.417	12658.73
831.743	12736.92
832.069	12677.94
832.395	12529.7
832.722	12634.1
833.048	12600.43
833.374	12574.67
833.7	12475.24
834.026	12616.48
834.351	12550.94
834.677	12530.83
835.003	12563.82
835.329	12525.18
835.654	12576.7
835.98	12485.41
836.306	12508.46
836.631	12433.88
836.956	12499.19
837.282	12457.84
837.607	12405.63
837.932	12354.11
838.258	12342.81
838.583	12439.53
838.908	12308.46
839.233	12396.14
839.558	12264.62
839.883	12216.71
840.208	12249.71
840.533	12214
840.858	12266.43
841.182	12199.54
841.507	12217.16
841.832	12085.42
842.156	12105.53
842.481	12124.29
842.805	12046.77
843.13	12022.82
843.454	12065.08
843.778	12004.97
844.103	11909.38
844.427	11880.68
844.751	11936.04
845.075	11897.4
845.399	11839.77
845.723	11709.38
846.047	11763.17
846.371	11689.49
846.695	11680.46
847.019	11572.44
847.343	11542.61
847.666	11471.65
847.99	11396.62
848.313	11426.9
848.637	11358.2
848.96	11317.3
849.284	11294.48
849.607	11235.95
849.931	11196.17
850.254	11077.99
850.577	11087.93
850.9	11022.17
851.223	10951.44
851.546	10925.22
851.869	10816.52
852.192	10920.93
852.515	10785.34
852.838	10725.23
853.161	10786.92
853.483	10702.18
853.806	10618.79
854.129	10547.83
854.451	10628.28
854.774	10612.46
855.096	10534.27
855.419	10445.69
855.741	10449.75
856.063	10452.69
856.385	10395.52
856.708	10331.56
857.03	10258.57
857.352	10264.9
857.674	10263.77
857.996	10210.21
858.318	10134.28
858.64	10178.57
858.961	10148.74
859.283	10116.88
859.605	10068.07
859.926	10061.06
860.248	10043.21
860.57	10044.34
860.891	10012.48
861.212	9970.67
861.534	9941.52
861.855	9943.55
862.176	9890.67
862.498	9930.45
862.819	9873.5
863.14	9835.31
863.461	9820.62
863.782	9817.68
864.103	9709.21
864.424	9708.08
864.745	9779.49
865.065	9764.12
865.386	9666.5
865.707	9700.17
866.027	9688.64
866.348	9655.42
866.668	9660.85
866.989	9671.02
867.309	9504.24
867.63	9551.92
867.95	9564.13
868.27	9513.05
868.59	9554.64
868.91	9501.76
869.23	9501.08
869.55	9489.1
869.87	9507.86
870.19	9442.55
870.51	9463.11
870.83	9439.38
871.15	9379.95
871.469	9411.59
871.789	9440.29
872.109	9391.02
872.428	9321.2
872.748	9380.18
873.067	9283.68
873.386	9335.43
873.706	9345.15
874.025	9271.03
874.344	9301.99
874.663	9250.24
874.982	9204.81
875.301	9226.06
875.62	9169.34
875.939	9163.46
876.258	9180.41
876.577	9161.65
876.896	9129.34
877.214	9136.12
877.533	9163.23
877.852	9088.66
878.17	9101.31
878.489	9057.7
878.807	9114.2
879.125	9042.11
879.444	9063.12
879.762	9049.11
880.08	9039.4
880.398	8925.05
880.716	8897.93
881.034	8908.55
881.352	8894.99
881.67	8950.13
881.988	8933.64
882.306	8952.84
882.624	8802.34
882.941	8785.39
883.259	8721.89
883.577	8804.15
883.894	8752.85
884.212	8671.27
884.529	8737.03
884.846	8675.34
885.164	8689.8
885.481	8659.74
885.798	8621.78
886.115	8605.28
886.432	8617.03
886.75	8617.49
887.067	8579.97
887.383	8518.28
887.7	8498.39
888.017	8543.14
888.334	8459.52
888.651	8466.3
888.967	8387.66
889.284	8409.58
889.6	8396.47
889.917	8347.21
890.233	8335.01
890.55	8270.38
890.866	8316.02
891.182	8218.85
891.498	8231.73
891.815	8231.28
892.131	8116.71
892.447	8132.53
892.763	8172.07
893.079	8151.96
893.395	8154.9
893.71	8027.9
894.026	8017.28
894.342	8056.37
894.657	8001.68
894.973	7953.32
895.289	7938.18
895.604	7925.98
895.92	7821.12
896.235	7844.4
896.55	7821.35
896.865	7813.66
897.181	7726.66
897.496	7755.59
897.811	7704.06
898.126	7640.79
898.441	7660.9
898.756	7636.95
899.071	7622.71
899.386	7616.61
899.7	7569.83
900.015	7590.62
900.33	7470.17
900.644	7487.12
900.959	7455.03
901.273	7424.75
901.588	7408.48
901.902	7373
902.216	7321.93
902.531	7253.23
902.845	7342.72
903.159	7274.92
903.473	7223.85
903.787	7194.92
904.101	7187.69
904.415	7169.61
904.729	7133
905.042	7092.1
905.356	7064.31
905.67	7070.63
905.984	7063.18
906.297	7000.35
906.611	6994.25
906.924	6979.11
907.237	6967.36
907.551	6924.87
907.864	6871.54
908.177	6853.24
908.491	6854.37
908.804	6771.43
909.117	6823.86
909.43	6740.7
909.743	6732.79
910.056	6726.46
910.368	6703.41
910.681	6563.3
910.994	6612.57
911.307	6530.31
911.619	6550.65
911.932	6551.32
912.244	6452.57
912.557	6488.28
912.869	6490.99
913.181	6442.85
913.494	6448.95
913.806	6398.33
914.118	6359.01
914.43	6336.64
914.742	6316.53
915.054	6253.03
915.366	6255.97
915.678	6251.67
915.99	6188.17
916.302	6174.84
916.613	6156.76
916.925	6141.39
917.236	6108.4
917.548	6069.3
917.859	6043.54
918.171	6034.95
918.482	5996.99
918.794	5941.62
919.105	5954.96
919.416	5898.01
919.727	5942.08
920.038	5928.52
920.349	5873.15
920.66	5819.37
920.971	5825.92
921.282	5776.66
921.593	5736.66
921.903	5702.53
922.214	5695.75
922.525	5691.69
922.835	5678.58
923.146	5627.96
923.456	5628.19
923.767	5571.92
924.077	5595.64
924.387	5518.13
924.697	5513.61
925.008	5507.74
925.318	5464.12
925.628	5439.04
925.938	5463.22
926.248	5440.62
926.558	5401.3
926.867	5339.15
927.177	5314.97
927.487	5300.28
927.796	5291.92
928.106	5274.52
928.416	5259.38
928.725	5290.57
929.034	5179.38
929.344	5246.5
929.653	5189.78
929.962	5126.5
930.271	5100.52
930.581	5102.1
930.89	5068.88
931.199	5053.51
931.508	5021.2
931.817	5019.16
932.125	5036.34
932.434	4900.07
932.743	4913.4
933.051	4919.96
933.36	4895.78
933.669	4833.86
933.977	4845.83
934.286	4871.82
934.594	4811.71
934.902	4838.38
935.21	4833.86
935.519	4787.08
935.827	4749.34
936.135	4701.88
936.443	4688.55
936.751	4645.16
937.059	4696.68
937.367	4632.05
937.674	4632.28
937.982	4608.1
938.29	4543.47
938.597	4578.72
938.905	4532.17
939.213	4497.82
939.52	4512.73
939.827	4528.33
940.135	4482.23
940.442	4442.23
940.749	4444.04
941.056	4434.09
941.363	4334.21
941.67	4362.46
941.977	4351.38
942.284	4303.7
942.591	4317.94
942.898	4271.38
943.205	4304.38
943.511	4257.6
943.818	4218.73
944.125	4184.16
944.431	4186.19
944.738	4195.45
945.044	4165.17
945.35	4181.22
945.657	4126.3
945.963	4105.97
946.269	4100.99
946.575	4099.41
946.881	4059.19
947.187	4091.05
947.493	4010.83
947.799	4026.19
948.105	3928.8
948.41	3965.63
948.716	3994.78
949.022	3938.06
949.327	3930.83
949.633	3914.78
949.938	3877.04
950.244	3847.67
950.549	3880.21
950.854	3838.85
951.16	3816.26
951.465	3800.21
951.77	3828.91
952.075	3813.09
952.38	3790.04
952.685	3757.05
952.99	3710.72
953.294	3708.46
953.599	3764.96
953.904	3706.43
954.209	3659.42
954.513	3644.96
954.818	3644.96
955.122	3601.57
955.426	3602.25
955.731	3586.43
956.035	3592.98
956.339	3583.49
956.643	3544.17
956.948	3531.07
957.252	3469.37
957.556	3539.88
957.86	3493.78
958.163	3497.62
958.467	3449.26
958.771	3430.73
959.075	3464.4
959.378	3432.54
959.682	3405.19
959.985	3400.22
960.289	3344.18
960.592	3336.49
960.896	3349.6
961.199	3331.97
961.502	3327.23
961.805	3303.27
962.108	3270.51
962.411	3276.38
962.714	3289.72
963.017	3252.43
963.32	3213.56
963.623	3201.58
963.926	3174.69
964.228	3188.7
964.531	3147.12
964.833	3187.8
965.136	3125.88
965.438	3145.31
965.741	3084.75
966.043	3110.74
966.345	3096.95
966.648	3046.11
966.95	3027.8
967.252	3053.34
967.554	3024.41
967.856	3033.45
968.158	2997.52
968.46	2943.74
968.761	2984.64
969.063	2987.12
969.365	2955.26
969.666	2947.13
969.968	2920.91
970.269	2931.76
970.571	2901.03
970.872	2882.04
971.174	2843.85
971.475	2899.22
971.776	2869.84
972.077	2884.3
972.378	2822.38
972.679	2806.79
972.98	2841.37
973.281	2789.62
973.582	2803.17
973.883	2778.77
974.183	2760.46
974.484	2723.18
974.785	2737.19
975.085	2753.46
975.386	2750.97
975.686	2719.79
975.986	2677.08
976.287	2686.34
976.587	2679.34
976.887	2629.39
977.187	2650.64
977.487	2639.79
977.787	2621.03
978.087	2595.95
978.387	2614.03
978.687	2596.63
978.987	2570.19
979.286	2587.14
979.586	2591.43
979.885	2543.29
980.185	2520.47
980.484	2509.4
980.784	2509.85
981.083	2509.62
981.382	2480.25
981.682	2502.17
981.981	2475.5
982.28	2475.95
982.579	2441.83
982.878	2432.34
983.177	2409.51
983.475	2441.15
983.774	2380.81
984.073	2386.01
984.372	2375.62
984.67	2367.25
984.969	2379.91
985.267	2386.69
985.566	2324.77
985.864	2337.65
986.162	2329.06
986.461	2326.8
986.759	2325.45
987.057	2287.93
987.355	2278.67
987.653	2264.66
987.951	2276.18
988.249	2258.33
988.547	2259.91
988.844	2271.21
989.142	2221.95
989.44	2241.83
989.737	2199.12
990.035	2215.17
990.332	2190.54
990.63	2202.74
990.927	2176.98
991.224	2138.56
991.521	2171.78
991.819	2145.57
992.116	2113.7
992.413	2118.9
992.71	2127.03
993.006	2099.46
993.303	2087.94
993.6	2084.78
993.897	2093.59
994.193	2063.76
994.49	2030.54
994.787	2030.54
995.083	2018.56
995.379	2011.11
995.676	1985.57
995.972	2008.85
996.268	1974.27
996.565	1998.45
996.861	1990.09
997.157	1972.24
997.453	1976.98
997.749	1922.97
998.044	1941.28
998.34	1928.62
998.636	1929.75
998.932	1915.29
999.227	1882.3
999.523	1895.63
999.818	1864.44
1000.114	1882.97
1000.409	1870.09
1000.704	1838.23
1001	1848.4
1001.295	1856.31
1001.59	1825.8
1001.885	1847.04
1002.18	1799.36
1002.475	1797.1
1002.77	1794.39
1003.065	1773.6
1003.359	1772.24
1003.654	1766.82
1003.949	1756.87
1004.243	1773.6
1004.538	1736.99
1004.832	1748.06
1005.127	1710.55
1005.421	1688.18
1005.715	1713.03
1006.009	1695.41
1006.304	1656.99
1006.598	1675.97
1006.892	1647.05
1007.186	1632.81
1007.48	1653.83
1007.773	1650.66
1008.067	1607.73
1008.361	1579.93
1008.655	1609.31
1008.948	1613.15
1009.242	1591.91
1009.535	1574.51
1009.829	1599.82
1010.122	1566.82
1010.415	1541.97
1010.708	1543.77
1011.001	1541.97
1011.295	1554.85
1011.588	1505.13
1011.881	1492.7
1012.173	1509.2
1012.466	1487.05
1012.759	1487.73
1013.052	1472.81
1013.344	1478.24
1013.637	1460.39
1013.93	1451.12
1014.222	1449.76
1014.514	1431.46
1014.807	1436.88
1015.099	1444.57
1015.391	1394.62
1015.683	1405.7
1015.976	1406.83
1016.268	1378.13
1016.56	1374.96
1016.851	1343.55
1017.143	1366.6
1017.435	1367.96
1017.727	1330.22
1018.018	1337.9
1018.31	1330.45
1018.602	1327.28
1018.893	1322.31
1019.185	1292.48
1019.476	1314.4
1019.767	1300.39
1020.058	1307.17
1020.35	1294.74
1020.641	1287.51
1020.932	1266.72
1021.223	1248.41
1021.514	1267.85
1021.804	1232.14
1022.095	1212.93
1022.386	1223.1
1022.677	1208.19
1022.967	1212.48
1023.258	1197.12
1023.548	1201.86
1023.839	1202.31
1024.129	1194.18
1024.419	1174.29
1024.709	1159.6
1025	1144.91
1025.29	1138.59
1025.58	1152.82
1025.87	1138.59
1026.16	1122.77
1026.449	1116.44
1026.739	1101.52
1027.029	1125.03
1027.319	1089.32
1027.608	1125.48
1027.898	1080.28
1028.187	1080.73
1028.477	1086.61
1028.766	1068.31
1029.055	1053.84
1029.344	1066.5
1029.634	1040.51
1029.923	1022.66
1030.212	1035.09
1030.501	1018.36
1030.79	1014.07
1031.078	1010.68
1031.367	1017.69
1031.656	1010.91
1031.945	989.66
1032.233	995.09
1032.522	989.66
1032.81	1000.74
1033.099	991.02
1033.387	943.56
1033.675	945.37
1033.963	958.03
1034.251	984.24
1034.54	947.63
1034.828	934.52
1035.116	931.13
1035.403	946.95
1035.691	928.87
1035.979	941.08
1036.267	912.38
1036.554	876.9
1036.842	884.36
1037.129	889.33
1037.417	892.04
1037.704	872.38
1037.992	883.9
1038.279	882.32
1038.566	880.29
1038.853	880.29
1039.14	880.29
