Data from hue_40_FLMS001491_41.txt Node
Date: Mon Feb 06 15:07:56 GMT 2017
User: dcchb
Spectrometer: FLMS00149
Trigger mode: 0
Integration Time (sec): 2.000000E-2
Scans to average: 10
Electric dark correction enabled: true
Nonlinearity correction enabled: false
Boxcar width: 0
XAxis mode: Wavelengths
Number of Pixels in Spectrum: 2048
>>>>>Begin Spectral Data<<<<<
341.393	-24.26
341.776	-24.26
342.16	-24.26
342.543	-54.77
342.927	-84.83
343.31	-60.42
343.693	-62.91
344.077	-64.04
344.46	-58.16
344.843	-62.46
345.226	-40.54
345.61	-15.23
345.993	-39.63
346.376	0.59
346.759	-7.99
347.142	22.51
347.525	45.11
347.908	61.83
348.291	90.53
348.674	88.95
349.057	101.83
349.44	133.25
349.823	145.9
350.206	169.85
350.588	186.35
350.971	205.11
351.354	232
351.737	244.2
352.119	270.42
352.502	276.74
352.884	272.22
353.267	286.24
353.65	275.84
354.032	297.08
354.414	311.32
354.797	307.48
355.179	333.69
355.562	330.3
355.944	333.92
356.326	334.37
356.709	334.37
357.091	322.39
357.473	333.01
357.855	342.96
358.238	370.75
358.62	351.54
359.002	361.04
359.384	332.34
359.766	337.53
360.148	340.47
360.53	344.31
360.912	327.36
361.294	354.48
361.676	369.4
362.057	341.83
362.439	332.34
362.821	330.75
363.203	343.18
363.584	343.64
363.966	338.66
364.348	338.44
364.729	314.48
365.111	333.24
365.493	335.27
365.874	317.87
366.256	326.46
366.637	317.87
367.019	331.43
367.4	335.5
367.781	340.47
368.163	330.98
368.544	321.26
368.925	325.78
369.306	314.48
369.688	310.19
370.069	320.81
370.45	335.5
370.831	340.92
371.212	330.75
371.593	326.46
371.974	307.93
372.355	334.82
372.736	325.78
373.117	319.91
373.498	319.68
373.879	316.52
374.26	335.27
374.641	306.57
375.021	312.68
375.402	332.79
375.783	307.93
376.163	318.32
376.544	317.42
376.925	323.97
377.305	339.79
377.686	355.61
378.066	328.04
378.447	348.15
378.827	341.6
379.208	325.56
379.588	352.67
379.968	340.02
380.349	331.43
380.729	339.12
381.109	355.61
381.489	341.15
381.87	354.26
382.25	336.63
382.63	344.99
383.01	319.23
383.39	344.76
383.77	346.12
384.15	347.25
384.53	357.87
384.91	344.09
385.29	348.83
385.67	353.35
386.049	350.19
386.429	335.95
386.809	348.83
387.189	354.48
387.568	363.75
387.948	354.03
388.328	367.82
388.707	362.17
389.087	355.39
389.466	358.78
389.846	364.2
390.225	369.17
390.605	369.4
390.984	354.26
391.363	370.53
391.743	375.27
392.122	351.54
392.501	388.83
392.881	357.65
393.26	370.08
393.639	363.3
394.018	365.33
394.397	368.72
394.776	377.31
395.155	385.67
395.534	389.06
395.913	370.08
396.292	392.67
396.671	409.4
397.05	393.58
397.429	383.86
397.808	384.31
398.186	382.28
398.565	383.18
398.944	375.05
399.323	398.77
399.701	398.32
400.08	410.98
400.458	384.76
400.837	392.22
401.215	381.15
401.594	389.28
401.972	398.55
402.351	404.2
402.729	408.72
403.107	403.75
403.486	397.87
403.864	419.57
404.242	427.25
404.62	392.67
404.999	405.55
405.377	423.18
405.755	431.09
406.133	420.7
406.511	415.95
406.889	424.31
407.267	423.41
407.645	436.06
408.023	429.28
408.401	429.28
408.779	432.22
409.156	441.03
409.534	427.25
409.912	450.75
410.29	472.45
410.667	418.66
411.045	444.42
411.422	434.25
411.8	455.72
412.178	468.83
412.555	463.41
412.933	474.48
413.31	443.07
413.687	465.21
414.065	477.87
414.442	474.48
414.819	472.45
415.197	497.76
415.574	514.03
415.951	483.97
416.328	494.59
416.705	475.61
417.082	494.37
417.46	506.34
417.837	498.43
418.214	491.43
418.591	509.73
418.967	519.45
419.344	496.85
419.721	503.4
420.098	526.23
420.475	506.79
420.852	517.87
421.228	512.44
421.605	551.54
421.982	520.81
422.358	537.3
422.735	531.88
423.111	529.39
423.488	536.17
423.864	544.53
424.241	547.25
424.617	549.28
424.994	569.17
425.37	568.71
425.746	555.61
426.123	556.28
426.499	555.38
426.875	576.62
427.251	585.66
427.627	589.05
428.003	570.52
428.379	565.55
428.756	593.12
429.132	599.9
429.507	584.31
429.883	617.07
430.259	593.35
430.635	627.47
431.011	603.74
431.387	644.64
431.763	631.76
432.138	616.62
432.514	627.7
432.89	645.1
433.265	657.53
433.641	644.42
434.016	688.03
434.392	686
434.767	681.48
435.143	644.42
435.518	657.3
435.894	696.85
436.269	705.89
436.644	689.61
437.02	711.08
437.395	683.51
437.77	698.65
438.145	700.24
438.52	708.15
438.895	716.28
439.271	716.73
439.646	728.94
440.021	723.51
440.395	740.23
440.77	730.29
441.145	749.73
441.52	763.74
441.895	759.9
442.27	746.34
442.645	758.54
443.019	766.67
443.394	763.74
443.769	783.17
444.143	744.98
444.518	755.38
444.892	780.01
445.267	788.6
445.641	787.69
446.016	806.9
446.39	815.04
446.764	816.62
447.139	799.22
447.513	794.02
447.887	820.01
448.262	839.44
448.636	812.32
449.01	817.75
449.384	862.04
449.758	833.57
450.132	878.54
450.506	845.99
450.88	851.87
451.254	871.53
451.628	891.64
452.002	874.02
452.376	887.8
452.75	881.25
453.123	897.29
453.497	913.79
453.871	896.16
454.244	931.42
454.618	943.62
454.992	945.65
455.365	919.89
455.739	942.72
456.112	959.89
456.486	988.59
456.859	974.35
457.232	992.66
457.606	1000.79
457.979	1010.28
458.352	1020.45
458.725	1048.93
459.099	1040.34
459.472	1068.36
459.845	1059.1
460.218	1069.94
460.591	1089.83
460.964	1079.89
461.337	1113.56
461.71	1107.23
462.083	1140
462.456	1121.24
462.829	1129.6
463.201	1159.21
463.574	1163.27
463.947	1199.66
464.32	1203.5
464.692	1218.19
465.065	1227.68
465.438	1243.27
465.81	1274.23
466.183	1285.76
466.555	1289.82
466.928	1330.95
467.3	1302.03
467.672	1361.01
468.045	1349.94
468.417	1370.73
468.789	1392.42
469.161	1391.29
469.534	1463.38
469.906	1487.33
470.278	1476.71
470.65	1505.64
471.022	1557.39
471.394	1563.26
471.766	1562.59
472.138	1596.48
472.51	1646.65
472.882	1678.52
473.253	1709.93
473.625	1737.95
473.997	1788.12
474.369	1816.36
474.74	1823.37
475.112	1866.98
475.484	1913.76
475.855	1957.38
476.227	1982.01
476.598	2010.94
476.97	2077.15
477.341	2122.8
477.713	2169.58
478.084	2241.89
478.455	2296.13
478.827	2338.38
479.198	2390.59
479.569	2449.12
479.94	2549.68
480.311	2561.2
480.682	2654.31
481.053	2736.11
481.424	2805.04
481.795	2881.42
482.166	2932.72
482.537	2957.58
482.908	3110.12
483.279	3189.89
483.65	3240.06
484.021	3362.09
484.391	3406.83
484.762	3490.67
485.133	3575.19
485.503	3608.41
485.874	3725.24
486.244	3842.53
486.615	3961.84
486.985	4041.39
487.356	4169.52
487.726	4276.41
488.097	4367.71
488.467	4404.32
488.837	4565.44
489.207	4651.54
489.578	4748.72
489.948	4874.82
490.318	4946
490.688	5077.3
491.058	5202.72
491.428	5328.36
491.798	5406.1
492.168	5597.06
492.538	5595.02
492.908	5757.05
493.278	5838.86
493.648	5934
494.017	6045.18
494.387	6222.58
494.757	6252.63
495.126	6396.58
495.496	6453.53
495.866	6532.85
496.235	6697.37
496.605	6780.3
496.974	6856.68
497.344	6939.17
497.713	7053.52
498.082	7125.15
498.452	7256.22
498.821	7355.43
499.19	7478.59
499.559	7558.81
499.928	7660.28
500.298	7746.15
500.667	7903.21
501.036	7921.06
501.405	8011.23
501.774	8088.06
502.143	8261.84
502.512	8212.35
502.88	8392.69
503.249	8434.5
503.618	8551.78
503.987	8590.65
504.356	8726.92
504.724	8738.89
505.093	8814.15
505.462	8930.98
505.83	8923.52
506.199	9118.09
506.567	9179.33
506.936	9269.5
507.304	9400.12
507.672	9511.98
508.041	9486.67
508.409	9601.7
508.777	9796.49
509.145	9793.78
509.514	9827.45
509.882	9889.6
510.25	10035.13
510.618	10000.78
510.986	10097.5
511.354	10258.85
511.722	10273.32
512.09	10417.49
512.458	10365.52
512.826	10582.01
513.193	10568.22
513.561	10701.1
513.929	10766.19
514.297	10873.3
514.664	10884.6
515.032	10984.03
515.4	11017.25
515.767	11048.89
516.135	11163.01
516.502	11145.16
516.869	11337.02
517.237	11416.56
517.604	11355.55
517.972	11563.23
518.339	11635.54
518.706	11637.58
519.073	11712.38
519.44	11794.63
519.808	12010.22
520.175	11885.93
520.542	12111.46
520.909	12129.99
521.276	12124.34
521.643	12287.05
522.009	12291.57
522.376	12398.46
522.743	12429.19
523.11	12580.6
523.477	12715.06
523.843	12724.55
524.21	12849.97
524.577	13036.63
524.943	13009.29
525.31	13084.99
525.676	13252.45
526.043	13318.89
526.409	13338.77
526.776	13471.88
527.142	13491.31
527.508	13661.25
527.874	13814.24
528.241	13864.18
528.607	13847.01
528.973	13994.35
529.339	13968.81
529.705	14066.89
530.071	14237.73
530.437	14221.46
530.803	14327.22
531.169	14455.58
531.535	14383.72
531.901	14437.5
532.267	14565.63
532.632	14623.26
532.998	14760.88
533.364	14854.89
533.73	14898.51
534.095	14886.53
534.461	14991.16
534.826	15073.42
535.192	15122.23
535.557	15274.54
535.923	15298.95
536.288	15320.42
536.653	15351.15
537.019	15379.85
537.384	15457.59
537.749	15586.85
538.114	15717.47
538.479	15632.72
538.845	15792.72
539.21	15788.2
539.575	15891.7
539.94	15865.94
540.305	16001.3
540.67	16018.7
541.034	16090.79
541.399	16173.73
541.764	16198.13
542.129	16185.48
542.494	16263.89
542.858	16348.19
543.223	16297.79
543.587	16518.12
543.952	16410.11
544.316	16659.36
544.681	16513.83
545.045	16770.32
545.41	16828.4
545.774	16874.5
546.138	16886.02
546.503	16983.42
546.867	16944.55
547.231	17105.45
547.595	17142.74
547.959	17190.2
548.324	17147.49
548.688	17229.52
549.052	17346.35
549.416	17328.27
549.779	17401.27
550.143	17547.93
550.507	17672.22
550.871	17640.81
551.235	17557.42
551.599	17843.97
551.962	17916.05
552.326	17880.35
552.689	17976.84
553.053	17975.71
553.417	17962.61
553.78	18270.4
554.143	18060.68
554.507	18206.67
554.87	18298.87
555.234	18554
555.597	18412.54
555.96	18497.51
556.323	18603.95
556.686	18591.74
557.05	18666.09
557.413	18707.9
557.776	18800.1
558.139	18950.15
558.502	18990.83
558.865	19017.95
559.228	19164.38
559.59	19232.18
559.953	19251.16
560.316	19506.75
560.679	19526.86
561.041	19564.37
561.404	19586.52
561.767	19754.42
562.129	19679.17
562.492	19892.95
562.854	19807.53
563.217	19887.75
563.579	19968.66
563.941	20100.63
564.304	20166.62
564.666	20258.37
565.028	20247.74
565.39	20372.49
565.753	20522.99
566.115	20549.43
566.477	20618.36
566.839	20619.26
567.201	20778.35
567.563	20847.95
567.925	20932.47
568.287	20981.96
568.648	21040.04
569.01	21230.77
569.372	21299.69
569.734	21297.43
570.095	21496.07
570.457	21393.48
570.819	21582.62
571.18	21499.01
571.542	21732.23
571.903	21829.4
572.265	21915.05
572.626	22020.35
572.987	22110.52
573.349	22123.63
573.71	22244.75
574.071	22409.72
574.432	22454.69
574.794	22525.65
575.155	22579.21
575.516	22701.47
575.877	22751.63
576.238	22855.36
576.599	23030.5
576.96	23065.75
577.32	23125.86
577.681	23348
578.042	23492.86
578.403	23595.23
578.763	23686.3
579.124	23773.75
579.485	24033.63
579.845	24087.19
580.206	24143.01
580.566	24445.83
580.927	24435.66
581.287	24736.44
581.648	24673.62
582.008	24977.11
582.368	25018.47
582.728	25166.26
583.089	25329.64
583.449	25413.26
583.809	25635.63
584.169	25919.91
584.529	25946.13
584.889	26407.58
585.249	26332.33
585.609	26306.12
585.969	26800.34
586.329	26809.15
586.688	27127.34
587.048	27192.42
587.408	27285.3
587.768	27521.68
588.127	27698.85
588.487	27872.85
588.846	28116.01
589.206	28246.63
589.565	28409.34
589.925	28759.61
590.284	28789.44
590.643	29007.29
591.003	29356.66
591.362	29576.09
591.721	29708.06
592.08	29940.6
592.44	30165.68
592.799	30333.35
593.158	30428.95
593.517	30616.06
593.876	30912.77
594.235	30930.85
594.593	31213.78
594.952	31372.65
595.311	31492.42
595.67	31736.48
596.029	32059.64
596.387	32335.11
596.746	32428.22
597.104	32454.88
597.463	32663.69
597.822	32904.59
598.18	32933.51
598.538	33249.89
598.897	33416.66
599.255	33433.16
599.613	33987.72
599.972	33959.47
600.33	34175.74
600.688	34113.37
601.046	34480.36
601.404	34677.87
601.762	34683.07
602.12	35062.04
602.478	35163.28
602.836	35251.42
603.194	35170.97
603.552	35454.8
603.91	35488.93
604.268	35950.16
604.625	35901.8
604.983	35977.27
605.341	36081.9
605.698	36400.54
606.056	36509.92
606.413	36570.93
606.771	36774.77
607.128	36885.73
607.485	36905.16
607.843	37033.29
608.2	37324.36
608.557	37511.92
608.914	37430.8
609.272	37693.16
609.629	37986.26
609.986	38152.36
610.343	37984.23
610.7	38303.54
611.057	38321.39
611.414	38474.16
611.771	38614.04
612.127	38795.51
612.484	38789.63
612.841	39020.36
613.198	38889.29
613.554	38964.77
613.911	39284.76
614.267	39343.29
614.624	39280.46
614.98	39352.55
615.337	39651.75
615.693	39589.16
616.05	39644.07
616.406	39881.35
616.762	39841.13
617.118	39892.43
617.475	39909.83
617.831	40233.43
618.187	40218.29
618.543	40315.01
618.899	40683.82
619.255	40468.68
619.611	40549.13
619.967	40909.35
620.323	40859.18
620.678	40724.49
621.034	40681.33
621.39	40685.4
621.746	40764.27
622.101	41314.08
622.457	40942.12
622.812	41171.04
623.168	41230.02
623.523	41342.33
623.879	41448.99
624.234	41109.57
624.589	41501.2
624.945	41446.96
625.3	41570.12
625.655	41497.36
626.01	41587.75
626.365	41667.52
626.72	41650.8
627.075	41550.24
627.43	41603.12
627.785	41658.71
628.14	41699.38
628.495	41708.42
628.85	41489.9
629.205	41618.71
629.559	41781.64
629.914	41812.83
630.269	41845.37
630.623	41698.93
630.978	41728.31
631.332	42020.96
631.687	41899.6
632.041	41738.03
632.396	41793.62
632.75	41693.73
633.104	41790.68
633.459	41588.88
633.813	41754.3
634.167	41598.37
634.521	41594.75
634.875	41771.7
635.229	41622.32
635.583	41468.2
635.937	41516.79
636.291	41371.71
636.645	41560.4
636.999	41544.59
637.352	41580.97
637.706	41414.87
638.06	41582.1
638.413	41419.17
638.767	41347.75
639.121	41495.32
639.474	41156.57
639.828	41314.99
640.181	41152.96
640.534	41388.21
640.888	41269.34
641.241	41113.18
641.594	41189.57
641.947	41271.6
642.301	41184.6
642.654	41232.73
643.007	41213.97
643.36	41174.2
643.713	41034.99
644.066	41266.63
644.419	41045.84
644.771	40868.45
645.124	40390.94
645.477	40287.44
645.83	40168.12
646.182	39976.94
646.535	40043.61
646.888	39991.41
647.24	39693.11
647.593	40002.48
647.945	39932.88
648.298	39711.87
648.65	39747.34
649.002	39626.67
649.355	39683.84
649.707	39698.08
650.059	39795.25
650.411	40237.5
650.763	40237.05
651.115	40682.91
651.467	40477.95
651.819	40596.81
652.171	40261.23
652.523	40287.22
652.875	40324.73
653.227	39997.73
653.578	40566.08
653.93	40390.04
654.282	40216.26
654.633	40235.02
654.985	40101.23
655.337	40217.84
655.688	40174.68
656.039	40278.63
656.391	40110.95
656.742	40051.74
657.094	40127.9
657.445	40165.41
657.796	40044.29
658.147	39995.02
658.498	40053.1
658.849	40030.28
659.2	39960.22
659.551	40035.25
659.902	40138.29
660.253	40016.26
660.604	40172.64
660.955	39857.62
661.306	40149.59
661.656	40008.35
662.007	40115.02
662.358	39896.72
662.708	39965.19
663.059	39865.99
663.409	39751.19
663.76	39916.61
664.11	39825.76
664.461	40005.42
664.811	39941.01
665.161	39873.67
665.511	39873.22
665.862	39910.96
666.212	40003.38
666.562	39967.9
666.912	39926.32
667.262	39777.85
667.612	39810.17
667.962	39802.94
668.312	39846.33
668.662	39993.67
669.011	39800.68
669.361	39768.36
669.711	39693.33
670.06	39658.08
670.41	39600.23
670.76	39448.14
671.109	39682.71
671.459	39567.24
671.808	39487.92
672.157	39682.49
672.507	39387.58
672.856	39452.21
673.205	39417.64
673.554	39605.65
673.904	39265.55
674.253	39640.91
674.602	39514.13
674.951	38894.94
675.3	38735.85
675.649	39377.18
675.998	39234.59
676.346	39198.21
676.695	39409.73
677.044	39189.39
677.393	39326.79
677.741	39237.3
678.09	39205.89
678.438	39094.93
678.787	39291.09
679.135	39176.96
679.484	38979.46
679.832	39157.76
680.181	38980.13
680.529	38932
680.877	39009.29
681.225	38854.49
681.573	39088.38
681.922	38885.45
682.27	38679.12
682.618	38739.91
682.966	38603.19
683.314	38770.65
683.661	38463.08
684.009	38450.2
684.357	38303.31
684.705	38354.39
685.053	38337.89
685.4	38252.92
685.748	38030.1
686.095	38019.03
686.443	37971.57
686.79	37990.55
687.138	38011.57
687.485	37934.96
687.832	37903.55
688.18	37899.71
688.527	37690.68
688.874	37590.57
689.221	37673.27
689.568	37551.24
689.915	37491.58
690.262	37322.55
690.609	37201.65
690.956	37032.16
691.303	37057.92
691.65	36883.47
691.997	36962.79
692.344	36809.34
692.69	36834.65
693.037	36743.81
693.383	36469.92
693.73	36487.09
694.077	36281.45
694.423	36389.47
694.769	36114.67
695.116	36147.89
695.462	36130.94
695.808	35891.85
696.155	36050.04
696.501	35809.6
696.847	35757.39
697.193	35586.78
697.539	35669.71
697.885	35395.37
698.231	35339.55
698.577	35333.22
698.923	35305.2
699.269	35118.31
699.614	34914.7
699.96	34856.17
700.306	35037.41
700.651	34735.27
700.997	34750.87
701.342	34722.84
701.688	34578.22
702.033	34512.23
702.379	34406.92
702.724	34338
703.069	34354.04
703.415	33925.58
703.76	33980.94
704.105	33950.89
704.45	33858.46
704.795	33642.65
705.14	33615.3
705.485	33650.33
705.83	33404.91
706.175	33523.1
706.52	33392.94
706.865	33331.02
707.209	33145.48
707.554	33188.65
707.899	33106.16
708.243	33028.88
708.588	32933.51
708.932	32735.1
709.277	32808.54
709.621	32783.01
709.966	32541.66
710.31	32711.37
710.654	32248.33
710.998	32435.45
711.342	32495.11
711.687	32409.68
712.031	32127.88
712.375	32108.45
712.719	32212.4
713.063	32061.9
713.407	32116.36
713.75	31927.89
714.094	31835.01
714.438	31762.7
714.782	31803.37
715.125	31635.47
715.469	31608.12
715.812	31480.9
716.156	31336.94
716.499	31320.45
716.843	31410.61
717.186	31360.22
717.53	31350.73
717.873	31382.82
718.216	31160.45
718.559	31135.14
718.902	30961.81
719.246	31033.45
719.589	30856.96
719.932	30848.37
720.275	30801.82
720.617	30684.53
720.96	30691.09
721.303	30652.22
721.646	30622.61
721.989	30415.84
722.331	30562.73
722.674	30389.17
723.016	30480.24
723.359	30364.31
723.701	30418.1
724.044	30145.56
724.386	30066.92
724.729	30238.67
725.071	29952.8
725.413	30066.02
725.755	30115.96
726.097	29934.27
726.439	29779.02
726.782	29725.91
727.124	29874.38
727.465	29791.45
727.807	29799.36
728.149	29743.31
728.491	29622.87
728.833	29721.39
729.175	29574.05
729.516	29518.91
729.858	29405.02
730.199	29478.46
730.541	29433.27
730.882	29362.98
731.224	29394.17
731.565	29217.23
731.906	29165.02
732.248	29147.4
732.589	29090.22
732.93	28968.87
733.271	28976.78
733.612	28973.39
733.953	28925.93
734.294	28841.42
734.635	28878.7
734.976	28820.85
735.317	28627.41
735.658	28649.78
735.999	28615.43
736.339	28602.1
736.68	28606.17
737.021	28420.18
737.361	28388.55
737.702	28530.69
738.042	28301.54
738.383	28486.62
738.723	28500.86
739.063	28272.39
739.404	28279.62
739.744	28232.62
740.084	28200.98
740.424	28175.22
740.764	28057.93
741.104	28203.92
741.444	27920.76
741.784	27872.18
742.124	27869.01
742.464	27912.85
742.804	27974.77
743.143	27770.03
743.483	27793.99
743.823	27641.45
744.162	27729.36
744.502	27564.61
744.841	27463.15
745.181	27649.13
745.52	27536.37
745.86	27519.87
746.199	27507.21
746.538	27405.3
746.877	27526.65
747.216	27425.63
747.556	27279.42
747.895	27309.71
748.234	27215.47
748.573	27175.25
748.911	27135.7
749.25	27149.26
749.589	26972.54
749.928	26949.26
750.267	26966.21
750.605	26825.2
750.944	26889.83
751.283	26735.03
751.621	26805.76
751.96	26637.41
752.298	26478.77
752.636	26653.23
752.975	26561.02
753.313	26484.64
753.651	26534.58
753.989	26284.65
754.327	26253.46
754.666	26079.68
755.004	26224.31
755.342	26276.96
755.679	26094.82
756.017	26081.04
756.355	26040.13
756.693	25826.58
757.031	25952.23
757.368	25751.1
757.706	25776.64
758.044	25586.36
758.381	25701.84
758.719	25515.18
759.056	25601.28
759.394	25486.25
759.731	25368.97
760.068	25394.95
760.405	25283.09
760.743	25125.36
761.08	25175.3
761.417	25132.36
761.754	25045.58
762.091	24907.73
762.428	24939.82
762.765	24781.86
763.102	24830.45
763.438	24622.77
763.775	24478.59
764.112	24447.18
764.449	24569.89
764.785	24426.84
765.122	24243.8
765.458	24256.9
765.795	24104.37
766.131	24153.86
766.467	24073.63
766.804	23899.17
767.14	23665.28
767.476	23830.25
767.812	23672.06
768.148	23684.04
768.485	23564.27
768.821	23453.76
769.157	23396.81
769.492	23267.33
769.828	23303.48
770.164	22960.22
770.5	23039.99
770.836	22979.2
771.171	23011.51
771.507	22753.89
771.842	22753.44
772.178	22687.68
772.513	22560.45
772.849	22551.64
773.184	22468.48
773.519	22406.78
773.855	22352.77
774.19	22320.91
774.525	22062.84
774.86	22195.49
775.195	22071.65
775.53	21994.82
775.865	21862.84
776.2	21661.94
776.535	21569.97
776.87	21648.39
777.205	21514.38
777.539	21348.28
777.874	21411.56
778.209	21227.83
778.543	21208.4
778.878	21102.86
779.212	21054.73
779.547	20955.3
779.881	21046.82
780.215	20783.1
780.55	20839.82
780.884	20605.25
781.218	20598.02
781.552	20661.97
781.886	20523.44
782.22	20468.76
782.554	20334.75
782.888	20186.5
783.222	20140.63
783.556	19959.16
783.889	19963.91
784.223	19881.88
784.557	19751.71
784.89	19835.78
785.224	19732.5
785.557	19652.05
785.891	19591.72
786.224	19448.67
786.558	19419.29
786.891	19272.85
787.224	19194.66
787.557	19166.19
787.891	19249.13
788.224	19192.4
788.557	19121.22
788.89	19076.02
789.223	18935.69
789.556	18880.1
789.888	18760.33
790.221	18716.26
790.554	18576.38
790.887	18567.34
791.219	18496.15
791.552	18619.99
791.884	18409.6
792.217	18417.96
792.549	18282.82
792.882	18176.61
793.214	18129.38
793.546	18158.31
793.879	17929.61
794.211	17925.77
794.543	17989.27
794.875	17869.05
795.207	17861.14
795.539	17799.9
795.871	17773.46
796.203	17596.06
796.535	17538.21
796.867	17529.4
797.198	17413.69
797.53	17430.42
797.862	17239.91
798.193	17289.18
798.525	17316.3
798.856	17229.74
799.188	17007.15
799.519	17029.75
799.85	16841.73
800.182	16931.9
800.513	16930.54
800.844	16645.81
801.175	16831.56
801.506	16738.91
801.837	16737.33
802.168	16654.17
802.499	16627.05
802.83	16456.21
803.161	16476.77
803.491	16453.72
803.822	16424.12
804.153	16366.26
804.483	16239.49
804.814	16136.44
805.145	16149.1
805.475	16060.96
805.805	16046.05
806.136	16097.12
806.466	15949.55
806.796	15964.92
807.126	15849.44
807.457	15798.37
807.787	15791.59
808.117	15740.52
808.447	15694.64
808.777	15719.95
809.107	15573.29
809.436	15596.79
809.766	15625.27
810.096	15489
810.426	15467.08
810.755	15401.54
811.085	15371.94
811.414	15371.71
811.744	15318.61
812.073	15180.99
812.403	15248.33
812.732	15115.22
813.061	15170.36
813.39	15007.66
813.719	15004.27
814.049	15079.74
814.378	15000.42
814.707	14939.64
815.036	14859.19
815.365	14853.08
815.693	14705.07
816.022	14659.87
816.351	14684.5
816.68	14592.07
817.008	14598.85
817.337	14452.87
817.665	14508.23
817.994	14498.74
818.322	14477.5
818.651	14383.04
818.979	14423.49
819.307	14417.62
819.636	14353.66
819.964	14270.95
820.292	14296.94
820.62	14225.98
820.948	14192.99
821.276	14358.86
821.604	14276.83
821.932	14237.06
822.259	14289.93
822.587	14208.13
822.915	14164.29
823.243	14181.46
823.57	14094.23
823.898	14167.9
824.225	14143.5
824.553	14130.62
824.88	14131.97
825.207	14171.75
825.535	14190.73
825.862	14243.38
826.189	14136.04
826.516	14196.15
826.843	14236.15
827.17	14186.21
827.497	14251.07
827.824	14165.42
828.151	14206.55
828.478	14186.43
828.805	14249.48
829.131	14150.5
829.458	14182.59
829.785	14048.13
830.111	14097.85
830.438	14175.59
830.764	14131.3
831.09	14150.28
831.417	14133.55
831.743	14103.5
832.069	14135.14
832.395	13987.34
832.722	14086.1
833.048	14112.09
833.374	14050.85
833.7	13903.96
834.026	14026.44
834.351	14026.44
834.677	13901.47
835.003	13943.96
835.329	13948.7
835.654	13917.06
835.98	13866.9
836.306	13901.7
836.631	13922.26
836.956	13867.12
837.282	13851.3
837.607	13717.52
837.932	13733.57
838.258	13806.78
838.583	13734.02
838.908	13669.61
839.233	13687.69
839.558	13661.02
839.883	13578.32
840.208	13572.67
840.533	13527.24
840.858	13618.31
841.182	13571.54
841.507	13563.17
841.832	13482.95
842.156	13379.9
842.481	13344.42
842.805	13421.94
843.13	13348.26
843.454	13324.99
843.778	13293.13
844.103	13313.46
844.427	13305.78
844.751	13303.29
845.075	13208.16
845.399	13138.1
845.723	13065.79
846.047	13081.61
846.371	13014.26
846.695	12910.76
847.019	12929.97
847.343	12837.09
847.666	12805.68
847.99	12720.94
848.313	12720.03
848.637	12678
848.96	12658.11
849.284	12591.45
849.607	12524.11
849.931	12477.55
850.254	12356.43
850.577	12292.25
850.9	12243.89
851.223	12150.33
851.546	12155.53
851.869	12081.86
852.192	12172.48
852.515	11970.45
852.838	11985.59
853.161	11966.83
853.483	11828.53
853.806	11864.24
854.129	11835.54
854.451	11729.1
854.774	11751.92
855.096	11661.08
855.419	11683.45
855.741	11631.7
856.063	11542.44
856.385	11543.11
856.708	11514.19
857.03	11393.97
857.352	11460.18
857.674	11403.68
857.996	11411.82
858.318	11349.45
858.64	11312.16
858.961	11274.65
859.283	11198.49
859.605	11207.76
859.926	11192.62
860.248	11172.73
860.57	11124.37
860.891	11185.61
861.212	11009.34
861.534	10951.27
861.855	11008.89
862.176	11035.33
862.498	10999.17
862.819	11035.33
863.14	10929.35
863.461	10872.4
863.782	10858.16
864.103	10889.57
864.424	10851.16
864.745	10876.01
865.065	10827.2
865.386	10795.34
865.707	10672.63
866.027	10753.98
866.348	10774.1
866.668	10724.83
866.989	10697.94
867.309	10658.84
867.63	10575.46
867.95	10565.51
868.27	10564.61
868.59	10563.93
868.91	10594.21
869.23	10577.26
869.55	10507.89
869.87	10485.97
870.19	10539.75
870.51	10552.41
870.83	10456.36
871.15	10436.93
871.469	10462.24
871.789	10522.58
872.109	10376.37
872.428	10364.39
872.748	10361.45
873.067	10380.43
873.386	10364.16
873.706	10336.37
874.025	10259.31
874.344	10239.87
874.663	10288.91
874.982	10207.78
875.301	10184.96
875.62	10224.73
875.939	10245.52
876.258	10205.07
876.577	10168.46
876.896	10201.68
877.214	10082.14
877.533	10089.14
877.852	10068.35
878.17	10135.69
878.489	10053.89
878.807	10030.84
879.125	10063.15
879.444	9958.98
879.762	9956.26
880.08	10048.69
880.398	9895.7
880.716	9940.44
881.034	9839.88
881.352	9937.96
881.67	9848.02
881.988	9885.98
882.306	9832.88
882.624	9848.92
882.941	9719.89
883.259	9757.85
883.577	9699.55
883.894	9719.66
884.212	9659.1
884.529	9668.81
884.846	9636.05
885.164	9644.41
885.481	9510.85
885.798	9597.63
886.115	9542.72
886.432	9506.78
886.75	9537.07
887.067	9490.97
887.383	9477.41
887.7	9410.52
888.017	9370.74
888.334	9501.59
888.651	9341.14
888.967	9309.27
889.284	9266.56
889.6	9237.41
889.917	9233.12
890.233	9246.45
890.55	9137.75
890.866	9198.32
891.182	9175.72
891.498	9177.3
891.815	9083.29
892.131	9086.23
892.447	9031.99
892.763	9027.7
893.079	9051.65
893.395	8925.1
893.71	8913.35
894.026	8940.7
894.342	8922.84
894.657	8800.36
894.973	8849.17
895.289	8813.69
895.604	8857.08
895.92	8707.26
896.235	8688.27
896.55	8717.43
896.865	8721.04
897.181	8583.19
897.496	8708.84
897.811	8594.27
898.126	8485.57
898.441	8516.75
898.756	8504.1
899.071	8474.04
899.386	8438.11
899.7	8416.64
900.015	8393.82
900.33	8393.82
900.644	8309.08
900.959	8327.83
901.273	8301.39
901.588	8272.92
901.902	8157.89
902.216	8176.42
902.531	8119.93
902.845	8113.83
903.159	8096.88
903.473	7998.12
903.787	7992.02
904.101	7945.92
904.415	7950.67
904.729	7952.7
905.042	7895.98
905.356	7876.54
905.67	7778.69
905.984	7860.05
906.297	7752.25
906.611	7758.81
906.924	7768.75
907.237	7736.89
907.551	7707.06
907.864	7621.64
908.177	7557.68
908.491	7598.59
908.804	7575.99
909.117	7494.41
909.43	7426.16
909.743	7433.39
910.056	7473.84
910.368	7373.73
910.681	7333.06
910.994	7314.3
911.307	7278.59
911.619	7262.32
911.932	7294.64
912.244	7181.42
912.557	7150.69
912.869	7154.98
913.181	7151.14
913.494	7060.75
913.806	7062.1
914.118	7064.36
914.43	7026.17
914.742	6999.05
915.054	6955.66
915.366	6950.01
915.678	6893.97
915.99	6865.5
916.302	6835.44
916.613	6836.8
916.925	6777.59
917.236	6823.46
917.548	6741.21
917.859	6700.08
918.171	6683.58
918.482	6617.59
918.794	6648.78
919.105	6524.72
919.416	6536.01
919.727	6550.03
920.038	6491.72
920.349	6420.76
920.66	6465.28
920.971	6427.99
921.282	6440.88
921.593	6289.02
921.903	6329.24
922.214	6316.13
922.525	6261.9
922.835	6209.02
923.146	6245.63
923.456	6249.24
923.767	6188.68
924.077	6193.2
924.387	6173.31
924.697	6078.4
925.008	6091.51
925.318	6089.25
925.628	6068
925.938	5974
926.248	5979.87
926.558	5922.47
926.867	5960.66
927.177	5996.82
927.487	5918.4
927.796	5850.38
928.106	5831.63
928.416	5803.38
928.725	5808.12
929.034	5793.89
929.344	5744.62
929.653	5678.64
929.962	5628.47
930.271	5666.88
930.581	5604.06
930.89	5573.78
931.199	5520.9
931.508	5573.78
931.817	5569.71
932.125	5551.18
932.434	5515.93
932.743	5463.95
933.051	5476.16
933.36	5435.93
933.669	5386.89
933.977	5378.3
934.286	5370.85
934.594	5347.8
934.902	5307.8
935.21	5272.09
935.519	5305.99
935.827	5297.4
936.135	5211.3
936.443	5159.55
936.751	5156.16
937.059	5133.11
937.367	5115.03
937.674	5140.35
937.982	5095.6
938.29	5054.47
938.597	5093.79
938.905	5032.78
939.213	5010.63
939.52	4939.22
939.827	4977.19
940.135	4943.74
940.442	4932.21
940.749	4909.62
941.056	4934.7
941.363	4818.77
941.67	4797.3
941.977	4817.87
942.284	4789.39
942.591	4760.24
942.898	4720.24
943.205	4714.14
943.511	4735.16
943.818	4709.17
944.125	4657.87
944.431	4633.24
944.738	4600.25
945.044	4655.39
945.35	4612.45
945.657	4592.11
945.963	4525.67
946.269	4515.28
946.575	4513.92
946.881	4516.18
947.187	4470.76
947.493	4460.81
947.799	4459.23
948.105	4432.12
948.41	4385.79
948.716	4391.21
949.022	4393.25
949.327	4362.51
949.633	4291.55
949.938	4328.39
950.244	4284.1
950.549	4261.5
950.854	4276.86
951.16	4223.53
951.465	4158.68
951.77	4160.71
952.075	4149.64
952.38	4171.33
952.685	4160.94
952.99	4090.43
953.294	4132.46
953.599	4142.41
953.904	4024.22
954.209	4028.28
954.513	4041.62
954.818	3972.24
955.122	3993.71
955.426	3994.39
955.731	3991.45
956.035	3931.11
956.339	3902.19
956.643	3888.17
956.948	3881.4
957.252	3863.77
957.556	3923.2
957.86	3842.3
958.163	3866.48
958.467	3812.92
958.771	3792.81
959.075	3815.63
959.378	3781.51
959.682	3727.5
959.985	3726.6
960.289	3735.64
960.592	3677.11
960.896	3687.95
961.199	3675.52
961.502	3645.24
961.805	3605.7
962.108	3586.26
962.411	3630.55
962.714	3569.09
963.017	3630.78
963.32	3589.43
963.623	3555.3
963.926	3469.88
964.228	3520.73
964.531	3500.39
964.833	3483.44
965.136	3456.77
965.438	3469.2
965.741	3463.78
966.043	3356.21
966.345	3408.64
966.648	3402.99
966.95	3423.1
967.252	3330.9
967.554	3337.23
967.856	3293.16
968.158	3327.29
968.46	3328.42
968.761	3276.21
969.063	3290.68
969.365	3219.94
969.666	3249.1
969.968	3263.33
970.269	3195.31
970.571	3177.46
970.872	3187.85
971.174	3185.82
971.475	3202.77
971.776	3133.84
972.077	3118.25
972.378	3134.75
972.679	3113.51
972.98	3049.55
973.281	3062.43
973.582	3050
973.883	3056.33
974.183	3038.48
974.484	3004.13
974.785	2992.6
975.085	3014.53
975.386	3005.94
975.686	2985.37
975.986	2974.98
976.287	2965.04
976.587	2928.2
976.887	2951.25
977.187	2932.27
977.487	2887.75
977.787	2884.13
978.087	2841.2
978.387	2863.12
978.687	2860.41
978.987	2826.06
979.286	2815.89
979.586	2805.04
979.885	2817.24
980.185	2774.53
980.484	2754.42
980.784	2755.32
981.083	2739.28
981.382	2697.92
981.682	2721.43
981.981	2718.26
982.28	2718.71
982.579	2664.25
982.878	2707.19
983.177	2627.64
983.475	2662.9
983.774	2650.24
984.073	2591.94
984.372	2614.99
984.67	2630.35
984.969	2634.42
985.267	2600.52
985.566	2600.52
985.864	2580.19
986.162	2504.26
986.461	2555.33
986.759	2525.05
987.057	2494.54
987.355	2473.3
987.653	2513.07
987.951	2467.87
988.249	2504.93
988.547	2459.51
988.844	2445.73
989.142	2403.02
989.44	2419.74
989.737	2419.74
990.035	2397.37
990.332	2402.34
990.63	2404.6
990.927	2379.74
991.224	2358.05
991.521	2358.95
991.819	2334.09
992.116	2311.94
992.413	2325.5
992.71	2288.44
993.006	2286.63
993.303	2303.36
993.6	2298.61
993.897	2284.6
994.193	2237.6
994.49	2267.65
994.787	2241.89
995.083	2234.43
995.379	2239.18
995.676	2191.5
995.972	2184.49
996.268	2187.43
996.565	2167.99
996.861	2154.43
997.157	2088.9
997.453	2124.38
997.749	2113.53
998.044	2120.76
998.34	2106.3
998.636	2114.89
998.932	2066.08
999.227	2048.9
999.523	2067.88
999.818	2055.68
1000.114	2054.55
1000.409	2006.64
1000.704	2017.04
1001	1970.48
1001.295	1976.36
1001.59	1972.97
1001.885	1965.74
1002.18	1969.13
1002.475	1953.31
1002.77	1921.67
1003.065	1930.94
1003.359	1936.59
1003.654	1919.19
1003.949	1861.11
1004.243	1896.81
1004.538	1885.06
1004.832	1854.56
1005.127	1837.38
1005.421	1843.26
1005.715	1833.77
1006.009	1835.57
1006.304	1808.91
1006.598	1769.81
1006.892	1792.41
1007.186	1824.5
1007.48	1789.92
1007.773	1805.29
1008.067	1756.71
1008.361	1766.2
1008.655	1747.44
1008.948	1753.54
1009.242	1723.26
1009.535	1698.85
1009.829	1724.84
1010.122	1702.02
1010.415	1722.81
1010.708	1640.32
1011.001	1660.44
1011.295	1672.19
1011.588	1617.95
1011.881	1641.91
1012.173	1627.22
1012.466	1637.16
1012.759	1612.3
1013.052	1601.23
1013.344	1611.17
1013.637	1594.9
1013.93	1572.76
1014.222	1570.5
1014.514	1566.2
1014.807	1566.43
1015.099	1562.59
1015.391	1549.03
1015.683	1537.28
1015.976	1518.97
1016.268	1507.22
1016.56	1495.7
1016.851	1495.7
1017.143	1472.19
1017.435	1485.3
1017.727	1469.48
1018.018	1414.57
1018.31	1445.07
1018.602	1452.08
1018.893	1424.51
1019.185	1441.23
1019.476	1403.72
1019.767	1395.13
1020.058	1380.67
1020.35	1387.68
1020.641	1365.08
1020.932	1372.53
1021.223	1363.27
1021.514	1378.41
1021.804	1336.6
1022.095	1333.21
1022.386	1327.34
1022.677	1297.51
1022.967	1309.49
1023.258	1301.12
1023.548	1278.98
1023.839	1262.03
1024.129	1269.71
1024.419	1271.29
1024.709	1236.72
1025	1258.64
1025.29	1241.69
1025.58	1229.71
1025.87	1214.12
1026.16	1206.44
1026.449	1226.32
1026.739	1201.24
1027.029	1187.68
1027.319	1168.47
1027.608	1179.32
1027.898	1185.87
1028.187	1165.53
1028.477	1163.27
1028.766	1181.58
1029.055	1132.54
1029.344	1114.91
1029.634	1137.74
1029.923	1111.98
1030.212	1107
1030.501	1096.38
1030.79	1091.19
1031.078	1069.49
1031.367	1102.26
1031.656	1099.55
1031.945	1067.46
1032.233	1062.94
1032.522	1054.12
1032.81	1057.51
1033.099	1051.64
1033.387	1018.65
1033.675	1022.04
1033.963	1046.22
1034.251	1019.78
1034.54	1003.28
1034.828	1016.39
1035.116	988.36
1035.403	1005.31
1035.691	999.44
1035.979	991.75
1036.267	1001.47
1036.554	949.95
1036.842	940.46
1037.129	936.16
1037.417	921.25
1037.704	952.43
1037.992	936.84
1038.279	957.18
1038.566	900.46
1038.853	900.46
1039.14	900.46
