Data from hue_350_FLMS001491_35.txt Node
Date: Mon Feb 06 15:37:56 GMT 2017
User: dcchb
Spectrometer: FLMS00149
Trigger mode: 0
Integration Time (sec): 2.000000E-2
Scans to average: 10
Electric dark correction enabled: true
Nonlinearity correction enabled: false
Boxcar width: 0
XAxis mode: Wavelengths
Number of Pixels in Spectrum: 2048
>>>>>Begin Spectral Data<<<<<
341.393	-27.4
341.776	-27.4
342.16	-27.4
342.543	-62.88
342.927	-71.02
343.31	-73.27
343.693	-69.43
344.077	-69.66
344.46	-85.7
344.843	-38.25
345.226	-41.64
345.61	-28.76
345.993	-28.3
346.376	4.69
346.759	-2.77
347.142	18.7
347.525	44.91
347.908	69.55
348.291	88.98
348.674	100.05
349.057	110.9
349.44	123.33
349.823	130.79
350.206	166.94
350.588	185.93
350.971	194.74
351.354	211.01
351.737	229.99
352.119	253.04
352.502	248.3
352.884	262.99
353.267	287.17
353.65	301.63
354.032	310.22
354.414	323.32
354.797	299.14
355.179	295.98
355.562	314.74
355.944	322.87
356.326	312.48
356.709	337.56
357.091	335.53
357.473	325.36
357.855	350.44
358.238	326.49
358.62	353.61
359.002	343.89
359.384	328.97
359.766	333.49
360.148	324.45
360.53	340.95
360.912	346.15
361.294	336.88
361.676	316.77
362.057	326.04
362.439	327.17
362.821	307.96
363.203	330.78
363.584	327.62
363.966	322.42
364.348	333.04
364.729	320.84
365.111	292.82
365.493	327.39
365.874	319.03
366.256	315.42
366.637	325.58
367.019	305.47
367.4	317.68
367.781	315.42
368.163	317.22
368.544	306.15
368.925	296.43
369.306	303.89
369.688	324
370.069	311.8
370.45	310.44
370.831	283.78
371.212	292.37
371.593	310.9
371.974	295.75
372.355	291.24
372.736	313.38
373.117	302.53
373.498	310.9
373.879	328.52
374.26	299.37
374.641	289.43
375.021	322.87
375.402	314.29
375.783	310.22
376.163	324
376.544	302.99
376.925	309.99
377.305	329.65
377.686	313.16
378.066	330.78
378.447	320.61
378.827	303.21
379.208	304.79
379.588	331.01
379.968	345.92
380.349	323.1
380.729	328.52
381.109	340.73
381.489	332.36
381.87	332.14
382.25	324
382.63	322.42
383.01	322.65
383.39	330.33
383.77	348.63
384.15	320.16
384.53	335.75
384.91	339.6
385.29	340.73
385.67	346.15
386.049	343.89
386.429	343.21
386.809	341.4
387.189	335.08
387.568	355.19
387.948	349.99
388.328	336.66
388.707	333.04
389.087	337.11
389.466	349.31
389.846	346.15
390.225	357.22
390.605	342.76
390.984	369.43
391.363	368.97
391.743	356.32
392.122	341.4
392.501	346.15
392.881	362.65
393.26	368.07
393.639	376.88
394.018	356.77
394.397	365.58
394.776	357
395.155	378.69
395.534	375.07
395.913	367.84
396.292	362.65
396.671	369.2
397.05	382.08
397.429	371.91
397.808	373.94
398.186	358.13
398.565	367.84
398.944	362.87
399.323	372.36
399.701	369.88
400.08	375.3
400.458	387.96
400.837	361.06
401.215	395.64
401.594	388.41
401.972	388.86
402.351	357.22
402.729	397.67
403.107	385.24
403.486	368.3
403.864	401.97
404.242	402.87
404.62	407.62
404.999	385.24
405.377	397.22
405.755	411.68
406.133	387.73
406.511	380.72
406.889	435.41
407.267	408.07
407.645	417.11
408.023	402.64
408.401	398.13
408.779	426.15
409.156	394.96
409.534	406.94
409.912	424.57
410.29	415.3
410.667	415.07
411.045	410.33
411.422	451.23
411.8	445.13
412.178	444.23
412.555	420.95
412.933	463.43
413.31	428.63
413.687	435.64
414.065	451.23
414.442	451.01
414.819	469.99
415.197	456.88
415.574	452.14
415.951	457.33
416.328	474.96
416.705	476.99
417.082	494.62
417.46	474.28
417.837	470.44
418.214	490.78
418.591	472.93
418.967	502.76
419.344	498.46
419.721	513.38
420.098	501.17
420.475	500.5
420.852	518.12
421.228	513.83
421.605	482.64
421.982	505.69
422.358	503.21
422.735	531
423.111	522.19
423.488	526.03
423.864	520.16
424.241	538.46
424.617	536.2
424.994	542.98
425.37	541.85
425.746	546.37
426.123	560.38
426.499	551.79
426.875	550.21
427.251	565.35
427.627	585.01
428.003	570.32
428.379	568.52
428.756	568.52
429.132	571.68
429.507	580.95
429.883	588.85
430.259	608.29
430.635	597.44
431.011	591.34
431.387	592.47
431.763	622.75
432.138	627.95
432.514	635.18
432.89	635.41
433.265	621.85
433.641	629.08
434.016	618.68
434.392	633.15
434.767	652.36
435.143	645.35
435.518	654.62
435.894	657.1
436.269	661.17
436.644	659.14
437.02	684.67
437.395	678.57
437.77	700.49
438.145	686.71
438.52	688.51
438.895	713.6
439.271	710.43
439.646	687.16
440.021	690.32
440.395	722.41
440.77	711.79
441.145	728.29
441.52	727.61
441.895	737.55
442.27	741.84
442.645	743.65
443.019	724.44
443.394	741.39
443.769	743.88
444.143	746.14
444.518	758.57
444.892	769.87
445.267	748.17
445.641	765.12
446.016	769.64
446.39	786.82
446.764	773.03
447.139	752.24
447.513	764.22
447.887	779.36
448.262	781.84
448.636	789.53
449.01	804.89
449.384	801.5
449.758	787.72
450.132	804.22
450.506	813.71
450.88	838.34
451.254	809.19
451.628	804.22
452.002	806.7
452.376	828.62
452.75	831.79
453.123	820.26
453.497	852.8
453.871	823.88
454.244	853.71
454.618	876.76
454.992	850.54
455.365	872.24
455.739	892.8
456.112	899.58
456.486	887.15
456.859	902.74
457.232	924.66
457.606	939.13
457.979	927.6
458.352	944.1
458.725	922.63
459.099	950.2
459.472	965.12
459.845	970.09
460.218	977.77
460.591	980.93
460.964	987.71
461.337	990.88
461.71	1011.44
462.083	1016.41
462.456	1033.36
462.829	1032.46
463.201	1020.26
463.574	1065
463.947	1046.7
464.32	1065.68
464.692	1075.85
465.065	1107.49
465.438	1113.13
465.81	1121.5
466.183	1129.63
466.555	1124.66
466.928	1147.94
467.3	1159.46
467.672	1159.24
468.045	1193.36
468.417	1220.48
468.789	1203.75
469.161	1215.05
469.534	1214.15
469.906	1243.3
470.278	1250.53
470.65	1276.52
471.022	1273.13
471.394	1329.17
471.766	1334.82
472.138	1321.94
472.51	1359
472.882	1372.79
473.253	1389.29
473.625	1390.42
473.997	1415.73
474.369	1457.76
474.74	1447.14
475.112	1484.2
475.484	1499.34
475.855	1533.01
476.227	1530.75
476.598	1598.77
476.97	1590.41
477.341	1625.44
477.713	1654.36
478.084	1643.74
478.455	1690.29
478.827	1724.42
479.198	1761.93
479.569	1772.78
479.94	1850.52
480.311	1840.57
480.682	1892.1
481.053	1926.45
481.424	1967.12
481.795	1961.02
482.166	1979.33
482.537	2017.07
482.908	2031.08
483.279	2073.11
483.65	2122.6
484.021	2201.24
484.391	2156.05
484.762	2238.3
485.133	2248.7
485.503	2251.18
485.874	2308.81
486.244	2320.11
486.615	2369.6
486.985	2396.94
487.356	2462.7
487.726	2465.87
488.097	2517.62
488.467	2544.74
488.837	2548.35
489.207	2648.69
489.578	2635.13
489.948	2719.42
490.318	2718.29
490.688	2746.09
491.058	2828.12
491.428	2835.58
491.798	2868.57
492.168	2915.57
492.538	2959.41
492.908	2984.05
493.278	3010.71
493.648	3021.78
494.017	3028.79
494.387	3103.36
494.757	3130.93
495.126	3129.13
495.496	3121.67
495.866	3186.07
496.235	3228.11
496.605	3226.98
496.974	3259.07
497.344	3315.34
497.713	3339.74
498.082	3354.88
498.452	3371.38
498.821	3375.22
499.19	3395.11
499.559	3475.56
499.928	3502.45
500.298	3460.19
500.667	3513.3
501.036	3506.29
501.405	3513.52
501.774	3570.25
502.143	3604.59
502.512	3614.09
502.88	3646.4
503.249	3581.54
503.618	3648.21
503.987	3660.19
504.356	3690.92
504.724	3702.22
505.093	3696.12
505.462	3719.39
505.83	3763.46
506.199	3800.75
506.567	3825.61
506.936	3809.11
507.304	3859.96
507.672	3869.22
508.041	3874.19
508.409	3885.27
508.777	3873.29
509.145	3960.52
509.514	3949.9
509.882	3974.75
510.25	3974.98
510.618	3999.39
510.986	4029.22
511.354	4021.76
511.722	4037.35
512.09	4089.33
512.458	4107.63
512.826	4109.67
513.193	4070.8
513.561	4151.47
513.929	4161.19
514.297	4169.33
514.664	4207.97
515.032	4197.57
515.4	4241.87
515.767	4225.37
516.135	4239.15
516.502	4246.84
516.869	4315.54
517.237	4282.54
517.604	4343.56
517.972	4340.62
518.339	4353.05
518.706	4366.83
519.073	4351.47
519.44	4325.25
519.808	4349.89
520.175	4370.22
520.542	4398.25
520.909	4447.96
521.276	4438.47
521.643	4505.36
522.009	4499.03
522.376	4549.2
522.743	4550.11
523.11	4580.61
523.477	4610.44
523.843	4587.39
524.21	4665.81
524.577	4677.56
524.943	4733.38
525.31	4697.9
525.676	4729.08
526.043	4751.91
526.409	4776.99
526.776	4873.04
527.142	4852.92
527.508	4815.64
527.874	4909.64
528.241	4905.13
528.607	4892.02
528.973	4911.23
529.339	4924.79
529.705	5039.13
530.071	4990.77
530.437	5012.02
530.803	5063.99
531.169	5098.57
531.535	5050.66
531.901	5130.66
532.267	5083.65
532.632	5122.07
532.998	5146.25
533.364	5196.87
533.73	5192.35
534.095	5297.21
534.461	5249.75
534.826	5272.57
535.192	5252.23
535.557	5381.5
535.923	5387.6
536.288	5375.62
536.653	5372.23
537.019	5347.6
537.384	5439.35
537.749	5438.9
538.114	5441.83
538.479	5446.35
538.845	5551.21
539.21	5527.48
539.575	5550.98
539.94	5571.32
540.305	5618.1
540.67	5614.03
541.034	5604.32
541.399	5647.25
541.764	5654.94
542.129	5685.44
542.494	5735.61
542.858	5760.7
543.223	5729.96
543.587	5823.52
543.952	5806.8
544.316	5836.85
544.681	5844.76
545.045	5900.81
545.41	5914.14
545.774	5933.35
546.138	5956.85
546.503	5974.02
546.867	6008.83
547.231	6060.35
547.595	6013.8
547.959	6088.82
548.324	6023.74
548.688	6088.82
549.052	6098.54
549.416	6097.86
549.779	6141.7
550.143	6151.19
550.507	6243.4
550.871	6260.8
551.235	6215.37
551.599	6210.85
551.962	6264.86
552.326	6304.86
552.689	6342.15
553.053	6288.82
553.417	6337.63
553.78	6414.92
554.143	6368.36
554.507	6430.51
554.87	6429.83
555.234	6497.17
555.597	6444.29
555.96	6489.94
556.323	6461.47
556.686	6522.94
557.05	6577.85
557.413	6557.74
557.776	6616.04
558.139	6627.11
558.502	6703.72
558.865	6670.05
559.228	6704.17
559.59	6709.15
559.953	6708.69
560.316	6808.13
560.679	6794.79
561.041	6840.22
561.404	6914.11
561.767	6901.68
562.129	6847
562.492	6911.4
562.854	6880.44
563.217	6938.74
563.579	6925.41
563.941	6997.95
564.304	6977.61
564.666	7068.46
565.028	6987.78
565.39	7053.09
565.753	7135.35
566.115	7100.1
566.477	7115.46
566.839	7146.87
567.201	7218.28
567.563	7195.01
567.925	7248.57
568.287	7312.97
568.648	7318.62
569.01	7359.07
569.372	7340.32
569.734	7348.9
570.095	7470.26
570.457	7476.58
570.819	7516.81
571.18	7467.09
571.542	7508.67
571.903	7614.88
572.265	7614.88
572.626	7679.74
572.987	7717.71
573.349	7769.91
573.71	7735.11
574.071	7830.7
574.432	7872.05
574.794	8035.44
575.155	7989.79
575.516	7945.72
575.877	8053.29
576.238	8115.89
576.599	8189.11
576.96	8205.83
577.32	8253.29
577.681	8436.56
578.042	8539.15
578.403	8576.44
578.763	8658.7
579.124	8753.39
579.485	8792.71
579.845	8910.67
580.206	8964.91
580.566	9104.79
580.927	9186.59
581.287	9308.85
581.648	9416.65
582.008	9573.7
582.368	9640.59
582.728	9844.2
583.089	9904.54
583.449	10043.3
583.809	10166
584.169	10406.22
584.529	10514.92
584.889	10761.24
585.249	10872.2
585.609	10948.81
585.969	11225.86
586.329	11431.28
586.688	11587.89
587.048	11757.6
587.408	11954.43
587.768	12185.39
588.127	12456.34
588.487	12594.41
588.846	12946.95
589.206	13056.1
589.565	13237.79
589.925	13668.28
590.284	13793.25
590.643	14026.47
591.003	14444.99
591.362	14615.83
591.721	14808.82
592.08	15081.35
592.44	15341.91
592.799	15644.5
593.158	15845.18
593.517	16164.72
593.876	16539.4
594.235	16767.64
594.593	17061.87
594.952	17385.25
595.311	17527.17
595.67	17856.88
596.029	18251.44
596.387	18573.24
596.746	18831.31
597.104	19015.71
597.463	19277.18
597.822	19623.61
598.18	19987.89
598.538	20092.75
598.897	20525.96
599.255	20584.04
599.613	21202.78
599.972	21339.27
600.33	21562.77
600.688	21777.68
601.046	22200.72
601.404	22625.34
601.762	22723.64
602.12	23162.05
602.478	23362.72
602.836	23659.43
603.194	23840.22
603.552	24108.91
603.91	24248.8
604.268	24634.32
604.625	24758.84
604.983	25144.82
605.341	25272.05
605.698	25655.54
606.056	25965.14
606.413	26149.31
606.771	26392.47
607.128	26756.98
607.485	26848.28
607.843	27045.56
608.2	27430.63
608.557	27604.42
608.914	27881.92
609.272	28179.77
609.629	28276.04
609.986	28689.13
610.343	28767.55
610.7	29138.16
611.057	29224.49
611.414	29332.28
611.771	29611.59
612.127	29943.34
612.484	30055.42
612.841	30225.59
613.198	30454.96
613.554	30560.27
613.911	30795.29
614.267	31005.91
614.624	31128.62
614.98	31254.49
615.337	31627.13
615.693	31731.31
616.05	31888.82
616.406	32126.78
616.762	32090.4
617.118	32224.18
617.475	32374.46
617.831	32699.42
618.187	32703.72
618.543	32936.93
618.899	33227.09
619.255	33326.98
619.611	33323.81
619.967	33545.73
620.323	33740.3
620.678	33604.48
621.034	33696.01
621.39	33851.03
621.746	33875.21
622.101	34476.1
622.457	34220.96
622.812	34319.72
623.168	34430.68
623.523	34587.51
623.879	34743.89
624.234	34642.2
624.589	34946.82
624.945	34922.64
625.3	35097.55
625.655	35143.43
626.01	35258.9
626.365	35175.06
626.72	35249.64
627.075	35314.04
627.43	35430.2
627.785	35430.65
628.14	35422.74
628.495	35534.6
628.85	35682.62
629.205	35694.6
629.559	35977.08
629.914	35810.75
630.269	35927.13
630.623	35871.09
630.978	35750.87
631.332	35971.2
631.687	36141.37
632.041	35984.76
632.396	36010.52
632.75	35990.41
633.104	36092.1
633.459	35936.85
633.813	35993.35
634.167	36095.72
634.521	36149.28
634.875	36062.05
635.229	36123.74
635.583	36002.61
635.937	36042.39
636.291	36137.52
636.645	36161.25
636.999	36077.19
637.352	36170.07
637.706	36017.98
638.06	36111.54
638.413	36154.02
638.767	35921.71
639.121	36181.59
639.474	36026.79
639.828	35990.41
640.181	35989.28
640.534	36046.23
640.888	35945.21
641.241	35942.28
641.594	36059.56
641.947	36046.68
642.301	35911.54
642.654	35918.77
643.007	36088.71
643.36	35962.84
643.713	36032.89
644.066	36112.89
644.419	36001.03
644.771	35657.99
645.124	35376.87
645.477	35254.38
645.83	35046.48
646.182	35000.15
646.535	34872.02
646.888	35036.54
647.24	34884.45
647.593	35046.48
647.945	35027.27
648.298	34869.76
648.65	34798.35
649.002	34713.38
649.355	34735.75
649.707	34763.78
650.059	34988.18
650.411	35418.22
650.763	35361.5
651.115	35718.78
651.467	35701.6
651.819	35781.6
652.171	35570.08
652.523	35558.33
652.875	35681.27
653.227	35439.69
653.578	35686.01
653.93	35509.97
654.282	35461.84
654.633	35495.73
654.985	35397.66
655.337	35417.09
655.688	35515.85
656.039	35566.92
656.391	35212.8
656.742	35274.04
657.094	35321.5
657.445	35451.21
657.796	35350.65
658.147	35215.97
658.498	35332.8
658.849	35283.54
659.2	35312.69
659.551	35251.45
659.902	35329.41
660.253	35342.52
660.604	35339.81
660.955	35150.21
661.306	35367.6
661.656	35272.46
662.007	35128.29
662.358	35192.92
662.708	35171
663.059	35220.49
663.409	34947.27
663.76	35159.7
664.11	35261.16
664.461	35151.34
664.811	35147.72
665.161	35078.8
665.511	35066.59
665.862	35143.88
666.212	35101.17
666.562	35256.87
666.912	35144.56
667.262	35170.77
667.612	35012.36
667.962	35077.67
668.312	35119.02
668.662	35236.98
669.011	35062.07
669.361	34954.28
669.711	35081.05
670.06	35067.04
670.41	34978.91
670.76	34975.52
671.109	35162.41
671.459	34895.52
671.808	34999.93
672.157	35007.38
672.507	34862.76
672.856	34818.91
673.205	34965.35
673.554	35035.41
673.904	34853.26
674.253	35036.99
674.602	34962.19
674.951	34334.18
675.3	34250.57
675.649	34774.85
675.998	34832.47
676.346	34750.44
676.695	34836.54
677.044	34658.47
677.393	34689.88
677.741	34870.67
678.09	34809.42
678.438	34687.39
678.787	34677.22
679.135	34722.19
679.484	34447.17
679.832	34549.77
680.181	34382.32
680.529	34591.58
680.877	34355.42
681.225	34373.05
681.573	34595.87
681.922	34242.66
682.27	34226.61
682.618	34334.41
682.966	34123.57
683.314	34255.77
683.661	34106.17
684.009	34025.94
684.357	33951.59
684.705	33881.31
685.053	33827.53
685.4	33992.27
685.748	33682.45
686.095	33671.83
686.443	33590.25
686.79	33587.08
687.138	33446.3
687.485	33493.07
687.832	33458.72
688.18	33547.99
688.527	33279.29
688.874	33171.5
689.221	33183.25
689.568	33095.12
689.915	33024.84
690.262	32937.83
690.609	32936.48
690.956	32757.5
691.303	32833.66
691.65	32667.33
691.997	32515.02
692.344	32444.74
692.69	32505.08
693.037	32405.65
693.383	32167.01
693.73	32185.76
694.077	32141.47
694.423	32016.05
694.769	32083.85
695.116	32091.53
695.462	31929.73
695.808	31696.96
696.155	31833.46
696.501	31586.01
696.847	31503.97
697.193	31341.49
697.539	31489.29
697.885	31367.48
698.231	31163.64
698.577	31167.49
698.923	31111.89
699.269	31056.75
699.614	30874.61
699.96	30825.35
700.306	30717.55
700.651	30703.99
700.997	30564.56
701.342	30529.76
701.688	30601.17
702.033	30423.32
702.379	30476.43
702.724	30285.25
703.069	30335.64
703.415	30054.07
703.76	30144.01
704.105	30047.97
704.45	29858.37
704.795	29829.67
705.14	29668.99
705.485	29754.87
705.83	29572.05
706.175	29476
706.52	29407.53
706.865	29378.15
707.209	29418.15
707.554	29337.25
707.899	29300.42
708.243	29305.84
708.588	29170.48
708.932	29053.64
709.277	28943.36
709.621	29010.25
709.966	28792.63
710.31	28951.72
710.654	28448.24
710.998	28614.78
711.342	28595.35
711.687	28568.68
712.031	28391.29
712.375	28246.88
712.719	28318.75
713.063	28316.26
713.407	28479.42
713.75	28285.08
714.094	28134.34
714.438	27994.91
714.782	28116.49
715.125	28072.88
715.469	28006.21
715.812	27874.01
716.156	27703.85
716.499	27670.85
716.843	27748.59
717.186	27649.39
717.53	27739.33
717.873	27676.5
718.216	27635.38
718.559	27354.25
718.902	27399
719.246	27342.95
719.589	27267.93
719.932	27159.23
720.275	27156.97
720.617	27169.17
720.96	27141.38
721.303	27135.95
721.646	27039.23
721.989	26971.66
722.331	27001.95
722.674	26930.53
723.016	26855.96
723.359	26826.81
723.701	26905.45
724.044	26652.58
724.386	26555.63
724.729	26694.83
725.071	26627.49
725.413	26646.02
725.755	26572.58
726.097	26428.4
726.439	26323.09
726.782	26346.14
727.124	26338.01
727.465	26343.21
727.807	26226.15
728.149	26313.38
728.491	26171.01
728.833	26260.5
729.175	26147.96
729.516	25999.26
729.858	26047.62
730.199	26001.97
730.541	26000.84
730.882	25891.24
731.224	26044.46
731.565	25889.66
731.906	25767.18
732.248	25830
732.589	25755.65
732.93	25633.85
733.271	25673.39
733.612	25616.45
733.953	25672.49
734.294	25518.59
734.635	25406.06
734.976	25499.84
735.317	25456
735.658	25377.81
735.999	25472.95
736.339	25378.94
736.68	25293.97
737.021	25330.58
737.361	25111.37
737.702	25273.63
738.042	25111.15
738.383	25144.82
738.723	25096.46
739.063	24929.68
739.404	25106.63
739.744	24998.61
740.084	24901.89
740.424	24846.97
740.764	24864.83
741.104	24982.11
741.444	24777.6
741.784	24608.56
742.124	24657.83
742.464	24652.18
742.804	24632.97
743.143	24599.97
743.483	24657.37
743.823	24485.63
744.162	24544.83
744.502	24509.36
744.841	24362.47
745.181	24523.37
745.52	24441.33
745.86	24309.59
746.199	24367.89
746.538	24372.18
746.877	24425.52
747.216	24310.72
747.556	24237.95
747.895	24206.76
748.234	24172.19
748.573	24200.44
748.911	24127.22
749.25	24017.62
749.589	24054.9
749.928	24012.42
750.267	23998.18
750.605	23918.64
750.944	23818.53
751.283	23759.54
751.621	23896.04
751.96	23682.03
752.298	23654.91
752.636	23741.69
752.975	23624.18
753.313	23499.21
753.651	23623.05
753.989	23466.22
754.327	23418.99
754.666	23405.88
755.004	23294.47
755.342	23349.16
755.679	23284.3
756.017	23167.92
756.355	23185.55
756.693	23178.77
757.031	23095.61
757.368	22947.81
757.706	22997.98
758.044	22864.43
758.381	22899.45
758.719	22827.59
759.056	22828.04
759.394	22745.33
759.731	22423.31
760.068	22531.78
760.405	22462.86
760.743	22436.42
761.08	22390.32
761.417	22327.49
761.754	22361.39
762.091	22222.64
762.428	22122.98
762.765	22024.22
763.102	22099.93
763.438	21906.49
763.775	21814.29
764.112	21816.77
764.449	21845.47
764.785	21729.32
765.122	21558.02
765.458	21655.42
765.795	21526.84
766.131	21500.17
766.467	21446.16
766.804	21264.7
767.14	21173.62
767.476	21235.54
767.812	21146.73
768.148	21118.71
768.485	21043.23
768.821	20851.37
769.157	20867.87
769.492	20745.39
769.828	20756.46
770.164	20517.6
770.5	20558.5
770.836	20517.6
771.171	20447.32
771.507	20369.13
771.842	20243.25
772.178	20248.22
772.513	20137.72
772.849	20113.31
773.184	20081
773.519	20014.56
773.855	19962.58
774.19	19803.04
774.525	19771.63
774.86	19689.14
775.195	19695.47
775.53	19551.97
775.865	19476.04
776.2	19421.81
776.535	19268.82
776.87	19268.82
777.205	19164.86
777.539	19210.06
777.874	19157.41
778.209	18992.44
778.543	18957.64
778.878	18785.21
779.212	18876.96
779.547	18638.55
779.881	18649.17
780.215	18587.93
780.55	18592.22
780.884	18522.39
781.218	18482.62
781.552	18421.38
781.886	18253.02
782.22	18196.75
782.554	18120.82
782.888	17950.88
783.222	17960.15
783.556	17860.26
783.889	17883.77
784.223	17763.09
784.557	17734.62
784.89	17753.83
785.224	17627.5
785.557	17461.18
785.891	17444.91
786.224	17470.22
786.558	17398.81
786.891	17248.08
787.224	17183.9
787.557	17050.79
787.891	17103.67
788.224	17123.56
788.557	17010.8
788.89	16982.32
789.223	17000.85
789.556	16809.45
789.888	16711.14
790.221	16665.72
790.554	16589.79
790.887	16674.31
791.219	16515.22
791.552	16473.41
791.884	16352.73
792.217	16400.87
792.549	16252.85
792.882	16157.48
793.214	16154.55
793.546	16227.99
793.879	15934.67
794.211	15951.61
794.543	15982.35
794.875	15964.04
795.207	15971.5
795.539	15790.26
795.871	15829.58
796.203	15717.95
796.535	15593.21
796.867	15579.19
797.198	15570.83
797.53	15536.26
797.862	15376.49
798.193	15437.73
798.525	15390.5
798.856	15368.13
799.188	15199.54
799.519	15125.65
799.85	15152.77
800.182	15031.19
800.513	15037.51
800.844	14964.75
801.175	14979.66
801.506	15003.62
801.837	14840.68
802.168	14884.75
802.499	14858.99
802.83	14710.74
803.161	14648.15
803.491	14687.24
803.822	14671.87
804.153	14590.97
804.483	14417.19
804.814	14396.63
805.145	14411.32
805.475	14397.76
805.805	14315.05
806.136	14291.55
806.466	14291.32
806.796	14335.61
807.126	14132.91
807.457	14162.73
807.787	14159.8
808.117	14020.14
808.447	14007.94
808.777	13990.31
809.107	13987.37
809.436	13982.63
809.766	13900.82
810.096	13846.81
810.426	13844.55
810.755	13749.86
811.085	13736.76
811.414	13752.8
811.744	13714.84
812.073	13555.97
812.403	13554.84
812.732	13589.87
813.061	13556.2
813.39	13373.38
813.719	13349.2
814.049	13457.22
814.378	13422.19
814.707	13334.28
815.036	13275.3
815.365	13299.03
815.693	13144
816.022	13120.28
816.351	13147.62
816.68	13033.5
817.008	13076.89
817.337	13047.51
817.665	12988.53
817.994	12958.92
818.322	12965.48
818.651	12880.28
818.979	12843.9
819.307	12887.51
819.636	12870.79
819.964	12793.28
820.292	12805.93
820.62	12766.16
820.948	12763.45
821.276	12694.98
821.604	12770.46
821.932	12709.44
822.259	12651.81
822.587	12704.24
822.915	12678.25
823.243	12714.41
823.57	12697.69
823.898	12759.83
824.225	12600.06
824.553	12651.81
824.88	12664.92
825.207	12720.29
825.535	12699.27
825.862	12705.6
826.189	12631.93
826.516	12656.79
826.843	12744.69
827.17	12734.75
827.497	12773.84
827.824	12724.58
828.151	12689.1
828.478	12680.29
828.805	12759.83
829.131	12656.79
829.458	12548.31
829.785	12567.3
830.111	12615.43
830.438	12656.79
830.764	12608.88
831.09	12605.26
831.417	12596.9
831.743	12678.03
832.069	12634.87
832.395	12587.86
832.722	12668.31
833.048	12546.73
833.374	12567.75
833.7	12478.03
834.026	12486.85
834.351	12566.39
834.677	12553.96
835.003	12532.04
835.329	12474.87
835.654	12481.2
835.98	12401.2
836.306	12460.63
836.631	12422.44
836.956	12397.13
837.282	12384.25
837.607	12351.94
837.932	12294.99
838.258	12334.99
838.583	12273.97
838.908	12199.17
839.233	12239.62
839.558	12123.24
839.883	12178.61
840.208	12088.89
840.533	12160.53
840.858	12097.93
841.182	12111.72
841.507	12063.58
841.832	12021.55
842.156	11955.11
842.481	12080.53
842.805	11930.7
843.13	11958.05
843.454	11925.05
843.778	11848.9
844.103	11830.37
844.427	11811.84
844.751	11788.79
845.075	11768.45
845.399	11704.72
845.723	11662.46
846.047	11665.4
846.371	11673.08
846.695	11609.13
847.019	11505.18
847.343	11462.24
847.666	11412.98
847.99	11362.36
848.313	11391.28
848.637	11307.67
848.96	11295.69
849.284	11226.31
849.607	11087.11
849.931	11064.29
850.254	11098.86
850.577	11034.46
850.9	10919.2
851.223	10907.68
851.546	10836.72
851.869	10809.83
852.192	10843.27
852.515	10756.95
852.838	10687.12
853.161	10764.63
853.483	10600.57
853.806	10604.18
854.129	10582.72
854.451	10439.44
854.774	10446
855.096	10512.44
855.419	10499.33
855.741	10410.29
856.063	10391.08
856.385	10355.15
856.708	10359.67
857.03	10259.79
857.352	10295.94
857.674	10175.5
857.996	10230.41
858.318	10220.01
858.64	10150.19
858.961	10133.24
859.283	9962.17
859.605	9980.7
859.926	10045.78
860.248	9968.72
860.57	9989.06
860.891	9921.94
861.212	9891.66
861.534	9913.81
861.855	9874.71
862.176	9869.51
862.498	9771.44
862.819	9828.61
863.14	9821.61
863.461	9731.44
863.782	9697.54
864.103	9757.43
864.424	9716.98
864.745	9685.56
865.065	9631.1
865.386	9607.15
865.707	9594.04
866.027	9623.42
866.348	9639.92
866.668	9568.73
866.989	9566.25
867.309	9509.3
867.63	9533.7
867.95	9521.73
868.27	9446.47
868.59	9524.21
868.91	9449.64
869.23	9505
869.55	9454.38
869.87	9497.77
870.19	9421.84
870.51	9408.96
870.83	9430.88
871.15	9269.08
871.469	9373.93
871.789	9356.08
872.109	9273.82
872.428	9284.9
872.748	9274.73
873.067	9269.08
873.386	9276.54
873.706	9212.13
874.025	9212.81
874.344	9171.91
874.663	9247.16
874.982	9173.49
875.301	9169.19
875.62	9102.76
875.939	9120.16
876.258	9131
876.577	9115.64
876.896	9135.07
877.214	9034.06
877.533	9104.34
877.852	9076.09
878.17	9045.81
878.489	9032.02
878.807	9000.38
879.125	8977.79
879.444	8959.48
879.762	8948.18
880.08	8916.77
880.398	8975.98
880.716	8856.66
881.034	8877.45
881.352	8871.57
881.67	8858.92
881.988	8884.91
882.306	8787.28
882.624	8856.21
882.941	8725.36
883.259	8775.31
883.577	8691.24
883.894	8692.82
884.212	8710.67
884.529	8671.13
884.846	8677.23
885.164	8631.81
885.481	8568.53
885.798	8618.02
886.115	8588.19
886.432	8566.5
886.75	8486.95
887.067	8528.31
887.383	8431.81
887.7	8460.74
888.017	8420.29
888.334	8442.43
888.651	8382.32
888.967	8398.37
889.284	8372.15
889.6	8343.45
889.917	8254.42
890.233	8348.65
890.55	8269.33
890.866	8298.71
891.182	8177.58
891.498	8225.26
891.815	8133.51
892.131	8088.32
892.447	8119.28
892.763	8085.83
893.079	8075.66
893.395	8058.49
893.71	8036.12
894.026	8009.22
894.342	7971.03
894.657	7949.79
894.973	7922.67
895.289	7921.09
895.604	7907.08
895.92	7838.38
896.235	7778.27
896.55	7861.21
896.865	7797.25
897.181	7803.81
897.496	7770.36
897.811	7643.36
898.126	7682.45
898.441	7642.23
898.756	7622.79
899.071	7619.18
899.386	7569.01
899.7	7481.78
900.015	7515.9
900.33	7475.45
900.644	7471.61
900.959	7439.97
901.273	7423.48
901.588	7373.53
901.902	7340.77
902.216	7296.02
902.531	7306.42
902.845	7267.1
903.159	7226.19
903.473	7200.21
903.787	7204.95
904.101	7135.12
904.415	7110.49
904.729	7119.76
905.042	7070.04
905.356	7088.12
905.67	7021.68
905.984	7057.61
906.297	7021.91
906.611	6976.26
906.924	6930.83
907.237	6919.76
907.551	6878.41
907.864	6897.62
908.177	6798.63
908.491	6810.39
908.804	6773.1
909.117	6820.33
909.43	6739.2
909.743	6690.16
910.056	6693.55
910.368	6679.77
910.681	6595.93
910.994	6589.6
911.307	6570.17
911.619	6539.88
911.932	6489.94
912.244	6473.45
912.557	6450.62
912.869	6420.57
913.181	6492.43
913.494	6314.81
913.806	6344.64
914.118	6310.51
914.43	6302.15
914.742	6318.87
915.054	6287.91
915.366	6248.37
915.678	6208.59
915.99	6148.71
916.302	6168.82
916.613	6134.92
916.925	6159.33
917.236	6067.13
917.548	6049.05
917.859	6098.54
918.171	6001.14
918.482	6039.78
918.794	5981.71
919.105	5917.75
919.416	5923.4
919.727	5882.27
920.038	5882.05
920.349	5815.38
920.66	5780.36
920.971	5787.36
921.282	5745.1
921.593	5717.53
921.903	5719.79
922.214	5638.44
922.525	5661.49
922.835	5661.49
923.146	5620.81
923.456	5589.18
923.767	5603.86
924.077	5550.76
924.387	5519.57
924.697	5485.45
925.008	5488.39
925.318	5469.63
925.628	5472.79
925.938	5461.49
926.248	5376.98
926.558	5322.52
926.867	5342.85
927.177	5323.87
927.487	5266.25
927.796	5251.33
928.106	5261.73
928.416	5244.33
928.725	5201.61
929.034	5185.57
929.344	5183.31
929.653	5131.33
929.962	5140.83
930.271	5092.92
930.581	5059.7
930.89	5071.22
931.199	5047.27
931.508	5002.98
931.817	4980.38
932.125	4966.14
932.434	4946.48
932.743	4934.5
933.051	4880.95
933.36	4881.62
933.669	4814.73
933.977	4851.34
934.286	4858.57
934.594	4828.29
934.902	4796.65
935.21	4725.24
935.519	4772.02
935.827	4766.37
936.135	4718.24
936.443	4669.2
936.751	4659.93
937.059	4616.55
937.367	4630.33
937.674	4612.48
937.982	4619.71
938.29	4558.02
938.597	4567.73
938.905	4514.63
939.213	4525.7
939.52	4488.87
939.827	4495.19
940.135	4444.12
940.442	4429.43
940.749	4418.36
941.056	4435.31
941.363	4343.11
941.67	4362.99
941.977	4304.24
942.284	4313.5
942.591	4300.17
942.898	4259.72
943.205	4286.84
943.511	4257.91
943.818	4193.96
944.125	4207.97
944.431	4198.93
944.738	4155.54
945.044	4170
945.35	4114.86
945.657	4091.14
945.963	4097.01
946.269	4083.9
946.575	4079.61
946.881	4048.2
947.187	4018.37
947.493	4020.85
947.799	4003.91
948.105	3960.29
948.41	3982.21
948.716	3964.36
949.022	3938.37
949.327	3941.76
949.633	3847.98
949.938	3895.21
950.244	3893.63
950.549	3844.36
950.854	3810.92
951.16	3815.89
951.465	3796.68
951.77	3745.16
952.075	3751.94
952.38	3738.6
952.685	3743.57
952.99	3688.89
953.294	3737.7
953.599	3666.06
953.904	3678.72
954.209	3672.84
954.513	3581.54
954.818	3638.27
955.122	3636.46
955.426	3589.45
955.731	3565.95
956.035	3565.05
956.339	3549.68
956.643	3524.82
956.948	3518.04
957.252	3515.56
957.556	3482.34
957.86	3477.14
958.163	3494.09
958.467	3458.84
958.771	3433.53
959.075	3435.79
959.378	3377.93
959.682	3380.65
959.985	3368.22
960.289	3371.15
960.592	3340.87
960.896	3348.1
961.199	3315.34
961.502	3356.24
961.805	3239.18
962.108	3264.04
962.411	3242.57
962.714	3237.6
963.017	3229.92
963.32	3257.48
963.623	3196.02
963.926	3205.28
964.228	3170.71
964.531	3139.75
964.833	3187.66
965.136	3121.44
965.438	3139.3
965.741	3101.56
966.043	3076.7
966.345	3100.2
966.648	3056.13
966.95	3042.8
967.252	3031.05
967.554	3055.68
967.856	3012.75
968.158	3005.74
968.46	3001.67
968.761	2976.14
969.063	2960.77
969.365	2946.76
969.666	2968.45
969.968	2956.02
970.269	2922.58
970.571	2921
970.872	2884.16
971.174	2880.32
971.475	2878.29
971.776	2848.91
972.077	2863.37
972.378	2827.89
972.679	2834.9
972.98	2821.11
973.281	2803.94
973.582	2768.46
973.883	2775.24
974.183	2737.27
974.484	2738.85
974.785	2707.44
975.085	2722.58
975.386	2716.03
975.686	2699.53
975.986	2683.71
976.287	2682.58
976.587	2661.57
976.887	2676.48
977.187	2621.12
977.487	2635.58
977.787	2622.7
978.087	2617.73
978.387	2574.57
978.687	2582.47
978.987	2563.94
979.286	2574.11
979.586	2557.62
979.885	2530.27
980.185	2508.58
980.484	2498.41
980.784	2530.05
981.083	2495.7
981.382	2508.13
981.682	2469.48
981.981	2452.76
982.28	2446.43
982.579	2408.24
982.878	2432.2
983.177	2412.31
983.475	2409.6
983.774	2365.31
984.073	2374.12
984.372	2367.56
984.67	2341.58
984.969	2340.9
985.267	2378.41
985.566	2332.31
985.864	2352.65
986.162	2343.16
986.461	2286.44
986.759	2312.43
987.057	2295.25
987.355	2262.93
987.653	2283.27
987.951	2243.5
988.249	2280.79
988.547	2191.75
988.844	2218.19
989.142	2214.57
989.44	2204.18
989.737	2196.95
990.035	2162.82
990.332	2159.21
990.63	2198.3
990.927	2178.19
991.224	2142.71
991.521	2159.43
991.819	2132.54
992.116	2107.01
992.413	2135.25
992.71	2085.99
993.006	2085.31
993.303	2059.32
993.6	2080.11
993.897	2054.35
994.193	2043.28
994.49	2031.53
994.787	2052.32
995.083	2017.52
995.379	1987.01
995.676	2008.93
995.972	2013.45
996.268	2002.83
996.565	1990.85
996.861	1982.26
997.157	1955.82
997.453	1989.27
997.749	1939.33
998.044	1930.51
998.34	1905.2
998.636	1910.18
998.932	1899.1
999.227	1894.81
999.523	1893.91
999.818	1875.83
1000.114	1866.34
1000.409	1827.69
1000.704	1826.79
1001	1827.69
1001.295	1826.34
1001.59	1819.33
1001.885	1812.78
1002.18	1782.72
1002.475	1794.02
1002.77	1799.9
1003.065	1751.54
1003.359	1751.08
1003.654	1780.01
1003.949	1730.07
1004.243	1742.04
1004.538	1718.54
1004.832	1719.9
1005.127	1673.12
1005.421	1703.4
1005.715	1685.55
1006.009	1659.79
1006.304	1675.83
1006.598	1677.41
1006.892	1641.93
1007.186	1660.92
1007.48	1642.39
1007.773	1623.63
1008.067	1614.36
1008.361	1607.81
1008.655	1602.16
1008.948	1596.06
1009.242	1593.12
1009.535	1554.93
1009.829	1583.4
1010.122	1554.48
1010.415	1541.6
1010.708	1537.3
1011.001	1521.49
1011.295	1536.17
1011.588	1527.13
1011.881	1509.96
1012.173	1488.49
1012.466	1496.85
1012.759	1497.53
1013.052	1488.49
1013.344	1463.41
1013.637	1474.93
1013.93	1457.98
1014.222	1440.81
1014.514	1444.2
1014.807	1426.35
1015.099	1409.17
1015.391	1415.05
1015.683	1397.87
1015.976	1411.88
1016.268	1398.55
1016.56	1390.19
1016.851	1343.64
1017.143	1357.87
1017.435	1330.3
1017.727	1346.12
1018.018	1366.24
1018.31	1333.69
1018.602	1333.24
1018.893	1299.57
1019.185	1326.91
1019.476	1293.69
1019.767	1307.71
1020.058	1288.27
1020.35	1257.31
1020.641	1300.47
1020.932	1291.43
1021.223	1230.87
1021.514	1254.37
1021.804	1231.1
1022.095	1215.5
1022.386	1210.53
1022.677	1213.02
1022.967	1183.87
1023.258	1201.95
1023.548	1176.18
1023.839	1201.27
1024.129	1213.02
1024.419	1180.03
1024.709	1152.46
1025	1145.22
1025.29	1155.17
1025.58	1138.22
1025.87	1157.88
1026.16	1149.52
1026.449	1098.67
1026.739	1105.9
1027.029	1091.21
1027.319	1102.51
1027.608	1086.02
1027.898	1078.11
1028.187	1099.58
1028.477	1084.43
1028.766	1056.41
1029.055	1032.91
1029.344	1060.48
1029.634	1049.63
1029.923	1022.29
1030.212	1004.21
1030.501	1019.58
1030.79	1023.19
1031.078	1019.35
1031.367	995.85
1031.656	994.04
1031.945	1015.51
1032.233	972.8
1032.522	1003.76
1032.81	971.22
1033.099	961.5
1033.387	983.65
1033.675	962.18
1033.963	950.2
1034.251	965.57
1034.54	946.36
1034.828	955.85
1035.116	917.66
1035.403	930.99
1035.691	924.89
1035.979	928.51
1036.267	920.15
1036.554	892.58
1036.842	863.65
1037.129	897.77
1037.417	868.17
1037.704	897.1
1037.992	876.76
1038.279	884.89
1038.566	858.9
1038.853	858.9
1039.14	858.9
