Data from hue_10_FLMS001491_53.txt Node
Date: Mon Feb 06 15:32:08 GMT 2017
User: dcchb
Spectrometer: FLMS00149
Trigger mode: 0
Integration Time (sec): 2.000000E-2
Scans to average: 10
Electric dark correction enabled: true
Nonlinearity correction enabled: false
Boxcar width: 0
XAxis mode: Wavelengths
Number of Pixels in Spectrum: 2048
>>>>>Begin Spectral Data<<<<<
341.393	-26.91
341.776	-26.91
342.16	-26.91
342.543	-65.32
342.927	-84.31
343.31	-78.88
343.693	-67.13
344.077	-61.71
344.46	-42.05
344.843	-47.02
345.226	-27.58
345.61	-43.63
345.993	-7.7
346.376	-4.53
346.759	5.64
347.142	19.65
347.525	22.81
347.908	36.6
348.291	75.69
348.674	100.77
349.057	119.08
349.44	134.9
349.823	132.41
350.206	171.05
350.588	197.95
350.971	190.94
351.354	214.9
351.737	240.66
352.119	243.82
352.502	257.38
352.884	267.55
353.267	265.29
353.65	301.9
354.032	301.45
354.414	297.61
354.797	316.59
355.179	335.57
355.562	291.05
355.944	311.39
356.326	338.96
356.709	332.86
357.091	330.82
357.473	325.85
357.855	329.69
358.238	327.43
358.62	347.32
359.002	315.91
359.384	347.55
359.766	344.16
360.148	318.62
360.53	340.09
360.912	307.55
361.294	320.43
361.676	318.62
362.057	346.19
362.439	331.05
362.821	322.69
363.203	315.46
363.584	309.58
363.966	327.66
364.348	322.69
364.729	304.16
365.111	312.29
365.493	315.68
365.874	302.58
366.256	308.45
366.637	302.35
367.019	301.45
367.4	309.13
367.781	323.14
368.163	287.66
368.544	300.77
368.925	296.48
369.306	312.52
369.688	303.03
370.069	295.57
370.45	286.08
370.831	305.51
371.212	300.32
371.593	304.84
371.974	307.77
372.355	291.73
372.736	311.16
373.117	306.19
373.498	298.06
373.879	298.28
374.26	287.89
374.641	311.39
375.021	310.03
375.402	311.39
375.783	338.96
376.163	310.71
376.544	316.81
376.925	314.1
377.305	307.1
377.686	317.94
378.066	338.28
378.447	298.06
378.827	329.92
379.208	331.73
379.588	344.84
379.968	326.76
380.349	324.72
380.729	327.43
381.109	312.97
381.489	334.89
381.87	331.5
382.25	344.84
382.63	332.63
383.01	342.58
383.39	343.71
383.77	318.85
384.15	321.11
384.53	338.51
384.91	327.43
385.29	336.47
385.67	336.47
386.049	350.26
386.429	329.47
386.809	331.95
387.189	345.74
387.568	343.93
387.948	346.64
388.328	341.45
388.707	331.28
389.087	357.94
389.466	354.33
389.846	343.03
390.225	340.99
390.605	348.45
390.984	338.73
391.363	357.04
391.743	358.85
392.122	348.45
392.501	369.69
392.881	362.01
393.26	340.09
393.639	355.46
394.018	368.34
394.397	348
394.776	362.91
395.155	366.3
395.534	363.59
395.913	374.89
396.292	386.87
396.671	380.99
397.05	357.26
397.429	364.5
397.808	388.68
398.186	368.56
398.565	364.27
398.944	388.45
399.323	381.9
399.701	369.24
400.08	362.69
400.458	379.64
400.837	387.55
401.215	378.06
401.594	386.42
401.972	387.32
402.351	388.9
402.729	390.03
403.107	397.26
403.486	402.69
403.864	406.75
404.242	403.14
404.62	395.46
404.999	381.9
405.377	391.61
405.755	405.4
406.133	411.5
406.511	391.61
406.889	382.35
407.267	403.14
407.645	402.69
408.023	411.95
408.401	408.79
408.779	408.34
409.156	409.01
409.534	413.31
409.912	406.08
410.29	440.2
410.667	413.76
411.045	441.33
411.422	419.18
411.8	447.88
412.178	429.58
412.555	437.26
412.933	422.8
413.31	449.92
413.687	442.91
414.065	457.15
414.442	433.87
414.819	455.34
415.197	449.92
415.574	460.09
415.951	456.02
416.328	464.15
416.705	472.74
417.082	448.79
417.46	460.99
417.837	472.97
418.214	473.87
418.591	468
418.967	461.67
419.344	477.04
419.721	490.37
420.098	467.32
420.475	496.92
420.852	475.23
421.228	463.25
421.605	500.54
421.982	489.92
422.358	504.61
422.735	511.61
423.111	519.75
423.488	524.49
423.864	526.3
424.241	517.03
424.617	515.68
424.994	521.78
425.37	509.13
425.746	510.93
426.123	508.45
426.499	529.69
426.875	514.77
427.251	529.46
427.627	553.42
428.003	555
428.379	539.63
428.756	526.3
429.132	543.7
429.507	550.25
429.883	562.46
430.259	559.07
430.635	562.23
431.011	563.59
431.387	572.85
431.763	586.86
432.138	578.05
432.514	583.7
432.89	602.91
433.265	590.48
433.641	587.09
434.016	633.19
434.392	614.66
434.767	615.11
435.143	623.7
435.518	625.96
435.894	642.23
436.269	630.25
436.644	613.3
437.02	651.49
437.395	643.36
437.77	651.27
438.145	674.54
438.52	639.29
438.895	660.31
439.271	677.48
439.646	706.41
440.021	673.41
440.395	678.16
440.77	663.7
441.145	700.53
441.52	722.68
441.895	690.14
442.27	698.05
442.645	709.57
443.019	702.11
443.394	712.51
443.769	725.16
444.143	711.61
444.518	743.02
444.892	733.3
445.267	730.81
445.641	739.63
446.016	723.36
446.39	707.54
446.764	723.81
447.139	738.72
447.513	739.85
447.887	734.88
448.262	756.8
448.636	777.82
449.01	749.34
449.384	761.77
449.758	729.91
450.132	755.67
450.506	777.82
450.88	770.81
451.254	794.09
451.628	775.33
452.002	813.98
452.376	797.48
452.75	827.99
453.123	787.54
453.497	790.93
453.871	827.08
454.244	815.56
454.618	819.4
454.992	864.37
455.365	856.23
455.739	839.29
456.112	855.56
456.486	880.64
456.859	872.96
457.232	891.04
457.606	903.24
457.979	898.27
458.352	900.08
458.725	917.93
459.099	893.97
459.472	942.11
459.845	957.7
460.218	934.2
460.591	945.95
460.964	961.77
461.337	972.16
461.71	990.69
462.083	976.01
462.456	988.21
462.829	1001.77
463.201	1005.16
463.574	1032.5
463.947	1014.87
464.32	1012.39
464.692	1064.14
465.065	1085.61
465.438	1073.86
465.81	1111.6
466.183	1116.57
466.555	1100.75
466.928	1130.35
467.3	1134.87
467.672	1151.82
468.045	1166.73
468.417	1178.03
468.789	1163.8
469.161	1186.17
469.534	1209.22
469.906	1202.89
470.278	1245.15
470.65	1245.15
471.022	1284.92
471.394	1311.14
471.766	1324.47
472.138	1352.49
472.51	1336.67
472.882	1371.93
473.253	1380.29
473.625	1400.85
473.997	1423.9
474.369	1430
474.74	1454.41
475.112	1493.28
475.484	1495.99
475.855	1524.69
476.227	1540.74
476.598	1576.44
476.97	1603.11
477.341	1645.82
477.713	1640.85
478.084	1702.99
478.455	1724.23
478.827	1722.43
479.198	1779.83
479.569	1782.31
479.94	1806.04
480.311	1873.83
480.682	1880.61
481.053	1929.65
481.424	1951.57
481.795	2009.2
482.166	2034.51
482.537	2067.05
482.908	2112.47
483.279	2080.84
483.65	2169.65
484.021	2243.99
484.391	2252.81
484.762	2227.95
485.133	2253.94
485.503	2337.1
485.874	2388.17
486.244	2397.89
486.615	2420.26
486.985	2467.72
487.356	2539.81
487.726	2539.13
488.097	2622.97
488.467	2636.98
488.837	2680.59
489.207	2724.89
489.578	2740.48
489.948	2766.01
490.318	2834.94
490.688	2852.34
491.058	2898.89
491.428	2938.21
491.798	2993.58
492.168	3027.48
492.538	3051.21
492.908	3084.42
493.278	3145.89
493.648	3135.27
494.017	3167.36
494.387	3244.19
494.757	3223.63
495.126	3242.16
495.496	3308.6
495.866	3307.24
496.235	3359.9
496.605	3371.87
496.974	3425.66
497.344	3449.39
497.713	3464.53
498.082	3530.97
498.452	3572.77
498.821	3553.34
499.19	3580.23
499.559	3610.29
499.928	3649.16
500.298	3697.97
500.667	3723.05
501.036	3723.05
501.405	3729.83
501.774	3765.54
502.143	3756.72
502.512	3836.27
502.88	3854.35
503.249	3891.86
503.618	3848.92
503.987	3867.23
504.356	3867.91
504.724	3920.11
505.093	3915.14
505.462	3922.37
505.83	3972.08
506.199	4015.93
506.567	4035.81
506.936	3994.91
507.304	4081.46
507.672	4071.97
508.041	4113.55
508.409	4126.88
508.777	4186.54
509.145	4214.56
509.514	4204.62
509.882	4216.6
510.25	4237.61
510.618	4265.64
510.986	4268.8
511.354	4295.24
511.722	4356.26
512.09	4378.18
512.458	4321
512.826	4332.53
513.193	4368.91
513.561	4369.14
513.929	4473.77
514.297	4466.99
514.664	4495.01
515.032	4498.85
515.4	4486.42
515.767	4584.05
516.135	4530.94
516.502	4490.72
516.869	4619.98
517.237	4638.96
517.604	4589.47
517.972	4650.71
518.339	4660.43
518.706	4637.38
519.073	4685.06
519.44	4699.07
519.808	4737.04
520.175	4763.48
520.542	4800.99
520.909	4764.15
521.276	4805.74
521.643	4798.5
522.009	4844.15
522.376	4882.34
522.743	4887.99
523.11	4895.22
523.477	4905.85
523.843	4967.31
524.21	5024.71
524.577	5041.21
524.943	5072.39
525.31	5065.84
525.676	5120.3
526.043	5156.23
526.409	5173.64
526.776	5245.27
527.142	5191.94
527.508	5261.77
527.874	5260.86
528.241	5284.37
528.607	5313.74
528.973	5334.76
529.339	5374.76
529.705	5417.24
530.071	5424.7
530.437	5460.18
530.803	5484.81
531.169	5484.81
531.535	5508.77
531.901	5501.76
532.267	5545.15
532.632	5637.35
532.998	5622.44
533.364	5619.05
533.73	5692.72
534.095	5667.18
534.461	5691.14
534.826	5797.35
535.192	5768.65
535.557	5804.35
535.923	5833.05
536.288	5892.71
536.653	5880.28
537.019	5875.09
537.384	5900.17
537.749	5948.08
538.114	5924.58
538.479	5920.96
538.845	5982.65
539.21	5975.65
539.575	6014.29
539.94	6039.15
540.305	6106.94
540.67	6046.83
541.034	6131.12
541.399	6189.65
541.764	6131.35
542.129	6237.79
542.494	6198.69
542.858	6228.97
543.223	6260.16
543.587	6273.27
543.952	6308.75
544.316	6298.58
544.681	6320.05
545.045	6390.1
545.41	6419.7
545.774	6430.78
546.138	6406.15
546.503	6468.74
546.867	6480.72
547.231	6530.21
547.595	6554.39
547.959	6583.99
548.324	6522.75
548.688	6607.95
549.052	6635.74
549.416	6641.39
549.779	6675.74
550.143	6672.13
550.507	6701.96
550.871	6701.96
551.235	6770.88
551.599	6791.45
551.962	6755.06
552.326	6806.81
552.689	6848.17
553.053	6866.47
553.417	6890.88
553.78	6974.04
554.143	6937.66
554.507	6963.42
554.87	6966.58
555.234	7017.65
555.597	6981.5
555.96	7050.2
556.323	7088.16
556.686	7074.15
557.05	7141.49
557.413	7170.42
557.776	7135.39
558.139	7204.32
558.502	7221.72
558.865	7226.69
559.228	7268.95
559.59	7241.6
559.953	7329.96
560.316	7350.3
560.679	7348.95
561.041	7407.25
561.404	7441.37
561.767	7454.25
562.129	7425.33
562.492	7522.95
562.854	7537.87
563.217	7572.44
563.579	7508.71
563.941	7574.7
564.304	7627.58
564.666	7651.08
565.028	7662.38
565.39	7686.79
565.753	7707.35
566.115	7760.46
566.477	7854.69
566.839	7796.17
567.201	7863.06
567.563	7837.75
567.925	7882.26
568.287	7876.16
568.648	7948.25
569.01	7990.06
569.372	8073.45
569.734	7986.89
570.095	8115.25
570.457	8135.37
570.819	8192.54
571.18	8224.4
571.542	8236.61
571.903	8264.18
572.265	8328.58
572.626	8349.37
572.987	8345.3
573.349	8395.92
573.71	8475.7
574.071	8484.96
574.432	8525.41
574.794	8635.24
575.155	8690.15
575.516	8646.54
575.877	8692.19
576.238	8771.51
576.599	8891.05
576.96	8908.23
577.32	8946.19
577.681	9108.9
578.042	9179.63
578.403	9185.51
578.763	9206.3
579.124	9303.24
579.485	9419.63
579.845	9541.43
580.206	9577.14
580.566	9625.04
580.927	9770.58
581.287	9895.54
581.648	10014.64
582.008	10129.21
582.368	10232.03
582.728	10365.59
583.089	10474.51
583.449	10655.75
583.809	10692.36
584.169	10902.52
584.529	11121.73
584.889	11216.19
585.249	11338.9
585.609	11501.38
585.969	11739.34
586.329	11921.03
586.688	12131.64
587.048	12240.12
587.408	12463.61
587.768	12611.18
588.127	12796.71
588.487	12976.82
588.846	13299.75
589.206	13464.49
589.565	13664.94
589.925	13939.51
590.284	14116.22
590.643	14414.52
591.003	14647.51
591.362	14967.28
591.721	15204.33
592.08	15448.85
592.44	15714.15
592.799	15944.2
593.158	16103.97
593.517	16280.91
593.876	16559.1
594.235	16891.97
594.593	17170.61
594.952	17435.69
595.311	17608.56
595.67	17965.84
596.029	18367.41
596.387	18573.06
596.746	18916.1
597.104	19056.21
597.463	19323.32
597.822	19735.06
598.18	19891.21
598.538	20151.32
598.897	20485.77
599.255	20540.24
599.613	21053.9
599.972	21238.98
600.33	21607.55
600.688	21772.75
601.046	22082.57
601.404	22372.5
601.762	22602.33
602.12	22983.79
602.478	23263.55
602.836	23471.91
603.194	23594.39
603.552	23864.67
603.91	24017.89
604.268	24487.7
604.625	24611.77
604.983	24908.48
605.341	25007.92
605.698	25411.07
606.056	25614.68
606.413	25811.51
606.771	26205.17
607.128	26409.46
607.485	26598.83
607.843	26816
608.2	27051.93
608.557	27430.68
608.914	27491.24
609.272	27755.64
609.629	27932.36
609.986	28272.01
610.343	28363.99
610.7	28690.53
611.057	28832
611.414	28956.74
611.771	29288.48
612.127	29471.75
612.484	29538.87
612.841	29815.7
613.198	29860.22
613.554	30004.62
613.911	30391.96
614.267	30596.02
614.624	30648.9
614.98	30640.54
615.337	31100.86
615.693	31235.32
616.05	31311.25
616.406	31548.08
616.762	31711.92
617.118	31733.16
617.475	31901.75
617.831	32149.2
618.187	32268.29
618.543	32440.26
618.899	32611.33
619.255	32645
619.611	32747.37
619.967	32932.45
620.323	33032.56
620.678	33115.95
621.034	33174.25
621.39	33284.53
621.746	33259.45
622.101	33748.48
622.457	33549.84
622.812	33780.57
623.168	34004.74
623.523	33915.48
623.879	34168.8
624.234	34077.28
624.589	34159.09
624.945	34289.71
625.3	34480.89
625.655	34518.85
626.01	34640.66
626.365	34715.01
626.72	34715.91
627.075	34719.98
627.43	34798.17
627.785	34764.72
628.14	34895.79
628.495	34899.41
628.85	34983.25
629.205	35000.2
629.559	35259.62
629.914	35030.03
630.269	35124.71
630.623	34979.18
630.978	35082.68
631.332	35277.02
631.687	35403.57
632.041	35199.96
632.396	35297.36
632.75	35199.06
633.104	35300.98
633.459	35236.35
633.813	35346.85
634.167	35296.91
634.521	35355.67
634.875	35519.96
635.229	35341.2
635.583	35201.09
635.937	35500.3
636.291	35366.06
636.645	35369
636.999	35372.84
637.352	35508.88
637.706	35318.38
638.06	35426.4
638.413	35393.86
638.767	35271.37
639.121	35496.68
639.474	35142.34
639.828	35191.38
640.181	35337.59
640.534	35340.07
640.888	35266.86
641.241	35191.15
641.594	35191.6
641.947	35456.91
642.301	35239.06
642.654	35365.16
643.007	35158.16
643.36	35264.37
643.713	35144.82
644.066	35396.8
644.419	35046.75
644.771	34866.19
645.124	34625.74
645.477	34657.83
645.83	34466.42
646.182	34431.62
646.535	34208.58
646.888	34308.69
647.24	34208.8
647.593	34272.76
647.945	34286.77
648.298	34160.44
648.65	34053.55
649.002	33910.73
649.355	34243.61
649.707	34118.41
650.059	34279.54
650.411	34567.89
650.763	34666.42
651.115	35076.8
651.467	34958.16
651.819	35061.44
652.171	34883.59
652.523	34880.42
652.875	34848.56
653.227	34776.92
653.578	34857.83
653.93	34863.25
654.282	34737.83
654.633	34657.38
654.985	34791.16
655.337	34632.52
655.688	34715.01
656.039	34806.98
656.391	34522.24
656.742	34591.39
657.094	34600.88
657.445	34732.18
657.796	34569.25
658.147	34591.17
658.498	34508.46
658.849	34787.55
659.2	34561.34
659.551	34579.19
659.902	34692.41
660.253	34648.34
660.604	34553.88
660.955	34420.55
661.306	34591.84
661.656	34621.45
662.007	34404.96
662.358	34498.51
662.708	34550.04
663.059	34427.33
663.409	34272.08
663.76	34548.46
664.11	34463.03
664.461	34489.47
664.811	34430.04
665.161	34520.66
665.511	34312.98
665.862	34353.43
666.212	34551.17
666.562	34500.1
666.912	34445.86
667.262	34509.81
667.612	34386.88
667.962	34428.01
668.312	34377.16
668.662	34577.61
669.011	34467.1
669.361	34452.41
669.711	34421.23
670.06	34298.29
670.41	34247.9
670.76	34241.8
671.109	34452.64
671.459	34280.21
671.808	34180.1
672.157	34392.08
672.507	34066.66
672.856	34124.74
673.205	34073.21
673.554	34319.54
673.904	34181.23
674.253	34308.01
674.602	34240.89
674.951	33620.34
675.3	33526.34
675.649	34097.62
675.998	34032.54
676.346	34110.5
676.695	34198.41
677.044	33908.7
677.393	33950.05
677.741	33982.82
678.09	33886.55
678.438	33801.81
678.787	33876.16
679.135	33813.79
679.484	33690.85
679.832	33820.34
680.181	33539.44
680.529	33746.44
680.877	33566.56
681.225	33725.2
681.573	33778.31
681.922	33515.94
682.27	33347.58
682.618	33395.94
682.966	33360.46
683.314	33446.11
683.661	33425.32
684.009	33094.26
684.357	33185.78
684.705	33066.46
685.053	33161.37
685.4	33210.19
685.748	32894.26
686.095	32929.97
686.443	32797.99
686.79	32760.03
687.138	32928.39
687.485	32831.66
687.832	32625.79
688.18	32712.57
688.527	32595.74
688.874	32626.25
689.221	32560.03
689.568	32407.95
689.915	32352.13
690.262	32283.2
690.609	32302.19
690.956	32140.38
691.303	32034.17
691.65	31891.8
691.997	32067.62
692.344	31768.42
692.69	31600.06
693.037	31751.24
693.383	31491.81
693.73	31641.87
694.077	31379.73
694.423	31413.62
694.769	31360.52
695.116	31219.96
695.462	31345.83
695.808	31262.44
696.155	31229.22
696.501	30953.52
696.847	30942.9
697.193	30701.1
697.539	30740.87
697.885	30642.34
698.231	30554.89
698.577	30509.92
698.923	30402.58
699.269	30293.2
699.614	30150.38
699.96	30130.49
700.306	30203.49
700.651	29979.54
700.997	29900.44
701.342	29952.64
701.688	29908.13
702.033	29823.16
702.379	29655.25
702.724	29572.54
703.069	29628.81
703.415	29248.71
703.76	29375.94
704.105	29383.39
704.45	29210.74
704.795	29046.91
705.14	29055.49
705.485	28981.14
705.83	28873.8
706.175	29020.47
706.52	28794.26
706.865	28776.86
707.209	28860.7
707.554	28528.73
707.899	28724.65
708.243	28553.59
708.588	28592.91
708.932	28178
709.277	28317.21
709.621	28277.43
709.966	28103.88
710.31	28222.97
710.654	27823.66
710.998	27946.82
711.342	28055.07
711.687	27888.29
712.031	27762.65
712.375	27736.88
712.719	27721.74
713.063	27597.68
713.407	27734.17
713.75	27518.36
714.094	27544.12
714.438	27451.92
714.782	27441.52
715.125	27323.56
715.469	27361.07
715.812	27285.14
716.156	27265.03
716.499	27106.62
716.843	27100.97
717.186	26978.49
717.53	27143.45
717.873	26985.49
718.216	26950.46
718.559	26780.75
718.902	26730.13
719.246	26727.64
719.589	26626.18
719.932	26486.3
720.275	26585.95
720.617	26649
720.96	26475
721.303	26423.92
721.646	26399.29
721.989	26300.31
722.331	26361.55
722.674	26199.3
723.016	26269.8
723.359	26270.26
723.701	26157.49
724.044	26141.45
724.386	25908.01
724.729	26006.76
725.071	25959.53
725.413	25906.65
725.755	25935.8
726.097	25853.77
726.439	25744.17
726.782	25731.06
727.124	25941.22
727.465	25756.6
727.807	25721.34
728.149	25624.62
728.491	25649.71
728.833	25679.76
729.175	25457.85
729.516	25539.2
729.858	25490.62
730.199	25461.46
730.541	25414.01
730.882	25303.05
731.224	25326.33
731.565	25100.57
731.906	25191.19
732.248	25274.35
732.589	25015.83
732.93	25014.24
733.271	25066.22
733.612	25072.09
733.953	25045.2
734.294	24937.41
734.635	24820.12
734.976	24915.49
735.317	24768.6
735.658	24841.37
735.999	24675.95
736.339	24777.87
736.68	24938.77
737.021	24755.95
737.361	24617.19
737.702	24710.07
738.042	24651.77
738.383	24609.28
738.723	24647.7
739.063	24529.06
739.404	24654.7
739.744	24494.03
740.084	24426.01
740.424	24397.54
740.764	24336.97
741.104	24423.3
741.444	24266.01
741.784	24144.66
742.124	24230.31
742.464	24294.26
742.804	24166.58
743.143	24014.04
743.483	23987.38
743.823	24068.05
744.162	23932.46
744.502	23980.6
744.841	23919.36
745.181	23993.25
745.52	23875.52
745.86	24015.17
746.199	23789.42
746.538	23819.92
746.877	23921.16
747.216	23811.11
747.556	23681.85
747.895	23761.85
748.234	23636.43
748.573	23473.94
748.911	23627.61
749.25	23593.49
749.589	23449.09
749.928	23560.04
750.267	23469.65
750.605	23458.35
750.944	23363.21
751.283	23192.82
751.621	23325.47
751.96	23184.69
752.298	23204.12
752.636	23168.64
752.975	23053.84
753.313	22978.14
753.651	23160.28
753.989	22982.21
754.327	22985.82
754.666	22780.63
755.004	22959.83
755.342	22941.3
755.679	22882.55
756.017	22739.05
756.355	22781.08
756.693	22610.24
757.031	22631.48
757.368	22613.63
757.706	22581.76
758.044	22570.24
758.381	22583.8
758.719	22498.38
759.056	22500.86
759.394	22383.35
759.731	22331.83
760.068	22216.58
760.405	22242.56
760.743	22047.99
761.08	22090.25
761.417	21960.09
761.754	21853.65
762.091	21852.29
762.428	21806.42
762.765	21688.46
763.102	21759.87
763.438	21599.42
763.775	21551.51
764.112	21659.08
764.449	21554
764.785	21368.46
765.122	21232.65
765.458	21147.9
765.795	21215.02
766.131	21180.45
766.467	21022.71
766.804	20935.03
767.14	20899.78
767.476	20853.9
767.812	20780.91
768.148	20753.11
768.485	20695.49
768.821	20654.13
769.157	20645.09
769.492	20558.54
769.828	20533.91
770.164	20375.95
770.5	20299.11
770.836	20255.5
771.171	20160.59
771.507	20105.9
771.842	19933.47
772.178	19888.5
772.513	20003.08
772.849	19877.88
773.184	19831.78
773.519	19794.72
773.855	19624.55
774.19	19599.02
774.525	19518.34
774.86	19533.48
775.195	19476.31
775.53	19300.27
775.865	19219.82
776.2	19136.21
776.535	18977.79
776.87	18977.34
777.205	18949.32
777.539	18854.63
777.874	18854.41
778.209	18714.3
778.543	18579.38
778.878	18584.36
779.212	18581.64
779.547	18476.56
779.881	18376
780.215	18339.62
780.55	18343.91
780.884	18186.4
781.218	18094.88
781.552	18143.92
781.886	18078.61
782.22	17970.59
782.554	17880.65
782.888	17661.44
783.222	17733.98
783.556	17659.18
783.889	17534.89
784.223	17425.06
784.557	17493.76
784.89	17500.99
785.224	17398.17
785.557	17377.38
785.891	17273.43
786.224	17242.02
786.558	17209.02
786.891	17011.97
787.224	17000.44
787.557	16872.76
787.891	16894
788.224	16823.95
788.557	16798.64
788.89	16750.73
789.223	16774.23
789.556	16594.13
789.888	16593.9
790.221	16518.2
790.554	16405.43
790.887	16409.27
791.219	16298.99
791.552	16329.5
791.884	16122.27
792.217	16190.97
792.549	16150.97
792.882	16024.88
793.214	15894.71
793.546	15986.46
793.879	15901.04
794.211	15748.27
794.543	15742.85
794.875	15760.25
795.207	15786.01
795.539	15692.23
795.871	15660.82
796.203	15427.6
796.535	15424.44
796.867	15416.08
797.198	15387.83
797.53	15364.1
797.862	15233.03
798.193	15237.1
798.525	15050.21
798.856	15152.81
799.188	15019.03
799.519	14974.28
799.85	14908.29
800.182	14950.55
800.513	15028.74
800.844	14776.77
801.175	14856.32
801.506	14783.55
801.837	14696.77
802.168	14629.21
802.499	14571.35
802.83	14567.51
803.161	14528.19
803.491	14497.01
803.822	14520.73
804.153	14329.55
804.483	14300.85
804.814	14232.38
805.145	14191.48
805.475	14257.69
805.805	14239.61
806.136	14209.78
806.466	14095.43
806.796	14082.55
807.126	13914.42
807.457	13993.74
807.787	13954.87
808.117	13820.41
808.447	13798.95
808.777	13860.41
809.107	13788.78
809.436	13722.11
809.766	13707.65
810.096	13669
810.426	13612.28
810.755	13652.06
811.085	13638.05
811.414	13647.99
811.744	13422.23
812.073	13424.04
812.403	13439.63
812.732	13360.09
813.061	13343.14
813.39	13274.67
813.719	13225.63
814.049	13234.89
814.378	13253.87
814.707	13113.09
815.036	13231.73
815.365	13123.03
815.693	13038.97
816.022	13040.32
816.351	12923.71
816.68	12895.24
817.008	12960.78
817.337	12801.68
817.665	12870.83
817.994	12858.18
818.322	12820.44
818.651	12690.05
818.979	12661.8
819.307	12741.8
819.636	12641.69
819.964	12592.2
820.292	12603.27
820.62	12593.33
820.948	12552.42
821.276	12612.99
821.604	12584.74
821.932	12600.56
822.259	12651.18
822.587	12551.07
822.915	12505.65
823.243	12600.78
823.57	12572.54
823.898	12503.39
824.225	12499.77
824.553	12521.01
824.88	12549.94
825.207	12551.75
825.535	12492.31
825.862	12510.62
826.189	12523.95
826.516	12549.03
826.843	12552.2
827.17	12609.6
827.497	12535.25
827.824	12523.27
828.151	12587.9
828.478	12476.95
828.805	12540
829.131	12457.51
829.458	12494.12
829.785	12539.32
830.111	12461.35
830.438	12504.52
830.764	12459.77
831.09	12415.7
831.417	12408.7
831.743	12509.26
832.069	12460.45
832.395	12369.6
832.722	12396.95
833.048	12384.07
833.374	12370.73
833.7	12269.49
834.026	12322.15
834.351	12324.63
834.677	12360.79
835.003	12378.64
835.329	12345.2
835.654	12264.75
835.98	12238.99
836.306	12262.26
836.631	12223.62
836.956	12238.31
837.282	12329.61
837.607	12121.02
837.932	12171.19
838.258	12129.16
838.583	12144.98
838.908	12074.7
839.233	12033.79
839.558	12016.85
839.883	11967.58
840.208	12003.96
840.533	11919.22
840.858	12001.25
841.182	11980.01
841.507	12062.27
841.832	11844.42
842.156	11909.5
842.481	11800.35
842.805	11838.32
843.13	11825.44
843.454	11801.26
843.778	11823.18
844.103	11784.08
844.427	11679.45
844.751	11736.4
845.075	11708.6
845.399	11620.47
845.723	11517.2
846.047	11502.06
846.371	11433.13
846.695	11460.93
847.019	11390.19
847.343	11290.31
847.666	11233.36
847.99	11210.54
848.313	11241.95
848.637	11107.49
848.96	11084.21
849.284	11159.69
849.607	11058.23
849.931	11012.13
850.254	10882.19
850.577	10911.56
850.9	10716.09
851.223	10805.13
851.546	10780.27
851.869	10622.31
852.192	10655.75
852.515	10628.86
852.838	10549.54
853.161	10517.9
853.483	10543.89
853.806	10448.98
854.129	10470.67
854.451	10402.2
854.774	10372.14
855.096	10295.76
855.419	10299.15
855.741	10273.16
856.063	10221.64
856.385	10217.8
856.708	10193.39
857.03	10146.16
857.352	10133.28
857.674	10131.24
857.996	10108.87
858.318	9969.89
858.64	10018.25
858.961	10022.32
859.283	9980.74
859.605	9937.13
859.926	9971.93
860.248	9871.14
860.57	9841.31
860.891	9885.83
861.212	9798.6
861.534	9765.6
861.855	9778.94
862.176	9716.57
862.498	9736
862.819	9768.99
863.14	9711.14
863.461	9690.8
863.782	9614.65
864.103	9603.12
864.424	9556.57
864.745	9667.53
865.065	9601.99
865.386	9540.07
865.707	9477.48
866.027	9541.43
866.348	9452.17
866.668	9483.58
866.989	9391.38
867.309	9357.03
867.63	9376.69
867.95	9437.93
868.27	9409.91
868.59	9330.81
868.91	9370.59
869.23	9366.97
869.55	9296.01
869.87	9227.99
870.19	9275.45
870.51	9278.61
870.83	9231.83
871.15	9237.94
871.469	9223.02
871.789	9205.85
872.109	9239.52
872.428	9169.46
872.748	9219.18
873.067	9180.54
873.386	9227.77
873.706	9154.55
874.025	9138.05
874.344	9121.1
874.663	9144.6
874.982	9040.88
875.301	9038.17
875.62	9021.22
875.939	8977.6
876.258	9040.43
876.577	9017.38
876.896	8982.35
877.214	8973.76
877.533	8957.04
877.852	8936.25
878.17	8984.38
878.489	8899.41
878.807	8931.73
879.125	8849.92
879.444	8956.13
879.762	8839.53
880.08	8838.62
880.398	8858.28
880.716	8783.26
881.034	8770.15
881.352	8783.26
881.67	8744.39
881.988	8752.52
882.306	8724.73
882.624	8638.63
882.941	8668.01
883.259	8602.02
883.577	8612.64
883.894	8594.11
884.212	8609.03
884.529	8578.29
884.846	8575.81
885.164	8557.5
885.481	8516.37
885.798	8550.95
886.115	8431.85
886.432	8472.53
886.75	8444.74
887.067	8425.75
887.383	8409.26
887.7	8425.98
888.017	8362.25
888.334	8335.81
888.651	8324.06
888.967	8361.12
889.284	8232.09
889.6	8192.09
889.917	8155.48
890.233	8228.92
890.55	8186.44
890.866	8181.47
891.182	8165.19
891.498	8104.86
891.815	8083.39
892.131	8047.91
892.447	8031.64
892.763	7994.13
893.079	8003.17
893.395	7993.67
893.71	7941.25
894.026	7916.61
894.342	7893.34
894.657	7911.64
894.973	7901.7
895.289	7810.85
895.604	7834.81
895.92	7661.25
896.235	7745.32
896.55	7720.23
896.865	7674.59
897.181	7669.16
897.496	7699.22
897.811	7605.66
898.126	7599.56
898.441	7574.02
898.756	7535.83
899.071	7479.11
899.386	7513.69
899.7	7441.6
900.015	7364.54
900.33	7370.87
900.644	7373.58
900.959	7334.93
901.273	7341.49
901.588	7276.63
901.902	7212.68
902.216	7222.85
902.531	7223.07
902.845	7188.27
903.159	7106.47
903.473	7111.21
903.787	7072.34
904.101	7034.38
904.415	7036.64
904.729	6970.2
905.042	6972.68
905.356	6989.86
905.67	6974.27
905.984	6978.79
906.297	6885.68
906.611	6843.65
906.924	6880.26
907.237	6861.95
907.551	6804.78
907.864	6816.08
908.177	6781.05
908.491	6778.56
908.804	6699.02
909.117	6642.07
909.43	6632.58
909.743	6655.86
910.056	6658.34
910.368	6622.64
910.681	6531.34
910.994	6547.16
911.307	6511.23
911.619	6456.54
911.932	6419.25
912.244	6391.68
912.557	6404.11
912.869	6360.5
913.181	6333.83
913.494	6370.21
913.806	6291.57
914.118	6260.61
914.43	6216.55
914.742	6220.61
915.054	6199.82
915.366	6163.67
915.678	6119.37
915.99	6132.71
916.302	6080.05
916.613	6033.73
916.925	6017.68
917.236	6030.79
917.548	5997.57
917.859	6033.05
918.171	5958.7
918.482	5936.1
918.794	5942.2
919.105	5877.8
919.416	5797.57
919.727	5817.46
920.038	5770
920.349	5746.05
920.66	5701.98
920.971	5733.85
921.282	5736.56
921.593	5636.67
921.903	5627.86
922.214	5626.28
922.525	5590.57
922.835	5602.55
923.146	5543.57
923.456	5559.16
923.767	5499.05
924.077	5489.33
924.387	5471.71
924.697	5459.5
925.008	5442.1
925.318	5462.67
925.628	5433.29
925.938	5388.54
926.248	5344.03
926.558	5279.62
926.867	5295.21
927.177	5297.25
927.487	5254.54
927.796	5187.87
928.106	5197.36
928.416	5156.91
928.725	5153.3
929.034	5152.62
929.344	5097.48
929.653	5095.22
929.962	5089.8
930.271	5019.97
930.581	5027.42
930.89	4983.13
931.199	4989.23
931.508	4961.66
931.817	4942.23
932.125	4944.26
932.434	4886.41
932.743	4877.15
933.051	4846.41
933.36	4785.17
933.669	4786.75
933.977	4762.35
934.286	4781.33
934.594	4726.19
934.902	4756.24
935.21	4766.19
935.519	4710.37
935.827	4697.04
936.135	4666.98
936.443	4611.84
936.751	4623.37
937.059	4568.91
937.367	4569.58
937.674	4560.54
937.982	4542.47
938.29	4545.86
938.597	4497.49
938.905	4459.08
939.213	4476.7
939.52	4435.35
939.827	4426.54
940.135	4422.24
940.442	4381.11
940.749	4384.73
941.056	4367.78
941.363	4329.59
941.67	4332.53
941.977	4291.85
942.284	4283.49
942.591	4251.4
942.898	4247.56
943.205	4246.88
943.511	4223.38
943.818	4163.72
944.125	4129.59
944.431	4147.9
944.738	4171.63
945.044	4091.63
945.35	4120.1
945.657	4097.96
945.963	4072.87
946.269	4012.99
946.575	4057.51
946.881	4022.03
947.187	3969.82
947.493	3970.95
947.799	3975.02
948.105	3941.8
948.41	3962.82
948.716	3917.4
949.022	3892.54
949.327	3932.09
949.633	3847.79
949.938	3804.41
950.244	3826.1
950.549	3774.35
950.854	3821.35
951.16	3767.34
951.465	3784.75
951.77	3742.94
952.075	3725.54
952.38	3711.75
952.685	3687.12
952.99	3665.2
953.294	3678.08
953.599	3655.93
953.904	3602.15
954.209	3621.59
954.513	3615.48
954.818	3605.09
955.122	3578.87
955.426	3561.02
955.731	3549.05
956.035	3558.99
956.339	3484.41
956.643	3526.9
956.948	3460.69
957.252	3471.08
957.556	3448.93
957.86	3446.9
958.163	3414.81
958.467	3391.08
958.771	3427.69
959.075	3382.04
959.378	3382.5
959.682	3366.23
959.985	3330.97
960.289	3315.38
960.592	3308.83
960.896	3308.6
961.199	3278.09
961.502	3249.17
961.805	3279.45
962.108	3261.37
962.411	3233.57
962.714	3219.56
963.017	3212.56
963.32	3206
963.623	3159.22
963.926	3146.12
964.228	3177.76
964.531	3123.07
964.833	3118.1
965.136	3077.65
965.438	3086.01
965.741	3078.77
966.043	3069.96
966.345	3091.2
966.648	3096.18
966.95	3012.34
967.252	3022.05
967.554	2989.74
967.856	2987.48
968.158	2956.52
968.46	2945.9
968.761	2914.49
969.063	2944.09
969.365	2984.31
969.666	2926.69
969.968	2904.99
970.269	2897.99
970.571	2899.12
970.872	2896.18
971.174	2881.94
971.475	2846.24
971.776	2854.15
972.077	2823.64
972.378	2816.41
972.679	2789.74
972.98	2767.37
973.281	2774.15
973.582	2750.65
973.883	2755.39
974.183	2699.12
974.484	2758.11
974.785	2702.06
975.085	2674.04
975.386	2697.77
975.686	2680.59
975.986	2660.03
976.287	2669.52
976.587	2629.97
976.887	2612.12
977.187	2590.43
977.487	2631.33
977.787	2584.78
978.087	2580.03
978.387	2565.57
978.687	2565.12
978.987	2574.61
979.286	2529.64
979.586	2518.79
979.885	2535.06
980.185	2498.9
980.484	2499.81
980.784	2480.15
981.083	2460.49
981.382	2458
981.682	2462.75
981.981	2441.5
982.28	2396.31
982.579	2431.79
982.878	2420.26
983.177	2414.16
983.475	2392.92
983.774	2344.11
984.073	2349.08
984.372	2328.51
984.67	2342.3
984.969	2342.07
985.267	2314.5
985.566	2334.61
985.864	2323.54
986.162	2281.51
986.461	2274.28
986.759	2251.45
987.057	2266.82
987.355	2265.24
987.653	2274.95
987.951	2261.62
988.249	2262.98
988.547	2208.97
988.844	2215.07
989.142	2176.2
989.44	2157.44
989.737	2165.35
990.035	2163.32
990.332	2158.57
990.63	2152.02
990.927	2149.99
991.224	2142.08
991.521	2084.9
991.819	2079.25
992.116	2109.99
992.413	2087.84
992.71	2067.5
993.006	2053.27
993.303	2050.1
993.6	2071.8
993.897	2052.14
994.193	2022.76
994.49	2034.73
994.787	2008.75
995.083	1978.01
995.379	1992.48
995.676	1973.04
995.972	2025.02
996.268	1984.34
996.565	1958.35
996.861	1956.54
997.157	1957
997.453	1924.91
997.749	1916.77
998.044	1910.9
998.34	1908.64
998.636	1875.42
998.932	1894.17
999.227	1883.1
999.523	1896.89
999.818	1861.63
1000.114	1872.03
1000.409	1811.01
1000.704	1833.61
1001	1812.59
1001.295	1822.08
1001.59	1813.05
1001.885	1813.27
1002.18	1781.41
1002.475	1751.58
1002.77	1808.53
1003.065	1782.99
1003.359	1747.74
1003.654	1722.88
1003.949	1738.02
1004.243	1720.39
1004.538	1699.15
1004.832	1697.79
1005.127	1679.04
1005.421	1657.12
1005.715	1658.7
1006.009	1654.63
1006.304	1657.12
1006.598	1666.38
1006.892	1644.46
1007.186	1626.84
1007.48	1622.99
1007.773	1599.49
1008.067	1578.7
1008.361	1593.16
1008.655	1585.71
1008.948	1588.42
1009.242	1561.07
1009.535	1567.4
1009.829	1552.04
1010.122	1514.97
1010.415	1520.85
1010.708	1549.32
1011.001	1531.7
1011.295	1523.79
1011.588	1500.96
1011.881	1509.78
1012.173	1482.88
1012.466	1454.18
1012.759	1444.69
1013.052	1483.56
1013.344	1465.71
1013.637	1454.64
1013.93	1446.05
1014.222	1417.35
1014.514	1436.33
1014.807	1406.28
1015.099	1407.41
1015.391	1414.19
1015.683	1370.57
1015.976	1378.93
1016.268	1368.99
1016.56	1373.74
1016.851	1371.02
1017.143	1349.33
1017.435	1343
1017.727	1319.27
1018.018	1320.86
1018.31	1305.71
1018.602	1327.41
1018.893	1288.99
1019.185	1319.05
1019.476	1286.73
1019.767	1307.97
1020.058	1290.12
1020.35	1248.99
1020.641	1247.64
1020.932	1214.87
1021.223	1244.02
1021.514	1253.96
1021.804	1211.48
1022.095	1237.69
1022.386	1200.63
1022.677	1204.25
1022.967	1193.4
1023.258	1157.92
1023.548	1185.94
1023.839	1175.77
1024.129	1151.14
1024.419	1182.1
1024.709	1140.29
1025	1163.12
1025.29	1147.98
1025.58	1120.86
1025.87	1097.13
1026.16	1112.5
1026.449	1122.89
1026.739	1077.47
1027.029	1098.71
1027.319	1071.14
1027.608	1093.52
1027.898	1077.7
1028.187	1082.9
1028.477	1051.03
1028.766	1059.62
1029.055	1063.23
1029.344	1023.01
1029.634	1033.63
1029.923	1045.38
1030.212	1007.19
1030.501	1031.6
1030.79	1006.51
1031.078	1018.72
1031.367	981.65
1031.656	980.3
1031.945	980.53
1032.233	979.62
1032.522	971.71
1032.81	962.22
1033.099	950.02
1033.387	969
1033.675	940.07
1033.963	939.62
1034.251	933.75
1034.54	927.65
1034.828	937.59
1035.116	933.07
1035.403	934.65
1035.691	924.93
1035.979	902.11
1036.267	934.65
1036.554	883.35
1036.842	863.69
1037.129	885.16
1037.417	874.09
1037.704	870.92
1037.992	871.15
1038.279	874.09
1038.566	862.34
1038.853	862.34
1039.14	862.34
