Data from hue_280_FLMS001491_00067.txt Node
Date: Tue Feb 07 15:55:36 GMT 2017
User: dcchb
Spectrometer: FLMS00149
Trigger mode: 0
Integration Time (sec): 2.000000E-2
Scans to average: 10
Electric dark correction enabled: true
Nonlinearity correction enabled: false
Boxcar width: 0
XAxis mode: Wavelengths
Number of Pixels in Spectrum: 2048
>>>>>Begin Spectral Data<<<<<
341.393	-16.85
341.776	-16.85
342.16	-16.85
342.543	-43.06
342.927	-71.09
343.31	-76.51
343.693	-77.64
344.077	-45.32
344.46	-50.3
344.843	-45.78
345.226	-40.58
345.61	-23.18
345.993	-24.99
346.376	-17.3
346.759	9.82
347.142	15.92
347.525	27.22
347.908	70.38
348.291	81
348.674	89.36
349.057	107.89
349.44	122.58
349.823	118.29
350.206	158.51
350.588	159.87
350.971	186.76
351.354	224.27
351.737	249.58
352.119	251.17
352.502	264.05
352.884	267.21
353.267	263.82
353.65	300.88
354.032	308.34
354.414	302.46
354.797	284.61
355.179	297.49
355.562	285.52
355.944	301.79
356.326	328.68
356.709	308.79
357.091	332.97
357.473	330.49
357.855	325.06
358.238	320.54
358.62	313.31
359.002	330.26
359.384	320.77
359.766	323.03
360.148	323.48
360.53	327.55
360.912	317.38
361.294	325.97
361.676	299.75
362.057	322.58
362.439	314.21
362.821	318.96
363.203	312.41
363.584	322.8
363.966	302.69
364.348	332.75
364.729	310.15
365.111	310.83
365.493	303.82
365.874	303.37
366.256	307.89
366.637	304.05
367.019	300.66
367.4	300.88
367.781	303.59
368.163	307.21
368.544	310.15
368.925	278.96
369.306	291.84
369.688	311.28
370.069	285.52
370.45	295.91
370.831	305.18
371.212	303.59
371.593	298.62
371.974	282.13
372.355	276.7
372.736	307.44
373.117	318.73
373.498	304.72
373.879	290.71
374.26	311.96
374.641	317.6
375.021	301.33
375.402	328.23
375.783	323.93
376.163	326.87
376.544	337.49
376.925	315.34
377.305	337.49
377.686	296.14
378.066	309.47
378.447	337.94
378.827	350.82
379.208	321.67
379.588	326.42
379.968	303.82
380.349	324.16
380.729	318.96
381.109	314.44
381.489	321.9
381.87	326.87
382.25	341.33
382.63	307.44
383.01	330.26
383.39	338.85
383.77	337.72
384.15	317.83
384.53	339.3
384.91	355.57
385.29	343.59
385.67	335.68
386.049	334.78
386.429	345.4
386.809	335.91
387.189	367.09
387.568	351.73
387.948	358.73
388.328	339.07
388.707	361.9
389.087	334.78
389.466	349.24
389.846	350.37
390.225	364.16
390.605	352.41
390.984	358.06
391.363	367.77
391.743	365.06
392.122	361.22
392.501	352.41
392.881	337.72
393.26	358.28
393.639	365.74
394.018	350.82
394.397	376.59
394.776	372.97
395.155	373.65
395.534	380.43
395.913	368
396.292	392.18
396.671	393.31
397.05	376.81
397.429	382.91
397.808	393.53
398.186	387.66
398.565	393.31
398.944	404.16
399.323	398.28
399.701	408.22
400.08	385.63
400.458	390.15
400.837	397.38
401.215	399.86
401.594	413.87
401.972	407.09
402.351	396.47
402.729	423.82
403.107	415.46
403.486	423.82
403.864	417.04
404.242	429.92
404.62	435.34
404.999	412.97
405.377	422.01
405.755	419.75
406.133	446.41
406.511	453.87
406.889	432.63
407.267	460.88
407.645	456.81
408.023	454.32
408.401	466.08
408.779	462.91
409.156	477.83
409.534	480.31
409.912	484.83
410.29	491.16
410.667	490.26
411.045	504.04
411.422	489.8
411.8	512.4
412.178	508.11
412.555	535.23
412.933	536.81
413.31	557.37
413.687	549.46
414.065	551.72
414.442	533.42
414.819	566.19
415.197	577.48
415.574	576.81
415.951	552.63
416.328	603.47
416.705	614.09
417.082	577.94
417.46	607.09
417.837	628.56
418.214	594.66
418.591	658.84
418.967	628.33
419.344	616.35
419.721	633.75
420.098	658.16
420.475	634.21
420.852	671.49
421.228	694.77
421.605	681.66
421.982	664.26
422.358	711.04
422.735	693.41
423.111	703.36
423.488	711.04
423.864	749.46
424.241	723.24
424.617	734.32
424.994	760.53
425.37	749.01
425.746	783.36
426.123	772.06
426.499	767.08
426.875	789.91
427.251	796.24
427.627	831.72
428.003	832.85
428.379	821.77
428.756	855.44
429.132	869
429.507	871.49
429.883	856.12
430.259	873.75
430.635	901.32
431.011	899.96
431.387	923.69
431.763	927.98
432.138	914.43
432.514	918.94
432.89	940.87
433.265	970.24
433.641	969.56
434.016	989.23
434.392	1022.67
434.767	1039.17
435.143	1040.75
435.518	1024.93
435.894	1024.7
436.269	1055.89
436.644	1075.1
437.02	1087.3
437.395	1116.45
437.77	1102.44
438.145	1118.04
438.52	1176.34
438.895	1158.94
439.271	1161.2
439.646	1172.27
440.021	1166.62
440.395	1181.54
440.77	1187.19
441.145	1206.17
441.52	1237.35
441.895	1248.43
442.27	1279.16
442.645	1239.84
443.019	1271.48
443.394	1278.26
443.769	1302.66
444.143	1268.77
444.518	1291.59
444.892	1285.04
445.267	1310.57
445.641	1313.51
446.016	1319.16
446.39	1313.51
446.764	1339.95
447.139	1344.7
447.513	1324.58
447.887	1367.29
448.262	1360.97
448.636	1374.98
449.01	1378.14
449.384	1384.24
449.758	1388.76
450.132	1433.06
450.506	1414.98
450.88	1420.4
451.254	1403.9
451.628	1429.67
452.002	1445.48
452.376	1472.15
452.75	1464.24
453.123	1467.18
453.497	1481.87
453.871	1507.63
454.244	1516.67
454.618	1500.85
454.992	1535.65
455.365	1516.22
455.739	1568.65
456.112	1570.45
456.486	1586.5
456.859	1600.28
457.232	1623.11
457.606	1650
457.979	1613.39
458.352	1682.54
458.725	1673.28
459.099	1668.3
459.472	1700.62
459.845	1707.4
460.218	1730
460.591	1772.26
460.964	1715.08
461.337	1747.85
461.71	1776.1
462.083	1797.11
462.456	1790.11
462.829	1821.07
463.201	1818.81
463.574	1863.1
463.947	1814.29
464.32	1900.61
464.692	1898.13
465.065	1890.22
465.438	1898.13
465.81	1961.4
466.183	1947.17
466.555	1975.87
466.928	1990.33
467.3	1988.52
467.672	2028.97
468.045	2054.06
468.417	2086.6
468.789	2077.11
469.161	2086.82
469.534	2130.44
469.906	2169.76
470.278	2165.69
470.65	2149.42
471.022	2199.14
471.394	2238.23
471.766	2220.83
472.138	2251.34
472.51	2295.63
472.882	2333.37
473.253	2349.42
473.625	2337.89
473.997	2416.31
474.369	2414.5
474.74	2447.94
475.112	2452.46
475.484	2517.77
475.855	2532.69
476.227	2533.37
476.598	2602.52
476.97	2632.57
477.341	2641.61
477.713	2680.25
478.084	2666.24
478.455	2759.12
478.827	2771.55
479.198	2823.53
479.569	2823.3
479.94	2867.37
480.311	2884.77
480.682	2958.67
481.053	2997.53
481.424	3010.19
481.795	3022.62
482.166	3072.33
482.537	3119.11
482.908	3127.93
483.279	3214.93
483.65	3185.78
484.021	3230.52
484.391	3289.05
484.762	3307.81
485.133	3294.93
485.503	3337.64
485.874	3408.37
486.244	3466
486.615	3478.43
486.985	3540.34
487.356	3514.58
487.726	3540.8
488.097	3654.69
488.467	3615.15
488.837	3682.49
489.207	3751.86
489.578	3770.62
489.948	3787.34
490.318	3836.16
490.688	3868.02
491.058	3913.67
491.428	3904.4
491.798	3880.9
492.168	3992.31
492.538	4007.68
492.908	4052.87
493.278	4111.86
493.648	4100.56
494.017	4122.7
494.387	4096.94
494.757	4196.37
495.126	4225.52
495.496	4232.08
495.866	4217.84
496.235	4292.42
496.605	4265.52
496.974	4325.18
497.344	4360.21
497.713	4348.46
498.082	4363.37
498.452	4411.51
498.821	4460.32
499.19	4376.71
499.559	4452.41
499.928	4457.16
500.298	4501.68
500.667	4510.49
501.036	4507.78
501.405	4577.38
501.774	4531.28
502.143	4559.3
502.512	4564.5
502.88	4596.14
503.249	4598.17
503.618	4632.29
503.987	4656.93
504.356	4617.38
504.724	4678.85
505.093	4656.47
505.462	4700.54
505.83	4741.44
506.199	4754.55
506.567	4780.76
506.936	4760.43
507.304	4837.71
507.672	4882
508.041	4824.38
508.409	4886.52
508.777	4886.07
509.145	4889.01
509.514	4904.15
509.882	4937.37
510.25	4916.13
510.618	4981.89
510.986	4941.66
511.354	5005.17
511.722	5005.62
512.09	4995
512.458	5038.84
512.826	5086.52
513.193	5049.46
513.561	5045.39
513.929	5026.63
514.297	5097.37
514.664	5139.62
515.032	5107.31
515.4	5184.6
515.767	5138.04
516.135	5138.27
516.502	5133.52
516.869	5231.15
517.237	5244.25
517.604	5216.23
517.972	5169.91
518.339	5254.2
518.706	5218.04
519.073	5256.23
519.44	5230.24
519.808	5320.86
520.175	5269.56
520.542	5309.56
520.909	5375.32
521.276	5328.09
521.643	5381.88
522.009	5399.05
522.376	5387.98
522.743	5328.09
523.11	5486.28
523.477	5477.47
523.843	5505.26
524.21	5548.2
524.577	5538.03
524.943	5546.62
525.31	5582.1
525.676	5617.58
526.043	5691.02
526.409	5670.01
526.776	5702.55
527.142	5707.52
527.508	5683.57
527.874	5747.07
528.241	5781.87
528.607	5766.05
528.973	5794.97
529.339	5800.85
529.705	5833.17
530.071	5906.61
530.437	5855.99
530.803	5834.97
531.169	5920.4
531.535	5903.67
531.901	5889.66
532.267	5999.94
532.632	5952.94
532.998	5942.32
533.364	5980.05
533.73	5945.71
534.095	6041.3
534.461	6022.31
534.826	6042.43
535.192	6067.51
535.557	6102.09
535.923	6131.69
536.288	6116.32
536.653	6072.03
537.019	6060.96
537.384	6141.86
537.749	6099.15
538.114	6159.94
538.479	6105.25
538.845	6175.3
539.21	6184.57
539.575	6195.87
539.94	6226.38
540.305	6253.04
540.67	6252.14
541.034	6277.22
541.399	6233.16
541.764	6246.71
542.129	6324
542.494	6282.65
542.858	6331.68
543.223	6313.15
543.587	6300.27
543.952	6307.96
544.316	6381.4
544.681	6352.7
545.045	6417.78
545.41	6394.73
545.774	6398.57
546.138	6384.56
546.503	6418.01
546.867	6404.22
547.231	6481.06
547.595	6481.51
547.959	6436.09
548.324	6421.85
548.688	6465.69
549.052	6520.38
549.416	6524.22
549.779	6500.72
550.143	6490.55
550.507	6569.19
550.871	6548.63
551.235	6566.71
551.599	6583.43
551.962	6655.97
552.326	6567.16
552.689	6649.42
553.053	6570.77
553.417	6580.04
553.78	6680.38
554.143	6622.98
554.507	6675.4
554.87	6719.7
555.234	6758.57
555.597	6741.39
555.96	6724.22
556.323	6724.44
556.686	6723.54
557.05	6733.26
557.413	6822.29
557.776	6849.86
558.139	6797.21
558.502	6816.87
558.865	6841.95
559.228	6858
559.59	6914.95
559.953	6862.52
560.316	6932.8
560.679	6959.92
561.041	6965.11
561.404	7031.1
561.767	7003.08
562.129	7011.67
562.492	7057.99
562.854	7013.7
563.217	7062.96
563.579	7068.84
563.941	7079.23
564.304	7150.87
564.666	7151.78
565.028	7171.89
565.39	7220.02
565.753	7290.98
566.115	7251.66
566.477	7242.85
566.839	7267.48
567.201	7348.83
567.563	7351.77
567.925	7431.99
568.287	7405.78
568.648	7398.1
569.01	7482.39
569.372	7516.06
569.734	7448.26
570.095	7575.49
570.457	7543.63
570.819	7547.25
571.18	7620.92
571.542	7627.47
571.903	7640.58
572.265	7688.26
572.626	7699.56
572.987	7701.59
573.349	7739.1
573.71	7737.3
574.071	7806.22
574.432	7859.55
574.794	7956.5
575.155	7912.21
575.516	7879.21
575.877	8003.96
576.238	7984.52
576.599	8054.8
576.96	7991.98
577.32	8073.56
577.681	8150.85
578.042	8150.39
578.403	8192.88
578.763	8176.61
579.124	8230.16
579.485	8316.04
579.845	8354.91
580.206	8335.25
580.566	8438.07
580.927	8434.68
581.287	8466.09
581.648	8528.91
582.008	8570.95
582.368	8646.43
582.728	8652.98
583.089	8714.22
583.449	8673.54
583.809	8799.87
584.169	8869.02
584.529	8921.67
584.889	9024.72
585.249	9049.8
585.609	9008.45
585.969	9145.85
586.329	9176.81
586.688	9268.1
587.048	9315.79
587.408	9280.53
587.768	9379.97
588.127	9425.61
588.487	9518.49
588.846	9639.85
589.206	9590.13
589.565	9708.32
589.925	9833.29
590.284	9858.37
590.643	9880.74
591.003	9934.75
591.362	10016.11
591.721	10095.65
592.08	10093.17
592.44	10251.13
592.799	10276.21
593.158	10327.06
593.517	10366.83
593.876	10489.31
594.235	10443.21
594.593	10558.24
594.952	10663.32
595.311	10674.39
595.67	10725.92
596.029	10818.8
596.387	10942.86
596.746	10956.65
597.104	10946.7
597.463	10974.27
597.822	11122.07
598.18	11169.3
598.538	11188.28
598.897	11289.52
599.255	11185.34
599.613	11459.46
599.972	11364.55
600.33	11497.2
600.688	11481.6
601.046	11613.58
601.404	11721.82
601.762	11639.79
602.12	11742.16
602.478	11805.21
602.836	11842.95
603.194	11840.47
603.552	11945.55
603.91	11935.6
604.268	11968.15
604.625	11996.85
604.983	12091.53
605.341	11962.04
605.698	12184.64
606.056	12208.82
606.413	12197.07
606.771	12339.89
607.128	12352.54
607.485	12317.52
607.843	12257.86
608.2	12392.99
608.557	12362.71
608.914	12374.01
609.272	12573.78
609.629	12484.29
609.986	12609.26
610.343	12591.18
610.7	12676.15
611.057	12689.71
611.414	12741.23
611.771	12737.39
612.127	12807.67
612.484	12817.61
612.841	12896.03
613.198	12913.88
613.554	12882.7
613.911	12914.34
614.267	13020.77
614.624	13070.26
614.98	12976.93
615.337	13011.51
615.693	13040.89
616.05	13081.56
616.406	13181.22
616.762	13071.85
617.118	13077.27
617.475	13089.47
617.831	13222.58
618.187	13149.36
618.543	13168.34
618.899	13337.6
619.255	13229.13
619.611	13195.46
619.967	13351.61
620.323	13290.14
620.678	13252.63
621.034	13353.42
621.39	13324.95
621.746	13355
622.101	13436.36
622.457	13354.32
622.812	13472.96
623.168	13530.36
623.523	13451.5
623.879	13489.24
624.234	13409.24
624.589	13458.05
624.945	13527.65
625.3	13538.73
625.655	13563.81
626.01	13596.35
626.365	13502.34
626.72	13559.29
627.075	13578.72
627.43	13608.33
627.785	13519.74
628.14	13572.62
628.495	13647.88
628.85	13536.92
629.205	13526.97
629.559	13631.15
629.914	13512.74
630.269	13550.93
630.623	13504.83
630.978	13456.02
631.332	13579.4
631.687	13534.66
632.041	13485.85
632.396	13404.27
632.75	13465.96
633.104	13493.76
633.459	13453.3
633.813	13361.1
634.167	13394.77
634.521	13384.15
634.875	13370.59
635.229	13415.11
635.583	13374.89
635.937	13415.11
636.291	13336.02
636.645	13362.91
636.999	13288.79
637.352	13384.15
637.706	13239.75
638.06	13307.32
638.413	13264.61
638.767	13246.53
639.121	13351.61
639.474	13251.73
639.828	13281.11
640.181	13222.12
640.534	13211.95
640.888	13295.34
641.241	13194.55
641.594	13119.3
641.947	13183.93
642.301	13233.65
642.654	13214.67
643.007	13274.78
643.36	13199.53
643.713	13198.62
644.066	13097.16
644.419	13092.41
644.771	13011.51
645.124	12962.7
645.477	12925.63
645.83	12797.95
646.182	12826.65
646.535	12764.06
646.888	12794.79
647.24	12838.86
647.593	12880.89
647.945	12837.95
648.298	12728.35
648.65	12664.85
649.002	12687.22
649.355	12735.13
649.707	12748.92
650.059	12846.09
650.411	12909.59
650.763	12951.17
651.115	13148.45
651.467	13069.36
651.819	13124.73
652.171	13017.16
652.523	12971.51
652.875	13024.62
653.227	12935.35
653.578	13078.4
653.93	13040.66
654.282	12973.54
654.633	12971.06
654.985	13008.57
655.337	12973.09
655.688	13047.67
656.039	13079.75
656.391	12989.14
656.742	12990.72
657.094	12996.37
657.445	13110.26
657.796	13063.48
658.147	13014.45
658.498	13082.92
658.849	13148.23
659.2	13003.82
659.551	13091.73
659.902	13140.77
660.253	13142.13
660.604	13152.97
660.955	13019.87
661.306	13189.58
661.656	13093.77
662.007	13094.22
662.358	13118.62
662.708	13094.44
663.059	13126.99
663.409	13035.91
663.76	13183.26
664.11	13150.26
664.461	13252.63
664.811	13136.25
665.161	13087.66
665.511	13154.56
665.862	13116.59
666.212	13176.02
666.562	13210.82
666.912	13137.61
667.262	13219.41
667.612	13166.08
667.962	13192.52
668.312	13171.96
668.662	13250.15
669.011	13214.21
669.361	13151.84
669.711	13179.64
670.06	13150.94
670.41	13079.3
670.76	13118.62
671.109	13164.95
671.459	13147.1
671.808	13166.98
672.157	13084.73
672.507	13125.18
672.856	13110.49
673.205	13077.27
673.554	13072.52
673.904	13037.27
674.253	13110.49
674.602	13064.39
674.951	12929.48
675.3	12804.73
675.649	13021.45
675.998	12986.88
676.346	13071.39
676.695	13078.63
677.044	12888.12
677.393	12937.16
677.741	12965.18
678.09	12963.15
678.438	12923.6
678.787	12917.27
679.135	12985.52
679.484	12859.87
679.832	12862.36
680.181	12799.99
680.529	12867.11
680.877	12795.02
681.225	12801.34
681.573	12819.2
681.922	12760.67
682.27	12727.45
682.618	12701.46
682.966	12680.22
683.314	12745.98
683.661	12632.54
684.009	12623.95
684.357	12551.41
684.705	12534.68
685.053	12496.95
685.4	12574.23
685.748	12490.17
686.095	12439.09
686.443	12430.51
686.79	12342.15
687.138	12374.01
687.485	12437.51
687.832	12360.68
688.18	12319.32
688.527	12262.38
688.874	12175.6
689.221	12242.49
689.568	12131.76
689.915	12175.37
690.262	12100.35
690.609	12063.06
690.956	11937.41
691.303	11962.95
691.65	11899.22
691.997	11924.08
692.344	11827.81
692.69	11865.1
693.037	11815.16
693.383	11724.76
693.73	11745.78
694.077	11719.11
694.423	11759.11
694.769	11604.77
695.116	11616.29
695.462	11570.87
695.808	11592.56
696.155	11587.36
696.501	11504.66
696.847	11423.98
697.193	11357.09
697.539	11422.4
697.885	11260.59
698.231	11222.4
698.577	11235.74
698.923	11205.23
699.269	11176.98
699.614	11059.92
699.96	11072.8
700.306	11012.92
700.651	10951.22
700.997	10981.05
701.342	10876.65
701.688	10804.56
702.033	10820.61
702.379	10871.23
702.724	10715.98
703.069	10776.54
703.415	10646.15
703.76	10666.94
704.105	10631.91
704.45	10641.63
704.795	10466.49
705.14	10511.01
705.485	10519.82
705.83	10411.58
706.175	10445.47
706.52	10377.91
706.865	10352.14
707.209	10264.69
707.554	10301.3
707.899	10309.43
708.243	10189.89
708.588	10182.43
708.932	10073.28
709.277	10076.44
709.621	10124.58
709.966	10024.69
710.31	10092.04
710.654	10043.9
710.998	10026.05
711.342	10017.69
711.687	10019.27
712.031	9895.88
712.375	9858.6
712.719	9964.36
713.063	9866.28
713.407	9944.47
713.75	9843
714.094	9800.97
714.438	9817.47
714.782	9824.93
715.125	9839.61
715.469	9754.19
715.812	9697.7
716.156	9650.01
716.499	9686.4
716.843	9726.85
717.186	9665.83
717.53	9692.27
717.873	9623.12
718.216	9668.32
718.559	9570.02
718.902	9572.05
719.246	9619.05
719.589	9549.23
719.932	9498.61
720.275	9556.68
720.617	9533.18
720.96	9534.76
721.303	9505.61
721.646	9508.78
721.989	9473.3
722.331	9451.15
722.674	9454.09
723.016	9525.27
723.359	9441.43
723.701	9440.08
724.044	9380.19
724.386	9336.12
724.729	9417.25
725.071	9405.95
725.413	9414.31
725.755	9382.23
726.097	9332.06
726.439	9328.22
726.782	9271.72
727.124	9365.28
727.465	9347.42
727.807	9324.15
728.149	9321.21
728.491	9216.58
728.833	9339.97
729.175	9325.5
729.516	9269.01
729.858	9230.36
730.199	9231.04
730.541	9240.99
730.882	9303.13
731.224	9270.36
731.565	9256.8
731.906	9236.01
732.248	9286.41
732.589	9265.39
732.93	9140.2
733.271	9223.59
733.612	9209.57
733.953	9209.57
734.294	9307.2
734.635	9180.2
734.976	9238.5
735.317	9199.86
735.658	9215
735.999	9249.35
736.339	9203.92
736.68	9261.1
737.021	9255
737.361	9172.51
737.702	9269.01
738.042	9240.08
738.383	9311.04
738.723	9289.35
739.063	9309.23
739.404	9311.27
739.744	9358.27
740.084	9271.27
740.424	9325.05
740.764	9382.45
741.104	9389.46
741.444	9320.76
741.784	9325.96
742.124	9394.65
742.464	9432.62
742.804	9410.7
743.143	9443.92
743.483	9408.67
743.823	9416.8
744.162	9513.97
744.502	9535.89
744.841	9503.8
745.181	9617.7
745.52	9607.08
745.86	9650.69
746.199	9637.81
746.538	9730.46
746.877	9762.78
747.216	9845.94
747.556	9846.62
747.895	9898.82
748.234	9929.56
748.573	9917.8
748.911	10058.82
749.25	10065.82
749.589	10084.13
749.928	10209.77
750.267	10255.42
750.605	10330.22
750.944	10378.58
751.283	10441.63
751.621	10521.86
751.96	10588.52
752.298	10708.29
752.636	10809.98
752.975	10840.27
753.313	10914.61
753.651	11073.93
753.989	11086.36
754.327	11319.58
754.666	11319.8
755.004	11457.88
755.342	11610.19
755.679	11743.52
756.017	11812.44
756.355	11945.1
756.693	12039.78
757.031	12281.81
757.368	12286.33
757.706	12503.5
758.044	12552.31
758.381	12780.1
758.719	12862.13
759.056	12911.4
759.394	13148.45
759.731	13142.8
760.068	13366.75
760.405	13397.71
760.743	13552.06
761.08	13825.72
761.417	13829.57
761.754	13965.83
762.091	14136.68
762.428	14288.99
762.765	14266.39
763.102	14569.89
763.438	14557.68
763.775	14751.35
764.112	14825.7
764.449	15042.19
764.785	15042.87
765.122	15067.73
765.458	15272.69
765.795	15443.53
766.131	15520.82
766.467	15627.48
766.804	15729.4
767.14	15798.1
767.476	15908.16
767.812	16094.36
768.148	16115.16
768.485	16185.21
768.821	16231.31
769.157	16321.7
769.492	16490.51
769.828	16488.48
770.164	16473.79
770.5	16516.05
770.836	16681.92
771.171	16666.33
771.507	16772.09
771.842	16827.23
772.178	16933.44
772.513	16922.37
772.849	16963.27
773.184	16970.27
773.519	17063.38
773.855	17052.31
774.19	17081.01
774.525	17147.44
774.86	17246.2
775.195	17230.15
775.53	17227.44
775.865	17203.26
776.2	17241.23
776.535	17165.75
776.87	17269.93
777.205	17270.61
777.539	17192.19
777.874	17348.12
778.209	17234.9
778.543	17330.72
778.878	17238.29
779.212	17275.35
779.547	17250.27
779.881	17345.41
780.215	17285.97
780.55	17354.9
780.884	17247.1
781.218	17226.31
781.552	17267.89
781.886	17333.88
782.22	17134.11
782.554	17116.94
782.888	17039.65
783.222	16988.13
783.556	17007.79
783.889	17102.25
784.223	16954.46
784.557	16960.56
784.89	17039.88
785.224	16974.12
785.557	16946.09
785.891	16886.66
786.224	16949.71
786.558	16917.85
786.891	16755.82
787.224	16608.02
787.557	16703.61
787.891	16701.35
788.224	16736.16
788.557	16678.53
788.89	16686.44
789.223	16702.48
789.556	16515.82
789.888	16556.5
790.221	16460.68
790.554	16422.72
790.887	16384.07
791.219	16341.14
791.552	16273.8
791.884	16304.98
792.217	16325.55
792.549	16248.03
792.882	16141.6
793.214	16025.44
793.546	16119.9
793.879	15990.86
794.211	15950.64
794.543	16043.52
794.875	15943.18
795.207	16053.24
795.539	15947.02
795.871	15858.89
796.203	15779.57
796.535	15712.91
796.867	15667.48
797.198	15739.57
797.53	15703.64
797.862	15573.47
798.193	15616.19
798.525	15526.7
798.856	15570.08
799.188	15348.85
799.519	15364.44
799.85	15284.22
800.182	15357.66
800.513	15234.95
800.844	15233.37
801.175	15305.69
801.506	15266.36
801.837	15120.61
802.168	15193.6
802.499	15031.57
802.83	14977.56
803.161	14912.02
803.491	14963.1
803.822	14988.63
804.153	14926.03
804.483	14750.22
804.814	14813.95
805.145	14771.24
805.475	14795.64
805.805	14689.66
806.136	14650.34
806.466	14685.14
806.796	14677.68
807.126	14595.2
807.457	14426.16
807.787	14534.63
808.117	14435.65
808.447	14336.9
808.777	14414.86
809.107	14318.59
809.436	14266.84
809.766	14262.55
810.096	14320.85
810.426	14155.21
810.755	14210.12
811.085	14179.84
811.414	14198.14
811.744	14063.01
812.073	14062.33
812.403	14128.77
812.732	14020.3
813.061	14020.52
813.39	13935.33
813.719	13907.3
814.049	13883.35
814.378	13931.03
814.707	13872.73
815.036	13794.76
815.365	13817.14
815.693	13682.68
816.022	13691.04
816.351	13645.84
816.68	13585.73
817.008	13682
817.337	13494.89
817.665	13512.51
817.994	13538.73
818.322	13499.86
818.651	13376.92
818.979	13328.79
819.307	13441.55
819.636	13389.8
819.964	13296.7
820.292	13406.98
820.62	13318.17
820.948	13261.67
821.276	13410.14
821.604	13256.47
821.932	13244.27
822.259	13415.34
822.587	13326.75
822.915	13303.93
823.243	13368.56
823.57	13256.25
823.898	13250.15
824.225	13241.33
824.553	13262.58
824.88	13290.6
825.207	13411.27
825.535	13258.51
825.862	13310.94
826.189	13198.62
826.516	13349.8
826.843	13319.3
827.17	13309.58
827.497	13282.24
827.824	13375.79
828.151	13379.86
828.478	13262.58
828.805	13430.93
829.131	13262.8
829.458	13227.1
829.785	13204.5
830.111	13198.4
830.438	13298.51
830.764	13292.4
831.09	13253.08
831.417	13226.64
831.743	13251.73
832.069	13252.86
832.395	13179.41
832.722	13238.62
833.048	13286.98
833.374	13202.24
833.7	13221.9
834.026	13228.45
834.351	13209.02
834.677	13125.86
835.003	13090.38
835.329	13136.7
835.654	13184.16
835.98	13061.9
836.306	13018.51
836.631	13074.78
836.956	13096.7
837.282	13069.36
837.607	13069.13
837.932	13058.51
838.258	12932.19
838.583	12966.54
838.908	12851.74
839.233	12954.11
839.558	12947.33
839.883	12877.05
840.208	12838.86
840.533	12853.32
840.858	12843.6
841.182	12805.41
841.507	12764.06
841.832	12692.87
842.156	12702.36
842.481	12658.3
842.805	12671.4
843.13	12657.85
843.454	12637.73
843.778	12555.7
844.103	12530.39
844.427	12521.13
844.751	12460.11
845.075	12479.09
845.399	12480
845.723	12303.96
846.047	12392.32
846.371	12268.93
846.695	12286.1
847.019	12164.3
847.343	12121.36
847.666	12064.41
847.99	11962.72
848.313	12022.83
848.637	11898.32
848.96	11973.8
849.284	11844.76
849.607	11792.33
849.931	11762.73
850.254	11714.82
850.577	11615.39
850.9	11554.15
851.223	11608.38
851.546	11522.06
851.869	11436.41
852.192	11515.05
852.515	11367.94
852.838	11321.16
853.161	11274.38
853.483	11231.44
853.806	11163.42
854.129	11131.78
854.451	11134.5
854.774	11078.45
855.096	11076.42
855.419	11089.07
855.741	11043.2
856.063	10912.58
856.385	10923.65
856.708	10858.8
857.03	10873.94
857.352	10873.71
857.674	10783.32
857.996	10767.05
858.318	10686.15
858.64	10694.28
858.961	10683.43
859.283	10680.72
859.605	10615.41
859.926	10657.9
860.248	10613.83
860.57	10566.6
860.891	10549.43
861.212	10530.67
861.534	10390.11
861.855	10389.88
862.176	10457
862.498	10382.88
862.819	10450.45
863.14	10345.82
863.461	10323.44
863.782	10328.41
864.103	10265.37
864.424	10300.17
864.745	10313.5
865.065	10274.86
865.386	10156.22
865.707	10164.35
866.027	10167.97
866.348	10215.88
866.668	10243.67
866.989	10145.59
867.309	10096.56
867.63	10025.15
867.95	10083
868.27	9992.15
868.59	10049.33
868.91	10021.98
869.23	10032.83
869.55	9953.28
869.87	10051.36
870.19	9988.99
870.51	9977.92
870.83	9982.21
871.15	9879.16
871.469	9859.5
871.789	9918.93
872.109	9902.21
872.428	9775.89
872.748	9931.14
873.067	9800.75
873.386	9817.24
873.706	9834.64
874.025	9756.45
874.344	9710.58
874.663	9735.21
874.982	9723.01
875.301	9768.43
875.62	9695.44
875.939	9741.76
876.258	9667.19
876.577	9676.91
876.896	9665.38
877.214	9631.03
877.533	9704.93
877.852	9656.79
878.17	9615.21
878.489	9533.41
878.807	9575.89
879.125	9580.86
879.444	9485.95
879.762	9479.17
880.08	9493.86
880.398	9464.93
880.716	9487.53
881.034	9404.6
881.352	9465.16
881.67	9427.65
881.988	9379.74
882.306	9350.81
882.624	9338.16
882.941	9280.98
883.259	9241.89
883.577	9316.01
883.894	9230.59
884.212	9232.4
884.529	9137.94
884.846	9169.58
885.164	9136.13
885.481	9146.75
885.798	9109.01
886.115	9058.39
886.432	9055.23
886.75	9055.23
887.067	9031.95
887.383	8993.99
887.7	9017.94
888.017	8954.67
888.334	8953.31
888.651	8917.6
888.967	8909.7
889.284	8868.11
889.6	8792.18
889.917	8780.66
890.233	8789.02
890.55	8716.71
890.866	8738.17
891.182	8696.82
891.498	8654.79
891.815	8651.62
892.131	8673.77
892.447	8608.46
892.763	8571.17
893.079	8549.93
893.395	8572.75
893.71	8559.42
894.026	8493.66
894.342	8495.02
894.657	8424.51
894.973	8390.39
895.289	8400.78
895.604	8392.19
895.92	8339.99
896.235	8237.85
896.55	8243.27
896.865	8325.08
897.181	8240.79
897.496	8215.93
897.811	8102.03
898.126	8144.97
898.441	8113.33
898.756	8059.32
899.071	8003.05
899.386	8042.15
899.7	7971.41
900.015	7917.63
900.33	7894.58
900.644	7909.5
900.959	7844.64
901.273	7855.71
901.588	7812.55
901.902	7815.26
902.216	7754.25
902.531	7733
902.845	7724.42
903.159	7676.96
903.473	7630.86
903.787	7575.04
904.101	7533.69
904.415	7504.76
904.729	7555.83
905.042	7475.16
905.356	7501.82
905.67	7395.84
905.984	7443.07
906.297	7399
906.611	7309.06
906.924	7347.25
907.237	7257.54
907.551	7308.83
907.864	7227.71
908.177	7231.55
908.491	7200.59
908.804	7203.98
909.117	7107.48
909.43	7104.09
909.743	7031.33
910.056	7034.49
910.368	7026.35
910.681	6994.04
910.994	7002.4
911.307	6963.08
911.619	6949.29
911.932	6865.23
912.244	6806.93
912.557	6813.48
912.869	6759.7
913.181	6685.35
913.494	6723.09
913.806	6663.88
914.118	6681.51
914.43	6652.35
914.742	6623.88
915.054	6633.82
915.366	6571.9
915.678	6577.33
915.99	6492.36
916.302	6516.76
916.613	6466.82
916.925	6442.64
917.236	6397.67
917.548	6385.69
917.859	6338.01
918.171	6376.88
918.482	6285.58
918.794	6256.88
919.105	6302.08
919.416	6225.25
919.727	6208.52
920.038	6208.75
920.349	6150.9
920.66	6124.68
920.971	6103.67
921.282	6115.42
921.593	6012.82
921.903	6006.49
922.214	5983.67
922.525	5942.99
922.835	5936.67
923.146	5879.27
923.456	5870
923.767	5853.96
924.077	5849.66
924.387	5817.57
924.697	5810.79
925.008	5745.03
925.318	5737.58
925.628	5764.24
925.938	5727.18
926.248	5667.52
926.558	5684.02
926.867	5640.85
927.177	5583
927.487	5597.47
927.796	5560.4
928.106	5538.71
928.416	5518.37
928.725	5494.64
929.034	5482.21
929.344	5483.12
929.653	5412.61
929.962	5365.83
930.271	5341.2
930.581	5363.57
930.89	5336.23
931.199	5265.05
931.508	5329.9
931.817	5315.44
932.125	5296.68
932.434	5240.64
932.743	5169
933.051	5189.57
933.36	5130.13
933.669	5146.63
933.977	5079.74
934.286	5120.64
934.594	5100.08
934.902	5050.81
935.21	5000.19
935.519	5026.63
935.827	5029.12
936.135	4993.87
936.443	4968.78
936.751	4915.9
937.059	4907.99
937.367	4928.1
937.674	4884.26
937.982	4857.6
938.29	4811.05
938.597	4797.71
938.905	4781.44
939.213	4796.58
939.52	4706.42
939.827	4776.92
940.135	4679.52
940.442	4672.74
940.749	4659.41
941.056	4667.09
941.363	4629.13
941.67	4579.87
941.977	4548.91
942.284	4553.88
942.591	4607.44
942.898	4522.47
943.205	4515.23
943.511	4474.33
943.818	4500.32
944.125	4475.01
944.431	4432.52
944.738	4455.8
945.044	4406.76
945.35	4386.65
945.657	4330.61
945.963	4364.73
946.269	4308.69
946.575	4285.18
946.881	4282.92
947.187	4289.48
947.493	4227.78
947.799	4242.02
948.105	4228.46
948.41	4172.64
948.716	4202.25
949.022	4149.82
949.327	4151.4
949.633	4099.2
949.938	4125.41
950.244	4112.31
950.549	4094.45
950.854	4058.75
951.16	4023.27
951.465	4018.3
951.77	4009.94
952.075	3956.38
952.38	3957.96
952.685	3915.93
952.99	3904.4
953.294	3900.34
953.599	3899.21
953.904	3916.15
954.209	3876.16
954.513	3843.84
954.818	3821.47
955.122	3836.83
955.426	3809.72
955.731	3780.34
956.035	3760.45
956.339	3774.46
956.643	3723.39
956.948	3699.21
957.252	3675.26
957.556	3677.06
957.86	3621.7
958.163	3679.78
958.467	3606.78
958.771	3627.12
959.075	3618.76
959.378	3587.35
959.682	3601.81
959.985	3590.29
960.289	3520.91
960.592	3481.59
960.896	3531.08
961.199	3482.27
961.502	3521.59
961.805	3455.83
962.108	3453.79
962.411	3436.84
962.714	3449.95
963.017	3408.82
963.32	3388.03
963.623	3366.56
963.926	3338.54
964.228	3360.24
964.531	3363.85
964.833	3335.15
965.136	3298.32
965.438	3313.46
965.741	3251.09
966.043	3271.43
966.345	3224.42
966.648	3254.7
966.95	3229.39
967.252	3200.01
967.554	3186.46
967.856	3181.26
968.158	3208.38
968.46	3144.65
968.761	3158.89
969.063	3090.41
969.365	3148.94
969.666	3123.86
969.968	3055.84
970.269	3067.36
970.571	3061.94
970.872	3072.33
971.174	3022.39
971.475	2949.4
971.776	2992.11
972.077	2981.49
972.378	2992.11
972.679	2974.26
972.98	2952.34
973.281	2949.63
973.582	2907.14
973.883	2934.71
974.183	2908.95
974.484	2905.56
974.785	2892.9
975.085	2866.24
975.386	2857.2
975.686	2800.03
975.986	2806.58
976.287	2839.12
976.587	2781.27
976.887	2804.77
977.187	2776.52
977.487	2754.15
977.787	2785.34
978.087	2740.37
978.387	2757.31
978.687	2733.81
978.987	2741.04
979.286	2726.58
979.586	2677.32
979.885	2676.19
980.185	2676.86
980.484	2641.84
980.784	2621.05
981.083	2631.67
981.382	2615.85
981.682	2618.11
981.981	2592.57
982.28	2572.46
982.579	2565.91
982.878	2598.45
983.177	2550.77
983.475	2499.02
983.774	2509.64
984.073	2522.52
984.372	2505.34
984.67	2494.5
984.969	2437.55
985.267	2479.13
985.566	2456.76
985.864	2428.51
986.162	2424.44
986.461	2416.08
986.759	2428.51
987.057	2396.19
987.355	2368.4
987.653	2372.47
987.951	2376.31
988.249	2337.44
988.547	2339.25
988.844	2327.27
989.142	2308.06
989.44	2316.42
989.737	2314.61
990.035	2278.46
990.332	2305.8
990.63	2279.13
990.927	2228.74
991.224	2221.28
991.521	2238.68
991.819	2219.7
992.116	2206.82
992.413	2203.88
992.71	2199.82
993.006	2164.11
993.303	2144.68
993.6	2166.14
993.897	2164.34
994.193	2147.84
994.49	2142.42
994.787	2137.67
995.083	2129.08
995.379	2111.91
995.676	2097.67
995.972	2072.59
996.268	2034.4
996.565	2069.42
996.861	2056.32
997.157	2078.46
997.453	2004.11
997.749	2005.47
998.044	2012.02
998.34	2003.21
998.636	2015.87
998.932	1962.53
999.227	1957.56
999.523	1971.35
999.818	1948.52
1000.114	1954.17
1000.409	1947.84
1000.704	1916.43
1001	1914.85
1001.295	1895.19
1001.59	1892.25
1001.885	1909.88
1002.18	1907.17
1002.475	1880.28
1002.77	1887.28
1003.065	1836.66
1003.359	1854.97
1003.654	1824.91
1003.949	1799.15
1004.243	1821.29
1004.538	1819.26
1004.832	1793.05
1005.127	1765.48
1005.421	1772.48
1005.715	1770.45
1006.009	1773.39
1006.304	1713.5
1006.598	1725.03
1006.892	1704.46
1007.186	1689.09
1007.48	1694.97
1007.773	1695.65
1008.067	1702.88
1008.361	1686.38
1008.655	1659.49
1008.948	1643.67
1009.242	1638.47
1009.535	1657.46
1009.829	1610.45
1010.122	1630.79
1010.415	1595.54
1010.708	1607.06
1011.001	1593.96
1011.295	1566.84
1011.588	1570.45
1011.881	1569.55
1012.173	1555.76
1012.466	1559.61
1012.759	1547.85
1013.052	1518.03
1013.344	1491.36
1013.637	1499.72
1013.93	1492.26
1014.222	1508.99
1014.514	1508.08
1014.807	1508.31
1015.099	1474.41
1015.391	1461.76
1015.683	1439.16
1015.976	1433.06
1016.268	1457.46
1016.56	1434.19
1016.851	1405.71
1017.143	1409.1
1017.435	1398.71
1017.727	1380.63
1018.018	1366.39
1018.31	1377.69
1018.602	1382.89
1018.893	1359.16
1019.185	1342.44
1019.476	1308.31
1019.767	1341.53
1020.058	1299.73
1020.35	1294.08
1020.641	1262.44
1020.932	1301.99
1021.223	1283.45
1021.514	1286.17
1021.804	1275.32
1022.095	1267.41
1022.386	1239.61
1022.677	1233.29
1022.967	1243.46
1023.258	1228.77
1023.548	1224.47
1023.839	1220.63
1024.129	1205.72
1024.419	1184.93
1024.709	1174.08
1025	1183.34
1025.29	1172.95
1025.58	1156.23
1025.87	1168.88
1026.16	1165.72
1026.449	1151.03
1026.739	1147.87
1027.029	1105.61
1027.319	1112.84
1027.608	1109.45
1027.898	1094.08
1028.187	1100.63
1028.477	1092.73
1028.766	1079.84
1029.055	1069.9
1029.344	1079.84
1029.634	1092.05
1029.923	1066.06
1030.212	1057.47
1030.501	1029.22
1030.79	1035.78
1031.078	1054.53
1031.367	1016.34
1031.656	1025.38
1031.945	1021.77
1032.233	1021.99
1032.522	975.89
1032.81	976.12
1033.099	996.91
1033.387	1012.5
1033.675	985.16
1033.963	963.69
1034.251	986.06
1034.54	940.19
1034.828	952.84
1035.116	956.23
1035.403	941.54
1035.691	949.45
1035.979	932.96
1036.267	942.22
1036.554	911.94
1036.842	890.47
1037.129	926.63
1037.417	906.06
1037.704	892.96
1037.992	871.49
1038.279	859.96
1038.566	889.34
1038.853	889.34
1039.14	889.34
