Data from hue_300_FLMS001491_00048.txt Node
Date: Tue Feb 07 15:50:47 GMT 2017
User: dcchb
Spectrometer: FLMS00149
Trigger mode: 0
Integration Time (sec): 2.000000E-2
Scans to average: 10
Electric dark correction enabled: true
Nonlinearity correction enabled: false
Boxcar width: 0
XAxis mode: Wavelengths
Number of Pixels in Spectrum: 2048
>>>>>Begin Spectral Data<<<<<
341.393	2.75
341.776	2.75
342.16	2.75
342.543	-72.27
342.927	-74.31
343.31	-84.7
343.693	-66.85
344.077	-72.5
344.46	-68.2
344.843	-60.97
345.226	-29.11
345.61	-11.93
345.993	-11.93
346.376	0.04
346.759	15.86
347.142	32.13
347.525	40.49
347.908	47.05
348.291	80.27
348.674	90.21
349.057	100.15
349.44	132.69
349.823	131.56
350.206	143.32
350.588	201.84
350.971	178.57
351.354	240.26
351.737	226.93
352.119	239.13
352.502	278.91
352.884	268.28
353.267	287.94
353.65	291.11
354.032	299.92
354.414	310.32
354.797	311.67
355.179	321.62
355.562	306.25
355.944	314.38
356.326	324.1
356.709	333.82
357.091	336.76
357.473	326.14
357.855	326.36
358.238	346.02
358.62	326.59
359.002	326.36
359.384	327.27
359.766	303.99
360.148	337.43
360.53	330.88
360.912	337.43
361.294	325.68
361.676	327.27
362.057	314.61
362.439	323.2
362.821	318.9
363.203	316.64
363.584	313.25
363.966	307.83
364.348	321.84
364.729	312.58
365.111	322.75
365.493	307.15
365.874	332.46
366.256	315.29
366.637	291.79
367.019	306.47
367.4	303.31
367.781	320.71
368.163	310.54
368.544	292.69
368.925	316.87
369.306	318.68
369.688	308.73
370.069	301.05
370.45	300.37
370.831	325.68
371.212	314.84
371.593	314.38
371.974	310.54
372.355	305.8
372.736	287.72
373.117	288.17
373.498	322.29
373.879	301.28
374.26	309.64
374.641	318.45
375.021	305.57
375.402	313.93
375.783	327.04
376.163	330.88
376.544	344.44
376.925	337.43
377.305	297.21
377.686	321.39
378.066	311.22
378.447	327.27
378.827	333.37
379.208	329.3
379.588	331.11
379.968	329.07
380.349	344.21
380.729	342.63
381.109	328.62
381.489	344.21
381.87	336.98
382.25	347.15
382.63	332.91
383.01	344.21
383.39	332.91
383.77	355.51
384.15	342.18
384.53	358.9
384.91	340.15
385.29	365.68
385.67	354.16
386.049	357.1
386.429	349.41
386.809	361.39
387.189	341.95
387.568	365.68
387.948	374.5
388.328	369.52
388.707	373.37
389.087	374.5
389.466	370.65
389.846	377.89
390.225	375.85
390.605	384.67
390.984	384.21
391.363	382.41
391.743	369.52
392.122	374.72
392.501	377.21
392.881	385.79
393.26	387.83
393.639	374.27
394.018	379.02
394.397	402.52
394.776	387.83
395.155	391.9
395.534	410.2
395.913	386.92
396.292	398.22
396.671	399.13
397.05	415.4
397.429	412.69
397.808	386.25
398.186	413.14
398.565	415.85
398.944	409.07
399.323	413.14
399.701	414.27
400.08	449.97
400.458	419.92
400.837	425.12
401.215	408.62
401.594	428.05
401.972	462.63
402.351	444.78
402.729	463.98
403.107	441.61
403.486	449.52
403.864	444.32
404.242	450.65
404.62	447.94
404.999	458.56
405.377	466.02
405.755	477.32
406.133	455.85
406.511	466.92
406.889	501.27
407.267	488.39
407.645	498.11
408.023	510.99
408.401	486.58
408.779	513.93
409.156	517.54
409.534	516.86
409.912	530.65
410.29	553.7
410.667	546.47
411.045	570.2
411.422	557.54
411.8	564.77
412.178	579.69
412.555	581.27
412.933	594.6
413.31	603.19
413.687	612
414.065	627.82
414.442	640.93
414.819	634.15
415.197	637.77
415.574	654.04
415.951	625.11
416.328	666.47
416.705	695.17
417.082	693.36
417.46	696.75
417.837	706.46
418.214	697.88
418.591	723.64
418.967	733.81
419.344	733.36
419.721	759.57
420.098	761.38
420.475	748.05
420.852	761.38
421.228	778.78
421.605	799.57
421.982	803.64
422.358	810.64
422.735	816.07
423.111	808.61
423.488	841.6
423.864	841.15
424.241	866.01
424.617	868.49
424.994	881.83
425.37	878.21
425.746	895.39
426.123	903.97
426.499	913.46
426.875	913.69
427.251	933.58
427.627	952.11
428.003	986.91
428.379	967.7
428.756	980.58
429.132	997.53
429.507	998.21
429.883	1021.03
430.259	1045.66
430.635	1056.96
431.011	1056.51
431.387	1075.27
431.763	1092.67
432.138	1097.19
432.514	1116.4
432.89	1127.02
433.265	1174.25
433.641	1112.78
434.016	1121.59
434.392	1200.46
434.767	1198.2
435.143	1175.83
435.518	1223.74
435.894	1230.52
436.269	1235.72
436.644	1286.11
437.02	1288.6
437.395	1276.62
437.77	1281.14
438.145	1276.17
438.52	1316.84
438.895	1310.74
439.271	1315.04
439.646	1334.92
440.021	1375.37
440.395	1377.18
440.77	1383.96
441.145	1378.54
441.52	1382.38
441.895	1414.24
442.27	1417.86
442.645	1451.3
443.019	1425.54
443.394	1425.99
443.769	1445.2
444.143	1445.2
444.518	1446.11
444.892	1458.08
445.267	1464.18
445.641	1502.6
446.016	1504.18
446.39	1493.56
446.764	1523.17
447.139	1484.07
447.513	1526.78
447.887	1478.87
448.262	1502.38
448.636	1533.34
449.01	1572.66
449.384	1560.23
449.758	1536.5
450.132	1572.88
450.506	1571.53
450.88	1579.44
451.254	1564.75
451.628	1580.11
452.002	1596.61
452.376	1574.46
452.75	1583.05
453.123	1607.91
453.497	1627.12
453.871	1630.73
454.244	1661.92
454.618	1679.09
454.992	1650.39
455.365	1709.6
455.739	1729.49
456.112	1741.92
456.486	1740.79
456.859	1744.4
457.232	1771.97
457.606	1791.18
457.979	1759.09
458.352	1800.9
458.725	1821.46
459.099	1820.56
459.472	1882.93
459.845	1896.49
460.218	1878.41
460.591	1894
460.964	1892.65
461.337	1951.63
461.71	1944.17
462.083	1970.39
462.456	1969.93
462.829	1967.45
463.201	1978.07
463.574	2009.26
463.947	2022.81
464.32	2057.16
464.692	2055.58
465.065	2062.36
465.438	2102.36
465.81	2132.19
466.183	2125.86
466.555	2156.37
466.928	2176.71
467.3	2171.74
467.672	2207.67
468.045	2234.11
468.417	2246.76
468.789	2251.96
469.161	2278.63
469.534	2295.58
469.906	2350.72
470.278	2356.59
470.65	2364.95
471.022	2374.9
471.394	2406.76
471.766	2462.8
472.138	2481.56
472.51	2489.47
472.882	2508.68
473.253	2548
473.625	2563.59
473.997	2621.67
474.369	2633.87
474.74	2664.61
475.112	2674.1
475.484	2698.05
475.855	2755.45
476.227	2747.09
476.598	2803.58
476.97	2826.18
477.341	2861.66
477.713	2898.05
478.084	2919.06
478.455	2953.86
478.827	2972.85
479.198	3031.6
479.569	3053.07
479.94	3091.71
480.311	3124.93
480.682	3169.22
481.053	3230.92
481.424	3248.77
481.795	3272.72
482.166	3293.06
482.537	3345.04
482.908	3383.68
483.279	3441.76
483.65	3438.6
484.021	3522.21
484.391	3519.72
484.762	3528.31
485.133	3553.62
485.503	3611.02
485.874	3669.55
486.244	3691.47
486.615	3728.76
486.985	3768.76
487.356	3824.57
487.726	3851.01
488.097	3855.76
488.467	3919.71
488.837	3989.09
489.207	3975.53
489.578	4033.83
489.948	4073.16
490.318	4109.54
490.688	4172.14
491.058	4207.62
491.428	4220.04
491.798	4211.46
492.168	4328.74
492.538	4305.69
492.908	4341.85
493.278	4420.94
493.648	4345.69
494.017	4451.22
494.387	4482.64
494.757	4486.03
495.126	4539.36
495.496	4578.68
495.866	4588.62
496.235	4624.33
496.605	4655.97
496.974	4675.85
497.344	4691.9
497.713	4745.45
498.082	4715.85
498.452	4765.79
498.821	4741.61
499.19	4795.62
499.559	4848.05
499.928	4839.69
500.298	4854.15
500.667	4909.07
501.036	4898.22
501.405	4975.73
501.774	4962.4
502.143	5006.46
502.512	4958.33
502.88	5008.05
503.249	4978.89
503.618	5008.5
503.987	5028.16
504.356	5109.51
504.724	5176.4
505.093	5136.18
505.462	5107.93
505.83	5142.51
506.199	5189.74
506.567	5204.65
506.936	5248.04
507.304	5183.86
507.672	5293.46
508.041	5294.37
508.409	5314.93
508.777	5321.94
509.145	5406.68
509.514	5378.88
509.882	5443.06
510.25	5395.38
510.618	5422.05
510.986	5487.81
511.354	5539.33
511.722	5475.15
512.09	5520.12
512.458	5542.5
512.826	5574.81
513.193	5585.43
513.561	5579.33
513.929	5626.56
514.297	5643.96
514.664	5678.99
515.032	5683.73
515.4	5735.03
515.767	5701.36
516.135	5755.15
516.502	5702.49
516.869	5810.06
517.237	5768.7
517.604	5759.66
517.972	5810.06
518.339	5828.14
518.706	5813.45
519.073	5853.9
519.44	5881.24
519.808	5883.05
520.175	5890.73
520.542	5961.47
520.909	6014.57
521.276	5954.46
521.643	6014.57
522.009	6128.02
522.376	6093.67
522.743	6161.01
523.11	6170.5
523.477	6177.73
523.843	6258.63
524.21	6274.68
524.577	6275.58
524.943	6326.43
525.31	6367.33
525.676	6396.94
526.043	6446.88
526.409	6455.24
526.776	6490.72
527.142	6502.02
527.508	6523.03
527.874	6547.67
528.241	6598.51
528.607	6605.74
528.973	6670.6
529.339	6684.61
529.705	6724.16
530.071	6785.85
530.437	6835.57
530.803	6766.42
531.169	6878.05
531.535	6866.75
531.901	6904.27
532.267	6918.96
532.632	6984.94
532.998	6991.5
533.364	7038.95
533.73	7017.48
534.095	7103.81
534.461	7098.84
534.826	7136.8
535.192	7185.84
535.557	7102.68
535.923	7262.68
536.288	7193.75
536.653	7225.16
537.019	7240.08
537.384	7266.97
537.749	7315.56
538.114	7359.85
538.479	7348.1
538.845	7358.27
539.21	7371.15
539.575	7513.07
539.94	7474.2
540.305	7525.04
540.67	7621.31
541.034	7577.24
541.399	7658.82
541.764	7670.35
542.129	7656.11
542.494	7699.05
542.858	7767.52
543.223	7789.44
543.587	7870.34
543.952	7851.36
544.316	7904.24
544.681	7893.17
545.045	7925.26
545.41	7942.88
545.774	8019.27
546.138	7995.31
546.503	7995.09
546.867	8073.28
547.231	8092.94
547.595	8139.04
547.959	8115.31
548.324	8094.52
548.688	8155.08
549.052	8200.05
549.416	8254.29
549.779	8252.71
550.143	8232.82
550.507	8377.22
550.871	8356.43
551.235	8328.41
551.599	8379.94
551.962	8464.68
552.326	8382.65
552.689	8477.79
553.053	8441.18
553.417	8510.78
553.78	8577.44
554.143	8475.75
554.507	8577.22
554.87	8636.88
555.234	8698.12
555.597	8620.61
555.96	8718.91
556.323	8657.67
556.686	8692.47
557.05	8783.77
557.413	8727.72
557.776	8856.76
558.139	8874.61
558.502	8793.94
558.865	8925.23
559.228	8927.94
559.59	8906.47
559.953	8969.98
560.316	9080.03
560.679	9009.3
561.041	9111.22
561.404	9093.81
561.767	9190.54
562.129	9147.15
562.492	9200.7
562.854	9175.62
563.217	9205.22
563.579	9319.12
563.941	9325.22
564.304	9346.01
564.666	9343.98
565.028	9411.09
565.39	9421.26
565.753	9472.56
566.115	9500.81
566.477	9488.83
566.839	9567.02
567.201	9633.24
567.563	9598.43
567.925	9650.86
568.287	9683.63
568.648	9717.08
569.01	9672.33
569.372	9836.85
569.734	9804.08
570.095	9861.7
570.457	9953.45
570.819	9956.84
571.18	9947.58
571.542	9984.86
571.903	10021.47
572.265	10192.54
572.626	10178.31
572.987	10196.38
573.349	10164.97
573.71	10292.43
574.071	10452.87
574.432	10489.03
574.794	10552.08
575.155	10532.19
575.516	10649.03
575.877	10649.93
576.238	10710.04
576.599	10858.74
576.96	10944.61
577.32	11033.42
577.681	11078.85
578.042	11168.56
578.403	11280.2
578.763	11412.17
579.124	11587.53
579.485	11679.96
579.845	11829.34
580.206	11851.03
580.566	11994.76
580.927	12117.24
581.287	12348.19
581.648	12404.91
582.008	12641.29
582.368	12783.44
582.728	12905.24
583.089	13065.69
583.449	13264.78
583.809	13462.97
584.169	13556.52
584.529	13741.15
584.889	14093.68
585.249	14235.37
585.609	14358.53
585.969	14603.73
586.329	14868.35
586.688	15108.12
587.048	15304.05
587.408	15462.01
587.768	15755.11
588.127	15958.04
588.487	16287.3
588.846	16631.47
589.206	16715.08
589.565	17085.92
589.925	17334.95
590.284	17753.7
590.643	17908.72
591.003	18226
591.362	18592.55
591.721	18843.84
592.08	19131.29
592.44	19489.7
592.799	19739.41
593.158	19990.48
593.517	20315.44
593.876	20601.76
594.235	20797.91
594.593	21305.02
594.952	21452.36
595.311	21813.93
595.67	22171.44
596.029	22475.84
596.387	22821.14
596.746	23193.56
597.104	23445.75
597.463	23649.59
597.822	24129.8
598.18	24300.42
598.538	24477.36
598.897	24889.56
599.255	25155.54
599.613	25694.28
599.972	25767.05
600.33	26153.93
600.688	26262.63
601.046	26692.22
601.404	27065.55
601.762	27365.2
602.12	27722.48
602.478	27948.46
602.836	28169.7
603.194	28289.92
603.552	28706.63
603.91	28738.04
604.268	29192.72
604.625	29427.74
604.983	29660.28
605.341	29888.07
605.698	30241.73
606.056	30447.6
606.413	30678.78
606.771	31085.78
607.128	31257.53
607.485	31410.97
607.843	31558.76
608.2	32018.64
608.557	32189.25
608.914	32358.51
609.272	32703.82
609.629	32904.71
609.986	33245.5
610.343	33190.36
610.7	33704.01
611.057	33852.49
611.414	33961.86
611.771	34114.17
612.127	34417.89
612.484	34630.32
612.841	34888.84
613.198	34889.75
613.554	35099.23
613.911	35322.5
614.267	35527.47
614.624	35749.84
614.98	35906.89
615.337	36206.55
615.693	36190.05
616.05	36334.45
616.406	36778.74
616.762	36730.6
617.118	36848.34
617.475	36963.59
617.831	37270.25
618.187	37296.01
618.543	37499.4
618.899	37741.87
619.255	37840.4
619.611	37666.17
619.967	38010.79
620.323	38210.56
620.678	38134.63
621.034	38150
621.39	38368.98
621.746	38386.15
622.101	38859.13
622.457	38690.78
622.812	38953.59
623.168	39111.1
623.523	38996.98
623.879	39274.94
624.234	39059.35
624.589	39294.83
624.945	39466.12
625.3	39640.58
625.655	39535.73
626.01	39709.96
626.365	39793.12
626.72	39892.55
627.075	39766.91
627.43	39787.02
627.785	39990.4
628.14	40257.97
628.495	40197.18
628.85	40174.81
629.205	40266.33
629.559	40444.85
629.914	40168.93
630.269	40437.4
630.623	40280.34
630.978	40276.27
631.332	40495.47
631.687	40616.83
632.041	40433.56
632.396	40584.29
632.75	40377.29
633.104	40612.31
633.459	40420.67
633.813	40315.14
634.167	40459.77
634.521	40548.35
634.875	40577.96
635.229	40515.81
635.583	40383.39
635.937	40483.72
636.291	40392.43
636.645	40471.29
636.999	40495.47
637.352	40575.25
637.706	40328.02
638.06	40637.84
638.413	40417.51
638.767	40387
639.121	40445.31
639.474	40409.15
639.828	40384.97
640.181	40398.3
640.534	40426.55
640.888	40313.78
641.241	40272.88
641.594	40206.67
641.947	40292.54
642.301	40353.11
642.654	40387.46
643.007	40519.65
643.36	40313.56
643.713	40274.92
644.066	40397.17
644.419	40309.72
644.771	39956.96
645.124	39616.4
645.477	39549.28
645.83	39357.2
646.182	39182.74
646.535	39191.55
646.888	39357.65
647.24	39021.16
647.593	39296.86
647.945	39180.03
648.298	38938
648.65	38971
649.002	39046.47
649.355	39258.45
649.707	39162.4
650.059	39126.92
650.411	39800.13
650.763	39747.92
651.115	40091.87
651.467	40005.77
651.819	40003.96
652.171	39952.66
652.523	39836.06
652.875	39993.34
653.227	39811.65
653.578	40014.81
653.93	39921.93
654.282	39808.04
654.633	39682.61
654.985	39973.45
655.337	39911.76
655.688	39755.38
656.039	40047.8
656.391	39557.42
656.742	39767.36
657.094	39663.18
657.445	39883.06
657.796	39683.07
658.147	39688.72
658.498	39704.99
658.849	39707.02
659.2	39613.01
659.551	39623.18
659.902	39789.28
660.253	39750.18
660.604	39669.28
660.955	39574.6
661.306	39733.46
661.656	39578.66
662.007	39636.51
662.358	39677.64
662.708	39500.02
663.059	39626.8
663.409	39435.39
663.76	39638.1
664.11	39581.37
664.461	39707.25
664.811	39742.27
665.161	39671.99
665.511	39495.28
665.862	39680.58
666.212	39579.57
666.562	39604.88
666.912	39682.84
667.262	39603.52
667.612	39523.07
667.962	39680.58
668.312	39500.02
668.662	39747.7
669.011	39526.23
669.361	39602.84
669.711	39438.1
670.06	39535.05
670.41	39376.63
670.76	39415.73
671.109	39517.2
671.459	39503.41
671.808	39311.78
672.157	39504.77
672.507	39271.1
672.856	39266.58
673.205	39174.61
673.554	39267.48
673.904	39206.92
674.253	39384.54
674.602	39265.9
674.951	38663.43
675.3	38521.97
675.649	39213.47
675.998	39046.7
676.346	39204.44
676.695	39182.06
677.044	38982.29
677.393	39067.49
677.741	39203.31
678.09	39086.7
678.438	39016.19
678.787	38976.87
679.135	39018
679.484	38874.05
679.832	38794.28
680.181	38719.02
680.529	38859.59
680.877	38686.71
681.225	38617.78
681.573	38808.06
681.922	38566.94
682.27	38419.6
682.618	38451.69
682.966	38293.5
683.314	38463.21
683.661	38327.62
684.009	38178.93
684.357	38153.84
684.705	38006.05
685.053	38049.66
685.4	38005.37
685.748	37726.51
686.095	37870.91
686.443	37731.93
686.79	37641.99
687.138	37747.98
687.485	37688.54
687.832	37555.44
688.18	37696.68
688.527	37449.91
688.874	37430.02
689.221	37377.59
689.568	37251.94
689.915	37118.84
690.262	37191.15
690.609	37153.42
690.956	37001.78
691.303	36858.96
691.65	36856.25
691.997	36745.52
692.344	36661
692.69	36541.91
693.037	36485.64
693.383	36294.91
693.73	36449.93
694.077	36244.97
694.423	36253.1
694.769	36051.07
695.116	36050.17
695.462	35926.1
695.808	35955.93
696.155	35983.28
696.501	35611.54
696.847	35682.72
697.193	35408.38
697.539	35644.98
697.885	35272.11
698.231	35039.12
698.577	35250.64
698.923	35141.27
699.269	35009.07
699.614	34746.25
699.96	34758.45
700.306	34775.85
700.651	34700.6
700.997	34523.88
701.342	34420.15
701.688	34501.51
702.033	34253.38
702.379	34346.94
702.724	34087.73
703.069	34288.18
703.415	33794.18
703.76	33938.59
704.105	33947.62
704.45	33745.82
704.795	33476.68
705.14	33431.48
705.485	33492.72
705.83	33337.02
706.175	33335.89
706.52	33282.56
706.865	33067.87
707.209	33271.03
707.554	32969.57
707.899	33032.85
708.243	32872.4
708.588	32778.84
708.932	32643.7
709.277	32566.64
709.621	32603.25
709.966	32308.35
710.31	32514.67
710.654	32216.14
710.998	32192.19
711.342	32161
711.687	32151.74
712.031	32030.39
712.375	31942.71
712.719	31921.46
713.063	31805.31
713.407	32083.72
713.75	31686.67
714.094	31716.27
714.438	31580.91
714.782	31637.85
715.125	31584.52
715.469	31666.33
715.812	31344.3
716.156	31285.55
716.499	31375.94
716.843	31355.38
717.186	31061.6
717.53	31290.52
717.873	31311.76
718.216	31118.55
718.559	31073.58
718.902	31004.65
719.246	30945.9
719.589	30762.62
719.932	30577.32
720.275	30675.62
720.617	30633.36
720.96	30679.46
721.303	30597.43
721.646	30621.16
721.989	30377.77
722.331	30587.26
722.674	30412.58
723.016	30458
723.359	30319.92
723.701	30406.25
724.044	30017.56
724.386	30042.87
724.729	30186.14
725.071	30080.16
725.413	30033.38
725.755	30075.64
726.097	29774.63
726.439	29585.93
726.782	29853.27
727.124	29922.87
727.465	29626.61
727.807	29723.1
728.149	29618.25
728.491	29567.17
728.833	29661.18
729.175	29484.46
729.516	29424.58
729.858	29396.11
730.199	29339.61
730.541	29326.95
730.882	29186.85
731.224	29385.94
731.565	29151.59
731.906	29245.38
732.248	29170.35
732.589	28936.46
732.93	28878.38
733.271	28937.81
733.612	29022.56
733.953	28863.46
734.294	28746.41
734.635	28687.65
734.976	28879.28
735.317	28710.7
735.658	28728.33
735.999	28746.18
736.339	28529.91
736.68	28767.2
737.021	28598.39
737.361	28537.37
737.702	28670.25
738.042	28488.33
738.383	28354.55
738.723	28615.56
739.063	28317.49
739.404	28367.88
739.744	28326.08
740.084	28214.89
740.424	28369.92
740.764	28289.24
741.104	28275.68
741.444	28141.68
741.784	28112.07
742.124	28159.75
742.464	28164.73
742.804	27983.94
743.143	27882.25
743.483	27868.01
743.823	27820.78
744.162	27815.36
744.502	27817.62
744.841	27839.54
745.181	27748.24
745.52	27744.62
745.86	27723.38
746.199	27729.93
746.538	27780.1
746.877	27614.01
747.216	27604.06
747.556	27603.38
747.895	27523.61
748.234	27489.72
748.573	27446.78
748.911	27398.64
749.25	27494.46
749.589	27321.13
749.928	27286.1
750.267	27376.27
750.605	27240
750.944	27290.4
751.283	27260.79
751.621	27164.07
751.96	27119.56
752.298	27130.4
752.636	27108.26
752.975	26987.13
753.313	26924.53
753.651	26941.93
753.989	26795.5
754.327	26754.59
754.666	26685.67
755.004	26671.88
755.342	26894.25
755.679	26688.61
756.017	26580.36
756.355	26701.04
756.693	26518.44
757.031	26659.68
757.368	26476.18
757.706	26420.82
758.044	26327.26
758.381	26329.97
758.719	26224.21
759.056	26345.11
759.394	26177.89
759.731	25968.4
760.068	26094.5
760.405	26014.73
760.743	25969.76
761.08	25995.74
761.417	25918.91
761.754	25813.15
762.091	25828.06
762.428	25681.4
762.765	25564.12
763.102	25610.89
763.438	25566.15
763.775	25419.26
764.112	25426.49
764.449	25323.9
764.785	25200.51
765.122	25145.14
765.458	25030.57
765.795	25010.68
766.131	25015.88
766.467	24858.82
766.804	24812.27
767.14	24648.43
767.476	24593.97
767.812	24485.73
768.148	24595.55
768.485	24270.36
768.821	24261.55
769.157	24257.26
769.492	24191.04
769.828	24267.65
770.164	23953.76
770.5	23933.65
770.836	23910.83
771.171	23821.11
771.507	23783.82
771.842	23512.19
772.178	23645.97
772.513	23515.13
772.849	23523.94
773.184	23277.62
773.519	23357.17
773.855	23238.75
774.19	23123.95
774.525	23143.84
774.86	22986.56
775.195	22980.46
775.53	22882.6
775.865	22681.48
776.2	22631.76
776.535	22494.14
776.87	22406.01
777.205	22426.35
777.539	22270.42
777.874	22368.04
778.209	22114.94
778.543	22137.09
778.878	22043.98
779.212	22044.66
779.547	21874.5
779.881	21904.78
780.215	21689.42
780.55	21820.03
780.884	21572.58
781.218	21577.33
781.552	21514.96
781.886	21359.93
782.22	21367.62
782.554	21157.23
782.888	21023.67
783.222	20966.72
783.556	20800.63
783.889	20875.2
784.223	20577.35
784.557	20668.2
784.89	20687.41
785.224	20569.9
785.557	20506.62
785.891	20434.76
786.224	20321.77
786.558	20341.88
786.891	20137.37
787.224	20126.07
787.557	20123.36
787.891	20024.15
788.224	19945.73
788.557	19969.23
788.89	19919.52
789.223	19886.3
789.556	19745.51
789.888	19639.98
790.221	19610.37
790.554	19430.04
790.887	19401.57
791.219	19342.13
791.552	19380.55
791.884	19234.79
792.217	19154.57
792.549	19097.17
792.882	19018.07
793.214	18847
793.546	18898.08
793.879	18853.56
794.211	18662.15
794.543	18756.61
794.875	18684.07
795.207	18774.46
795.539	18524.75
795.871	18553.23
796.203	18375.38
796.535	18385.32
796.867	18299.67
797.198	18188.72
797.53	18249.73
797.862	18081.37
798.193	18119.57
798.525	17984.43
798.856	18011.55
799.188	17783.08
799.519	17742.85
799.85	17773.13
800.182	17725
800.513	17618.34
800.844	17511.67
801.175	17647.94
801.506	17507.83
801.837	17356.42
802.168	17472.58
802.499	17322.3
802.83	17195.52
803.161	17214.73
803.491	17120.04
803.822	17140.16
804.153	17037.79
804.483	16900.39
804.814	16853.38
805.145	16866.49
805.475	16928.86
805.805	16762.54
806.136	16808.87
806.466	16818.81
806.796	16808.87
807.126	16561.19
807.457	16507.4
807.787	16492.04
808.117	16436.9
808.447	16442.77
808.777	16479.38
809.107	16417.92
809.436	16347.64
809.766	16247.07
810.096	16201.65
810.426	16133.63
810.755	16169.79
811.085	16123.69
811.414	16036.46
811.744	15953.07
812.073	15974.99
812.403	15973.86
812.732	15821.55
813.061	15781.77
813.39	15817.25
813.719	15651.83
814.049	15715.56
814.378	15678.27
814.707	15594.66
815.036	15590.14
815.365	15505.17
815.693	15385.85
816.022	15394.44
816.351	15353.76
816.68	15314.67
817.008	15358.73
817.337	15253.2
817.665	15190.38
817.994	15138.63
818.322	15184.05
818.651	15189.7
818.979	15026.77
819.307	15145.41
819.636	15054.79
819.964	14921.68
820.292	15089.59
820.62	14988.35
820.948	14856.37
821.276	14968.46
821.604	14848.69
821.932	14933.66
822.259	14930.95
822.587	14911.74
822.915	14884.17
823.243	14940.21
823.57	14824.96
823.898	14897.96
824.225	14753.1
824.553	14827
824.88	14811.86
825.207	14893.21
825.535	14811.86
825.862	14987.44
826.189	14747.9
826.516	14871.74
826.843	14867.67
827.17	14783.61
827.497	14878.52
827.824	14818.64
828.151	14905.19
828.478	14849.37
828.805	14923.04
829.131	14858.41
829.458	14883.72
829.785	14769.6
830.111	14818.41
830.438	14781.35
830.764	14770.73
831.09	14856.37
831.417	14727.34
831.743	14795.36
832.069	14761.46
832.395	14713.78
832.722	14787.68
833.048	14717.62
833.374	14662.93
833.7	14645.31
834.026	14600.34
834.351	14677.17
834.677	14671.3
835.003	14600.56
835.329	14626.1
835.654	14569.38
835.98	14442.15
836.306	14593.33
836.631	14485.99
836.956	14600.56
837.282	14605.08
837.607	14484.86
837.932	14474.92
838.258	14434.92
838.583	14387.69
838.908	14418.42
839.233	14305.65
839.558	14332.77
839.883	14325.54
840.208	14191.76
840.533	14316.28
840.858	14354.47
841.182	14324.41
841.507	14274.7
841.832	14170.29
842.156	14173.46
842.481	14106.34
842.805	14144.98
843.13	14018.88
843.454	14010.75
843.778	13958.32
844.103	13950.64
844.427	13916.06
844.751	13891.43
845.075	13769.62
845.399	13825.44
845.723	13708.16
846.047	13624.99
846.371	13511.1
846.695	13639.68
847.019	13460.25
847.343	13397.66
847.666	13350.88
847.99	13410.76
848.313	13286.25
848.637	13212.8
848.96	13126.7
849.284	13113.82
849.607	13019.59
849.931	13054.61
850.254	12907.73
850.577	12900.27
850.9	12801.06
851.223	12806.03
851.546	12829.76
851.869	12666.38
852.192	12708.63
852.515	12522.88
852.838	12528.75
853.161	12502.76
853.483	12409.89
853.806	12401.3
854.129	12391.81
854.451	12346.38
854.774	12321.53
855.096	12230
855.419	12329.89
855.741	12178.03
856.063	12253.05
856.385	12060.97
856.708	12067.75
857.03	11956.11
857.352	12070.23
857.674	11963.12
857.996	11936.9
858.318	11804.48
858.64	11816.23
858.961	11808.09
859.283	11761.77
859.605	11771.03
859.926	11683.58
860.248	11619.85
860.57	11555.9
860.891	11636.8
861.212	11520.87
861.534	11511.83
861.855	11552.51
862.176	11510.25
862.498	11492.85
862.819	11454.88
863.14	11432.06
863.461	11469.12
863.782	11443.81
864.103	11386.41
864.424	11354.09
864.745	11416.92
865.065	11282.68
865.386	11336.69
865.707	11242.68
866.027	11284.27
866.348	11265.51
866.668	11228.22
866.989	11191.39
867.309	11108.9
867.63	11143.25
867.95	11100.99
868.27	11148.68
868.59	11056.25
868.91	11056.7
869.23	11034.55
869.55	10966.08
869.87	11060.09
870.19	11010.83
870.51	10962.69
870.83	10964.95
871.15	10941.22
871.469	10894.9
871.789	10912.52
872.109	10931.05
872.428	10856.48
872.748	10893.09
873.067	10890.83
873.386	10857.38
873.706	10933.99
874.025	10740.32
874.344	10770.15
874.663	10774
874.982	10789.36
875.301	10747.78
875.62	10667.11
875.939	10626.2
876.258	10694.68
876.577	10568.13
876.896	10610.16
877.214	10588.92
877.533	10629.59
877.852	10576.71
878.17	10608.58
878.489	10529.48
878.807	10547.56
879.125	10470.95
879.444	10555.25
879.762	10455.81
880.08	10379.43
880.398	10401.58
880.716	10420.33
881.034	10310.28
881.352	10294.91
881.67	10365.42
881.988	10301.01
882.306	10329.94
882.624	10215.14
882.941	10226.67
883.259	10158.19
883.577	10200.45
883.894	10165.88
884.212	10113.67
884.529	10090.62
884.846	10082.49
885.164	10028.03
885.481	9964.3
885.798	10081.36
886.115	9917.75
886.432	9950.97
886.75	9959.55
887.067	9946.67
887.383	9880.01
887.7	9910.06
888.017	9894.47
888.334	9834.36
888.651	9856.28
888.967	9854.92
889.284	9818.77
889.6	9764.08
889.917	9693.12
890.233	9751.2
890.55	9628.49
890.866	9677.75
891.182	9589.62
891.498	9491.77
891.815	9555.72
892.131	9482.5
892.447	9495.61
892.763	9472.56
893.079	9413.58
893.395	9475.27
893.71	9366.8
894.026	9388.72
894.342	9266.69
894.657	9224.43
894.973	9182.4
895.289	9246.8
895.604	9204.32
895.92	9088.39
896.235	9154.83
896.55	9120.71
896.865	9102.18
897.181	9073.93
897.496	9015.4
897.811	9009.07
898.126	8939.69
898.441	8903.54
898.756	8909.19
899.071	8816.99
899.386	8838
899.7	8718.91
900.015	8756.2
900.33	8746.03
900.644	8730.21
900.959	8677.78
901.273	8612.02
901.588	8545.35
901.902	8501.74
902.216	8524.56
902.531	8483.66
902.845	8479.37
903.159	8443.44
903.473	8400.73
903.787	8322.31
904.101	8319.82
904.415	8302.2
904.729	8274.18
905.042	8198.7
905.356	8189.88
905.67	8216.32
905.984	8183.56
906.297	8096.1
906.611	8101.98
906.924	8038.02
907.237	8077.8
907.551	8042.32
907.864	8003.22
908.177	7946.73
908.491	7957.8
908.804	7911.92
909.117	7854.07
909.43	7811.14
909.743	7798.48
910.056	7767.3
910.368	7743.79
910.681	7702.66
910.994	7677.35
911.307	7654.98
911.619	7573.85
911.932	7539.28
912.244	7521.88
912.557	7528.43
912.869	7511.03
913.181	7456.8
913.494	7416.8
913.806	7360.3
914.118	7384.03
914.43	7271.26
914.742	7264.03
915.054	7259.51
915.366	7248.21
915.678	7234.2
915.99	7241.43
916.302	7092.06
916.613	7054.32
916.925	7073.75
917.236	7058.39
917.548	7045.28
917.859	7021.33
918.171	6970.93
918.482	6940.42
918.794	6878.73
919.105	6875.12
919.416	6833.99
919.727	6864.27
920.038	6789.47
920.349	6711.73
920.66	6746.76
920.971	6796.25
921.282	6665.18
921.593	6656.59
921.903	6625.18
922.214	6558.06
922.525	6574.33
922.835	6555.35
923.146	6474.67
923.456	6460.44
923.767	6424.73
924.077	6440.78
924.387	6444.62
924.697	6375.02
925.008	6392.87
925.318	6319.42
925.628	6317.84
925.938	6296.83
926.248	6239.65
926.558	6167.11
926.867	6184.96
927.177	6147.45
927.487	6156.72
927.796	6125.98
928.106	6049.6
928.416	6067.45
928.725	6021.35
929.034	5978.19
929.344	5943.84
929.653	5986.55
929.962	5923.73
930.271	5847.57
930.581	5919.89
930.89	5827.69
931.199	5764.41
931.508	5762.15
931.817	5763.96
932.125	5748.14
932.434	5672.89
932.743	5648.48
933.051	5675.6
933.36	5625.43
933.669	5586.11
933.977	5580.46
934.286	5645.09
934.594	5588.37
934.902	5473.12
935.21	5508.82
935.519	5516.51
935.827	5467.02
936.135	5435.15
936.443	5408.26
936.751	5391.31
937.059	5368.49
937.367	5409.84
937.674	5322.61
937.982	5354.03
938.29	5278.55
938.597	5296.17
938.905	5194.48
939.213	5232.22
939.52	5147.7
939.827	5250.75
940.135	5181.38
940.442	5094.15
940.749	5090.76
941.056	5064.54
941.363	5056.18
941.67	5032.45
941.977	4980.02
942.284	4969.4
942.591	4982.74
942.898	4935.51
943.205	4912.23
943.511	4907.71
943.818	4882.85
944.125	4888.28
944.431	4843.76
944.738	4869.07
945.044	4804.21
945.35	4793.81
945.657	4726.7
945.963	4736.87
946.269	4712.46
946.575	4668.62
946.881	4649.64
947.187	4660.94
947.493	4625.46
947.799	4625.23
948.105	4546.36
948.41	4563.09
948.716	4576.65
949.022	4492.13
949.327	4533.26
949.633	4464.33
949.938	4453.48
950.244	4474.05
950.549	4415.97
950.854	4373.71
951.16	4350.89
951.465	4363.09
951.77	4326.71
952.075	4361.28
952.38	4286.94
952.685	4302.75
952.99	4270.21
953.294	4240.16
953.599	4239.93
953.904	4211.91
954.209	4197.22
954.513	4196.54
954.818	4120.39
955.122	4148.18
955.426	4104.57
955.731	4095.75
956.035	4087.17
956.339	4084.68
956.643	4083.32
956.948	4050.11
957.252	4003.1
957.556	4044.91
957.86	3967.62
958.163	3957.45
958.467	3933.5
958.771	3950.67
959.075	3950.9
959.378	3927.62
959.682	3882.65
959.985	3848.3
960.289	3842.65
960.592	3860.28
960.896	3814.18
961.199	3804.24
961.502	3774.18
961.805	3810.79
962.108	3764.24
962.411	3728.98
962.714	3722.88
963.017	3717.01
963.32	3733.5
963.623	3707.97
963.926	3678.36
964.228	3657.8
964.531	3642.21
964.833	3652.38
965.136	3613.73
965.438	3567.63
965.741	3563.11
966.043	3530.35
966.345	3532.83
966.648	3524.02
966.95	3519.95
967.252	3463.23
967.554	3453.74
967.856	3457.58
968.158	3418.48
968.46	3408.99
968.761	3422.1
969.063	3397.92
969.365	3327.64
969.666	3321.31
969.968	3357.24
970.269	3319.28
970.571	3300.07
970.872	3317.7
971.174	3283.35
971.475	3239.05
971.776	3291.93
972.077	3197.25
972.378	3240.41
972.679	3204.7
972.98	3169.68
973.281	3187.08
973.582	3164.7
973.883	3147.08
974.183	3173.07
974.484	3129.9
974.785	3079.74
975.085	3106.85
975.386	3095.33
975.686	3076.8
975.986	3058.49
976.287	3014.65
976.587	3026.86
976.887	3041.54
977.187	3008.78
977.487	3018.95
977.787	3003.13
978.087	2956.8
978.387	2943.24
978.687	2904.15
978.987	2929.23
979.286	2932.85
979.586	2901.21
979.885	2885.39
980.185	2847.2
980.484	2884.94
980.784	2876.35
981.083	2856.01
981.382	2843.81
981.682	2811.04
981.981	2769.91
982.28	2769.01
982.579	2754.32
982.878	2770.37
983.177	2776.24
983.475	2731.5
983.774	2744.83
984.073	2713.87
984.372	2667.09
984.67	2712.29
984.969	2712.51
985.267	2697.82
985.566	2646.75
985.864	2664.38
986.162	2633.42
986.461	2605.17
986.759	2611.73
987.057	2577.15
987.355	2554.1
987.653	2570.14
987.951	2532.41
988.249	2526.3
988.547	2536.25
988.844	2524.95
989.142	2512.29
989.44	2526.08
989.737	2479.53
990.035	2472.07
990.332	2473.42
990.63	2426.65
990.927	2443.14
991.224	2430.71
991.521	2418.96
991.819	2381.45
992.116	2441.11
992.413	2383.48
992.71	2401.11
993.006	2345.74
993.303	2368.12
993.6	2391.62
993.897	2353.88
994.193	2322.24
994.49	2292.41
994.787	2273.65
995.083	2273.88
995.379	2300.32
995.676	2277.95
995.972	2272.3
996.268	2235.69
996.565	2241.79
996.861	2199.53
997.157	2174.9
997.453	2220.1
997.749	2200.89
998.044	2172.19
998.34	2116.82
998.636	2139.2
998.932	2142.13
999.227	2126.31
999.523	2141.45
999.818	2133.77
1000.114	2105.3
1000.409	2104.85
1000.704	2085.64
1001	2054.45
1001.295	2061.68
1001.59	2063.26
1001.885	2031.4
1002.18	2009.71
1002.475	1989.82
1002.77	2007.67
1003.065	1960.67
1003.359	1969.26
1003.654	1985.75
1003.949	1927.22
1004.243	1919.99
1004.538	1928.58
1004.832	1953.21
1005.127	1949.6
1005.421	1909.82
1005.715	1895.13
1006.009	1862.59
1006.304	1867.79
1006.598	1902.14
1006.892	1869.82
1007.186	1836.6
1007.48	1828.47
1007.773	1813.1
1008.067	1827.11
1008.361	1783.5
1008.655	1813.78
1008.948	1809.03
1009.242	1748.92
1009.535	1762.03
1009.829	1756.15
1010.122	1739.43
1010.415	1748.24
1010.708	1701.69
1011.001	1706.89
1011.295	1715.03
1011.588	1684.29
1011.881	1683.84
1012.173	1672.09
1012.466	1656.27
1012.759	1644.29
1013.052	1629.15
1013.344	1626.67
1013.637	1626.67
1013.93	1594.12
1014.222	1620.11
1014.514	1587.8
1014.807	1593.45
1015.099	1570.4
1015.391	1568.81
1015.683	1575.82
1015.976	1554.58
1016.268	1536.27
1016.56	1507.8
1016.851	1501.7
1017.143	1485.43
1017.435	1482.04
1017.727	1471.87
1018.018	1468.25
1018.31	1477.97
1018.602	1456.28
1018.893	1429.16
1019.185	1444.3
1019.476	1433.23
1019.767	1428.03
1020.058	1415.15
1020.35	1396.84
1020.641	1381.47
1020.932	1391.64
1021.223	1379.22
1021.514	1363.62
1021.804	1331.98
1022.095	1355.94
1022.386	1322.04
1022.677	1334.24
1022.967	1366.11
1023.258	1305.77
1023.548	1307.35
1023.839	1274.59
1024.129	1308.03
1024.419	1285.43
1024.709	1277.75
1025	1277.07
1025.29	1270.29
1025.58	1255.83
1025.87	1243.85
1026.16	1238.2
1026.449	1232.33
1026.739	1216.96
1027.029	1216.28
1027.319	1203.63
1027.608	1199.56
1027.898	1193.46
1028.187	1193.68
1028.477	1161.37
1028.766	1177.41
1029.055	1163.85
1029.344	1143.74
1029.634	1148.94
1029.923	1122.95
1030.212	1134.25
1030.501	1108.26
1030.79	1100.8
1031.078	1106.45
1031.367	1084.99
1031.656	1092.22
1031.945	1079.56
1032.233	1088.6
1032.522	1068.49
1032.81	1070.3
1033.099	1075.04
1033.387	1057.87
1033.675	1050.64
1033.963	1048.38
1034.251	1040.69
1034.54	1022.39
1034.828	1018.09
1035.116	1019.45
1035.403	999.79
1035.691	1007.93
1035.979	998.89
1036.267	973.35
1036.554	954.59
1036.842	959.11
1037.129	995.27
1037.417	970.64
1037.704	963.41
1037.992	943.29
1038.279	938.1
1038.566	940.13
1038.853	940.13
1039.14	940.13
