Data from hue_40_FLMS001491_76.txt Node
Date: Mon Feb 06 15:08:25 GMT 2017
User: dcchb
Spectrometer: FLMS00149
Trigger mode: 0
Integration Time (sec): 2.000000E-2
Scans to average: 10
Electric dark correction enabled: true
Nonlinearity correction enabled: false
Boxcar width: 0
XAxis mode: Wavelengths
Number of Pixels in Spectrum: 2048
>>>>>Begin Spectral Data<<<<<
341.393	-7.85
341.776	-7.85
342.16	-7.85
342.543	-63.9
342.927	-75.2
343.31	-66.61
343.693	-71.35
344.077	-48.76
344.46	-37.68
344.843	-48.08
345.226	-30.9
345.61	-48.08
345.993	-7.85
346.376	19.27
346.759	7.74
347.142	-3.11
347.525	26.04
347.908	46.38
348.291	66.04
348.674	90.22
349.057	106.72
349.44	116.66
349.823	137.45
350.206	164.12
350.588	198.02
350.971	212.03
351.354	223.55
351.737	245.93
352.119	257.9
352.502	280.95
352.884	275.3
353.267	294.96
353.65	273.72
354.032	281.63
354.414	327.73
354.797	319.6
355.179	341.06
355.562	338.8
355.944	333.61
356.326	333.38
356.709	346.71
357.091	345.81
357.473	335.64
357.855	338.58
358.238	352.82
358.62	356.66
359.002	329.54
359.384	340.84
359.766	337.9
360.148	347.17
360.53	352.36
360.912	350.33
361.294	336.32
361.676	325.92
362.057	325.47
362.439	333.61
362.821	349.65
363.203	344.23
363.584	336.09
363.966	334.28
364.348	335.41
364.729	333.61
365.111	321.18
365.493	324.57
365.874	323.66
366.256	326.38
366.637	318.01
367.019	319.82
367.4	316.88
367.781	323.44
368.163	305.81
368.544	312.36
368.925	317.11
369.306	322.08
369.688	320.05
370.069	318.01
370.45	297
370.831	317.34
371.212	309.88
371.593	337
371.974	323.89
372.355	338.13
372.736	313.49
373.117	317.11
373.498	318.69
373.879	328.64
374.26	308.3
374.641	320.27
375.021	316.21
375.402	324.34
375.783	329.09
376.163	328.64
376.544	326.38
376.925	330.9
377.305	348.52
377.686	303.33
378.066	343.55
378.447	329.09
378.827	331.12
379.208	312.82
379.588	338.13
379.968	324.34
380.349	331.57
380.729	349.65
381.109	334.51
381.489	314.17
381.87	335.87
382.25	342.42
382.63	332.93
383.01	343.32
383.39	345.13
383.77	352.36
384.15	337
384.53	341.97
384.91	344.68
385.29	347.17
385.67	350.78
386.049	361.63
386.429	365.7
386.809	345.36
387.189	351.01
387.568	348.97
387.948	367.5
388.328	347.17
388.707	369.99
389.087	352.36
389.466	365.02
389.846	371.35
390.225	362.31
390.605	344.68
390.984	344.23
391.363	348.3
391.743	370.22
392.122	377.45
392.501	368.86
392.881	366.15
393.26	361.63
393.639	361.4
394.018	363.21
394.397	388.07
394.776	387.84
395.155	368.86
395.534	384
395.913	368.86
396.292	373.83
396.671	372.25
397.05	385.81
397.429	372.7
397.808	380.84
398.186	372.02
398.565	366.6
398.944	392.81
399.323	392.81
399.701	407.28
400.08	377.67
400.458	387.62
400.837	407.96
401.215	394.17
401.594	383.32
401.972	402.98
402.351	405.24
402.729	398.92
403.107	418.8
403.486	396.66
403.864	411.8
404.242	406.83
404.62	422.19
404.999	401.4
405.377	410.67
405.755	407.5
406.133	389.65
406.511	428.29
406.889	426.03
407.267	422.87
407.645	415.41
408.023	436.66
408.401	407.96
408.779	413.38
409.156	460.38
409.534	458.12
409.912	443.66
410.29	428.97
410.667	450.89
411.045	443.21
411.422	435.3
411.8	459.25
412.178	443.66
412.555	471.23
412.933	446.82
413.31	452.93
413.687	449.08
414.065	473.04
414.442	463.32
414.819	476.43
415.197	476.43
415.574	477.56
415.951	480.72
416.328	488.41
416.705	473.26
417.082	471.23
417.46	500.16
417.837	494.05
418.214	485.92
418.591	492.92
418.967	491.79
419.344	497.22
419.721	495.86
420.098	480.27
420.475	494.96
420.852	506.94
421.228	501.51
421.605	520.04
421.982	532.02
422.358	515.75
422.735	510.33
423.111	524.56
423.488	531.79
423.864	541.74
424.241	552.58
424.617	541.74
424.994	541.74
425.37	524.34
425.746	536.54
426.123	553.26
426.499	541.29
426.875	565.47
427.251	556.43
427.627	541.96
428.003	551.23
428.379	582.41
428.756	559.59
429.132	577.89
429.507	574.05
429.883	579.25
430.259	594.17
430.635	598.23
431.011	580.15
431.387	582.87
431.763	605.92
432.138	629.42
432.514	607.05
432.89	607.95
433.265	636.42
433.641	636.2
434.016	648.85
434.392	634.84
434.767	665.12
435.143	659.47
435.518	658.12
435.894	667.84
436.269	664.67
436.644	683.2
437.02	684.33
437.395	680.26
437.77	685.01
438.145	696.31
438.52	686.14
438.895	674.16
439.271	692.47
439.646	716.87
440.021	696.08
440.395	696.08
440.77	707.16
441.145	708.96
441.52	736.08
441.895	741.05
442.27	744.22
442.645	722.98
443.019	729.53
443.394	725.69
443.769	762.75
444.143	725.91
444.518	750.55
444.892	774.95
445.267	760.49
445.641	756.42
446.016	752.58
446.39	785.35
446.764	754.39
447.139	771.56
447.513	783.09
447.887	793.26
448.262	782.63
448.636	794.16
449.01	809.3
449.384	823.76
449.758	817.89
450.132	819.02
450.506	820.83
450.88	827.61
451.254	820.6
451.628	815.4
452.002	843.88
452.376	850.2
452.75	833.03
453.123	850.66
453.497	866.7
453.871	859.24
454.244	881.16
454.618	914.38
454.992	878.9
455.365	896.76
455.739	921.61
456.112	929.3
456.486	915.06
456.859	928.17
457.232	943.99
457.606	945.57
457.979	950.77
458.352	982.86
458.725	994.15
459.099	979.24
459.472	1033.02
459.845	1030.54
460.218	1025.11
460.591	1049.29
460.964	1024.21
461.337	1059.92
461.71	1053.81
462.083	1054.94
462.456	1064.66
462.829	1070.54
463.201	1117.99
463.574	1094.94
463.947	1162.96
464.32	1149.63
464.692	1165
465.065	1167.71
465.438	1184.43
465.81	1193.47
466.183	1211.32
466.555	1249.74
466.928	1240.93
467.3	1229.85
467.672	1272.34
468.045	1298.33
468.417	1301.49
468.789	1309.85
469.161	1359.57
469.534	1381.72
469.906	1415.16
470.278	1395.27
470.65	1431.66
471.022	1454.03
471.394	1465.1
471.766	1499.23
472.138	1523.41
472.51	1546.23
472.882	1601.82
473.253	1611.09
473.625	1681.37
473.997	1669.17
474.369	1710.07
474.74	1741.71
475.112	1762.72
475.484	1828.71
475.855	1835.04
476.227	1875.26
476.598	1934.24
476.97	1976.5
477.341	2002.04
477.713	2082.49
478.084	2084.52
478.455	2150.96
478.827	2215.82
479.198	2265.31
479.569	2317.06
479.94	2370.84
480.311	2439.09
480.682	2496.94
481.053	2574
481.424	2628.69
481.795	2673.43
482.166	2743.49
482.537	2812.19
482.908	2901.45
483.279	2943.71
483.65	3072.74
484.021	3141.89
484.391	3237.94
484.762	3220.08
485.133	3318.39
485.503	3382.79
485.874	3535.78
486.244	3584.6
486.615	3662.56
486.985	3747.75
487.356	3874.3
487.726	3920.63
488.097	4088.08
488.467	4097.8
488.837	4244.01
489.207	4324.69
489.578	4433.16
489.948	4538.47
490.318	4606.94
490.688	4658.92
491.058	4820.49
491.428	4942.3
491.798	4966.93
492.168	5090.54
492.538	5232.91
492.908	5302.06
493.278	5383.19
493.648	5470.87
494.017	5602.85
494.387	5688.95
494.757	5754.48
495.126	5889.62
495.496	5946.57
495.866	6061.82
496.235	6164.87
496.605	6220.23
496.974	6345.88
497.344	6438.08
497.713	6499.77
498.082	6567.79
498.452	6717.39
498.821	6836.26
499.19	6827
499.559	6929.14
499.928	7010.72
500.298	7126.42
500.667	7244.16
501.036	7208.68
501.405	7386.3
501.774	7360.09
502.143	7459.97
502.512	7535
502.88	7622.68
503.249	7715.33
503.618	7759.4
503.987	7830.36
504.356	7915.33
504.724	7951.71
505.093	8075.55
505.462	8136.11
505.83	8272.61
506.199	8361.87
506.567	8421.98
506.936	8442.55
507.304	8640.06
507.672	8593.5
508.041	8694.97
508.409	8759.37
508.777	8838.24
509.145	8967.96
509.514	8983.78
509.882	9057.22
510.25	9107.16
510.618	9174.5
510.986	9203.43
511.354	9353.03
511.722	9421.05
512.09	9513.25
512.458	9493.82
512.826	9561.61
513.193	9616.3
513.561	9685.9
513.929	9811.78
514.297	9792.12
514.664	9943.07
515.032	9936.07
515.4	10115.27
515.767	10115.27
516.135	10183.52
516.502	10179.68
516.869	10306.9
517.237	10376.28
517.604	10373.34
517.972	10514.81
518.339	10548.93
518.706	10603.17
519.073	10665.31
519.44	10644.3
519.808	10830.73
520.175	10789.15
520.542	10962.25
520.909	10989.15
521.276	11073.21
521.643	11163.6
522.009	11244.28
522.376	11242.25
522.743	11355.24
523.11	11387.78
523.477	11589.36
523.843	11635
524.21	11706.19
524.577	11802.01
524.943	11821.67
525.31	11892.4
525.676	12000.42
526.043	12075.22
526.409	12138.04
526.776	12250.81
527.142	12303.01
527.508	12380.3
527.874	12508.43
528.241	12532.16
528.607	12553.62
528.973	12699.16
529.339	12655.32
529.705	12858.25
530.071	12945.48
530.437	13023.89
530.803	13003.1
531.169	13060.73
531.535	13091.24
531.901	13159.94
532.267	13276.32
532.632	13334.17
532.998	13349.76
533.364	13501.17
533.73	13539.59
534.095	13657.1
534.461	13602.64
534.826	13682.86
535.192	13786.81
535.557	13879.47
535.923	13780.94
536.288	13918.79
536.653	14018.9
537.019	13968.95
537.384	14063.64
537.749	14140.25
538.114	14110.42
538.479	14212.79
538.845	14245.78
539.21	14232.9
539.575	14409.62
539.94	14444.42
540.305	14519.45
540.67	14478.09
541.034	14557.41
541.399	14660.24
541.764	14709.95
542.129	14754.47
542.494	14744.75
542.858	14838.54
543.223	14865.65
543.587	14951.3
543.952	14923.05
544.316	15050.96
544.681	15001.92
545.045	15119.21
545.41	15298.86
545.774	15273.1
546.138	15307.68
546.503	15372.76
546.867	15420.44
547.231	15548.57
547.595	15564.17
547.959	15655.46
548.324	15676.48
548.688	15670.83
549.052	15768.68
549.416	15746.76
549.779	15826.08
550.143	15874.44
550.507	15963.93
550.871	16027.88
551.235	15962.12
551.599	16155.11
551.962	16248.67
552.326	16266.75
552.689	16286.63
553.053	16263.13
553.417	16295
553.78	16597.59
554.143	16449.34
554.507	16527.76
554.87	16661.31
555.234	16785.15
555.597	16665.16
555.96	16810.46
556.323	16856.56
556.686	16851.14
557.05	17002.32
557.413	17071.47
557.776	17098.59
558.139	17183.79
558.502	17280.73
558.865	17273.5
559.228	17401.18
559.59	17390.33
559.953	17427.62
560.316	17661.96
560.679	17562.53
561.041	17682.76
561.404	17833.94
561.767	17817.44
562.129	17823.77
562.492	18025.8
562.854	18006.81
563.217	18007.27
563.579	18110.31
563.941	18241.84
564.304	18362.51
564.666	18337.88
565.028	18434.6
565.39	18450.42
565.753	18565.67
566.115	18677.76
566.477	18679.79
566.839	18781.03
567.201	18852.89
567.563	18928.15
567.925	19011.99
568.287	18955.94
568.648	18972.21
569.01	19218.31
569.372	19317.29
569.734	19176.5
570.095	19401.58
570.457	19520.22
570.819	19581.91
571.18	19566.55
571.542	19663.27
571.903	19764.96
572.265	19848.12
572.626	19878.18
572.987	20014.67
573.349	20158.4
573.71	20179.86
574.071	20214.67
574.432	20365.4
574.794	20589.57
575.155	20626.18
575.516	20570.59
575.877	20686.97
576.238	20884.03
576.599	20874.76
576.96	20984.59
577.32	21003.12
577.681	21209.44
578.042	21361.98
578.403	21424.58
578.763	21503.22
579.124	21668.64
579.485	21740.73
579.845	21937.11
580.206	22008.52
580.566	22031.79
580.927	22155.63
581.287	22430.43
581.648	22505
582.008	22718.78
582.368	22839.23
582.728	22953.35
583.089	23040.58
583.449	23133.01
583.809	23419.33
584.169	23640.34
584.529	23536.61
584.889	23911.52
585.249	23939.99
585.609	24058.86
585.969	24431.05
586.329	24550.15
586.688	24702.68
587.048	24823.58
587.408	25006.18
587.768	25189.9
588.127	25353.06
588.487	25480.97
588.846	25910.11
589.206	25766.84
589.565	25953.27
589.925	26275.07
590.284	26474.61
590.643	26594.16
591.003	26868.95
591.362	27102.17
591.721	27308.72
592.08	27297.87
592.44	27588.03
592.799	27800
593.158	27969.94
593.517	28055.59
593.876	28399.08
594.235	28391.63
594.593	28561.79
594.952	28873.2
595.311	28940.31
595.67	29157.26
596.029	29511.37
596.387	29782.1
596.746	29967.86
597.104	29984.58
597.463	30072.49
597.822	30386.83
598.18	30342.76
598.538	30576.43
598.897	30824.56
599.255	30741.17
599.613	31399
599.972	31269.29
600.33	31563.07
600.688	31536.4
601.046	31795.83
601.404	32183.84
601.762	32139.55
602.12	32409.6
602.478	32473.33
602.836	32613.89
603.194	32522.59
603.552	32778.18
603.91	32889.14
604.268	33100.43
604.625	33179.98
604.983	33439.63
605.341	33383.36
605.698	33569.8
606.056	33855.66
606.413	33815.21
606.771	34097.47
607.128	34069.44
607.485	34148.76
607.843	34172.27
608.2	34484.35
608.557	34666.26
608.914	34744.45
609.272	35017.21
609.629	35017.67
609.986	35336.53
610.343	35153.71
610.7	35579.46
611.057	35443.64
611.414	35511.67
611.771	35658.78
612.127	35796.4
612.484	35797.53
612.841	36181.7
613.198	36056.06
613.554	36219.9
613.911	36479.32
614.267	36523.16
614.624	36575.59
614.98	36597.96
615.337	36881.35
615.693	36841.35
616.05	36736.72
616.406	37039.53
616.762	37035.92
617.118	36998.41
617.475	37173.54
617.831	37310.26
618.187	37202.24
618.543	37467.09
618.899	37734.21
619.255	37698.5
619.611	37743.47
619.967	37811.27
620.323	38019.62
620.678	37944.82
621.034	37879.51
621.39	38027.76
621.746	37970.81
622.101	38372.15
622.457	38070.92
622.812	38234.76
623.168	38256.9
623.523	38283.34
623.879	38491.25
624.234	38216.9
624.589	38313.4
624.945	38395.43
625.3	38556.1
625.655	38573.51
626.01	38712.71
626.365	38712.03
626.72	38728.08
627.075	38780.96
627.43	38751.35
627.785	38681.75
628.14	38848.98
628.495	38870.22
628.85	38771.01
629.205	38701.86
629.559	39086.26
629.914	38967.62
630.269	38743.67
630.623	38749.32
630.978	38719.94
631.332	38964.91
631.687	38979.6
632.041	38833.16
632.396	38889.66
632.75	38750.22
633.104	38794.74
633.459	38588.19
633.813	38687.4
634.167	38724.46
634.521	38828.41
634.875	38749.77
635.229	38579.83
635.583	38663.22
635.937	38617.12
636.291	38708.64
636.645	38602.21
636.999	38599.49
637.352	38725.37
637.706	38561.75
638.06	38775.76
638.413	38576.44
638.767	38352.95
639.121	38509.55
639.474	38334.64
639.828	38430.91
640.181	38484.69
640.534	38456.67
640.888	38413.51
641.241	38202.44
641.594	38290.12
641.947	38429.1
642.301	38385.71
642.654	38274.76
643.007	38369.22
643.36	38238.83
643.713	38252.84
644.066	38494.86
644.419	38140.07
644.771	37968.78
645.124	37671.83
645.477	37520.65
645.83	37418.28
646.182	37191.62
646.535	37024.62
646.888	37233.88
647.24	36978.97
647.593	37114.33
647.945	37074.79
648.298	36986.65
648.65	36969.25
649.002	36856.71
649.355	36896.49
649.707	36850.84
650.059	37011.29
650.411	37364.05
650.763	37582.12
651.115	37837.25
651.467	37693.3
651.819	37797.48
652.171	37643.13
652.523	37567.2
652.875	37588.22
653.227	37450.6
653.578	37707.99
653.93	37583.48
654.282	37399.07
654.633	37355.91
654.985	37437.04
655.337	37450.6
655.688	37403.37
656.039	37496.92
656.391	37265.97
656.742	37400.43
657.094	37393.65
657.445	37465.74
657.796	37426.42
658.147	37405.85
658.498	37265.52
658.849	37305.06
659.2	37321.34
659.551	37263.03
659.902	37251.73
660.253	37065.75
660.604	37437.72
660.955	37153.43
661.306	37342.58
661.656	37157.72
662.007	37189.59
662.358	37175.12
662.708	36968.12
663.059	37058.97
663.409	36917.5
663.76	37125.63
664.11	37113.88
664.461	37159.08
664.811	37160.89
665.161	37157.95
665.511	37030.72
665.862	37049.93
666.212	37081.57
666.562	37133.77
666.912	37029.59
667.262	36987.78
667.612	37023.72
667.962	37199.76
668.312	37047.44
668.662	37088.57
669.011	37016.26
669.361	37065.07
669.711	36930.16
670.06	37003.6
670.41	36944.4
670.76	36870.05
671.109	37022.36
671.459	36948.01
671.808	36801.57
672.157	36973.32
672.507	36706.44
672.856	36748.24
673.205	36794.12
673.554	36866.21
673.904	36687
674.253	36903.04
674.602	36736.72
674.951	36308.48
675.3	36101.03
675.649	36629.83
675.998	36642.26
676.346	36802.93
676.695	36785.08
677.044	36406.78
677.393	36501.02
677.741	36531.07
678.09	36563.61
678.438	36436.61
678.787	36418.31
679.135	36392.77
679.484	36369.95
679.832	36389.38
680.181	36198.2
680.529	36294.24
680.877	36312.1
681.225	36250.63
681.573	36479.32
681.922	36137.41
682.27	36077.07
682.618	36073.46
682.966	36066.23
683.314	35939.22
683.661	35999.34
684.009	35891.99
684.357	35820.36
684.705	35754.14
685.053	35660.59
685.4	35524.09
685.748	35408.84
686.095	35473.7
686.443	35139.25
686.79	35303.99
687.138	35292.91
687.485	35275.97
687.832	35308.28
688.18	35245.91
688.527	34884.11
688.874	34908.52
689.221	34962.53
689.568	34870.78
689.915	34719.14
690.262	34836.2
690.609	34707.17
690.956	34584.46
691.303	34524.35
691.65	34314.41
691.997	34311.92
692.344	34122.32
692.69	34067.41
693.037	34044.59
693.383	33912.39
693.73	33954.19
694.077	33711.49
694.423	33789
694.769	33774.54
695.116	33577.25
695.462	33579.96
695.808	33571.6
696.155	33574.31
696.501	33297.03
696.847	33291.38
697.193	33095.46
697.539	33168.9
697.885	33045.74
698.231	32812.75
698.577	32881.45
698.923	32825.41
699.269	32729.14
699.614	32504.06
699.96	32552.65
700.306	32528.24
700.651	32345.65
700.997	32230.85
701.342	32314.01
701.688	32090.96
702.033	31955.83
702.379	32056.39
702.724	31864.08
703.069	31961.02
703.415	31477.19
703.76	31527.59
704.105	31527.36
704.45	31494.37
704.795	31311.55
705.14	31282.17
705.485	31218.9
705.83	31091.89
706.175	31128.28
706.52	31153.81
706.865	30921.28
707.209	30949.75
707.554	30734.39
707.899	30813.48
708.243	30813.03
708.588	30646.48
708.932	30372.14
709.277	30416.21
709.621	30458.24
709.966	30334.17
710.31	30354.51
710.654	30075.88
710.998	30270.22
711.342	30108.42
711.687	29997.23
712.031	29948.65
712.375	29773.74
712.719	29852.15
713.063	29749.56
713.407	29881.3
713.75	29631.59
714.094	29627.75
714.438	29442.22
714.782	29681.54
715.125	29449.68
715.469	29437.25
715.812	29195.45
716.156	29121.32
716.499	29135.79
716.843	29215.56
717.186	28950.93
717.53	29154.54
717.873	29108.22
718.216	29042
718.559	28917.04
718.902	28789.58
719.246	28989.12
719.589	28809.47
719.932	28653.54
720.275	28632.52
720.617	28451.06
720.96	28457.61
721.303	28524.5
721.646	28526.99
721.989	28287.9
722.331	28355.24
722.674	28289.93
723.016	28282.25
723.359	28284.28
723.701	28229.6
724.044	28134.01
724.386	27924.07
724.729	28028.7
725.071	27968.36
725.413	27962.94
725.755	27948.47
726.097	27788.48
726.439	27704.19
726.782	27726.79
727.124	27792.32
727.465	27684.75
727.807	27545.55
728.149	27522.04
728.491	27463.06
728.833	27509.39
729.175	27517.98
729.516	27386.68
729.858	27337.42
730.199	27331.09
730.541	27193.69
730.882	27250.87
731.224	27330.19
731.565	27199.34
731.906	27171.77
732.248	27070.76
732.589	26970.42
732.93	26865.34
733.271	26889.52
733.612	26983.3
733.953	26962.29
734.294	26933.36
734.635	26833.02
734.976	26783.08
735.317	26668.28
735.658	26549.41
735.999	26658.56
736.339	26645.68
736.68	26713.93
737.021	26631.22
737.361	26529.3
737.702	26621.05
738.042	26557.55
738.383	26357.56
738.723	26468.97
739.063	26390.55
739.404	26442.75
739.744	26348.29
740.084	26163.66
740.424	26344.67
740.764	26096.55
741.104	26169.99
741.444	26078.24
741.784	26015.19
742.124	26071.01
742.464	25956.66
742.804	25879.83
743.143	25843.22
743.483	25856.78
743.823	25707.4
744.162	25673.05
744.502	25698.59
744.841	25618.59
745.181	25746.95
745.52	25660.85
745.86	25702.88
746.199	25608.2
746.538	25557.12
746.877	25546.73
747.216	25551.93
747.556	25523.45
747.895	25538.37
748.234	25353.97
748.573	25270.35
748.911	25210.92
749.25	25246.85
749.589	25010.92
749.928	25269.9
750.267	25183.35
750.605	25085.5
750.944	24982.45
751.283	24901.77
751.621	24860.65
751.96	24786.3
752.298	24823.58
752.636	24668.11
752.975	24683.48
753.313	24573.2
753.651	24697.71
753.989	24519.41
754.327	24535.23
754.666	24441.67
755.004	24524.84
755.342	24403.26
755.679	24357.83
756.017	24219.08
756.355	24420.88
756.693	24152.64
757.031	24361
757.368	23997.39
757.706	23995.13
758.044	23992.19
758.381	23910.39
758.719	23853.44
759.056	23818.87
759.394	23789.26
759.731	23578.65
760.068	23641.47
760.405	23547.69
760.743	23410.51
761.08	23499.33
761.417	23407.8
761.754	23348.14
762.091	23254.36
762.428	23258.2
762.765	23002.84
763.102	23156.28
763.438	22955.61
763.775	22980.24
764.112	22883.52
764.449	22956.29
764.785	22807.14
765.122	22645.11
765.458	22668.39
765.795	22588.16
766.131	22508.62
766.467	22425
766.804	22393.14
767.14	22201.96
767.476	22231.56
767.812	22100.04
768.148	22192.92
768.485	22008.74
768.821	21695.53
769.157	21850.33
769.492	21820.95
769.828	21774.85
770.164	21557
770.5	21513.62
770.836	21438.36
771.171	21353.62
771.507	21297.8
771.842	21163.57
772.178	21157.92
772.513	21037.92
772.849	21049.9
773.184	21040.63
773.519	20888.09
773.855	20832.28
774.19	20842.67
774.525	20731.04
774.86	20658.5
775.195	20642.9
775.53	20503.92
775.865	20404.49
776.2	20238.17
776.535	20042.92
776.87	20175.57
777.205	20115.91
777.539	19996.82
777.874	19965.63
778.209	19812.64
778.543	19738.29
778.878	19701.46
779.212	19803.38
779.547	19581.46
779.881	19557.96
780.215	19348.47
780.55	19496.27
780.884	19329.04
781.218	19301.92
781.552	19226.22
781.886	19211.98
782.22	19102.61
782.554	19035.04
782.888	18962.04
783.222	18779.68
783.556	18692.22
783.889	18728.15
784.223	18540.81
784.557	18499.68
784.89	18562.28
785.224	18397.09
785.557	18403.64
785.891	18370.65
786.224	18205
786.558	18182.86
786.891	18035.29
787.224	17937.44
787.557	17986.7
787.891	17942.86
788.224	17825.8
788.557	17864.9
788.89	17737.67
789.223	17763.66
789.556	17694.51
789.888	17591.46
790.221	17509.2
790.554	17402.31
790.887	17465.59
791.219	17370.22
791.552	17221.07
791.884	17222.2
792.217	17068.08
792.549	17059.95
792.882	16929.55
793.214	16848.88
793.546	16930.23
793.879	16730.24
794.211	16717.81
794.543	16708.77
794.875	16673.97
795.207	16764.59
795.539	16644.59
795.871	16626.29
796.203	16410.47
796.535	16346.97
796.867	16333.64
797.198	16264.26
797.53	16272.62
797.862	16143.13
798.193	16179.29
798.525	16108.33
798.856	16076.02
799.188	15953.76
799.519	15882.35
799.85	15754.9
800.182	15834.44
800.513	15833.76
800.844	15694.11
801.175	15709.02
801.506	15716.25
801.837	15694.56
802.168	15511.29
802.499	15467.9
802.83	15488.46
803.161	15472.87
803.491	15346.32
803.822	15431.29
804.153	15227.45
804.483	15171.86
804.814	15103.16
805.145	15147.45
805.475	15115.59
805.805	14982.49
806.136	15052.99
806.466	14925.77
806.796	14929.83
807.126	14873.11
807.457	14826.33
807.787	14766.45
808.117	14723.51
808.447	14658.88
808.777	14735.49
809.107	14656.39
809.436	14605.1
809.766	14483.07
810.096	14545.66
810.426	14514.03
810.755	14514.03
811.085	14406.68
811.414	14312.45
811.744	14184.09
812.073	14261.38
812.403	14195.84
812.732	14206.01
813.061	14164.2
813.39	13996.07
813.719	14062.96
814.049	14164.43
814.378	14038.11
814.707	13963.53
815.036	13928.96
815.365	13867.71
815.693	13698
816.022	13719.24
816.351	13678.57
816.68	13649.87
817.008	13673.14
817.337	13502.07
817.665	13609.87
817.994	13646.03
818.322	13583.65
818.651	13489.87
818.979	13492.58
819.307	13469.31
819.636	13442.87
819.964	13392.47
820.292	13286.49
820.62	13404
820.948	13275.41
821.276	13400.61
821.604	13294.17
821.932	13319.48
822.259	13302.31
822.587	13360.16
822.915	13277.22
823.243	13306.37
823.57	13214.4
823.898	13285.36
824.225	13202.42
824.553	13271.8
824.88	13290.78
825.207	13264.79
825.535	13274.06
825.862	13277.67
826.189	13205.36
826.516	13254.85
826.843	13309.99
827.17	13303.44
827.497	13331.01
827.824	13276.09
828.151	13192.93
828.478	13246.04
828.805	13230.9
829.131	13254.17
829.458	13236.54
829.785	13161.29
830.111	13166.94
830.438	13234.06
830.764	13209.88
831.09	13282.87
831.417	13202.42
831.743	13226.83
832.069	13131.01
832.395	13124.23
832.722	13195.19
833.048	13055.98
833.374	13197.68
833.7	13085.59
834.026	13104.12
834.351	13065.48
834.677	13089.66
835.003	13079.03
835.329	13059.37
835.654	13019.83
835.98	12961.52
836.306	13091.01
836.631	12934.41
836.956	12958.36
837.282	12939.83
837.607	12855.99
837.932	12857.35
838.258	12889.89
838.583	12782.55
838.908	12774.64
839.233	12793.39
839.558	12775.31
839.883	12717.01
840.208	12686.73
840.533	12671.59
840.858	12718.59
841.182	12668.42
841.507	12671.14
841.832	12545.72
842.156	12526.51
842.481	12561.31
842.805	12531.03
843.13	12438.15
843.454	12442.67
843.778	12386.62
844.103	12428.2
844.427	12391.37
844.751	12372.39
845.075	12294.65
845.399	12319.05
845.723	12219.17
846.047	12251.94
846.371	12165.39
846.695	12211.71
847.019	12043.36
847.343	11979.4
847.666	11939.86
847.99	11882.91
848.313	11821.44
848.637	11743.93
848.96	11817.37
849.284	11787.32
849.607	11639.52
849.931	11712.52
850.254	11584.16
850.577	11476.59
850.9	11482.01
851.223	11469.59
851.546	11434.11
851.869	11253.77
852.192	11385.75
852.515	11221.46
852.838	11176.71
853.161	11255.13
853.483	11132.42
853.806	11101.91
854.129	11165.64
854.451	11001.58
854.774	10959.09
855.096	10944.4
855.419	10883.16
855.741	10891.3
856.063	10764.97
856.385	10775.14
856.708	10824.63
857.03	10763.62
857.352	10712.32
857.674	10708.7
857.996	10688.59
858.318	10600.23
858.64	10565.2
858.961	10570.17
859.283	10503.06
859.605	10484.98
859.926	10541.02
860.248	10424.19
860.57	10356.39
860.891	10337.19
861.212	10334.25
861.534	10274.36
861.855	10318.43
862.176	10323.17
862.498	10331.54
862.819	10339.22
863.14	10233.91
863.461	10233.91
863.782	10207.92
864.103	10131.32
864.424	10124.99
864.745	10205.21
865.065	10110.07
865.386	10080.7
865.707	10112.56
866.027	10124.08
866.348	10032.34
866.668	10079.11
866.989	9981.04
867.309	9954.37
867.63	9980.13
867.95	9955.05
868.27	9899.01
868.59	9933.13
868.91	9906.01
869.23	9841.38
869.55	9796.18
869.87	9904.88
870.19	9800.25
870.51	9880.47
870.83	9837.31
871.15	9770.2
871.469	9720.03
871.789	9702.4
872.109	9753.92
872.428	9706.92
872.748	9695.17
873.067	9727.26
873.386	9701.95
873.706	9697.43
874.025	9661.95
874.344	9648.39
874.663	9611.1
874.982	9636.64
875.301	9637.09
875.62	9528.85
875.939	9511.44
876.258	9598.22
876.577	9493.59
876.896	9515.96
877.214	9482.29
877.533	9445.46
877.852	9443.65
878.17	9419.7
878.489	9545.57
878.807	9438.68
879.125	9361.62
879.444	9404.1
879.762	9339.92
880.08	9343.54
880.398	9376.53
880.716	9327.72
881.034	9269.19
881.352	9256.08
881.67	9253.6
881.988	9301.96
882.306	9155.97
882.624	9170.44
882.941	9179.48
883.259	9105.35
883.577	9086.37
883.894	9108.97
884.212	9133.15
884.529	9082.08
884.846	9074.62
885.164	9082.08
885.481	9035.53
885.798	9028.52
886.115	8913.04
886.432	8966.6
886.75	8880.05
887.067	8883.44
887.383	8870.33
887.7	8857.22
888.017	8796.89
888.334	8837.11
888.651	8813.84
888.967	8766.15
889.284	8685.7
889.6	8730.67
889.917	8654.74
890.233	8664.69
890.55	8567.06
890.866	8688.64
891.182	8539.72
891.498	8574.97
891.815	8524.13
892.131	8487.97
892.447	8479.83
892.763	8496.1
893.079	8452.72
893.395	8419.95
893.71	8352.61
894.026	8389.67
894.342	8317.58
894.657	8231.93
894.973	8220.18
895.289	8267.18
895.604	8181.54
895.92	8174.3
896.235	8155.32
896.55	8172.05
896.865	8122.1
897.181	8066.06
897.496	8053.63
897.811	8007.98
898.126	8009.11
898.441	7972.5
898.756	7927.53
899.071	7922.33
899.386	7898.38
899.7	7887.31
900.015	7844.37
900.33	7820.19
900.644	7706.75
900.959	7747.88
901.273	7747.88
901.588	7657.26
901.902	7674.43
902.216	7661.1
902.531	7637.14
902.845	7613.19
903.159	7531.84
903.473	7532.06
903.787	7496.58
904.101	7417.49
904.415	7448.45
904.729	7422.91
905.042	7369.35
905.356	7388.11
905.67	7343.59
905.984	7363.93
906.297	7306.08
906.611	7209.36
906.924	7224.05
907.237	7241
907.551	7174.78
907.864	7180.66
908.177	7197.16
908.491	7147.67
908.804	7086.65
909.117	7018.63
909.43	6965.07
909.743	6962.36
910.056	6960.33
910.368	6931.17
910.681	6869.03
910.994	6845.07
911.307	6815.24
911.619	6784.96
911.932	6799.2
912.244	6756.71
912.557	6765.75
912.869	6641.24
913.181	6674.91
913.494	6658.41
913.806	6636.49
914.118	6593.78
914.43	6545.2
914.742	6533.22
915.054	6534.12
915.366	6551.75
915.678	6427.46
915.99	6446.44
916.302	6394.46
916.613	6388.14
916.925	6386.33
917.236	6344.3
917.548	6303.39
917.859	6333.45
918.171	6255.94
918.482	6274.69
918.794	6203.06
919.105	6175.04
919.416	6150.18
919.727	6133.45
920.038	6095.26
920.349	6094.59
920.66	6051.2
920.971	6013.23
921.282	6027.24
921.593	5999.22
921.903	5997.64
922.214	5911.99
922.525	5897.75
922.835	5902.73
923.146	5876.51
923.456	5792.9
923.767	5801.94
924.077	5826.8
924.387	5771.88
924.697	5751.77
925.008	5713.13
925.318	5668.38
925.628	5676.97
925.938	5660.92
926.248	5591.55
926.558	5587.25
926.867	5550.87
927.177	5529.85
927.487	5540.25
927.796	5450.08
928.106	5450.76
928.416	5427.26
928.725	5471.33
929.034	5402.4
929.344	5400.37
929.653	5341.38
929.962	5361.05
930.271	5342.29
930.581	5327.83
930.89	5270.43
931.199	5206.93
931.508	5233.82
931.817	5219.58
932.125	5203.99
932.434	5170.77
932.743	5112.46
933.051	5071.11
933.36	5073.6
933.669	5045.12
933.977	5048.29
934.286	4956.31
934.594	4984.78
934.902	4961.28
935.21	4940.94
935.519	4949.98
935.827	4918.35
936.135	4912.24
936.443	4860.72
936.751	4845.8
937.059	4857.1
937.367	4786.82
937.674	4816.43
937.982	4826.82
938.29	4710.89
938.597	4777.56
938.905	4717.45
939.213	4683.1
939.52	4670.67
939.827	4662.98
940.135	4596.09
940.442	4612.82
940.749	4577.79
941.056	4585.47
941.363	4573.27
941.67	4524.46
941.977	4510.22
942.284	4455.08
942.591	4517
942.898	4481.52
943.205	4415.99
943.511	4418.7
943.818	4409.88
944.125	4330.11
944.431	4345.7
944.738	4314.52
945.044	4317.68
945.35	4235.88
945.657	4282.88
945.963	4277.23
946.269	4289.44
946.575	4258.25
946.881	4262.32
947.187	4225.48
947.493	4191.81
947.799	4133.06
948.105	4155.2
948.41	4160.85
948.716	4105.03
949.022	4096.9
949.327	4125.82
949.633	4045.37
949.938	4074.75
950.244	4072.04
950.549	3989.78
950.854	4010.35
951.16	3943.68
951.465	3957.01
951.77	3943.23
952.075	3923.57
952.38	3905.04
952.685	3903.46
952.99	3870.92
953.294	3842.89
953.599	3856.68
953.904	3832.95
954.209	3785.72
954.513	3778.94
954.818	3763.8
955.122	3804.93
955.426	3725.61
955.731	3722.44
956.035	3678.83
956.339	3676.34
956.643	3684.03
956.948	3657.81
957.252	3666.4
957.556	3647.64
957.86	3605.39
958.163	3625.5
958.467	3573.97
958.771	3559.51
959.075	3542.11
959.378	3528.1
959.682	3511.6
959.985	3501.21
960.289	3507.53
960.592	3459.4
960.896	3475.9
961.199	3429.12
961.502	3449.46
961.805	3401.77
962.108	3425.96
962.411	3356.13
962.714	3356.8
963.017	3364.04
963.32	3347.77
963.623	3313.64
963.926	3301.21
964.228	3313.19
964.531	3303.47
964.833	3266.64
965.136	3234.77
965.438	3248.11
965.741	3234.1
966.043	3210.14
966.345	3176.92
966.648	3158.62
966.95	3181.22
967.252	3173.08
967.554	3125.4
967.856	3156.36
968.158	3124.49
968.46	3077.94
968.761	3076.13
969.063	3087.66
969.365	3088.56
969.666	3062.12
969.968	3011.28
970.269	3017.6
970.571	3025.51
970.872	2996.81
971.174	3021.67
971.475	2966.08
971.776	2955.23
972.077	2918.62
972.378	2916.14
972.679	2935.35
972.98	2890.15
973.281	2900.32
973.582	2947.32
973.883	2839.98
974.183	2841.79
974.484	2861
974.785	2820.55
975.085	2802.24
975.386	2821.45
975.686	2783.03
975.986	2780.32
976.287	2762.47
976.587	2758.4
976.887	2743.94
977.187	2753.88
977.487	2712.75
977.787	2698.29
978.087	2697.16
978.387	2669.36
978.687	2703.71
978.987	2703.04
979.286	2685.18
979.586	2668.01
979.885	2658.07
980.185	2625.75
980.484	2604.73
980.784	2601.34
981.083	2581.68
981.382	2573.55
981.682	2570.16
981.981	2519.54
982.28	2567.22
982.579	2501.91
982.878	2519.54
983.177	2521.8
983.475	2485.64
983.774	2475.47
984.073	2468.24
984.372	2456.94
984.67	2462.59
984.969	2456.94
985.267	2448.35
985.566	2452.87
985.864	2409.94
986.162	2378.75
986.461	2392.99
986.759	2385.76
987.057	2374.23
987.355	2323.84
987.653	2347.34
987.951	2344.4
988.249	2356.15
988.547	2332.88
988.844	2304.63
989.142	2300.11
989.44	2294.69
989.737	2288.58
990.035	2313.22
990.332	2263.27
990.63	2280
990.927	2244.29
991.224	2230.73
991.521	2261.24
991.819	2203.39
992.116	2184.63
992.413	2190.28
992.71	2160
993.006	2184.18
993.303	2160.23
993.6	2145.99
993.897	2128.36
994.193	2141.02
994.49	2103.05
994.787	2119.1
995.083	2117.97
995.379	2079.55
995.676	2096.27
995.972	2039.55
996.268	2035.48
996.565	2043.84
996.861	2032.77
997.157	2040.23
997.453	2018.31
997.749	1999.55
998.044	2005.2
998.34	1998.87
998.636	2004.98
998.932	1963.85
999.227	1971.98
999.523	1952.55
999.818	1940.12
1000.114	1942.15
1000.409	1890.85
1000.704	1903.51
1001	1855.83
1001.295	1891.76
1001.59	1882.94
1001.885	1853.12
1002.18	1847.01
1002.475	1835.71
1002.77	1822.16
1003.065	1843.62
1003.359	1854.02
1003.654	1807.69
1003.949	1804.98
1004.243	1812.66
1004.538	1800.01
1004.832	1797.07
1005.127	1795.26
1005.421	1749.84
1005.715	1756.17
1006.009	1768.15
1006.304	1729.5
1006.598	1709.84
1006.892	1698.32
1007.186	1702.61
1007.48	1702.16
1007.773	1671.88
1008.067	1682.05
1008.361	1684.08
1008.655	1668.26
1008.948	1615.61
1009.242	1655.38
1009.535	1626
1009.829	1616.96
1010.122	1600.47
1010.415	1594.82
1010.708	1593.46
1011.001	1583.74
1011.295	1596.62
1011.588	1574.48
1011.881	1582.84
1012.173	1569.96
1012.466	1546.68
1012.759	1559.34
1013.052	1527.93
1013.344	1490.41
1013.637	1506.23
1013.93	1500.13
1014.222	1511.2
1014.514	1493.12
1014.807	1473.46
1015.099	1477.53
1015.391	1467.14
1015.683	1461.04
1015.976	1462.84
1016.268	1412
1016.56	1441.6
1016.851	1396.18
1017.143	1398.89
1017.435	1387.59
1017.727	1393.01
1018.018	1374.48
1018.31	1374.03
1018.602	1367.7
1018.893	1394.14
1019.185	1343.3
1019.476	1313.02
1019.767	1311.89
1020.058	1353.92
1020.35	1326.8
1020.641	1323.86
1020.932	1301.72
1021.223	1295.39
1021.514	1260.36
1021.804	1279.8
1022.095	1254.03
1022.386	1262.62
1022.677	1286.35
1022.967	1231.66
1023.258	1263.98
1023.548	1221.72
1023.839	1223.75
1024.129	1200.93
1024.419	1223.53
1024.709	1184.21
1025	1191.44
1025.29	1186.69
1025.58	1187.37
1025.87	1168.39
1026.16	1156.64
1026.449	1177.2
1026.739	1168.61
1027.029	1127.94
1027.319	1150.08
1027.608	1134.26
1027.898	1089.52
1028.187	1119.35
1028.477	1130.2
1028.766	1073.47
1029.055	1083.64
1029.344	1069.18
1029.634	1049.07
1029.923	1065.34
1030.212	1075.06
1030.501	1069.63
1030.79	1041.84
1031.078	1055.17
1031.367	1069.41
1031.656	1000.03
1031.945	1010.65
1032.233	1023.31
1032.522	1013.59
1032.81	1004.1
1033.099	995.51
1033.387	983.31
1033.675	988.05
1033.963	967.71
1034.251	984.89
1034.54	976.75
1034.828	978.56
1035.116	957.55
1035.403	982.18
1035.691	946.02
1035.979	908.06
1036.267	934.5
1036.554	937.43
1036.842	940.37
1037.129	900.37
1037.417	903.99
1037.704	910.09
1037.992	889.75
1038.279	882.07
1038.566	901.28
1038.853	901.28
1039.14	901.28
