Data from hue_100_FLMS001491_00028.txt Node
Date: Tue Feb 07 17:02:56 GMT 2017
User: dcchb
Spectrometer: FLMS00149
Trigger mode: 0
Integration Time (sec): 2.000000E-2
Scans to average: 10
Electric dark correction enabled: true
Nonlinearity correction enabled: false
Boxcar width: 0
XAxis mode: Wavelengths
Number of Pixels in Spectrum: 2048
>>>>>Begin Spectral Data<<<<<
341.393	-12.87
341.776	-12.87
342.16	-12.87
342.543	-52.87
342.927	-70.04
343.31	-59.42
343.693	-63.49
344.077	-54.9
344.46	-54.9
344.843	-45.18
345.226	-48.12
345.61	-34.79
345.993	-28.91
346.376	-22.81
346.759	9.51
347.142	20.8
347.525	42.5
347.908	62.84
348.291	74.36
348.674	92.67
349.057	109.84
349.44	142.84
349.823	151.65
350.206	146
350.588	180.35
350.971	209.05
351.354	216.96
351.737	240.91
352.119	251.98
352.502	251.98
352.884	290.63
353.267	279.55
353.65	291.53
354.032	294.92
354.414	302.38
354.797	302.83
355.179	315.03
355.562	333.56
355.944	307.12
356.326	359.78
356.709	332.43
357.091	338.08
357.473	342.15
357.855	332.89
358.238	337.41
358.62	343.06
359.002	334.02
359.384	342.15
359.766	355.26
360.148	343.51
360.53	360.23
360.912	345.54
361.294	339.89
361.676	319.55
362.057	322.94
362.439	336.95
362.821	332.43
363.203	326.33
363.584	341.02
363.966	302.83
364.348	324.3
364.729	325.43
365.111	324.75
365.493	327.01
365.874	334.92
366.256	309.61
366.637	317.07
367.019	331.3
367.4	320.23
367.781	335.6
368.163	327.69
368.544	311.87
368.925	313.68
369.306	332.89
369.688	305.09
370.069	310.51
370.45	302.83
370.831	330.17
371.212	296.28
371.593	323.85
371.974	321.81
372.355	341.47
372.736	313
373.117	300.35
373.498	333.79
373.879	328.14
374.26	350.74
374.641	300.8
375.021	312.77
375.402	324.07
375.783	327.92
376.163	314.58
376.544	337.63
376.925	321.59
377.305	343.73
377.686	330.17
378.066	335.37
378.447	338.99
378.827	337.86
379.208	322.49
379.588	316.62
379.968	332.43
380.349	347.35
380.729	346.22
381.109	348.03
381.489	339.67
381.87	352.1
382.25	343.73
382.63	331.53
383.01	355.26
383.39	354.81
383.77	343.96
384.15	356.61
384.53	364.3
384.91	366.56
385.29	379.67
385.67	369.5
386.049	348.71
386.429	345.09
386.809	351.87
387.189	376.95
387.568	391.64
387.948	364.52
388.328	360.68
388.707	362.04
389.087	350.51
389.466	380.8
389.846	379.67
390.225	371.08
390.605	363.17
390.984	367.46
391.363	378.31
391.743	395.26
392.122	381.7
392.501	395.94
392.881	385.09
393.26	373.34
393.639	379.21
394.018	388.03
394.397	405.65
394.776	385.31
395.155	406.33
395.534	397.52
395.913	404.98
396.292	429.83
396.671	413.11
397.05	399.33
397.429	371.53
397.808	414.24
398.186	424.86
398.565	407.46
398.944	407.69
399.323	427.57
399.701	447.46
400.08	420.34
400.458	426.44
400.837	415.37
401.215	433.22
401.594	431.87
401.972	425.31
402.351	440.91
402.729	447.69
403.107	424.64
403.486	440.91
403.864	414.92
404.242	425.99
404.62	465.54
404.999	445.88
405.377	432.77
405.755	453.79
406.133	451.3
406.511	458.53
406.889	472.09
407.267	460.79
407.645	482.26
408.023	463.05
408.401	470.51
408.779	473
409.156	496.27
409.534	484.3
409.912	491.3
410.29	503.05
410.667	514.35
411.045	500.79
411.422	495.14
411.8	512.09
412.178	491.98
412.555	510.74
412.933	521.81
413.31	503.73
413.687	520.23
414.065	534.24
414.442	515.25
414.819	536.5
415.197	538.98
415.574	537.85
415.951	557.06
416.328	539.66
416.705	548.02
417.082	542.15
417.46	552.09
417.837	549.83
418.214	566.55
418.591	586.67
418.967	555.71
419.344	576.72
419.721	583.73
420.098	595.25
420.475	591.86
420.852	588.7
421.228	596.38
421.605	601.58
421.982	603.84
422.358	606.33
422.735	599.09
423.111	604.29
423.488	628.47
423.864	620.11
424.241	651.97
424.617	637.51
424.994	642.94
425.37	622.37
425.746	643.39
426.123	647.68
426.499	663.95
426.875	683.16
427.251	670.73
427.627	672.31
428.003	673.22
428.379	687.68
428.756	698.07
429.132	696.49
429.507	698.98
429.883	698.98
430.259	694.91
430.635	729.49
431.011	737.85
431.387	732.2
431.763	747.57
432.138	735.14
432.514	747.79
432.89	765.64
433.265	748.7
433.641	784.85
434.016	779.2
434.392	812.42
434.767	810.84
435.143	792.76
435.518	798.19
435.894	815.13
436.269	821.24
436.644	832.76
437.02	829.82
437.395	838.64
437.77	859.2
438.145	874.57
438.52	861.69
438.895	854.45
439.271	875.47
439.646	897.84
440.021	898.52
440.395	890.39
440.77	921.35
441.145	910.27
441.52	925.19
441.895	912.08
442.27	953.66
442.645	953.66
443.019	928.13
443.394	941.01
443.769	947.56
444.143	951.63
444.518	973.55
444.892	948.01
445.267	963.83
445.641	982.81
446.016	985.52
446.39	973.1
446.764	1015.58
447.139	984.17
447.513	1011.06
447.887	1019.65
448.262	1047.44
448.636	1011.96
449.01	1024.17
449.384	1052.19
449.758	1044.05
450.132	1077.27
450.506	1076.14
450.88	1082.92
451.254	1071.4
451.628	1102.36
452.002	1118.85
452.376	1106.43
452.75	1128.57
453.123	1132.64
453.497	1117.72
453.871	1147.78
454.244	1147.55
454.618	1184.84
454.992	1195.24
455.365	1203.15
455.739	1233.43
456.112	1232.98
456.486	1220.32
456.859	1264.61
457.232	1268.68
457.606	1297.83
457.979	1298.06
458.352	1345.74
458.725	1340.09
459.099	1355.01
459.472	1368.11
459.845	1387.1
460.218	1408.11
460.591	1436.13
460.964	1420.09
461.337	1465.06
461.71	1496.47
462.083	1456.02
462.456	1506.42
462.829	1542.35
463.201	1509.58
463.574	1546.19
463.947	1572.63
464.32	1628.67
464.692	1621.21
465.065	1625.28
465.438	1660.08
465.81	1682
466.183	1724.71
466.555	1740.31
466.928	1776.92
467.3	1816.46
467.672	1797.26
468.045	1841.32
468.417	1843.81
468.789	1915.67
469.161	1944.37
469.534	2003.13
469.906	1992.05
470.278	2035.89
470.65	2053.52
471.022	2095.55
471.394	2140.3
471.766	2208.32
472.138	2230.01
472.51	2266.4
472.882	2338.48
473.253	2373.06
473.625	2432.27
473.997	2458.03
474.369	2507.07
474.74	2523.56
475.112	2658.48
475.484	2686.05
475.855	2756.55
476.227	2790.68
476.598	2832.26
476.97	2912.03
477.341	2997.9
477.713	3133.72
478.084	3134.39
478.455	3235.86
478.827	3306.37
479.198	3415.52
479.569	3460.26
479.94	3610.54
480.311	3670.65
480.682	3814.6
481.053	3912.68
481.424	3968.05
481.795	4027.93
482.166	4190.86
482.537	4249.62
482.908	4408.03
483.279	4494.13
483.65	4649.84
484.021	4789.27
484.391	4890.06
484.762	4921.69
485.133	5062.93
485.503	5200.56
485.874	5375.69
486.244	5446.65
486.615	5676.48
486.985	5800.99
487.356	5908.56
487.726	6010.03
488.097	6232.62
488.467	6319.62
488.837	6501.54
489.207	6678.48
489.578	6839.16
489.948	6920.51
490.318	7161.63
490.688	7236.43
491.058	7429.42
491.428	7629.64
491.798	7694.5
492.168	7939.92
492.538	8070.31
492.908	8268.95
493.278	8403.63
493.648	8491.54
494.017	8617.41
494.387	8823.74
494.757	8915.49
495.126	9098.53
495.496	9290.17
495.866	9365.64
496.235	9585.3
496.605	9642.02
496.974	9816.48
497.344	9962.01
497.713	10075.46
498.082	10215.34
498.452	10377.14
498.821	10471.6
499.19	10566.52
499.559	10725.38
499.928	10840.18
500.298	11002.44
500.667	11196.1
501.036	11201.08
501.405	11318.13
501.774	11454.18
502.143	11545.47
502.512	11609.43
502.88	11738.91
503.249	11790.21
503.618	11950.89
503.987	12014.16
504.356	12193.14
504.724	12212.35
505.093	12352.46
505.462	12454.15
505.83	12557.88
506.199	12653.01
506.567	12859.11
506.936	12834.7
507.304	13020.24
507.672	13165.54
508.041	13147.47
508.409	13245.09
508.777	13398.31
509.145	13501.35
509.514	13496.83
509.882	13576.15
510.25	13623.16
510.618	13723.27
510.986	13747.9
511.354	14001.68
511.722	13943.83
512.09	14155.57
512.458	14073.54
512.826	14177.04
513.193	14250.26
513.561	14269.7
513.929	14460.42
514.297	14511.72
514.664	14533.87
515.032	14576.13
515.4	14728.44
515.767	14657.71
516.135	14712.4
516.502	14668.78
516.869	14966.4
517.237	14934.31
517.604	14915.78
517.972	15083.69
518.339	15137.92
518.706	15161.2
519.073	15164.36
519.44	15324.13
519.808	15436.44
520.175	15408.42
520.542	15518.25
520.909	15589.66
521.276	15515.76
521.643	15665.59
522.009	15755.08
522.376	15752.59
522.743	15767.96
523.11	15861.74
523.477	15986.26
523.843	15982.87
524.21	16093.38
524.577	16158.69
524.943	16179.93
525.31	16224.67
525.676	16322.07
526.043	16374.95
526.409	16344.67
526.776	16452.46
527.142	16498.79
527.508	16536.53
527.874	16623.31
528.241	16588.05
528.607	16521.84
528.973	16696.07
529.339	16610.42
529.705	16682.97
530.071	16832.57
530.437	16770.19
530.803	16775.84
531.169	16884.54
531.535	16835.73
531.901	16842.74
532.267	16807.03
532.632	16915.5
532.998	16848.38
533.364	16907.37
533.73	16967.48
534.095	16931.32
534.461	16839.12
534.826	17041.15
535.192	16899.46
535.557	16983.75
535.923	16811.78
536.288	16902.85
536.653	16882.06
537.019	16783.75
537.384	16864.88
537.749	16880.7
538.114	16784.66
538.479	16732.46
538.845	16737.43
539.21	16756.18
539.575	16706.02
539.94	16688.39
540.305	16796.63
540.67	16618.56
541.034	16760.03
541.399	16760.25
541.764	16678.9
542.129	16706.24
542.494	16655.85
542.858	16570.43
543.223	16544.44
543.587	16652.23
543.952	16472.12
544.316	16522.74
544.681	16323.2
545.045	16397.78
545.41	16458.79
545.774	16405.91
546.138	16394.61
546.503	16348.06
546.867	16261.73
547.231	16306.93
547.595	16393.03
547.959	16172.47
548.324	16217.67
548.688	16199.59
549.052	16195.52
549.416	16225.35
549.779	16120.49
550.143	16108.52
550.507	16160.95
550.871	16107.16
551.235	15993.27
551.599	16012.7
551.962	16065.81
552.326	16047.05
552.689	16088.63
553.053	15913.04
553.417	15906.71
553.78	16033.49
554.143	15946.71
554.507	15930.89
554.87	15959.37
555.234	15954.4
555.597	15891.35
555.96	15848.86
556.323	15900.39
556.686	15817.9
557.05	15902.42
557.413	15891.12
557.776	15866.26
558.139	15932.93
558.502	15870.56
558.865	15809.09
559.228	15890.22
559.59	15896.09
559.953	15889.54
560.316	15984.68
560.679	15994.17
561.041	15956.2
561.404	16007.5
561.767	16080.95
562.129	15909.88
562.492	15933.38
562.854	15982.87
563.217	15958.46
563.579	16014.28
563.941	16058.12
564.304	16046.82
564.666	16096.09
565.028	16116.43
565.39	16064.45
565.753	16176.31
566.115	16165.69
566.477	16184.67
566.839	16213.6
567.201	16251.11
567.563	16256.54
567.925	16349.87
568.287	16220.15
568.648	16273.94
569.01	16356.42
569.372	16394.39
569.734	16381.96
570.095	16442.75
570.457	16456.53
570.819	16485
571.18	16473.48
571.542	16484.55
571.903	16521.39
572.265	16526.81
572.626	16468.28
572.987	16451.11
573.349	16507.6
573.71	16595.51
574.071	16577.66
574.432	16633.7
574.794	16725.68
575.155	16639.58
575.516	16546.02
575.877	16696.75
576.238	16627.15
576.599	16672.8
576.96	16726.13
577.32	16718.44
577.681	16804.54
578.042	16748.5
578.403	16699.46
578.763	16686.58
579.124	16807.26
579.485	16803.19
579.845	16815.62
580.206	16719.57
580.566	16813.13
580.927	16730.65
581.287	16769.52
581.648	16704.89
582.008	16835.73
582.368	16653.59
582.728	16757.09
583.089	16754.38
583.449	16688.84
583.809	16796.41
584.169	16709.86
584.529	16721.16
584.889	16726.35
585.249	16621.05
585.609	16595.06
585.969	16722.06
586.329	16593.02
586.688	16687.48
587.048	16578.56
587.408	16598.22
587.768	16587.37
588.127	16503.99
588.487	16664.43
588.846	16602.52
589.206	16518.22
589.565	16502.41
589.925	16636.64
590.284	16547.6
590.643	16519.13
591.003	16618.79
591.362	16504.44
591.721	16546.92
592.08	16519.58
592.44	16558.9
592.799	16546.92
593.158	16467.6
593.517	16454.72
593.876	16487.04
594.235	16436.64
594.593	16456.3
594.952	16491.56
595.311	16412.01
595.67	16427.83
596.029	16506.7
596.387	16557.54
596.746	16423.76
597.104	16412.01
597.463	16397.55
597.822	16424.22
598.18	16444.33
598.538	16411.79
598.897	16487.49
599.255	16285.91
599.613	16448.62
599.972	16390.77
600.33	16430.99
600.688	16344.9
601.046	16371.11
601.404	16479.35
601.762	16412.01
602.12	16575.62
602.478	16457.66
602.836	16541.95
603.194	16423.31
603.552	16369.3
603.91	16369.98
604.268	16409.53
604.625	16405.46
604.983	16444.1
605.341	16353.03
605.698	16442.07
606.056	16495.17
606.413	16453.59
606.771	16474.16
607.128	16542.18
607.485	16480.71
607.843	16450.66
608.2	16547.83
608.557	16559.8
608.914	16501.95
609.272	16588.5
609.629	16586.02
609.986	16703.53
610.343	16592.57
610.7	16560.26
611.057	16699.69
611.414	16570.2
611.771	16601.39
612.127	16589.18
612.484	16708.73
612.841	16713.7
613.198	16696.07
613.554	16629.18
613.911	16734.49
614.267	16752.34
614.624	16790.08
614.98	16753.47
615.337	16819.46
615.693	16771.1
616.05	16783.98
616.406	16885.9
616.762	16769.06
617.118	16771.1
617.475	16785.56
617.831	16893.58
618.187	16870.08
618.543	16858.33
618.899	16932.68
619.255	17015.84
619.611	16920.25
619.967	17033.46
620.323	16950.3
620.678	16942.62
621.034	16858.1
621.39	16889.51
621.746	16903.07
622.101	17157.76
622.457	16888.16
622.812	17009.28
623.168	17047.48
623.523	16943.75
623.879	17090.86
624.234	16993.92
624.589	17094.93
624.945	16995.5
625.3	16994.82
625.655	16891.55
626.01	17009.74
626.365	16986.69
626.72	16921.38
627.075	16910.98
627.43	17049.51
627.785	16914.82
628.14	16974.48
628.495	16949.4
628.85	16945.56
629.205	16880.7
629.559	16937.2
629.914	16815.84
630.269	16914.37
630.623	16800.02
630.978	16785.56
631.332	16937.87
631.687	16804.32
632.041	16699.01
632.396	16810.65
632.75	16651.78
633.104	16677.54
633.459	16680.25
633.813	16676.41
634.167	16673.47
634.521	16624.21
634.875	16644.77
635.229	16592.12
635.583	16564.78
635.937	16549.41
636.291	16573.82
636.645	16510.31
636.999	16551.67
637.352	16527.94
637.706	16393.26
638.06	16537.21
638.413	16443.65
638.767	16426.7
639.121	16538.79
639.474	16383.99
639.828	16353.26
640.181	16335.18
640.534	16327.95
640.888	16280.94
641.241	16191.9
641.594	16256.08
641.947	16285.69
642.301	16212.47
642.654	16207.05
643.007	16278.46
643.36	16265.58
643.713	16190.77
644.066	16216.76
644.419	16134.05
644.771	16016.77
645.124	15936.54
645.477	15845.02
645.83	15780.39
646.182	15826.26
646.535	15706.27
646.888	15770.22
647.24	15600.06
647.593	15727.74
647.945	15707.4
648.298	15608.19
648.65	15509.66
649.002	15510.57
649.355	15678.7
649.707	15661.3
650.059	15692.48
650.411	15971.8
650.763	15881.18
651.115	16060.38
651.467	16094.05
651.819	16026.03
652.171	15967.5
652.523	15905.13
652.875	16101.29
653.227	15866.94
653.578	16036.2
653.93	15996.88
654.282	15910.56
654.633	15765.25
654.985	15897.22
655.337	15965.02
655.688	16004.11
656.039	15980.16
656.391	15976.77
656.742	15992.59
657.094	16000.05
657.445	15977.67
657.796	15877.34
658.147	15943.78
658.498	15976.32
658.849	16008.18
659.2	16008.41
659.551	15992.14
659.902	15918.92
660.253	16007.28
660.604	15974.96
660.955	15929.31
661.306	15973.83
661.656	15941.29
662.007	16066.26
662.358	15971.8
662.708	15924.34
663.059	15962.31
663.409	15898.58
663.76	16026.03
664.11	16033.49
664.461	16126.37
664.811	16090.89
665.161	16015.86
665.511	15968.41
665.862	15999.82
666.212	16126.6
666.562	16031.46
666.912	16013.15
667.262	16034.39
667.612	16101.96
667.962	16023.32
668.312	15980.61
668.662	16024.9
669.011	16061.51
669.361	16003.44
669.711	15951.69
670.06	16027.84
670.41	16005.24
670.76	15932.7
671.109	15975.19
671.459	15864.46
671.808	15934.28
672.157	15964.34
672.507	15855.64
672.856	15895.19
673.205	15853.38
673.554	15935.19
673.904	15816.55
674.253	15995.75
674.602	15868.75
674.951	15715.76
675.3	15492.04
675.649	15839.37
675.998	15798.02
676.346	15795.98
676.695	15776.1
677.044	15664.91
677.393	15774.51
677.741	15759.37
678.09	15842.76
678.438	15665.14
678.787	15694.29
679.135	15670.79
679.484	15596.21
679.832	15628.08
680.181	15568.19
680.529	15509.44
680.877	15453.39
681.225	15500.17
681.573	15532.26
681.922	15429.21
682.27	15405.71
682.618	15457.69
682.966	15364.36
683.314	15372.72
683.661	15233.06
684.009	15219.27
684.357	15217.69
684.705	15137.92
685.053	15175.89
685.4	15114.19
685.748	15072.39
686.095	15079.39
686.443	14991.71
686.79	14955.78
687.138	15003.24
687.485	14984.25
687.832	14957.36
688.18	14941.09
688.527	14829.68
688.874	14789.91
689.221	14819.74
689.568	14645.73
689.915	14689.8
690.262	14705.62
690.609	14594.21
690.956	14594.43
691.303	14539.29
691.65	14487.32
691.997	14426.3
692.344	14445.96
692.69	14359.41
693.037	14325.51
693.383	14263.14
693.73	14279.64
694.077	14196.25
694.423	14145.63
694.769	14140.89
695.116	14025.18
695.462	13976.82
695.808	13990.83
696.155	13941.34
696.501	13836.71
696.847	13813.66
697.193	13638.53
697.539	13780.67
697.885	13659.09
698.231	13598.3
698.577	13673.78
698.923	13579.32
699.269	13492.77
699.614	13399.44
699.96	13412.77
700.306	13388.59
700.651	13257.97
700.997	13268.59
701.342	13291.19
701.688	13291.87
702.033	13118.31
702.379	13134.58
702.724	13060.69
703.069	13067.47
703.415	12895.49
703.76	12948.6
704.105	12871.09
704.45	12832.22
704.795	12800.58
705.14	12740.47
705.485	12781.15
705.83	12625.67
706.175	12685.1
706.52	12583.86
706.865	12521.94
707.209	12540.7
707.554	12446.01
707.899	12413.47
708.243	12466.13
708.588	12403.76
708.932	12274.27
709.277	12274.95
709.621	12254.38
709.966	12176.64
710.31	12209.64
710.654	12078.57
710.998	12110.88
711.342	12142.07
711.687	12038.79
712.031	12001.05
712.375	11950.66
712.719	11922.41
713.063	11898.46
713.407	11943.2
713.75	11878.8
714.094	11877.89
714.438	11767.16
714.782	11905.46
715.125	11761.51
715.469	11770.55
715.812	11709.54
716.156	11754.51
716.499	11690.1
716.843	11661.18
717.186	11715.64
717.53	11695.98
717.873	11697.56
718.216	11636.32
718.559	11614.85
718.902	11400.17
719.246	11516.55
719.589	11499.82
719.932	11529.43
720.275	11535.76
720.617	11479.03
720.96	11480.16
721.303	11465.25
721.646	11508.19
721.989	11375.31
722.331	11401.75
722.674	11401.07
723.016	11366.27
723.359	11338.25
723.701	11367.17
724.044	11292.37
724.386	11222.32
724.729	11253.05
725.071	11209.66
725.413	11285.37
725.755	11249.21
726.097	11227.06
726.439	11173.51
726.782	11134.64
727.124	11255.09
727.465	11195.65
727.807	11242.43
728.149	11139.16
728.491	11152.26
728.833	11210.57
729.175	11180.06
729.516	11103.9
729.858	11123.11
730.199	11122.89
730.541	11108.42
730.882	11120.85
731.224	11095.77
731.565	11124.47
731.906	11202.66
732.248	11099.61
732.589	11013.96
732.93	11084.69
733.271	11033.62
733.612	11108.2
733.953	11096.45
734.294	11031.36
734.635	11058.71
734.976	11072.72
735.317	11011.93
735.658	11119.04
735.999	11044.7
736.339	11062.55
736.68	11102.32
737.021	11088.08
737.361	11069.78
737.702	11111.81
738.042	11084.92
738.383	11032.94
738.723	11101.19
739.063	11053.06
739.404	11119.72
739.744	11158.82
740.084	11138.03
740.424	11196.1
740.764	11126.05
741.104	11139.83
741.444	11148.65
741.784	11163.11
742.124	11173.73
742.464	11251.47
742.804	11224.13
743.143	11241.53
743.483	11268.42
743.823	11292.37
744.162	11289.21
744.502	11337.12
744.841	11308.64
745.181	11422.99
745.52	11400.84
745.86	11486.94
746.199	11531.24
746.538	11541.18
746.877	11594.74
747.216	11677.22
747.556	11686.49
747.895	11696.43
748.234	11835.41
748.573	11785.47
748.911	11905.69
749.25	11972.58
749.589	11970.77
749.928	12145.01
750.267	12265.45
750.605	12204.89
750.944	12343.87
751.283	12367.15
751.621	12512
751.96	12481.49
752.298	12688.49
752.636	12759
752.975	12905.44
753.313	12954.02
753.651	13126.67
753.989	13185.88
754.327	13293.45
754.666	13382.71
755.004	13504.52
755.342	13685.98
755.679	13771.86
756.017	13874.9
756.355	14123.94
756.693	14130.94
757.031	14341.33
757.368	14454.1
757.706	14596.24
758.044	14668.55
758.381	14915.33
758.719	15077.58
759.056	15287.07
759.394	15382.43
759.731	15483
760.068	15661.3
760.405	15833.72
760.743	16025.58
761.08	16269.19
761.417	16266.03
761.754	16528.39
762.091	16672.8
762.428	16829.4
762.765	16923.18
763.102	17214.93
763.438	17282.95
763.775	17346.45
764.112	17632.77
764.449	17818.3
764.785	17844.74
765.122	17999.31
765.458	18191.17
765.795	18368.12
766.131	18497.61
766.467	18556.14
766.804	18713.87
767.14	18793.19
767.476	19023.24
767.812	19156.35
768.148	19246.29
768.485	19317.02
768.821	19299.17
769.157	19466.39
769.492	19631.59
769.828	19783.22
770.164	19799.49
770.5	19826.61
770.836	19979.83
771.171	19934.18
771.507	20113.16
771.842	20212.59
772.178	20240.61
772.513	20352.02
772.849	20340.27
773.184	20398.57
773.519	20575.97
773.855	20524.9
774.19	20656.65
774.525	20620.94
774.86	20683.99
775.195	20826.13
775.53	20823.2
775.865	20772.8
776.2	20821.61
776.535	20733.93
776.87	20768.28
777.205	20836.98
777.539	20755.63
777.874	20901.39
778.209	20842.86
778.543	20915.62
778.878	20833.36
779.212	20925.11
779.547	20840.14
779.881	21038.78
780.215	20933.93
780.55	21006.24
780.884	20962.85
781.218	20955.17
781.552	21105
781.886	20956.98
782.22	20932.35
782.554	20907.49
782.888	20741.84
783.222	20811.44
783.556	20819.81
783.889	20710.66
784.223	20687.83
784.557	20715.4
784.89	20727.6
785.224	20603.54
785.557	20635.86
785.891	20523.77
786.224	20518.57
786.558	20584.78
786.891	20418.01
787.224	20399.25
787.557	20321.06
787.891	20421.4
788.224	20356.99
788.557	20324.45
788.89	20328.75
789.223	20377.78
789.556	20235.19
789.888	20294.62
790.221	20281.51
790.554	20039.04
790.887	20064.57
791.219	20059.15
791.552	20067.06
791.884	19982.77
792.217	19792.26
792.549	19873.16
792.882	19731.02
793.214	19660.51
793.546	19875.65
793.879	19680.85
794.211	19545.71
794.543	19652.38
794.875	19553.62
795.207	19657.12
795.539	19526.05
795.871	19533.74
796.203	19340.52
796.535	19247.42
796.867	19324.03
797.198	19150.02
797.53	19276.8
797.862	19141.21
798.193	19209
798.525	18985.28
798.856	19069.34
799.188	18966.75
799.519	18759.07
799.85	18715.91
800.182	18754.32
800.513	18777.15
800.844	18691.27
801.175	18669.35
801.506	18694.21
801.837	18603.82
802.168	18580.99
802.499	18464.39
802.83	18369.47
803.161	18291.06
803.491	18367.21
803.822	18468.91
804.153	18383.26
804.483	18195.92
804.814	18109.37
805.145	18082.02
805.475	18133.55
805.805	18004.06
806.136	18067.79
806.466	17985.53
806.796	17895.81
807.126	17834.12
807.457	17825.99
807.787	17736.95
808.117	17691.07
808.447	17758.19
808.777	17758.42
809.107	17597.07
809.436	17556.84
809.766	17615.6
810.096	17483.17
810.426	17433.45
810.755	17500.57
811.085	17448.59
811.414	17374.02
811.744	17317.98
812.073	17193.46
812.403	17290.18
812.732	17171.54
813.061	17144.42
813.39	16950.3
813.719	17030.75
814.049	17045.22
814.378	17102.84
814.707	16960.92
815.036	16967.48
815.365	16866.24
815.693	16725.45
816.022	16734.72
816.351	16690.65
816.68	16774.94
817.008	16795.5
817.337	16598.45
817.665	16496.76
817.994	16585.11
818.322	16604.55
818.651	16421.96
818.979	16445.23
819.307	16455.4
819.636	16399.81
819.964	16334.05
820.292	16444.1
820.62	16353.48
820.948	16288.63
821.276	16443.2
821.604	16407.49
821.932	16389.87
822.259	16358.45
822.587	16382.18
822.915	16290.21
823.243	16314.61
823.57	16157.56
823.898	16309.42
824.225	16235.29
824.553	16253.6
824.88	16393.48
825.207	16388.51
825.535	16342.41
825.862	16374.5
826.189	16319.36
826.516	16398.68
826.843	16339.92
827.17	16413.14
827.497	16401.84
827.824	16369.98
828.151	16462.63
828.478	16441.16
828.805	16417.89
829.131	16250.89
829.458	16303.09
829.785	16198.46
830.111	16305.8
830.438	16320.49
830.764	16345.8
831.09	16380.83
831.417	16236.65
831.743	16436.87
832.069	16253.15
832.395	16193.94
832.722	16237.55
833.048	16232.36
833.374	16188.97
833.7	16157.56
834.026	16175.63
834.351	16242.98
834.677	16172.24
835.003	16149.87
835.329	16107.84
835.654	16124.34
835.98	16083.21
836.306	16083.43
836.631	16093.38
836.956	16090.66
837.282	16175.63
837.607	15969.99
837.932	15906.49
838.258	15953.49
838.583	15916.66
838.908	15759.83
839.233	15917.11
839.558	15790.56
839.883	15808.41
840.208	15741.97
840.533	15694.52
840.858	15778.58
841.182	15747.62
841.507	15777.45
841.832	15518.02
842.156	15597.34
842.481	15663.78
842.805	15580.62
843.13	15498.14
843.454	15593.28
843.778	15451.59
844.103	15442.55
844.427	15400.29
844.751	15409.33
845.075	15261.76
845.399	15333.17
845.723	15207.3
846.047	15222.44
846.371	15084.14
846.695	15079.39
847.019	14911.94
847.343	14946.29
847.666	14766.86
847.99	14775.67
848.313	14761.43
848.637	14620.87
848.96	14665.17
849.284	14558.05
849.607	14511.5
849.931	14450.48
850.254	14337.04
850.577	14255.01
850.9	14198.28
851.223	14178.17
851.546	14124.39
851.869	14049.59
852.192	14120.77
852.515	13984.51
852.838	13957.61
853.161	13865.86
853.483	13859.99
853.806	13739.31
854.129	13821.12
854.451	13686.43
854.774	13550.17
855.096	13590.39
855.419	13558.98
855.741	13530.51
856.063	13539.32
856.385	13466.33
856.708	13359.66
857.03	13358.76
857.352	13355.14
857.674	13371.19
857.996	13265.2
858.318	13115.83
858.64	13171.19
858.961	13103.4
859.283	13062.72
859.605	12984.76
859.926	13101.82
860.248	12942.05
860.57	12974.81
860.891	12967.36
861.212	12833.12
861.534	12834.48
861.855	12739.34
862.176	12787.25
862.498	12779.34
862.819	12786.34
863.14	12701.6
863.461	12686.69
863.782	12682.62
864.103	12654.82
864.424	12643.75
864.745	12605.11
865.065	12549.29
865.386	12571.66
865.707	12531.89
866.027	12538.89
866.348	12496.63
866.668	12497.09
866.989	12447.37
867.309	12371.67
867.63	12448.05
867.95	12424.32
868.27	12358.11
868.59	12299.13
868.91	12264.78
869.23	12234.04
869.55	12163.76
869.87	12226.13
870.19	12269.75
870.51	12253.7
870.83	12251.67
871.15	12233.59
871.469	12155.17
871.789	12183.42
872.109	12117.89
872.428	12031.56
872.748	12095.97
873.067	12043.09
873.386	12140.26
873.706	12029.98
874.025	11918.12
874.344	11932.58
874.663	11928.51
874.982	11953.6
875.301	11906.14
875.62	11922.64
875.939	11907.05
876.258	11832.25
876.577	11818.23
876.896	11927.61
877.214	11743.89
877.533	11852.36
877.852	11748.18
878.17	11775.07
878.489	11746.6
878.807	11719.93
879.125	11703.66
879.444	11669.09
879.762	11631.12
880.08	11600.84
880.398	11560.61
880.716	11586.6
881.034	11527.62
881.352	11512.71
881.67	11509.54
881.988	11559.26
882.306	11464.35
882.624	11470
882.941	11352.48
883.259	11357.68
883.577	11356.55
883.894	11251.92
884.212	11301.64
884.529	11293.05
884.846	11238.14
885.164	11156.78
885.481	11231.81
885.798	11189.1
886.115	11087.18
886.432	11095.99
886.75	11123.11
887.067	11060.29
887.383	11023
887.7	11044.47
888.017	11006.73
888.334	11025.26
888.651	10964.02
888.967	10862.1
889.284	10860.29
889.6	10819.84
889.917	10719.05
890.233	10753.63
890.55	10730.58
890.866	10720.86
891.182	10614.88
891.498	10608.77
891.815	10624.59
892.131	10602.45
892.447	10580.75
892.763	10560.87
893.079	10515.44
893.395	10478.61
893.71	10411.04
894.026	10344.37
894.342	10353.87
894.657	10345.96
894.973	10273.42
895.289	10261.44
895.604	10287.2
895.92	10210.37
896.235	10099.18
896.55	10076.59
896.865	10124.72
897.181	10107.77
897.496	10032.97
897.811	9975.8
898.126	10030.48
898.441	9881.56
898.756	9828.46
899.071	9797.95
899.386	9833.88
899.7	9715.92
900.015	9741.45
900.33	9602.02
900.644	9672.75
900.959	9565.64
901.273	9630.04
901.588	9568.58
901.902	9517.5
902.216	9510.05
902.531	9508.92
902.845	9430.05
903.159	9380.11
903.473	9327.23
903.787	9269.6
904.101	9244.06
904.415	9273.67
904.729	9166.1
905.042	9112.09
905.356	9110.74
905.67	9100.34
905.984	9083.39
906.297	9002.94
906.611	8987.8
906.924	8954.35
907.237	8948.48
907.551	8903.51
907.864	8845.88
908.177	8850.85
908.491	8775.15
908.804	8726.79
909.117	8739.9
909.43	8666.45
909.743	8635.95
910.056	8633.69
910.368	8599.11
910.681	8546.68
910.994	8502.84
911.307	8434.82
911.619	8493.35
911.932	8445.44
912.244	8318.67
912.557	8365.67
912.869	8324.09
913.181	8221.49
913.494	8252
913.806	8225.11
914.118	8205.67
914.43	8155.96
914.742	8094.72
915.054	8100.59
915.366	8023.76
915.678	7964.78
915.99	7953.93
916.302	7877.1
916.613	7891.33
916.925	7890.43
917.236	7877.77
917.548	7794.84
917.859	7806.59
918.171	7731.56
918.482	7743.09
918.794	7711.45
919.105	7614.73
919.416	7552.13
919.727	7597.78
920.038	7558.69
920.349	7468.97
920.66	7511.68
920.971	7508.97
921.282	7401.18
921.593	7434.62
921.903	7330.22
922.214	7346.94
922.525	7271.91
922.835	7245.25
923.146	7209.99
923.456	7180.62
923.767	7148.53
924.077	7129.54
924.387	7119.6
924.697	7037.34
925.008	7038.7
925.318	6961.41
925.628	6926.61
925.938	6949.21
926.248	6911.24
926.558	6912.15
926.867	6883
927.177	6848.65
927.487	6828.54
927.796	6769.1
928.106	6748.31
928.416	6725.04
928.725	6725.49
929.034	6633.06
929.344	6662.44
929.653	6625.83
929.962	6578.82
930.271	6516
930.581	6516.45
930.89	6496.11
931.199	6451.37
931.508	6461.31
931.817	6420.18
932.125	6409.79
932.434	6363.24
932.743	6351.49
933.051	6341.09
933.36	6276.46
933.669	6270.81
933.977	6224.26
934.286	6191.94
934.594	6231.26
934.902	6167.08
935.21	6143.13
935.519	6137.03
935.827	6081.21
936.135	6080.98
936.443	6040.76
936.751	6032.4
937.059	6023.36
937.367	5965.51
937.674	5970.93
937.982	5918.05
938.29	5831.27
938.597	5927.09
938.905	5813.19
939.213	5844.38
939.52	5750.82
939.827	5777.49
940.135	5763.48
940.442	5678.28
940.749	5702.24
941.056	5692.97
941.363	5614.56
941.67	5621.79
941.977	5580.88
942.284	5551.28
942.591	5524.39
942.898	5534.56
943.205	5555.57
943.511	5504.95
943.818	5453.66
944.125	5412.53
944.431	5417.27
944.738	5383.83
945.044	5301.57
945.35	5302.93
945.657	5293.43
945.963	5289.82
946.269	5236.94
946.575	5250.95
946.881	5226.54
947.187	5243.04
947.493	5196.94
947.799	5153.32
948.105	5128.92
948.41	5111.29
948.716	5115.81
949.022	5097.73
949.327	5034.23
949.633	5015.7
949.938	4997.62
950.244	5010.96
950.549	4954.46
950.854	4903.61
951.16	4933.22
951.465	4832.2
951.77	4864.74
952.075	4831.98
952.38	4858.64
952.685	4834.69
952.99	4755.14
953.294	4779.55
953.599	4736.61
953.904	4696.61
954.209	4709.27
954.513	4684.18
954.818	4655.94
955.122	4582.27
955.426	4615.49
955.731	4593.34
956.035	4597.63
956.339	4558.76
956.643	4527.13
956.948	4511.76
957.252	4519.9
957.556	4500.23
957.86	4466.79
958.163	4427.24
958.467	4434.25
958.771	4434.25
959.075	4426.79
959.378	4338.21
959.682	4389.96
959.985	4310.86
960.289	4333.46
960.592	4268.15
960.896	4267.25
961.199	4242.61
961.502	4253.91
961.805	4171.66
962.108	4205.55
962.411	4183.63
962.714	4143.63
963.017	4132.56
963.32	4069.74
963.623	4108.38
963.926	4111.54
964.228	4101.38
964.531	4024.54
964.833	4066.35
965.136	4037.42
965.438	4030.64
965.741	4041.49
966.043	3991.1
966.345	3929.4
966.648	3925.56
966.95	3893.02
967.252	3877.65
967.554	3877.2
967.856	3882.85
968.158	3817.99
968.46	3824.32
968.761	3825.45
969.063	3775.06
969.365	3763.98
969.666	3756.98
969.968	3716.98
970.269	3741.84
970.571	3672.01
970.872	3707.49
971.174	3674.27
971.475	3683.53
971.776	3658
972.077	3600.6
972.378	3640.14
972.679	3606.02
972.98	3553.82
973.281	3545.46
973.582	3551.11
973.883	3522.41
974.183	3491.45
974.484	3488.51
974.785	3460.26
975.085	3516.76
975.386	3481.05
975.686	3464.78
975.986	3407.61
976.287	3420.72
976.587	3419.36
976.887	3360.83
977.187	3392.92
977.487	3346.37
977.787	3326.25
978.087	3339.36
978.387	3323.54
978.687	3302.07
978.987	3285.8
979.286	3229.76
979.586	3247.61
979.885	3249.42
980.185	3198.8
980.484	3215.97
980.784	3163.09
981.083	3192.47
981.382	3124.68
981.682	3153.83
981.981	3132.36
982.28	3119.93
982.579	3063.66
982.878	3097.11
983.177	3072.25
983.475	3067.28
983.774	3035.19
984.073	3036.09
984.372	3002.65
984.67	3004
984.969	2985.47
985.267	2996.32
985.566	2966.49
985.864	2940.73
986.162	2948.86
986.461	2930.33
986.759	2910.9
987.057	2843.33
987.355	2849.2
987.653	2881.75
987.951	2851.01
988.249	2801.97
988.547	2831.58
988.844	2823.67
989.142	2784.8
989.44	2745.7
989.737	2750
990.035	2764.69
990.332	2750.22
990.63	2757
990.927	2719.49
991.224	2683.79
991.521	2682.43
991.819	2669.77
992.116	2629.1
992.413	2678.36
992.71	2666.61
993.006	2616.44
993.303	2643.56
993.6	2597.69
993.897	2568.31
994.193	2603.11
994.49	2605.14
994.787	2587.74
995.083	2582.55
995.379	2550.68
995.676	2521.08
995.972	2499.84
996.268	2500.29
996.565	2482.43
996.861	2478.14
997.157	2443.57
997.453	2454.19
997.749	2435.2
998.044	2426.62
998.34	2448.76
998.636	2400.85
998.932	2397.69
999.227	2376.45
999.523	2366.51
999.818	2370.57
1000.114	2359.5
1000.409	2351.82
1000.704	2319.28
1001	2321.99
1001.295	2293.29
1001.59	2273.17
1001.885	2276.34
1002.18	2277.24
1002.475	2243.57
1002.77	2261.88
1003.065	2208.09
1003.359	2189.34
1003.654	2158.83
1003.949	2180.07
1004.243	2180.3
1004.538	2127.64
1004.832	2115.21
1005.127	2176.68
1005.421	2111.15
1005.715	2071.82
1006.009	2103.01
1006.304	2092.16
1006.598	2086.51
1006.892	2045.84
1007.186	2062.56
1007.48	2043.35
1007.773	2037.7
1008.067	2010.81
1008.361	1977.82
1008.655	1989.34
1008.948	1954.09
1009.242	2018.49
1009.535	1954.31
1009.829	1921.77
1010.122	1919.96
1010.415	1919.96
1010.708	1902.79
1011.001	1904.6
1011.295	1863.24
1011.588	1872.96
1011.881	1861.43
1012.173	1859.4
1012.466	1846.75
1012.759	1847.2
1013.052	1823.92
1013.344	1813.98
1013.637	1827.99
1013.93	1769.23
1014.222	1775.33
1014.514	1787.76
1014.807	1778.95
1015.099	1734.66
1015.391	1769.23
1015.683	1769.91
1015.976	1720.87
1016.268	1745.28
1016.56	1701.66
1016.851	1668.67
1017.143	1683.13
1017.435	1656.92
1017.727	1633.64
1018.018	1664.6
1018.31	1626.41
1018.602	1621.44
1018.893	1607.2
1019.185	1620.99
1019.476	1582.12
1019.767	1575.34
1020.058	1576.24
1020.35	1558.39
1020.641	1552.74
1020.932	1553.42
1021.223	1497.6
1021.514	1512.74
1021.804	1496.92
1022.095	1529.47
1022.386	1486.3
1022.677	1501.44
1022.967	1495.57
1023.258	1443.37
1023.548	1440.65
1023.839	1459.86
1024.129	1464.61
1024.419	1409.24
1024.709	1419.41
1025	1413.76
1025.29	1395.23
1025.58	1387.55
1025.87	1378.06
1026.16	1350.26
1026.449	1356.36
1026.739	1350.71
1027.029	1358.62
1027.319	1341.67
1027.608	1314.1
1027.898	1311.84
1028.187	1306.65
1028.477	1270.72
1028.766	1270.72
1029.055	1276.82
1029.344	1245.18
1029.634	1250.15
1029.923	1253.09
1030.212	1265.97
1030.501	1247.44
1030.79	1245.86
1031.078	1213.32
1031.367	1204.28
1031.656	1201.34
1031.945	1177.61
1032.233	1174.22
1032.522	1176.25
1032.81	1166.99
1033.099	1131.06
1033.387	1169.47
1033.675	1133.77
1033.963	1157.5
1034.251	1153.2
1034.54	1137.84
1034.828	1113.66
1035.116	1106.88
1035.403	1075.24
1035.691	1088.57
1035.979	1098.97
1036.267	1089.93
1036.554	1073.43
1036.842	1067.1
1037.129	1065.75
1037.417	1046.99
1037.704	1070.04
1037.992	1043.38
1038.279	1002.47
1038.566	1024.85
1038.853	1024.85
1039.14	1024.85
