Data from hue_340_FLMS001491_13.txt Node
Date: Mon Feb 06 15:42:20 GMT 2017
User: dcchb
Spectrometer: FLMS00149
Trigger mode: 0
Integration Time (sec): 2.000000E-2
Scans to average: 10
Electric dark correction enabled: true
Nonlinearity correction enabled: false
Boxcar width: 0
XAxis mode: Wavelengths
Number of Pixels in Spectrum: 2048
>>>>>Begin Spectral Data<<<<<
341.393	0.17
341.776	0.17
342.16	0.17
342.543	-62.88
342.927	-60.39
343.31	-66.5
343.693	-74.4
344.077	-58.13
344.46	-69.21
344.843	-64.69
345.226	-43.9
345.61	-14.75
345.993	-36.89
346.376	-7.29
346.759	20.28
347.142	6.95
347.525	45.82
347.908	62.77
348.291	85.14
348.674	106.83
349.057	107.96
349.44	122.2
349.823	149.54
350.206	145.48
350.588	182.31
350.971	206.27
351.354	238.13
351.737	220.05
352.119	261.41
352.502	257.56
352.884	280.61
353.267	281.29
353.65	286.26
354.032	288.98
354.414	321.97
354.797	318.58
355.179	311.57
355.562	319.94
355.944	322.87
356.326	306.83
356.709	326.26
357.091	339.37
357.473	333.95
357.855	349.31
358.238	345.47
358.62	356.09
359.002	328.52
359.384	338.69
359.766	347.96
360.148	320.61
360.53	337.56
360.912	328.07
361.294	328.52
361.676	325.81
362.057	331.01
362.439	339.6
362.821	308.18
363.203	330.56
363.584	334.4
363.966	323.78
364.348	331.01
364.729	330.1
365.111	315.87
365.493	316.09
365.874	300.5
366.256	312.25
366.637	311.12
367.019	309.09
367.4	320.39
367.781	313.16
368.163	309.99
368.544	315.64
368.925	293.95
369.306	304.57
369.688	320.16
370.069	319.94
370.45	310.67
370.831	304.34
371.212	332.59
371.593	314.51
371.974	290.33
372.355	311.57
372.736	304.12
373.117	312.03
373.498	322.42
373.879	319.94
374.26	332.82
374.641	296.88
375.021	330.78
375.402	314.96
375.783	326.26
376.163	328.3
376.544	329.43
376.925	314.74
377.305	314.29
377.686	324.45
378.066	333.04
378.447	336.88
378.827	336.88
379.208	348.86
379.588	364.68
379.968	337.34
380.349	347.96
380.729	311.12
381.109	325.36
381.489	334.4
381.87	340.27
382.25	337.11
382.63	329.43
383.01	325.58
383.39	338.92
383.77	332.82
384.15	349.31
384.53	347.28
384.91	342.53
385.29	347.73
385.67	347.05
386.049	342.99
386.429	359.03
386.809	349.76
387.189	358.13
387.568	330.78
387.948	353.61
388.328	339.37
388.707	345.25
389.087	349.54
389.466	345.02
389.846	355.19
390.225	351.8
390.605	352.93
390.984	350.22
391.363	364
391.743	371.91
392.122	364.45
392.501	358.13
392.881	361.29
393.26	396.54
393.639	367.17
394.018	363.55
394.397	344.79
394.776	360.16
395.155	369.65
395.534	377.11
395.913	366.26
396.292	372.14
396.671	369.43
397.05	370.1
397.429	372.36
397.808	388.41
398.186	375.98
398.565	376.88
398.944	389.31
399.323	372.36
399.701	408.07
400.08	389.54
400.458	385.7
400.837	401.29
401.215	386.15
401.594	396.77
401.972	392.7
402.351	406.71
402.729	401.97
403.107	400.16
403.486	378.46
403.864	410.1
404.242	400.61
404.62	409.2
404.999	405.81
405.377	410.55
405.755	402.87
406.133	417.56
406.511	409.88
406.889	441.97
407.267	419.37
407.645	424.79
408.023	426.6
408.401	415.53
408.779	431.34
409.156	424.34
409.534	443.1
409.912	451.68
410.29	431.57
410.667	452.59
411.045	464.34
411.422	461.17
411.8	448.52
412.178	460.5
412.555	486.26
412.933	475.41
413.31	489.65
413.687	494.85
414.065	486.26
414.442	516.09
414.819	502.76
415.197	496.88
415.574	516.99
415.951	522.42
416.328	492.59
416.705	512.7
417.082	529.87
417.46	525.13
417.837	523.32
418.214	519.7
418.591	524.22
418.967	548.63
419.344	554.05
419.721	548.4
420.098	546.37
420.475	534.39
420.852	551.12
421.228	549.76
421.605	563.77
421.982	585.24
422.358	586.59
422.735	574.17
423.111	591.79
423.488	601.28
423.864	592.02
424.241	605.35
424.617	584.11
424.994	626.14
425.37	609.42
425.746	597.89
426.123	597.22
426.499	611.23
426.875	639.47
427.251	642.64
427.627	625.46
428.003	621.62
428.379	654.84
428.756	652.36
429.132	654.84
429.507	657.78
429.883	675.63
430.259	696.2
430.635	682.19
431.011	698.68
431.387	679.02
431.763	707.04
432.138	709.3
432.514	687.38
432.89	720.38
433.265	716.53
433.641	731.68
434.016	736.87
434.392	758.79
434.767	765.12
435.143	759.25
435.518	764.9
435.894	764.9
436.269	793.82
436.644	799.02
437.02	806.48
437.395	786.14
437.77	806.02
438.145	825.91
438.52	782.52
438.895	819.81
439.271	828.4
439.646	838.79
440.021	829.75
440.395	836.76
440.77	852.58
441.145	853.48
441.52	846.93
441.895	836.08
442.27	841.73
442.645	879.24
443.019	869.98
443.394	878.79
443.769	915.85
444.143	874.27
444.518	892.8
444.892	895.51
445.267	895.29
445.641	882.18
446.016	873.82
446.39	910.2
446.764	907.94
447.139	890.54
447.513	910.88
447.887	926.25
448.262	904.78
448.636	894.16
449.01	963.31
449.384	962.86
449.758	946.13
450.132	931.67
450.506	954.49
450.88	966.47
451.254	954.95
451.628	992.01
452.002	974.38
452.376	998.11
452.75	1007.37
453.123	1002.85
453.497	1009.86
453.871	1015.28
454.244	1019.13
454.618	1019.58
454.992	1053.48
455.365	1051.67
455.739	1040.14
456.112	1042.4
456.486	1078.56
456.859	1098.22
457.232	1084.66
457.606	1098.45
457.979	1105
458.352	1111.33
458.725	1112.46
459.099	1118.11
459.472	1140.03
459.845	1134.83
460.218	1153.13
460.591	1163.98
460.964	1165.11
461.337	1183.64
461.71	1203.08
462.083	1203.75
462.456	1208.5
462.829	1225
463.201	1224.09
463.574	1232.91
463.947	1276.07
464.32	1271.1
464.692	1267.93
465.065	1303.19
465.438	1307.25
465.81	1334.6
466.183	1308.38
466.555	1339.57
466.928	1370.75
467.3	1373.92
467.672	1391.32
468.045	1415.27
468.417	1404.43
468.789	1415.5
469.161	1440.81
469.534	1473.13
469.906	1478.1
470.278	1488.94
470.65	1483.29
471.022	1536.85
471.394	1536.17
471.766	1558.77
472.138	1566.91
472.51	1595.83
472.882	1635.83
473.253	1638.32
473.625	1640.13
473.997	1693.23
474.369	1710.41
474.74	1700.46
475.112	1722.38
475.484	1766.22
475.855	1762.84
476.227	1803.06
476.598	1858.2
476.97	1896.62
477.341	1908.82
477.713	1942.94
478.084	1901.14
478.455	1952.21
478.827	1981.13
479.198	2057.29
479.569	2057.06
479.94	2106.1
480.311	2088.7
480.682	2134.12
481.053	2185.42
481.424	2186.1
481.795	2246.21
482.166	2258.87
482.537	2291.63
482.908	2331.41
483.279	2361.69
483.65	2406.43
484.021	2448.24
484.391	2467.9
484.762	2487.34
485.133	2465.87
485.503	2557.62
485.874	2584.96
486.244	2593.77
486.615	2637.16
486.985	2679.42
487.356	2720.55
487.726	2760.1
488.097	2792.86
488.467	2808.68
488.837	2875.57
489.207	2916.25
489.578	2903.6
489.948	2960.32
490.318	2944.72
490.688	3020.2
491.058	3013.42
491.428	3089.35
491.798	3127.09
492.168	3182.46
492.538	3157.37
492.908	3212.06
493.278	3249.12
493.648	3219.52
494.017	3276.24
494.387	3327.77
494.757	3381.55
495.126	3359.86
495.496	3363.7
495.866	3418.16
496.235	3446.63
496.605	3473.75
496.974	3531.38
497.344	3515.33
497.713	3520.3
498.082	3582.45
498.452	3585.84
498.821	3596.23
499.19	3631.26
499.559	3641.43
499.928	3664.25
500.298	3669.9
500.667	3693.18
501.036	3728.21
501.405	3765.04
501.774	3784.02
502.143	3786.06
502.512	3762.1
502.88	3838.71
503.249	3765.27
503.618	3868.54
503.987	3860.63
504.356	3883.23
504.724	3893.85
505.093	3907.41
505.462	3913.51
505.83	3938.37
506.199	3984.92
506.567	4012.04
506.936	4063.57
507.304	4077.58
507.672	4050.46
508.041	4058.82
508.409	4070.57
508.777	4128.87
509.145	4160.06
509.514	4141.98
509.882	4196.44
510.25	4125.94
510.618	4176.78
510.986	4181.53
511.354	4206.39
511.722	4230.57
512.09	4289.77
512.458	4267.4
512.826	4271.92
513.193	4343.11
513.561	4266.5
513.929	4377
514.297	4363.44
514.664	4389.43
515.032	4410.67
515.4	4421.97
515.767	4405.7
516.135	4442.09
516.502	4396.89
516.869	4491.35
517.237	4496.1
517.604	4451.8
517.972	4465.59
518.339	4514.85
518.706	4495.19
519.073	4551.24
519.44	4547.62
519.808	4612.7
520.175	4596.21
520.542	4693.61
520.909	4659.48
521.276	4642.08
521.643	4638.47
522.009	4643.66
522.376	4753.26
522.743	4727.5
523.11	4751.23
523.477	4800.95
523.843	4799.37
524.21	4834.84
524.577	4871.45
524.943	4865.58
525.31	4893.6
525.676	4935.63
526.043	4911.9
526.409	4918.91
526.776	5022.18
527.142	5023.31
527.508	5034.61
527.874	5078.23
528.241	5083.43
528.607	5073.26
528.973	5134.05
529.339	5139.02
529.705	5190.32
530.071	5168.62
530.437	5249.07
530.803	5246.36
531.169	5232.8
531.535	5243.87
531.901	5329.97
532.267	5331.33
532.632	5384.66
532.998	5362.29
533.364	5440.25
533.73	5445.22
534.095	5463.98
534.461	5501.27
534.826	5521.38
535.192	5521.38
535.557	5594.37
535.923	5608.38
536.288	5640.93
536.653	5620.36
537.019	5620.36
537.384	5635.95
537.749	5691.55
538.114	5727.93
538.479	5732
538.845	5717.31
539.21	5743.07
539.575	5805.21
539.94	5821.26
540.305	5831.65
540.67	5853.57
541.034	5859.45
541.399	5833.01
541.764	5927.47
542.129	5885.89
542.494	5935.61
542.858	5957.53
543.223	5996.62
543.587	6004.76
543.952	6059.67
544.316	6083.63
544.681	6077.3
545.045	6118.43
545.41	6156.62
545.774	6193.9
546.138	6157.97
546.503	6229.61
546.867	6215.37
547.231	6242.72
547.595	6282.72
547.959	6342.38
548.324	6325.2
548.688	6358.65
549.052	6395.03
549.416	6384.41
549.779	6402.71
550.143	6430.73
550.507	6472.99
550.871	6495.82
551.235	6495.14
551.599	6574.69
551.962	6579.66
552.326	6618.75
552.689	6584.86
553.053	6572.43
553.417	6609.71
553.78	6643.84
554.143	6645.87
554.507	6689.26
554.87	6691.97
555.234	6711.41
555.597	6710.95
555.96	6722.03
556.323	6761.57
556.686	6802.93
557.05	6805.87
557.413	6864.4
557.776	6882.25
558.139	6886.09
558.502	6917.73
558.865	6922.25
559.228	6978.97
559.59	6989.59
559.953	7060.77
560.316	7054.9
560.679	7084.28
561.041	7111.17
561.404	7139.19
561.767	7187.78
562.129	7141.68
562.492	7217.38
562.854	7249.7
563.217	7217.38
563.579	7230.04
563.941	7256.02
564.304	7358.85
564.666	7381.22
565.028	7359.98
565.39	7378.96
565.753	7406.08
566.115	7454.89
566.477	7497.15
566.839	7491.95
567.201	7550.25
567.563	7529.69
567.925	7600.42
568.287	7546.86
568.648	7589.57
569.01	7719.29
569.372	7789.8
569.734	7701.89
570.095	7767.2
570.457	7778.27
570.819	7814.88
571.18	7769
571.542	7915.67
571.903	7889.45
572.265	7991.15
572.626	7939.4
572.987	8070.24
573.349	8052.84
573.71	8160.18
574.071	8187.3
574.432	8194.3
574.794	8286.28
575.155	8312.49
575.516	8331.02
575.877	8424.13
576.238	8439.72
576.599	8592.03
576.96	8618.47
577.32	8700.51
577.681	8800.39
578.042	8848.52
578.403	8916.09
578.763	8961.06
579.124	9086.71
579.485	9214.62
579.845	9298.68
580.206	9352.69
580.566	9506.81
580.927	9552.69
581.287	9680.82
581.648	9771.21
582.008	9941.38
582.368	10042.17
582.728	10174.59
583.089	10310.18
583.449	10460.01
583.809	10628.36
584.169	10765.99
584.529	10897.06
584.889	11141.35
585.249	11263.38
585.609	11392.19
585.969	11707.66
586.329	11818.39
586.688	12118.27
587.048	12224.25
587.408	12319.85
587.768	12617.01
588.127	12856.33
588.487	13006.38
588.846	13336.09
589.206	13498.35
589.565	13584.22
589.925	14039.8
590.284	14157.54
590.643	14385.33
591.003	14755.26
591.362	15062.82
591.721	15292.65
592.08	15509.37
592.44	15795.23
592.799	16060.99
593.158	16366.29
593.517	16624.37
593.876	16892.15
594.235	17057.57
594.593	17408.98
594.952	17794.73
595.311	17907.04
595.67	18331.89
596.029	18644.65
596.387	18985.21
596.746	19288.48
597.104	19403.05
597.463	19683.27
597.822	20057.72
598.18	20274.89
598.538	20569.57
598.897	20914.65
599.255	21020.86
599.613	21569.77
599.972	21726.6
600.33	22014.51
600.688	22117.78
601.046	22576.98
601.404	22895.39
601.762	23164.98
602.12	23410.63
602.478	23639.55
602.836	23965.42
603.194	24124.73
603.552	24490.15
603.91	24520.2
604.268	24949.12
604.625	25054.88
604.983	25438.37
605.341	25510.91
605.698	25879.94
606.056	26235.64
606.413	26438.57
606.771	26630.66
607.128	26886.24
607.485	26992.23
607.843	27269.51
608.2	27630.63
608.557	27945.65
608.914	27868.82
609.272	28318.75
609.629	28547.89
609.986	28717.61
610.343	28732.52
610.7	29238.95
611.057	29377.7
611.414	29434.65
611.771	29725.49
612.127	29935.43
612.484	30061.75
612.841	30370.9
613.198	30424
613.554	30751.45
613.911	30996.64
614.267	31059.24
614.624	31163.42
614.98	31365.67
615.337	31663.74
615.693	31864.19
616.05	31794.36
616.406	32285.87
616.762	32061.47
617.118	32282.71
617.475	32474.8
617.831	32655.81
618.187	32839.98
618.543	32922.47
618.899	33296.47
619.255	33385.05
619.611	33515.22
619.967	33517.25
620.323	33691.94
620.678	33681.77
621.034	33760.86
621.39	33841.31
621.746	33909.79
622.101	34379.38
622.457	34231.59
622.812	34498.7
623.168	34518.13
623.523	34872.92
623.879	34722.87
624.234	34604.46
624.589	34879.25
624.945	34934.84
625.3	35071.56
625.655	35124.44
626.01	35234.72
626.365	35419.35
626.72	35359.69
627.075	35309.75
627.43	35424.32
627.785	35507.03
628.14	35608.5
628.495	35651.66
628.85	35685.78
629.205	35538.67
629.559	35894.82
629.914	35749.74
630.269	35859.11
630.623	35828.61
630.978	35714.71
631.332	35999
631.687	36024.76
632.041	36000.35
632.396	36021.14
632.75	35917.19
633.104	36089.62
633.459	35861.83
633.813	35889.85
634.167	36103.18
634.521	35933.69
634.875	36127.81
635.229	36163.06
635.583	35956.96
635.937	35989.96
636.291	35984.53
636.645	36136.62
636.999	35908.38
637.352	36186.56
637.706	35822.96
638.06	36215.04
638.413	36140.24
638.767	36076.96
639.121	35981.6
639.474	35923.97
639.828	35947.02
640.181	36072.67
640.534	36012.56
640.888	35995.16
641.241	35863.63
641.594	35897.53
641.947	36044.19
642.301	35940.24
642.654	35907.93
643.007	36060.24
643.36	35981.6
643.713	36000.8
644.066	35942.05
644.419	35804.43
644.771	35680.14
645.124	35398.79
645.477	35342.29
645.83	35057.78
646.182	34883.77
646.535	34844.68
646.888	35076.76
647.24	34854.85
647.593	35128.74
647.945	34974.17
648.298	34816.66
648.65	34748.18
649.002	34864.34
649.355	34979.14
649.707	34862.53
650.059	35007.61
650.411	35399.24
650.763	35404.89
651.115	35691.89
651.467	35612.34
651.819	35463.19
652.171	35680.81
652.523	35600.14
652.875	35635.62
653.227	35309.98
653.578	35672.23
653.93	35736.18
654.282	35301.61
654.633	35334.16
654.985	35558.78
655.337	35432.01
655.688	35584.54
656.039	35576.18
656.391	35192.69
656.742	35372.57
657.094	35324.89
657.445	35468.39
657.796	35377.54
658.147	35218.68
658.498	35343.65
658.849	35386.13
659.2	35268.85
659.551	35297.55
659.902	35322.63
660.253	35339.13
660.604	35299.58
660.955	35235.4
661.306	35148.17
661.656	35298.22
662.007	35299.58
662.358	35219.81
662.708	35235.4
663.059	35263.42
663.409	35014.62
663.76	35297.77
664.11	35305.46
664.461	35234.72
664.811	35259.58
665.161	35251.45
665.511	35090.09
665.862	35289.41
666.212	35249.19
666.562	35293.93
666.912	35216.19
667.262	35109.08
667.612	35166.25
667.962	35287.38
668.312	35180.26
668.662	35329.18
669.011	35276.53
669.361	35123.09
669.711	35261.39
670.06	35119.25
670.41	35074.28
670.76	35006.93
671.109	35032.24
671.459	35089.19
671.808	34951.34
672.157	35071.11
672.507	34877.44
672.856	35039.25
673.205	34912.47
673.554	35046.25
673.904	34882.64
674.253	35059.81
674.602	34871.34
674.951	34471.81
675.3	34288.99
675.649	34816.43
675.998	34745.47
676.346	34754.96
676.695	34902.08
677.044	34723.32
677.393	34756.09
677.741	34761.97
678.09	34780.95
678.438	34682.42
678.787	34709.77
679.135	34793.6
679.484	34456.44
679.832	34633.61
680.181	34423.22
680.529	34559.26
680.877	34488.98
681.225	34380.28
681.573	34557.45
681.922	34312.71
682.27	34290.57
682.618	34247.63
682.966	34298.93
683.314	34317.46
683.661	34149.33
684.009	34079.05
684.357	34078.37
684.705	33864.82
685.053	33804.48
685.4	33857.58
685.748	33815.33
686.095	33772.16
686.443	33639.51
686.79	33663.69
687.138	33785.27
687.485	33670.7
687.832	33508.44
688.18	33545.05
688.527	33315.68
688.874	33285.4
689.221	33372.63
689.568	33261.89
689.915	33165.85
690.262	33122.91
690.609	33117.94
690.956	32884.28
691.303	32907.33
691.65	32711.17
691.997	32661.68
692.344	32552.99
692.69	32574.23
693.037	32557.96
693.383	32269.15
693.73	32358.64
694.077	32196.84
694.423	32362.26
694.769	32103.51
695.116	32076.84
695.462	31960.91
695.808	31847.02
696.155	32008.37
696.501	31756.62
696.847	31690.64
697.193	31608.6
697.539	31546.91
697.885	31517.08
698.231	31329.06
698.577	31388.5
698.923	31296.3
699.269	30989.41
699.614	31024.89
699.96	30996.19
700.306	30899.47
700.651	30750.1
700.997	30744.45
701.342	30631
701.688	30522.08
702.033	30570.89
702.379	30540.84
702.724	30313.5
703.069	30386.49
703.415	30148.53
703.76	30119.15
704.105	30061.07
704.45	30038.02
704.795	29780.18
705.14	29781.76
705.485	29753.29
705.83	29622.44
706.175	29763
706.52	29600.75
706.865	29509.9
707.209	29536.12
707.554	29398.04
707.899	29397.14
708.243	29301.32
708.588	29184.71
708.932	29099.74
709.277	29081.44
709.621	29040.54
709.966	28833.76
710.31	28972.06
710.654	28746.31
710.998	28754.44
711.342	28747.21
711.687	28680.32
712.031	28547.22
712.375	28386.54
712.719	28433.55
713.063	28398.29
713.407	28481.91
713.75	28391.29
714.094	28414.34
714.438	28228.35
714.782	28275.36
715.125	28037.85
715.469	28026.1
715.812	27908.59
716.156	27835.14
716.499	27819.78
716.843	27846.22
717.186	27717.63
717.53	27881.92
717.873	27835.14
718.216	27706.33
718.559	27604.42
718.902	27509.05
719.246	27640.35
719.589	27376.62
719.932	27325.78
720.275	27389.51
720.617	27384.31
720.96	27230.41
721.303	27094.15
721.646	27193.58
721.989	27052.34
722.331	27115.39
722.674	27031.55
723.016	27090.98
723.359	26970.31
723.701	27062.06
724.044	26782.29
724.386	26636.98
724.729	26785.23
725.071	26685.57
725.413	26761.5
725.755	26625.23
726.097	26639.7
726.439	26519.7
726.782	26392.02
727.124	26614.84
727.465	26436.99
727.807	26436.31
728.149	26399.25
728.491	26322.87
728.833	26322.19
729.175	26279.93
729.516	26209.42
729.858	26259.14
730.199	26163.55
730.541	26085.36
730.882	26054.4
731.224	26170.78
731.565	25920.17
731.906	26023.44
732.248	25966.94
732.589	25860.51
732.93	25793.84
733.271	25671.13
733.612	25779.38
733.953	25760.62
734.294	25665.26
734.635	25592.04
734.976	25629.1
735.317	25415.32
735.658	25457.35
735.999	25509.56
736.339	25375.77
736.68	25488.54
737.021	25357.47
737.361	25321.99
737.702	25502.32
738.042	25253.29
738.383	25274.76
738.723	25253.06
739.063	25259.17
739.404	25258.71
739.744	25262.56
740.084	24971.94
740.424	25128.32
740.764	25002
741.104	25194.54
741.444	24922.45
741.784	24870.7
742.124	25044.93
742.464	24927.2
742.804	24835.45
743.143	24798.39
743.483	24793.64
743.823	24672.97
744.162	24660.54
744.502	24777.37
744.841	24580.09
745.181	24653.08
745.52	24565.85
745.86	24518.39
746.199	24435.69
746.538	24524.95
746.877	24605.17
747.216	24346.42
747.556	24370.6
747.895	24348.46
748.234	24244.5
748.573	24202.92
748.911	24096.71
749.25	24159.53
749.589	24019.65
749.928	24104.85
750.267	24077.05
750.605	24039.76
750.944	24001.35
751.283	24005.41
751.621	23905.76
751.96	23864.17
752.298	23764.52
752.636	23769.49
752.975	23658.53
753.313	23623.05
753.651	23696.5
753.989	23515.48
754.327	23476.84
754.666	23506.9
755.004	23467.58
755.342	23488.14
755.679	23397.52
756.017	23280.69
756.355	23345.32
756.693	23182.16
757.031	23262.38
757.368	22972.9
757.706	23102.84
758.044	22982.16
758.381	22990.53
758.719	22930.19
759.056	22843.41
759.394	22822.17
759.731	22663.3
760.068	22613.81
760.405	22602.74
760.743	22519.58
761.08	22471.9
761.417	22393.7
761.754	22373.37
762.091	22287.95
762.428	22210.43
762.765	22080.27
763.102	22074.39
763.438	22038.46
763.775	22030.1
764.112	21926.82
764.449	21946.71
764.785	21796.88
765.122	21685.02
765.458	21583.56
765.795	21531.13
766.131	21531.58
766.467	21399.15
766.804	21399.38
767.14	21257.46
767.476	21225.15
767.812	21168.43
768.148	21134.76
768.485	21031.71
768.821	20957.36
769.157	20910.35
769.492	20861.32
769.828	20841.66
770.164	20588.1
770.5	20670.36
770.836	20640.53
771.171	20519.63
771.507	20495
771.842	20253.87
772.178	20373.19
772.513	20198.28
772.849	20148.79
773.184	20035.12
773.519	20028.12
773.855	20043.26
774.19	19865.41
774.525	19794.9
774.86	19868.8
775.195	19702.48
775.53	19568.92
775.865	19533.89
776.2	19401.92
776.535	19331.64
776.87	19379.32
777.205	19329.6
777.539	19108.14
777.874	19155.82
778.209	19043.06
778.543	18956.96
778.878	18910.63
779.212	18873.35
779.547	18798.09
779.881	18751.77
780.215	18574.14
780.55	18700.47
780.884	18526.69
781.218	18458.89
781.552	18379.35
781.886	18433.81
782.22	18341.61
782.554	18270.88
782.888	18122.4
783.222	18026.14
783.556	17868.85
783.889	17871.56
784.223	17815.07
784.557	17787.5
784.89	17743.43
785.224	17622.31
785.557	17614.85
785.891	17564
786.224	17451.91
786.558	17392.71
786.891	17296.89
787.224	17271.58
787.557	17222.99
787.891	17161.98
788.224	17217.12
788.557	17145.71
788.89	16997.69
789.223	17089.44
789.556	16912.27
789.888	16792.72
790.221	16788.2
790.554	16619.17
790.887	16576.91
791.219	16554.54
791.552	16631.82
791.884	16512.05
792.217	16384.37
792.549	16329.68
792.882	16260.31
793.214	16187.54
793.546	16230.48
793.879	16062.57
794.211	16019.86
794.543	16101.22
794.875	15949.13
795.207	16014.66
795.539	15877.72
795.871	15837.27
796.203	15733.99
796.535	15619.65
796.867	15644.05
797.198	15551.4
797.53	15578.97
797.862	15452.42
798.193	15489.03
798.525	15416.94
798.856	15374.91
799.188	15235.48
799.519	15230.05
799.85	15170.84
800.182	15183.27
800.513	15175.36
800.844	15001.36
801.175	15010.4
801.506	15014.69
801.837	14948.7
802.168	14883.17
802.499	14876.61
802.83	14666.9
803.161	14699.9
803.491	14680.24
803.822	14725.88
804.153	14597.3
804.483	14499
804.814	14517.08
805.145	14423.52
805.475	14441.15
805.805	14360.47
806.136	14398.89
806.466	14386.01
806.796	14223.07
807.126	14184.2
807.457	14201.38
807.787	14212.45
808.117	14088.61
808.447	14052.23
808.777	14019.24
809.107	14101.49
809.436	13937.88
809.766	13972.68
810.096	13902.18
810.426	13876.41
810.755	13868.28
811.085	13799.13
811.414	13840.03
811.744	13661.51
812.073	13587.38
812.403	13555.52
812.732	13578.8
813.061	13544.22
813.39	13433.94
813.719	13416.54
814.049	13443.21
814.378	13447.27
814.707	13335.41
815.036	13365.24
815.365	13262.65
815.693	13189.65
816.022	13145.13
816.351	13140.16
816.68	13052.71
817.008	13101.07
817.337	13010.67
817.665	13004.8
817.994	13063.55
818.322	12965.93
818.651	12813.84
818.979	12840.51
819.307	12905.59
819.636	12874.41
819.964	12794.18
820.292	12880.73
820.62	12838.02
820.948	12817.23
821.276	12810.23
821.604	12700.4
821.932	12781.75
822.259	12732.49
822.587	12768.2
822.915	12704.02
823.243	12767.97
823.57	12722.32
823.898	12730.91
824.225	12708.54
824.553	12716.67
824.88	12765.26
825.207	12666.73
825.535	12676.22
825.862	12790.79
826.189	12655.2
826.516	12726.16
826.843	12794.18
827.17	12734.3
827.497	12760.29
827.824	12683.23
828.151	12820.4
828.478	12745.82
828.805	12654.3
829.131	12624.92
829.458	12742.66
829.785	12649.55
830.111	12590.35
830.438	12652.49
830.764	12649.78
831.09	12706.73
831.417	12580.18
831.743	12662.89
832.069	12681.64
832.395	12555.32
832.722	12611.36
833.048	12622.66
833.374	12573.85
833.7	12566.17
834.026	12530.01
834.351	12561.87
834.677	12585.6
835.003	12516.45
835.329	12521.42
835.654	12506.73
835.98	12437.13
836.306	12397.13
836.631	12333.18
836.956	12398.49
837.282	12481.2
837.607	12413.85
837.932	12385.38
838.258	12321.65
838.583	12330.01
838.908	12276.23
839.233	12247.53
839.558	12267.19
839.883	12203.46
840.208	12187.42
840.533	12226.97
840.858	12195.78
841.182	12158.27
841.507	12167.99
841.832	12056.12
842.156	12026.29
842.481	12010.25
842.805	12034.66
843.13	11961.89
843.454	12014.54
843.778	12038.95
844.103	11900.87
844.427	11847.32
844.751	11899.07
845.075	11803.47
845.399	11809.8
845.723	11728.67
846.047	11756.24
846.371	11661.56
846.695	11646.19
847.019	11554.89
847.343	11477.61
847.666	11412.98
847.99	11429.25
848.313	11323.71
848.637	11233.77
848.96	11331.62
849.284	11258.4
849.607	11135.47
849.931	11132.98
850.254	11112.65
850.577	11000.11
850.9	10927.79
851.223	10894.57
851.546	10907.68
851.869	10851.86
852.192	10879.88
852.515	10720.11
852.838	10772.99
853.161	10736.16
853.483	10671.75
853.806	10653.45
854.129	10613.22
854.451	10608.48
854.774	10534.36
855.096	10499.55
855.419	10468.59
855.741	10450.97
856.063	10414.58
856.385	10378.65
856.708	10320.8
857.03	10329.84
857.352	10281.48
857.674	10165.78
857.996	10213.01
858.318	10133.69
858.64	10186.57
858.961	10165.1
859.283	10037.87
859.605	10069.28
859.926	10103.41
860.248	10043.07
860.57	9967.14
860.891	9982.28
861.212	9963.52
861.534	9922.85
861.855	9930.76
862.176	9947.48
862.498	9891.43
862.819	9922.62
863.14	9834.71
863.461	9797.2
863.782	9751.55
864.103	9796.07
864.424	9762.85
864.745	9807.6
865.065	9680.37
865.386	9674.72
865.707	9631.33
866.027	9713.59
866.348	9635.4
866.668	9670.42
866.989	9551.1
867.309	9608.05
867.63	9541.39
867.95	9520.15
868.27	9473.14
868.59	9493.03
868.91	9482.63
869.23	9496.42
869.55	9426.81
869.87	9477.66
870.19	9406.93
870.51	9422.75
870.83	9486.47
871.15	9354.95
871.469	9365.57
871.789	9432.01
872.109	9326.25
872.428	9306.37
872.748	9332.13
873.067	9200.83
873.386	9316.31
873.706	9311.11
874.025	9231.11
874.344	9194.5
874.663	9288.06
874.982	9182.75
875.301	9226.59
875.62	9206.48
875.939	9134.62
876.258	9159.25
876.577	9084.22
876.896	9102.08
877.214	9078.57
877.533	9066.82
877.852	9035.86
878.17	9054.62
878.489	8993.83
878.807	9028.18
879.125	9026.37
879.444	8972.81
879.762	8935.3
880.08	8992.48
880.398	8976.43
880.716	8921.06
881.034	8923.1
881.352	8905.25
881.67	8913.61
881.988	8858.47
882.306	8801.97
882.624	8847.39
882.941	8860.95
883.259	8772.14
883.577	8713.61
883.894	8721.07
884.212	8696.89
884.529	8751.13
884.846	8653.5
885.164	8724.23
885.481	8657.57
885.798	8707.96
886.115	8601.53
886.432	8604.24
886.75	8545.03
887.067	8534.41
887.383	8526.27
887.7	8551.81
888.017	8474.97
888.334	8413.96
888.651	8454.64
888.967	8428.65
889.284	8388.2
889.6	8347.07
889.917	8317.24
890.233	8297.13
890.55	8368.54
890.866	8270.69
891.182	8303.23
891.498	8243.34
891.815	8189.78
892.131	8177.58
892.447	8184.59
892.763	8081.76
893.079	8135.55
893.395	8101.43
893.71	8040.18
894.026	7995.44
894.342	8032.05
894.657	7911.6
894.973	7911.37
895.289	7895.1
895.604	7973.52
895.92	7834.09
896.235	7840.64
896.55	7880.87
896.865	7816.91
897.181	7798.83
897.496	7753.64
897.811	7718.16
898.126	7699.85
898.441	7636.8
898.756	7651.27
899.071	7597.94
899.386	7633.64
899.7	7529.24
900.015	7509.8
900.33	7511.16
900.644	7466.41
900.959	7457.83
901.273	7447.66
901.588	7370.37
901.902	7352.07
902.216	7374.66
902.531	7328.56
902.845	7251.73
903.159	7294.89
903.473	7253.09
903.787	7223.71
904.101	7170.6
904.415	7200.43
904.729	7191.39
905.042	7133.77
905.356	7081.57
905.67	7112.07
905.984	7036.82
906.297	6971.96
906.611	6944.85
906.924	7012.64
907.237	6916.82
907.551	6932.19
907.864	6844.06
908.177	6878.63
908.491	6831.63
908.804	6728.81
909.117	6757.96
909.43	6737.62
909.743	6701.24
910.056	6679.77
910.368	6643.38
910.681	6691.29
910.994	6584.63
911.307	6632.31
911.619	6529.72
911.932	6564.97
912.244	6472.99
912.557	6494.91
912.869	6471.41
913.181	6438.87
913.494	6412.43
913.806	6333.11
914.118	6355.93
914.43	6329.72
914.742	6308.03
915.054	6287.01
915.366	6258.08
915.678	6231.64
915.99	6194.13
916.302	6141.25
916.613	6096.05
916.925	6134.02
917.236	6166.34
917.548	6028.71
917.859	6075.49
918.171	6022.61
918.482	5994.59
918.794	5913.23
919.105	5975.15
919.416	5942.84
919.727	5889.05
920.038	5894.25
920.349	5829.62
920.66	5825.78
920.971	5760.02
921.282	5776.51
921.593	5753.69
921.903	5737.42
922.214	5724.31
922.525	5685.67
922.835	5648.38
923.146	5654.26
923.456	5633.69
923.767	5619.68
924.077	5559.8
924.387	5580.81
924.697	5500.59
925.008	5501.27
925.318	5470.76
925.628	5461.04
925.938	5479.12
926.248	5404.77
926.558	5378.11
926.867	5359.35
927.177	5298.11
927.487	5335.85
927.796	5337.66
928.106	5261.05
928.416	5224.44
928.725	5234.61
929.034	5195.97
929.344	5241.16
929.653	5207.49
929.962	5114.39
930.271	5139.7
930.581	5135.4
930.89	5074.16
931.199	5080.94
931.508	5073.93
931.817	5076.19
932.125	4991.22
932.434	4988.06
932.743	4930.44
933.051	4969.76
933.36	4931.11
933.669	4864.45
933.977	4896.99
934.286	4873.26
934.594	4854.51
934.902	4809.76
935.21	4765.24
935.519	4778.12
935.827	4779.03
936.135	4722.98
936.443	4671.01
936.751	4674.4
937.059	4657.22
937.367	4635.98
937.674	4686.83
937.982	4609.99
938.29	4570.22
938.597	4595.3
938.905	4569.09
939.213	4535.42
939.52	4499.03
939.827	4489.99
940.135	4424.23
940.442	4455.87
940.749	4430.11
941.056	4463.55
941.363	4374.97
941.67	4383.56
941.977	4365.93
942.284	4338.81
942.591	4342.88
942.898	4318.25
943.205	4341.52
943.511	4270.34
943.818	4283.45
944.125	4243.67
944.431	4228.31
944.738	4205.71
945.044	4200.29
945.35	4150.57
945.657	4133.85
945.963	4137.24
946.269	4144.47
946.575	4116.45
946.881	4092.49
947.187	4075.09
947.493	4045.26
947.799	4066.73
948.105	4032.38
948.41	3990.8
948.716	3974.53
949.022	3931.59
949.327	3946.05
949.633	3930.46
949.938	3921.65
950.244	3865.83
950.549	3891.82
950.854	3862.21
951.16	3837.58
951.465	3836.68
951.77	3797.81
952.075	3783.8
952.38	3778.83
952.685	3736.12
952.99	3743.8
953.294	3711.26
953.599	3726.4
953.904	3709
954.209	3701.32
954.513	3669.45
954.818	3660.19
955.122	3658.83
955.426	3581.32
955.731	3612.96
956.035	3589
956.339	3621.77
956.643	3543.81
956.948	3591.49
957.252	3567.08
957.556	3519.17
957.86	3504.26
958.163	3485.5
958.467	3493.41
958.771	3468.78
959.075	3438.05
959.378	3386.3
959.682	3412.51
959.985	3367.76
960.289	3384.49
960.592	3358.5
960.896	3376.13
961.199	3335
961.502	3321.44
961.805	3319.63
962.108	3266.75
962.411	3307.2
962.714	3236.24
963.017	3274.21
963.32	3270.82
963.623	3229.01
963.926	3196.24
964.228	3170.26
964.531	3194.89
964.833	3154.44
965.136	3153.31
965.438	3154.44
965.741	3106.75
966.043	3096.36
966.345	3044.61
966.648	3099.75
966.95	3048
967.252	3052.29
967.554	3035.12
967.856	3026.53
968.158	3033.08
968.46	3036.25
968.761	3001.45
969.063	2966.87
969.365	2976.81
969.666	2946.08
969.968	2922.13
970.269	2927.32
970.571	2927.1
970.872	2916.25
971.174	2931.62
971.475	2873.31
971.776	2875.12
972.077	2841.68
972.378	2864.27
972.679	2847.33
972.98	2837.38
973.281	2831.28
973.582	2804.84
973.883	2811.17
974.183	2795.35
974.484	2757.16
974.785	2724.62
975.085	2770.27
975.386	2732.75
975.686	2750.38
975.986	2704.73
976.287	2715.13
976.587	2689.59
976.887	2680.33
977.187	2661.57
977.487	2671.96
977.787	2645.52
978.087	2641.23
978.387	2593.77
978.687	2616.37
978.987	2597.84
979.286	2550.16
979.586	2575.92
979.885	2525.07
980.185	2554
980.484	2498.41
980.784	2562.81
981.083	2534.79
981.382	2493.66
981.682	2490.05
981.981	2493.44
982.28	2459.09
982.579	2449.14
982.878	2439.65
983.177	2423.16
983.475	2455.47
983.774	2409.6
984.073	2380.45
984.372	2410.73
984.67	2382.25
984.969	2379.99
985.267	2365.31
985.566	2352.42
985.864	2349.03
986.162	2343.16
986.461	2306.32
986.759	2308.36
987.057	2283.95
987.355	2294.8
987.653	2300.67
987.951	2277.62
988.249	2283.27
988.547	2267.23
988.844	2232.43
989.142	2255.93
989.44	2217.74
989.737	2236.04
990.035	2205.08
990.332	2197.17
990.63	2207.12
990.927	2180.23
991.224	2159.66
991.521	2150.85
991.819	2135.71
992.116	2145.88
992.413	2145.65
992.71	2124.18
993.006	2100.68
993.303	2080.34
993.6	2072.21
993.897	2083.28
994.193	2061.81
994.49	2069.04
994.787	2044.86
995.083	2038.76
995.379	2023.39
995.676	2047.57
995.972	2029.49
996.268	2009.38
996.565	1985.2
996.861	1965.77
997.157	1966.45
997.453	1984.07
997.749	1949.72
998.044	1952.21
998.34	1923.28
998.636	1957.18
998.932	1917.86
999.227	1902.94
999.523	1909.95
999.818	1881.25
1000.114	1858.88
1000.409	1861.82
1000.704	1869.72
1001	1876.96
1001.295	1854.36
1001.59	1821.82
1001.885	1808.71
1002.18	1818.2
1002.475	1793.12
1002.77	1784.76
1003.065	1770.74
1003.359	1785.21
1003.654	1751.31
1003.949	1758.77
1004.243	1720.35
1004.538	1712.67
1004.832	1739.33
1005.127	1728.49
1005.421	1717.41
1005.715	1702.5
1006.009	1688.71
1006.304	1670.86
1006.598	1674.7
1006.892	1671.99
1007.186	1638.09
1007.48	1650.52
1007.773	1639
1008.067	1623.4
1008.361	1589.05
1008.655	1636.51
1008.948	1609.62
1009.242	1600.81
1009.535	1582.73
1009.829	1593.35
1010.122	1571.88
1010.415	1546.34
1010.708	1547.25
1011.001	1559
1011.295	1561.94
1011.588	1530.3
1011.881	1510.19
1012.173	1510.19
1012.466	1512.22
1012.759	1489.62
1013.052	1504.31
1013.344	1462.5
1013.637	1462.28
1013.93	1465.44
1014.222	1429.51
1014.514	1414.82
1014.807	1420.02
1015.099	1452.79
1015.391	1422.5
1015.683	1400.58
1015.976	1411.88
1016.268	1383.86
1016.56	1392.9
1016.851	1383.64
1017.143	1376.18
1017.435	1370.98
1017.727	1343.86
1018.018	1332.56
1018.31	1342.28
1018.602	1283.75
1018.893	1310.19
1019.185	1306.8
1019.476	1292.11
1019.767	1274.49
1020.058	1303.19
1020.35	1263.64
1020.641	1267.71
1020.932	1278.1
1021.223	1249.4
1021.514	1259.35
1021.804	1249.18
1022.095	1259.12
1022.386	1207.37
1022.677	1213.24
1022.967	1206.69
1023.258	1202.85
1023.548	1192.23
1023.839	1183.42
1024.129	1166.47
1024.419	1172.57
1024.709	1177.09
1025	1158.78
1025.29	1175.28
1025.58	1142.74
1025.87	1141.38
1026.16	1119.91
1026.449	1152
1026.739	1117.65
1027.029	1096.86
1027.319	1095.28
1027.608	1109.74
1027.898	1137.77
1028.187	1092.8
1028.477	1102.51
1028.766	1065.68
1029.055	1078.11
1029.344	1067.94
1029.634	1040.82
1029.923	1028.39
1030.212	1024.32
1030.501	1034.27
1030.79	1036.53
1031.078	1025
1031.367	987.49
1031.656	1028.62
1031.945	996.98
1032.233	997.66
1032.522	988.17
1032.81	985.91
1033.099	1008.5
1033.387	951.78
1033.675	969.18
1033.963	959.24
1034.251	952.46
1034.54	946.13
1034.828	909.3
1035.116	936.64
1035.403	913.59
1035.691	914.5
1035.979	904.33
1036.267	920.6
1036.554	903.2
1036.842	886.93
1037.129	912.46
1037.417	893.25
1037.704	906.81
1037.992	883.31
1038.279	871.33
1038.566	905.46
1038.853	905.46
1039.14	905.46
