Data from hue_140_FLMS001491_00039.txt Node
Date: Tue Feb 07 16:55:51 GMT 2017
User: dcchb
Spectrometer: FLMS00149
Trigger mode: 0
Integration Time (sec): 2.000000E-2
Scans to average: 10
Electric dark correction enabled: true
Nonlinearity correction enabled: false
Boxcar width: 0
XAxis mode: Wavelengths
Number of Pixels in Spectrum: 2048
>>>>>Begin Spectral Data<<<<<
341.393	-13.83
341.776	-13.83
342.16	-13.83
342.543	-65.8
342.927	-69.42
343.31	-58.8
343.693	-62.87
344.077	-77.78
344.46	-59.25
344.843	-43.43
345.226	-44.79
345.61	-21.28
345.993	-10.21
346.376	-20.83
346.759	1.54
347.142	22.56
347.525	55.1
347.908	39.73
348.291	68.43
348.674	85.15
349.057	126.73
349.44	121.08
349.823	161.08
350.206	168.54
350.588	179.61
350.971	211.25
351.354	223.23
351.737	246.5
352.119	260.29
352.502	276.11
352.884	282.66
353.267	270.01
353.65	293.51
354.032	295.32
354.414	325.37
354.797	306.62
355.179	324.02
355.562	323.56
355.944	322.44
356.326	332.6
356.709	328.54
357.091	361.08
357.473	353.85
357.855	347.97
358.238	327.41
358.62	343.45
359.002	352.04
359.384	344.58
359.766	355.43
360.148	349.55
360.53	340.29
360.912	327.86
361.294	332.38
361.676	309.55
362.057	366.05
362.439	347.75
362.821	334.41
363.203	343.23
363.584	312.72
363.966	354.52
364.348	313.85
364.729	339.61
365.111	320.18
365.493	313.62
365.874	329.67
366.256	321.98
366.637	323.56
367.019	330.12
367.4	327.41
367.781	312.04
368.163	346.16
368.544	321.76
368.925	319.05
369.306	312.94
369.688	350.46
370.069	324.24
370.45	326.73
370.831	312.04
371.212	321.53
371.593	333.06
371.974	336.22
372.355	349.78
372.736	314.75
373.117	342.1
373.498	309.78
373.879	325.82
374.26	309.78
374.641	306.62
375.021	329.21
375.402	337.35
375.783	347.75
376.163	340.74
376.544	322.66
376.925	327.63
377.305	349.78
377.686	350.68
378.066	343.45
378.447	342.1
378.827	340.74
379.208	329.67
379.588	346.39
379.968	341.42
380.349	348.88
380.729	328.08
381.109	357.91
381.489	337.35
381.87	360.63
382.25	345.71
382.63	339.38
383.01	351.81
383.39	330.34
383.77	356.33
384.15	354.07
384.53	360.17
384.91	369.21
385.29	351.59
385.67	353.62
386.049	373.96
386.429	350
386.809	347.75
387.189	373.06
387.568	343.9
387.948	361.08
388.328	367.41
388.707	360.17
389.087	374.64
389.466	380.51
389.846	370.57
390.225	380.29
390.605	375.77
390.984	383.22
391.363	384.13
391.743	376.22
392.122	399.04
392.501	381.64
392.881	388.87
393.26	394.98
393.639	382.77
394.018	392.26
394.397	397.24
394.776	387.29
395.155	402.43
395.534	389.33
395.913	381.42
396.292	405.82
396.671	379.61
397.05	411.02
397.429	417.35
397.808	403.79
398.186	409.21
398.565	405.37
398.944	416.67
399.323	397.01
399.701	432.04
400.08	410.12
400.458	426.84
400.837	439.72
401.215	401.53
401.594	426.39
401.972	419.83
402.351	420.74
402.729	422.32
403.107	414.18
403.486	418.48
403.864	439.72
404.242	425.94
404.62	446.5
404.999	451.02
405.377	471.36
405.755	434.75
406.133	453.28
406.511	469.78
406.889	469.1
407.267	460.51
407.645	454.41
408.023	464.8
408.401	431.58
408.779	431.36
409.156	475.65
409.534	454.41
409.912	491.47
410.29	485.59
410.667	458.25
411.045	494.18
411.422	495.31
411.8	484.24
412.178	509.32
412.555	525.37
412.933	512.71
413.31	504.13
413.687	498.48
414.065	482.43
414.442	501.41
414.819	514.29
415.197	501.41
415.574	533.5
415.951	545.25
416.328	524.69
416.705	524.92
417.082	518.14
417.46	528.08
417.837	524.24
418.214	552.94
418.591	558.81
418.967	545.03
419.344	547.97
419.721	568.08
420.098	567.17
420.475	545.48
420.852	554.07
421.228	565.59
421.605	568.53
421.982	587.06
422.358	567.85
422.735	598.59
423.111	586.83
423.488	577.34
423.864	580.96
424.241	611.47
424.617	612.82
424.994	606.27
425.37	605.37
425.746	597.91
426.123	622.77
426.499	631.13
426.875	621.64
427.251	651.01
427.627	624.35
428.003	633.61
428.379	640.17
428.756	652.6
429.132	662.77
429.507	674.74
429.883	659.6
430.259	669.54
430.635	677.23
431.011	670.67
431.387	700.05
431.763	719.71
432.138	710.22
432.514	676.55
432.89	715.87
433.265	730.11
433.641	708.64
434.016	705.25
434.392	731.24
434.767	744.57
435.143	762.42
435.518	742.09
435.894	764.46
436.269	780.05
436.644	800.16
437.02	795.42
437.395	779.15
437.77	802.2
438.145	790.9
438.52	788.41
438.895	849.65
439.271	826.15
439.646	840.61
440.021	830.9
440.395	835.19
440.77	848.07
441.145	841.97
441.52	850.33
441.895	860.27
442.27	857.34
442.645	851.91
443.019	869.54
443.394	912.93
443.769	878.35
444.143	895.53
444.518	900.05
444.892	894.85
445.267	876.32
445.641	937.11
446.016	914.28
446.39	929.42
446.764	927.84
447.139	915.87
447.513	953.38
447.887	945.02
448.262	969.88
448.636	946.15
449.01	965.36
449.384	974.4
449.758	953.15
450.132	1001.29
450.506	996.77
450.88	1000.61
451.254	978.91
451.628	1018.01
452.002	1010.55
452.376	1024.56
452.75	1036.77
453.123	1026.37
453.497	1036.31
453.871	1043.77
454.244	1094.84
454.618	1116.76
454.992	1065.69
455.365	1112.24
455.739	1111.57
456.112	1111.57
456.486	1165.12
456.859	1173.03
457.232	1171.23
457.606	1184.33
457.979	1185.46
458.352	1224.33
458.725	1198.12
459.099	1238.57
459.472	1259.13
459.845	1260.72
460.218	1277.89
460.591	1304.1
460.964	1317.89
461.337	1347.94
461.71	1356.53
462.083	1362.18
462.456	1370.32
462.829	1394.5
463.201	1398.79
463.574	1423.2
463.947	1439.02
464.32	1489.18
464.692	1502.52
465.065	1510.2
465.438	1550.43
465.81	1545.68
466.183	1565.11
466.555	1589.97
466.928	1586.36
467.3	1599.46
467.672	1657.54
468.045	1683.98
468.417	1671.1
468.789	1697.54
469.161	1730.53
469.534	1779.12
469.906	1846.91
470.278	1826.58
470.65	1841.27
471.022	1904.31
471.394	1940.92
471.766	1979.34
472.138	1990.87
472.51	2055.27
472.882	2070.86
473.253	2144.08
473.625	2191.09
473.997	2245.77
474.369	2257.98
474.74	2290.97
475.112	2358.54
475.484	2391.53
475.855	2498.42
476.227	2492.32
476.598	2598.76
476.97	2659.77
477.341	2676.72
477.713	2775.7
478.084	2837.85
478.455	2933.67
478.827	2983.38
479.198	3045.53
479.569	3124.62
479.94	3245.52
480.311	3302.02
480.682	3449.13
481.053	3514.89
481.424	3628.56
481.795	3655.91
482.166	3772.74
482.537	3855.9
482.908	3971.15
483.279	4080.75
483.65	4230.35
484.021	4305.61
484.391	4415.89
484.762	4526.39
485.133	4621.98
485.503	4777.01
485.874	4892.03
486.244	4969.09
486.615	5135.19
486.985	5260.84
487.356	5419.02
487.726	5527.95
488.097	5708.06
488.467	5801.84
488.837	5959.35
489.207	6063.3
489.578	6236.18
489.948	6303.97
490.318	6552.55
490.688	6541.03
491.058	6790.74
491.428	6945.76
491.798	7129.26
492.168	7383.94
492.538	7432.53
492.908	7533.09
493.278	7697.16
493.648	7823.25
494.017	7990.03
494.387	8086.75
494.757	8209.46
495.126	8399.06
495.496	8490.58
495.866	8612.84
496.235	8733.74
496.605	8993.85
496.974	9103.9
497.344	9175.08
497.713	9314.29
498.082	9428.86
498.452	9579.37
498.821	9712.7
499.19	9821.39
499.559	9831.34
499.928	10079.69
500.298	10152.91
500.667	10342.06
501.036	10351.78
501.405	10474.94
501.774	10534.37
502.143	10679.68
502.512	10703.18
502.88	10861.59
503.249	10869.95
503.618	11073.11
503.987	11136.39
504.356	11198.31
504.724	11293.22
505.093	11423.84
505.462	11427.45
505.83	11526.66
506.199	11680.78
506.567	11836.93
506.936	11851.85
507.304	12003.71
507.672	12046.19
508.041	12133.65
508.409	12209.35
508.777	12337.94
509.145	12391.27
509.514	12459.29
509.882	12459.74
510.25	12542.45
510.618	12586.07
510.986	12618.61
511.354	12775.44
511.722	12884.59
512.09	12915.1
512.458	12902.67
512.826	13062.44
513.193	13057.02
513.561	13155.54
513.929	13245.26
514.297	13235.77
514.664	13349.44
515.032	13342.88
515.4	13469.43
515.767	13499.49
516.135	13499.26
516.502	13428.98
516.869	13635.31
517.237	13621.97
517.604	13636.89
517.972	13716.66
518.339	13777.22
518.706	13721.63
519.073	13729.77
519.44	13817
519.808	13864
520.175	13880.04
520.542	13997.33
520.909	14112.58
521.276	14046.82
521.643	14125.69
522.009	14196.19
522.376	14182.64
522.743	14225.35
523.11	14330.2
523.477	14301.73
523.843	14398.45
524.21	14424.21
524.577	14449.75
524.943	14544.66
525.31	14552.34
525.676	14654.71
526.043	14661.49
526.409	14611.55
526.776	14714.6
527.142	14739.23
527.508	14796.18
527.874	14814.26
528.241	14807.7
528.607	14740.59
528.973	14759.57
529.339	14819.68
529.705	14881.15
530.071	14978.77
530.437	14870.08
530.803	14929.28
531.169	14916.63
531.535	14812.22
531.901	14842.73
532.267	14853.13
532.632	14860.13
532.998	14919.79
533.364	14865.1
533.73	14812.68
534.095	14985.78
534.461	14804.77
534.826	14913.46
535.192	14925.44
535.557	14937.87
535.923	14829.85
536.288	14792.34
536.653	14760.02
537.019	14681.83
537.384	14812.68
537.749	14762.73
538.114	14677.31
538.479	14601.16
538.845	14626.01
539.21	14570.42
539.575	14602.74
539.94	14535.17
540.305	14555.96
540.67	14445.91
541.034	14497.2
541.399	14455.17
541.764	14383.08
542.129	14368.17
542.494	14263.99
542.858	14350.54
543.223	14271.67
543.587	14396.42
543.952	14233.03
544.316	14212.01
544.681	14118
545.045	14189.42
545.41	14180.6
545.774	14078.01
546.138	14063.09
546.503	14048.63
546.867	13944
547.231	14014.96
547.595	13982.41
547.959	13961.85
548.324	13876.88
548.688	13853.83
549.052	13850.21
549.416	13808.18
549.779	13803.21
550.143	13703.55
550.507	13670.78
550.871	13764.79
551.235	13598.24
551.599	13754.85
551.962	13658.13
552.326	13613.38
552.689	13589.88
553.053	13559.83
553.417	13514.63
553.78	13624.01
554.143	13450.9
554.507	13456.55
554.87	13522.31
555.234	13518.25
555.597	13403.45
555.96	13489.32
556.323	13412.49
556.686	13411.13
557.05	13365.71
557.413	13459.72
557.776	13458.36
558.139	13418.36
558.502	13378.36
558.865	13355.76
559.228	13452.03
559.59	13343.11
559.953	13367.97
560.316	13378.59
560.679	13353.05
561.041	13491.13
561.404	13460.85
561.767	13464.46
562.129	13333.62
562.492	13480.28
562.854	13498.59
563.217	13432.15
563.579	13479.83
563.941	13505.37
564.304	13518.02
564.666	13535.65
565.028	13572.48
565.39	13637.57
565.753	13531.35
566.115	13584.23
566.477	13612.93
566.839	13532.94
567.201	13658.81
567.563	13586.72
567.925	13708.3
568.287	13635.31
568.648	13696.09
569.01	13735.19
569.372	13718.24
569.734	13677.34
570.095	13713.5
570.457	13773.38
570.819	13773.61
571.18	13737.22
571.542	13781.97
571.903	13739.48
572.265	13771.12
572.626	13758.24
572.987	13862.64
573.349	13821.06
573.71	13857.22
574.071	13866.49
574.432	13909.2
574.794	14025.8
575.155	13914.39
575.516	13860.61
575.877	13982.19
576.238	13939.7
576.599	13978.12
576.96	13972.02
577.32	14016.31
577.681	14020.83
578.042	14036.88
578.403	13985.8
578.763	13985.35
579.124	14018.57
579.485	13990.78
579.845	14062.86
580.206	13937.9
580.566	13968.86
580.927	14007.27
581.287	14071.9
581.648	13982.19
582.008	14009.53
582.368	13985.35
582.728	14046.37
583.089	14034.16
583.449	14064.22
583.809	14041.62
584.169	13967.27
584.529	14032.36
584.889	14044.79
585.249	13956.65
585.609	13845.92
585.969	14024.45
586.329	13882.08
586.688	13940.38
587.048	13921.85
587.408	13946.03
587.768	13914.62
588.127	13949.42
588.487	13840.05
588.846	13943.77
589.206	13859.93
589.565	13750.56
589.925	13926.15
590.284	13893.38
590.643	13890.44
591.003	13860.38
591.362	13910.1
591.721	13815.64
592.08	13845.24
592.44	13822.87
592.799	13859.25
593.158	13809.76
593.517	13743.33
593.876	13793.27
594.235	13761.63
594.593	13832.14
594.952	13821.29
595.311	13787.17
595.67	13781.97
596.029	13781.52
596.387	13863.55
596.746	13806.6
597.104	13734.96
597.463	13710.56
597.822	13824
598.18	13656.32
598.538	13682.76
598.897	13749.65
599.255	13745.81
599.613	13839.14
599.972	13718.92
600.33	13728.18
600.688	13726.15
601.046	13721.18
601.404	13808.18
601.762	13837.56
602.12	13846.37
602.478	13875.75
602.836	13792.82
603.194	13712.59
603.552	13767.51
603.91	13746.26
604.268	13701.52
604.625	13749.2
604.983	13796.43
605.341	13713.5
605.698	13775.87
606.056	13768.41
606.413	13796.66
606.771	13780.84
607.128	13859.25
607.485	13717.79
607.843	13725.02
608.2	13829.42
608.557	13839.82
608.914	13809.54
609.272	13921.63
609.629	13832.36
609.986	13943.77
610.343	13782.65
610.7	13922.08
611.057	13902.19
611.414	13871.68
611.771	13936.54
612.127	14035.29
612.484	14008.18
612.841	13984.9
613.198	13927.73
613.554	13970.44
613.911	14022.87
614.267	13933.38
614.624	14002.08
614.98	13993.04
615.337	14018.12
615.693	14032.13
616.05	14033.26
616.406	14110.1
616.762	14002.08
617.118	14020.15
617.475	14019.02
617.831	14051.34
618.187	14059.25
618.543	14108.97
618.899	14180.15
619.255	14178.79
619.611	14140.38
619.967	14219.7
620.323	14150.77
620.678	14137.66
621.034	14122.75
621.39	14134.73
621.746	14123.2
622.101	14260.83
622.457	14166.59
622.812	14157.1
623.168	14190.77
623.523	14235.52
623.879	14209.08
624.234	14129.3
624.589	14162.3
624.945	14206.82
625.3	14151.9
625.655	14146.7
626.01	14128.85
626.365	14207.27
626.72	14179.7
627.075	14092.69
627.43	14152.35
627.785	14161.85
628.14	14164.33
628.495	14197.32
628.85	14152.81
629.205	14115.29
629.559	14204.1
629.914	14061.06
630.269	14113.94
630.623	14122.75
630.978	14109.64
631.332	14134.28
631.687	14189.19
632.041	14078.91
632.396	14194.16
632.75	14016.54
633.104	13996.2
633.459	13917.78
633.813	13838.69
634.167	13969.76
634.521	13947.84
634.875	13922.98
635.229	13966.14
635.583	13828.29
635.937	13883.89
636.291	13903.32
636.645	13856.99
636.999	13774.06
637.352	13810.44
637.706	13765.25
638.06	13880.95
638.413	13780.16
638.767	13754.17
639.121	13745.36
639.474	13604.8
639.828	13675.3
640.181	13686.83
640.534	13693.38
640.888	13665.36
641.241	13619.03
641.594	13710.78
641.947	13591.46
642.301	13562.99
642.654	13619.03
643.007	13613.84
643.36	13578.36
643.713	13616.32
644.066	13674.85
644.419	13572.03
644.771	13473.73
645.124	13365.03
645.477	13271.7
645.83	13302.66
646.182	13170.01
646.535	13158.48
646.888	13195.77
647.24	13147.86
647.593	13215.88
647.945	13178.37
648.298	13066.96
648.65	13118.48
649.002	13080.97
649.355	13068.99
649.707	13085.72
650.059	13177.24
650.411	13220.17
650.763	13299.04
651.115	13402.77
651.467	13397.8
651.819	13354.86
652.171	13372.49
652.523	13303.56
652.875	13337.01
653.227	13310.34
653.578	13422.88
653.93	13394.41
654.282	13300.4
654.633	13366.39
654.985	13332.26
655.337	13301.53
655.688	13422.88
656.039	13461.98
656.391	13342.43
656.742	13321.19
657.094	13376.78
657.445	13382.2
657.796	13358.02
658.147	13298.59
658.498	13393.28
658.849	13379.27
659.2	13262.66
659.551	13307.18
659.902	13425.37
660.253	13330.68
660.604	13402.54
660.955	13255.2
661.306	13297.01
661.656	13317.8
662.007	13362.09
662.358	13384.24
662.708	13391.24
663.059	13425.14
663.409	13294.3
663.76	13386.05
664.11	13435.08
664.461	13407.74
664.811	13337.91
665.161	13481.86
665.511	13351.02
665.862	13309.66
666.212	13400.74
666.562	13359.83
666.912	13351.47
667.262	13353.28
667.612	13404.12
667.962	13408.42
668.312	13348.99
668.662	13419.27
669.011	13370
669.361	13362.77
669.711	13380.4
670.06	13345.37
670.41	13320.74
670.76	13278.7
671.109	13392.37
671.459	13362.32
671.808	13392.37
672.157	13336.78
672.507	13238.48
672.856	13338.36
673.205	13345.14
673.554	13348.31
673.904	13261.53
674.253	13303.56
674.602	13313.51
674.951	13072.38
675.3	13084.59
675.649	13217.01
675.998	13215.43
676.346	13168.42
676.695	13261.3
677.044	13046.85
677.393	13179.95
677.741	13218.59
678.09	13126.17
678.438	13118.93
678.787	13074.64
679.135	13141.08
679.484	13033.29
679.832	13043.46
680.181	12899.28
680.529	13005.27
680.877	13031.03
681.225	12969.79
681.573	13045.26
681.922	12884.82
682.27	12826.06
682.618	12806.85
682.966	12907.19
683.314	12851.6
683.661	12755.78
684.009	12845.27
684.357	12786.74
684.705	12831.94
685.053	12790.58
685.4	12724.14
685.748	12659.06
686.095	12708.1
686.443	12614.32
686.79	12613.64
687.138	12573.19
687.485	12655.67
687.832	12522.79
688.18	12607.31
688.527	12446.64
688.874	12428.33
689.221	12400.54
689.568	12347.66
689.915	12351.95
690.262	12367.99
690.609	12347.66
690.956	12190.37
691.303	12231.73
691.65	12144.05
691.997	12143.82
692.344	11988.79
692.69	12042.8
693.037	12059.75
693.383	11840.55
693.73	11948.12
694.077	11816.37
694.423	11865.86
694.769	11851.4
695.116	11772.3
695.462	11750.84
695.808	11759.2
696.155	11733.43
696.501	11541.12
696.847	11600.1
697.193	11495.93
697.539	11549.26
697.885	11447.11
698.231	11460.22
698.577	11372.31
698.923	11410.73
699.269	11377.29
699.614	11268.59
699.96	11220
700.306	11233.79
700.651	11162.38
700.997	11128.03
701.342	11139.1
701.688	11104.3
702.033	11034.47
702.379	11036.28
702.724	10966.45
703.069	10946.56
703.415	10855.49
703.76	10903.85
704.105	10856.4
704.45	10830.63
704.795	10782.05
705.14	10710.86
705.485	10700.24
705.83	10626.34
706.175	10668.6
706.52	10589.51
706.865	10569.62
707.209	10521.71
707.554	10496.18
707.899	10577.76
708.243	10437.42
708.588	10379.35
708.932	10344.09
709.277	10316.52
709.621	10391.77
709.966	10220.25
710.31	10307.71
710.654	10194.94
710.998	10190.65
711.342	10265.45
711.687	10197.2
712.031	10146.36
712.375	10025
712.719	10085.79
713.063	10091.9
713.407	10135.74
713.75	10077.43
714.094	10093.03
714.438	10003.76
714.782	10027.94
715.125	9940.04
715.469	9939.81
715.812	9957.21
716.156	9923.31
716.499	9875.18
716.843	9923.76
717.186	9788.63
717.53	9839.02
717.873	9873.14
718.216	9820.72
718.559	9778.23
718.902	9732.58
719.246	9787.5
719.589	9720.15
719.932	9721.96
720.275	9678.8
720.617	9724.45
720.96	9659.59
721.303	9646.26
721.646	9628.63
721.989	9688.06
722.331	9614.62
722.674	9588.86
723.016	9574.85
723.359	9591.12
723.701	9566.03
724.044	9570.1
724.386	9531.23
724.729	9542.08
725.071	9541.18
725.413	9570.1
725.755	9605.81
726.097	9595.19
726.439	9524.9
726.782	9479.03
727.124	9460.5
727.465	9540.5
727.807	9563.1
728.149	9485.36
728.491	9483.78
728.833	9550.21
729.175	9424.57
729.516	9496.43
729.858	9426.83
730.199	9444
730.541	9414.85
730.882	9406.04
731.224	9473.15
731.565	9382.76
731.906	9469.99
732.248	9443.1
732.589	9403.78
732.93	9398.81
733.271	9402.87
733.612	9373.27
733.953	9378.92
734.294	9425.7
734.635	9429.99
734.976	9439.26
735.317	9361.29
735.658	9384.34
735.999	9385.47
736.339	9374.63
736.68	9454.17
737.021	9419.6
737.361	9355.42
737.702	9416.43
738.042	9414.85
738.383	9392.03
738.723	9393.61
739.063	9465.7
739.404	9405.81
739.744	9411.69
740.084	9519.26
740.424	9447.39
740.764	9396.09
741.104	9485.36
741.444	9434.51
741.784	9479.03
742.124	9501.18
742.464	9552.7
742.804	9479.93
743.143	9493.72
743.483	9593.6
743.823	9524.68
744.162	9585.24
744.502	9637.67
744.841	9649.87
745.181	9708.18
745.52	9708.18
745.86	9770.77
746.199	9799.47
746.538	9838.79
746.877	9856.42
747.216	9919.92
747.556	9889.87
747.895	9990.88
748.234	9956.76
748.573	10082.18
748.911	10054.83
749.25	10182.29
749.589	10202.85
749.928	10255.96
750.267	10430.64
750.605	10404.2
750.944	10556.97
751.283	10505.67
751.621	10674.93
751.96	10735.04
752.298	10813.46
752.636	10890.29
752.975	11038.99
753.313	11043.74
753.651	11258.64
753.989	11340.45
754.327	11451.86
754.666	11494.8
755.004	11659.09
755.342	11802.59
755.679	11992.86
756.017	12041.67
756.355	12302.91
756.693	12376.81
757.031	12488.89
757.368	12579.74
757.706	12796.01
758.044	12870.58
758.381	13121.65
758.719	13229.67
759.056	13421.3
759.394	13539.71
759.731	13670.78
760.068	13835.07
760.405	13987.84
760.743	14137.89
761.08	14345.12
761.417	14456.75
761.754	14724.32
762.091	14881.83
762.428	15061.48
762.765	15119.79
763.102	15403.62
763.438	15541.24
763.775	15607.46
764.112	15886.55
764.449	16086.77
764.785	16176.26
765.122	16277.04
765.458	16429.36
765.795	16570.6
766.131	16837.03
766.467	16942.34
766.804	16980.08
767.14	17166.29
767.476	17351.82
767.812	17493.73
768.148	17663.67
768.485	17714.29
768.821	17824.12
769.157	18025.7
769.492	18156.77
769.828	18250.55
770.164	18297.1
770.5	18335.29
770.836	18504.33
771.171	18612.12
771.507	18661.61
771.842	18712.91
772.178	18832.91
772.513	18999.46
772.849	19050.98
773.184	19109.96
773.519	19138.66
773.855	19299.56
774.19	19250.3
774.525	19407.36
774.86	19495.26
775.195	19467.92
775.53	19611.19
775.865	19637.63
776.2	19532.33
776.535	19551.76
776.87	19682.38
777.205	19700.68
777.539	19754.01
777.874	19892.09
778.209	19724.18
778.543	19979.77
778.878	19787.23
779.212	19894.58
779.547	19817.29
779.881	19979.55
780.215	19887.57
780.55	20000.11
780.884	19926.44
781.218	19975.7
781.552	19975.48
781.886	20015.25
782.22	19949.94
782.554	19957.85
782.888	19829.72
783.222	19825.2
783.556	19829.49
783.889	19909.94
784.223	19671.53
784.557	19826.33
784.89	19867.46
785.224	19681.02
785.557	19697.29
785.891	19796.05
786.224	19671.08
786.558	19656.62
786.891	19584.53
787.224	19511.76
787.557	19528.94
787.891	19542.95
788.224	19542.04
788.557	19520.12
788.89	19523.51
789.223	19561.48
789.556	19434.25
789.888	19370.97
790.221	19287.13
790.554	19270.19
790.887	19228.15
791.219	19185.44
791.552	19214.59
791.884	19097.08
792.217	19175.72
792.549	19145.89
792.882	19035.84
793.214	18964.2
793.546	19151.32
793.879	18874.26
794.211	18894.15
794.543	18889.86
794.875	18888.05
795.207	18862.06
795.539	18881.95
795.871	18869.97
796.203	18745.45
796.535	18626.59
796.867	18671.33
797.198	18572.12
797.53	18617.1
797.862	18548.85
798.193	18569.19
798.525	18398.8
798.856	18438.12
799.188	18309.31
799.519	18329.42
799.85	18065.25
800.182	18140.95
800.513	18245.58
800.844	18018.69
801.175	18157.22
801.506	18103.21
801.837	18037.45
802.168	17912.71
802.499	17898.02
802.83	17792.94
803.161	17874.06
803.491	17855.08
803.822	17817.12
804.153	17756.78
804.483	17580.96
804.814	17609.66
805.145	17514.3
805.475	17547.97
805.805	17356.11
806.136	17514.3
806.466	17433.85
806.796	17428.65
807.126	17371.03
807.457	17287.64
807.787	17327.41
808.117	17278.83
808.447	17136
808.777	17098.49
809.107	17173.29
809.436	17070.92
809.766	17089.9
810.096	17053.29
810.426	16917.93
810.755	16915.9
811.085	16959.06
811.414	16964.03
811.744	16833.41
812.073	16787.09
812.403	16839.29
812.732	16681.78
813.061	16637.94
813.39	16606.75
813.719	16616.92
814.049	16639.52
814.378	16620.31
814.707	16594.78
815.036	16506.42
815.365	16404.27
815.693	16322.24
816.022	16303.26
816.351	16307.78
816.68	16233.43
817.008	16273.65
817.337	16150.49
817.665	16145.07
817.994	16160.21
818.322	16022.14
818.651	16043.6
818.979	15967.45
819.307	16081.79
819.636	16080.66
819.964	15867.56
820.292	16006.54
820.62	15930.84
820.948	15916.38
821.276	15877.96
821.604	15888.58
821.932	15868.24
822.259	15953.44
822.587	15922.48
822.915	15882.7
823.243	15960.67
823.57	15814.68
823.898	15845.42
824.225	15779.43
824.553	15820.33
824.88	15925.41
825.207	15858.3
825.535	15931.52
825.862	15909.6
826.189	15880.22
826.516	15880.9
826.843	16009.71
827.17	15964.51
827.497	15855.81
827.824	15949.82
828.151	15951.4
828.478	15993.21
828.805	16020.33
829.131	16013.1
829.458	15933.32
829.785	15813.1
830.111	15860.11
830.438	15999.31
830.764	15904.62
831.09	15979.2
831.417	15843.38
831.743	15858.52
832.069	16016.49
832.395	15731.97
832.722	15903.95
833.048	15860.56
833.374	15846.77
833.7	15765.64
834.026	15851.74
834.351	15903.72
834.677	15724.74
835.003	15868.47
835.329	15848.35
835.654	15742.59
835.98	15764.74
836.306	15761.35
836.631	15661.47
836.956	15732.43
837.282	15722.03
837.607	15674.35
837.932	15613.56
838.258	15567.46
838.583	15575.82
838.908	15495.82
839.233	15524.97
839.558	15467.12
839.883	15382.6
840.208	15391.42
840.533	15413.56
840.858	15360.68
841.182	15379.44
841.507	15342.15
841.832	15251.99
842.156	15261.7
842.481	15252.89
842.805	15177.86
843.13	15189.16
843.454	15169.73
843.778	15113.23
844.103	15039.11
844.427	14953.46
844.751	15006.12
845.075	14935.38
845.399	14807.93
845.723	14891.54
846.047	14801.83
846.371	14670.98
846.695	14705.11
847.019	14553.25
847.343	14532
847.666	14464.66
847.99	14407.26
848.313	14410.43
848.637	14318.9
848.96	14286.59
849.284	14271.67
849.607	14141.96
849.931	14082.53
850.254	14072.36
850.577	13926.6
850.9	13955.07
851.223	13866.49
851.546	13802.08
851.869	13656.77
852.192	13759.14
852.515	13611.58
852.838	13643.89
853.161	13578.36
853.483	13561.86
853.806	13445.48
854.129	13372.04
854.451	13407.06
854.774	13350.79
855.096	13306.5
855.419	13297.91
855.741	13194.64
856.063	13166.84
856.385	13118.93
856.708	13083.46
857.03	13119.61
857.352	13104.92
857.674	13033.74
857.996	13004.59
858.318	12774.31
858.64	12884.14
858.961	12838.72
859.283	12846.17
859.605	12773.86
859.926	12821.32
860.248	12688.66
860.57	12686.4
860.891	12686.4
861.212	12679.85
861.534	12581.32
861.855	12574.09
862.176	12501.55
862.498	12505.39
862.819	12529.35
863.14	12512.85
863.461	12497.03
863.782	12416.13
864.103	12391.5
864.424	12365.96
864.745	12344.72
865.065	12376.58
865.386	12253.19
865.707	12291.39
866.027	12233.99
866.348	12290.93
866.668	12245.29
866.989	12201.67
867.309	12048
867.63	12161.9
867.95	12102.24
868.27	12048.45
868.59	12077.83
868.91	12035.35
869.23	12026.76
869.55	11971.85
869.87	11970.94
870.19	11964.16
870.51	11963.94
870.83	11877.16
871.15	11875.8
871.469	11869.25
871.789	11896.82
872.109	11863.83
872.428	11767.78
872.748	11818.63
873.067	11770.95
873.386	11828.8
873.706	11804.62
874.025	11684.17
874.344	11690.5
874.663	11685.07
874.982	11694.79
875.301	11669.93
875.62	11615.7
875.939	11647.79
876.258	11641.46
876.577	11576.15
876.896	11583.38
877.214	11534.12
877.533	11548.58
877.852	11585.64
878.17	11492.08
878.489	11529.15
878.807	11472.65
879.125	11524.63
879.444	11394.91
879.762	11452.09
880.08	11428.36
880.398	11344.07
880.716	11387.45
881.034	11325.08
881.352	11342.26
881.67	11332.99
881.988	11257.06
882.306	11249.38
882.624	11220.45
882.941	11136.16
883.259	11084.19
883.577	11121.93
883.894	11158.53
884.212	11102.94
884.529	11146.56
884.846	11014.13
885.164	10994.7
885.481	10911.99
885.798	10967.13
886.115	10944.08
886.432	10861.37
886.75	10865.66
887.067	10919.67
887.383	10830.86
887.7	10836.51
888.017	10779.79
888.334	10755.16
888.651	10676.29
888.967	10657.3
889.284	10619.79
889.6	10562.17
889.917	10471.09
890.233	10561.49
890.55	10445.56
890.866	10515.84
891.182	10406.46
891.498	10376.63
891.815	10396.97
892.131	10328.27
892.447	10261.16
892.763	10242.17
893.079	10202.4
893.395	10205.11
893.71	10242.85
894.026	10240.82
894.342	10120.37
894.657	10023.2
894.973	10111.33
895.289	10062.52
895.604	10101.39
895.92	9993.59
896.235	9976.19
896.55	9907.49
896.865	9884.67
897.181	9945.23
897.496	9816.87
897.811	9851.22
898.126	9785.24
898.441	9765.58
898.756	9662.75
899.071	9599.93
899.386	9579.37
899.7	9496.66
900.015	9488.97
900.33	9472.93
900.644	9495.3
900.959	9491.91
901.273	9442.87
901.588	9400.16
901.902	9269.32
902.216	9343.21
902.531	9264.57
902.845	9276.1
903.159	9113.16
903.473	9123.11
903.787	9158.81
904.101	9079.04
904.415	9078.59
904.729	9019.61
905.042	9015.99
905.356	8986.39
905.67	8936.9
905.984	8958.59
906.297	8867.75
906.611	8763.57
906.924	8783.91
907.237	8719.28
907.551	8733.97
907.864	8636.11
908.177	8647.87
908.491	8664.59
908.804	8535.33
909.117	8499.62
909.43	8488.1
909.743	8435.22
910.056	8445.61
910.368	8397.7
910.681	8369.91
910.994	8351.83
911.307	8313.41
911.619	8229.57
911.932	8242.45
912.244	8237.71
912.557	8126.52
912.869	8107.09
913.181	8077.49
913.494	8065.28
913.806	8040.88
914.118	7952.29
914.43	7955.91
914.742	7916.81
915.054	7908.22
915.366	7849.69
915.678	7875.68
915.99	7803.82
916.302	7759.3
916.613	7718.17
916.925	7683.82
917.236	7689.02
917.548	7654.45
917.859	7606.54
918.171	7639.98
918.482	7523.38
918.794	7525.41
919.105	7498.07
919.416	7409.71
919.727	7425.75
920.038	7363.38
920.349	7372.42
920.66	7317.28
920.971	7325.64
921.282	7308.92
921.593	7263.5
921.903	7202.93
922.214	7163.39
922.525	7207.68
922.835	7129.94
923.146	7078.42
923.456	7057.85
923.767	6988.25
924.077	7035.7
924.387	7006.1
924.697	6919.32
925.008	6928.59
925.318	6880
925.628	6886.1
925.938	6833.45
926.248	6764.07
926.558	6778.99
926.867	6715.94
927.177	6693.57
927.487	6736.73
927.796	6600.01
928.106	6626.22
928.416	6644.98
928.725	6592.33
929.034	6540.12
929.344	6487.02
929.653	6560.69
929.962	6424.87
930.271	6443.18
930.581	6352.78
930.89	6409.73
931.199	6355.5
931.508	6346.01
931.817	6309.17
932.125	6276.18
932.434	6277.76
932.743	6213.13
933.051	6149.85
933.36	6201.15
933.669	6132.45
933.977	6145.11
934.286	6032.34
934.594	6102.4
934.902	5996.41
935.21	6002.74
935.519	6008.61
935.827	6004.77
936.135	5939.24
936.443	5911.44
936.751	5865.34
937.059	5902.85
937.367	5834.61
937.674	5860.14
937.982	5819.69
938.29	5776.75
938.597	5798.22
938.905	5682.07
939.213	5656.08
939.52	5659.47
939.827	5681.62
940.135	5600.71
940.442	5563.2
940.749	5587.16
941.056	5565.46
941.363	5467.84
941.67	5505.58
941.977	5484.56
942.284	5424
942.591	5442.07
942.898	5413.15
943.205	5450.89
943.511	5311.91
943.818	5325.92
944.125	5344.22
944.431	5305.58
944.738	5313.49
945.044	5240.72
945.35	5183.78
945.657	5217.9
945.963	5195.53
946.269	5109.65
946.575	5176.54
946.881	5074.17
947.187	5169.31
947.493	5051.35
947.799	5059.03
948.105	5015.64
948.41	4991.92
948.716	5034.18
949.022	4984.91
949.327	4979.71
949.633	4923.9
949.938	4903.33
950.244	4901.75
950.549	4821.3
950.854	4890.45
951.16	4805.93
951.465	4808.42
951.77	4785.14
952.075	4727.06
952.38	4707.63
952.685	4767.52
952.99	4681.19
953.294	4640.74
953.599	4656.56
953.904	4644.58
954.209	4650.46
954.513	4629.89
954.818	4554.19
955.122	4576.11
955.426	4524.36
955.731	4509.9
956.035	4511.7
956.339	4507.64
956.643	4441.42
956.948	4462.21
957.252	4463.34
957.556	4411.59
957.86	4393.74
958.163	4328.88
958.467	4365.27
958.771	4329.79
959.075	4323.69
959.378	4301.99
959.682	4328.88
959.985	4231.48
960.289	4254.31
960.592	4165.95
960.896	4241.65
961.199	4170.02
961.502	4165.05
961.805	4122.34
962.108	4130.92
962.411	4129.79
962.714	4046.86
963.017	4085.5
963.32	4103.35
963.623	4065.39
963.926	4044.37
964.228	3995.56
964.531	3992.62
964.833	3935.22
965.136	3932.06
965.438	3934.77
965.741	3879.63
966.043	3866.3
966.345	3850.48
966.648	3829.24
966.95	3879.63
967.252	3822.23
967.554	3789.24
967.856	3795.56
968.158	3716.24
968.46	3791.72
968.761	3718.73
969.063	3683.25
969.365	3761.89
969.666	3727.32
969.968	3682.57
970.269	3670.6
970.571	3682.8
970.872	3650.48
971.174	3619.07
971.475	3626.98
971.776	3569.13
972.077	3586.08
972.378	3624.5
972.679	3538.4
972.98	3523.93
973.281	3475.12
973.582	3498.62
973.883	3486.42
974.183	3489.58
974.484	3470.37
974.785	3481.45
975.085	3431.73
975.386	3384.5
975.686	3414.78
975.986	3335.69
976.287	3382.24
976.587	3322.81
976.887	3360.55
977.187	3338.63
977.487	3316.25
977.787	3251.62
978.087	3253.21
978.387	3265.18
978.687	3225.41
978.987	3256.82
979.286	3216.37
979.586	3199.87
979.885	3196.71
980.185	3179.76
980.484	3137.73
980.784	3119.2
981.083	3118.52
981.382	3065.87
981.682	3076.26
981.981	3052.76
982.28	3046.21
982.579	3088.69
982.878	3061.8
983.177	3038.97
983.475	2967.34
983.774	3012.31
984.073	2992.87
984.372	2967.79
984.67	2956.94
984.969	2982.25
985.267	2964.63
985.566	2924.4
985.864	2930.28
986.162	2880.33
986.461	2874.68
986.759	2844.85
987.057	2838.3
987.355	2852.76
987.653	2836.49
987.951	2788.36
988.249	2791.52
988.547	2817.96
988.844	2769.15
989.142	2759.21
989.44	2765.31
989.737	2713.33
990.035	2732.99
990.332	2748.36
990.63	2680.34
990.927	2691.64
991.224	2721.69
991.521	2634.46
991.819	2644.63
992.116	2643.73
992.413	2598.99
992.71	2621.36
993.006	2582.26
993.303	2568.25
993.6	2568.25
993.897	2552.21
994.193	2559.44
994.49	2535.48
994.787	2540.91
995.083	2503.62
995.379	2498.42
995.676	2494.36
995.972	2497.97
996.268	2476.28
996.565	2443.06
996.861	2459.55
997.157	2445.32
997.453	2416.62
997.749	2397.86
998.044	2406.67
998.34	2368.93
998.636	2368.71
998.932	2373.23
999.227	2334.36
999.523	2317.41
999.818	2310.18
1000.114	2315.38
1000.409	2259.79
1000.704	2276.96
1001	2287.81
1001.295	2264.98
1001.59	2255.27
1001.885	2257.75
1002.18	2240.12
1002.475	2246.68
1002.77	2212.1
1003.065	2185.21
1003.359	2202.16
1003.654	2180.69
1003.949	2168.04
1004.243	2148.6
1004.538	2161.26
1004.832	2133.23
1005.127	2144.99
1005.421	2089.17
1005.715	2080.35
1006.009	2072.22
1006.304	2082.61
1006.598	2028.6
1006.892	2053.69
1007.186	2013.01
1007.48	2004.2
1007.773	1996.29
1008.067	1985.22
1008.361	1970.98
1008.655	1927.82
1008.948	1929.17
1009.242	1916.52
1009.535	1926.69
1009.829	1910.42
1010.122	1902.73
1010.415	1908.83
1010.708	1892.34
1011.001	1874.03
1011.295	1863.19
1011.588	1841.04
1011.881	1828.16
1012.173	1822.51
1012.466	1834.26
1012.759	1785.22
1013.052	1809.63
1013.344	1752
1013.637	1777.31
1013.93	1770.08
1014.222	1746.13
1014.514	1770.31
1014.807	1736.41
1015.099	1721.95
1015.391	1734.38
1015.683	1670.87
1015.976	1707.94
1016.268	1712.45
1016.56	1632.91
1016.851	1648.73
1017.143	1622.74
1017.435	1655.96
1017.727	1645.79
1018.018	1613.02
1018.31	1593.14
1018.602	1617.32
1018.893	1604.21
1019.185	1596.98
1019.476	1567.37
1019.767	1576.64
1020.058	1555.17
1020.35	1504.1
1020.641	1525.12
1020.932	1542.06
1021.223	1503.65
1021.514	1495.51
1021.804	1462.52
1022.095	1477.21
1022.386	1457.32
1022.677	1476.98
1022.967	1432.46
1023.258	1428.39
1023.548	1431.78
1023.839	1414.38
1024.129	1450.31
1024.419	1396.98
1024.709	1396.76
1025	1378.23
1025.29	1377.55
1025.58	1365.35
1025.87	1374.84
1026.16	1353.37
1026.449	1373.03
1026.739	1333.93
1027.029	1312.69
1027.319	1293.26
1027.608	1311.34
1027.898	1315.18
1028.187	1281.51
1028.477	1294.39
1028.766	1297.55
1029.055	1248.96
1029.344	1252.58
1029.634	1235.86
1029.923	1254.84
1030.212	1255.74
1030.501	1246.48
1030.79	1215.97
1031.078	1212.81
1031.367	1191.79
1031.656	1182.53
1031.945	1182.75
1032.233	1175.97
1032.522	1175.97
1032.81	1169.42
1033.099	1162.86
1033.387	1144.11
1033.675	1134.84
1033.963	1142.75
1034.251	1132.58
1034.54	1126.48
1034.828	1086.03
1035.116	1116.99
1035.403	1091.68
1035.691	1095.97
1035.979	1063.88
1036.267	1074.96
1036.554	1038.35
1036.842	1067.05
1037.129	1078.12
1037.417	1032.02
1037.704	1057.33
1037.992	1040.61
1038.279	1051.68
1038.566	1017.56
1038.853	1017.56
1039.14	1017.56
