Data from hue_220_FLMS001491_00065.txt Node
Date: Tue Feb 07 16:39:47 GMT 2017
User: dcchb
Spectrometer: FLMS00149
Trigger mode: 0
Integration Time (sec): 2.000000E-2
Scans to average: 10
Electric dark correction enabled: true
Nonlinearity correction enabled: false
Boxcar width: 0
XAxis mode: Wavelengths
Number of Pixels in Spectrum: 2048
>>>>>Begin Spectral Data<<<<<
341.393	-22.47
341.776	-22.47
342.16	-22.47
342.543	-58.18
342.927	-64.28
343.31	-69.7
343.693	-67.22
344.077	-64.05
344.46	-41.91
344.843	-57.72
345.226	-44.17
345.61	-17.5
345.993	-23.15
346.376	22.5
346.759	12.1
347.142	9.84
347.525	39.45
347.908	57.53
348.291	76.06
348.674	68.6
349.057	99.33
349.44	114.47
349.823	122.38
350.206	163.74
350.588	184.3
350.971	214.36
351.354	209.39
351.737	225.66
352.119	235.6
352.502	256.62
352.884	262.49
353.267	290.29
353.65	275.83
354.032	295.26
354.414	309.95
354.797	314.92
355.179	299.55
355.562	321.47
355.944	321.7
356.326	310.4
356.709	304.53
357.091	314.02
357.473	317.18
357.855	321.47
358.238	331.87
358.62	333.45
359.002	361.02
359.384	329.38
359.766	338.65
360.148	341.59
360.53	342.27
360.912	340.68
361.294	321.7
361.676	327.35
362.057	308.14
362.439	315.83
362.821	303.17
363.203	328.48
363.584	311.31
363.966	317.18
364.348	296.16
364.729	313.34
365.111	294.13
365.493	314.24
365.874	307.92
366.256	305.88
366.637	302.72
367.019	308.37
367.4	313.11
367.781	318.54
368.163	304.98
368.544	309.27
368.925	295.03
369.306	336.62
369.688	297.07
370.069	304.75
370.45	325.54
370.831	321.93
371.212	293.23
371.593	304.3
371.974	325.99
372.355	305.2
372.736	312.66
373.117	315.37
373.498	313.34
373.879	303.85
374.26	291.19
374.641	289.39
375.021	295.03
375.402	295.26
375.783	316.5
376.163	327.35
376.544	331.19
376.925	324.41
377.305	301.59
377.686	336.84
378.066	313.34
378.447	323.06
378.827	322.15
379.208	304.75
379.588	336.16
379.968	314.7
380.349	311.98
380.729	315.37
381.109	341.59
381.489	333
381.87	315.6
382.25	312.66
382.63	328.48
383.01	335.03
383.39	339.33
383.77	320.12
384.15	307.46
384.53	341.59
384.91	348.82
385.29	338.42
385.67	330.51
386.049	333.9
386.429	337.07
386.809	333
387.189	347.01
387.568	344.98
387.948	322.38
388.328	337.07
388.707	358.54
389.087	333.23
389.466	353.79
389.846	333
390.225	366.45
390.605	350.85
390.984	380.68
391.363	346.78
391.743	363.51
392.122	377.74
392.501	356.73
392.881	364.86
393.26	365.09
393.639	371.42
394.018	362.83
394.397	367.12
394.776	358.54
395.155	359.21
395.534	391.08
395.913	397.18
396.292	389.04
396.671	386.11
397.05	377.07
397.429	375.71
397.808	384.75
398.186	398.08
398.565	383.17
398.944	404.41
399.323	389.5
399.701	389.5
400.08	401.47
400.458	403.96
400.837	411.42
401.215	401.92
401.594	400.57
401.972	412.55
402.351	387.24
402.729	408.93
403.107	420.23
403.486	423.17
403.864	407.35
404.242	421.13
404.62	438.08
404.999	437.63
405.377	433.79
405.755	460
406.133	461.58
406.511	447.8
406.889	470.4
407.267	439.21
407.645	448.93
408.023	447.57
408.401	491.64
408.779	455.26
409.156	492.54
409.534	481.47
409.912	495.71
410.29	486.67
410.667	485.31
411.045	498.87
411.422	528.47
411.8	535.48
412.178	520.11
412.555	547.01
412.933	536.16
413.31	554.24
413.687	555.14
414.065	574.8
414.442	560.56
414.819	585.87
415.197	580
415.574	610.51
415.951	605.53
416.328	610.96
416.705	602.6
417.082	636.49
417.46	633.56
417.837	624.07
418.214	669.26
418.591	642.82
418.967	675.59
419.344	664.97
419.721	679.21
420.098	683.05
420.475	704.74
420.852	741.35
421.228	704.06
421.605	707.23
421.982	741.35
422.358	755.59
422.735	768.02
423.111	778.86
423.488	802.14
423.864	810.73
424.241	832.42
424.617	806.21
424.994	838.3
425.37	845.53
425.746	850.73
426.123	887.11
426.499	849.6
426.875	878.52
427.251	912.65
427.627	933.66
428.003	923.27
428.379	940.89
428.756	923.04
429.132	941.8
429.507	979.76
429.883	992.87
430.259	1009.37
430.635	989.48
431.011	1035.81
431.387	1048.24
431.763	1052.3
432.138	1071.51
432.514	1080.1
432.89	1092.08
433.265	1126.43
433.641	1157.61
434.016	1152.87
434.392	1163.49
434.767	1188.34
435.143	1196.25
435.518	1226.99
435.894	1261.56
436.269	1273.77
436.644	1296.14
437.02	1315.12
437.395	1300.43
437.77	1344.72
438.145	1379.3
438.52	1386.53
438.895	1415.46
439.271	1443.25
439.646	1475.34
440.021	1476.25
440.395	1522.8
440.77	1509.47
441.145	1522.8
441.52	1532.52
441.895	1593.08
442.27	1590.82
442.645	1575.23
443.019	1585.17
443.394	1603.25
443.769	1638.73
444.143	1652.97
444.518	1674.89
444.892	1668.33
445.267	1704.72
445.641	1717.6
446.016	1739.06
446.39	1738.84
446.764	1763.02
447.139	1756.24
447.513	1778.84
447.887	1782.45
448.262	1805.05
448.636	1819.29
449.01	1798.72
449.384	1876.69
449.758	1856.58
450.132	1885.28
450.506	1879.17
450.88	1886.41
451.254	1886.41
451.628	1942.45
452.002	1912.62
452.376	1976.12
452.75	2002.11
453.123	1983.13
453.497	2004.82
453.871	2054.08
454.244	2051.37
454.618	2082.11
454.992	2084.82
455.365	2100.41
455.739	2177.92
456.112	2206.62
456.486	2175.44
456.859	2218.6
457.232	2256.79
457.606	2264.7
457.979	2285.94
458.352	2346.51
458.725	2338.37
459.099	2359.84
459.472	2387.18
459.845	2380.63
460.218	2442.55
460.591	2437.35
460.964	2444.81
461.337	2499.5
461.71	2568.42
462.083	2598.93
462.456	2569.55
462.829	2577.69
463.201	2634.63
463.574	2643.45
463.947	2664.01
464.32	2785.36
464.692	2732.26
465.065	2758.02
465.438	2772.48
465.81	2818.81
466.183	2846.15
466.555	2933.61
466.928	2932.48
467.3	2940.84
467.672	3009.77
468.045	3038.01
468.417	3007.96
468.789	3061.29
469.161	3071.68
469.534	3111.91
469.906	3200.49
470.278	3208.18
470.65	3247.5
471.022	3284.33
471.394	3363.65
471.766	3348.06
472.138	3406.14
472.51	3469.64
472.882	3499.92
473.253	3523.2
473.625	3598.45
473.997	3652.69
474.369	3656.53
474.74	3687.04
475.112	3763.42
475.484	3855.17
475.855	3824.43
476.227	3903.53
476.598	4007.93
476.97	3993.24
477.341	4075.73
477.713	4167.7
478.084	4173.12
478.455	4308.71
478.827	4259
479.198	4367.24
479.569	4387.36
479.94	4501.03
480.311	4539.44
480.682	4620.34
481.053	4723.17
481.424	4744.41
481.795	4862.37
482.166	4846.55
482.537	4909.83
482.908	4989.37
483.279	5056.72
483.65	5077.73
484.021	5190.5
484.391	5247.9
484.762	5310.72
485.133	5357.95
485.503	5376.71
485.874	5479.53
486.244	5523.15
486.615	5606.08
486.985	5606.31
487.356	5708.68
487.726	5715.68
488.097	5883.59
488.467	5885.62
488.837	5978.05
489.207	6037.71
489.578	6109.57
489.948	6140.76
490.318	6279.28
490.688	6261.21
491.058	6288.32
491.428	6358.38
491.798	6447.64
492.168	6557.24
492.538	6554.53
492.908	6623.46
493.278	6683.57
493.648	6700.52
494.017	6754.53
494.387	6760.4
494.757	6839.04
495.126	6884.69
495.496	6892.38
495.866	6962.43
496.235	6986.84
496.605	7066.38
496.974	7105.7
497.344	7104.57
497.713	7136.89
498.082	7118.13
498.452	7185.25
498.821	7237.22
499.19	7281.97
499.559	7316.09
499.928	7331.23
500.298	7370.78
500.667	7421.4
501.036	7421.4
501.405	7389.99
501.774	7456.65
502.143	7505.92
502.512	7498.69
502.88	7552.24
503.249	7545.69
503.618	7530.78
503.987	7665.46
504.356	7638.8
504.724	7711.11
505.093	7665.91
505.462	7645.35
505.83	7735.52
506.199	7721.28
506.567	7808.06
506.936	7761.28
507.304	7874.95
507.672	7836.53
508.041	7934.38
508.409	7900.71
508.777	7942.52
509.145	7952.23
509.514	8004.66
509.882	7976.41
510.25	7957.43
510.618	7999.24
510.986	8010.99
511.354	8017.09
511.722	8073.59
512.09	8155.62
512.458	8106.58
512.826	8089.86
513.193	8150.87
513.561	8106.35
513.929	8150.42
514.297	8199.46
514.664	8199.23
515.032	8210.98
515.4	8235.39
515.767	8255.73
516.135	8262.96
516.502	8206.47
516.869	8287.59
517.237	8293.47
517.604	8177.09
517.972	8256.18
518.339	8330.53
518.706	8273.81
519.073	8282.17
519.44	8269.74
519.808	8329.63
520.175	8257.09
520.542	8316.29
520.909	8371.88
521.276	8293.47
521.643	8335.5
522.009	8358.78
522.376	8364.43
522.743	8387.93
523.11	8399.91
523.477	8446.23
523.843	8453.24
524.21	8477.64
524.577	8476.74
524.943	8499.56
525.31	8445.78
525.676	8520.13
526.043	8524.42
526.409	8503.41
526.776	8579.34
527.142	8475.61
527.508	8541.6
527.874	8514.93
528.241	8573.69
528.607	8485.33
528.973	8686.68
529.339	8540.69
529.705	8527.13
530.071	8502.05
530.437	8545.89
530.803	8539.56
531.169	8575.27
531.535	8501.6
531.901	8526.23
532.267	8446.46
532.632	8574.14
532.998	8502.28
533.364	8513.12
533.73	8447.36
534.095	8478.55
534.461	8481.49
534.826	8468.61
535.192	8500.24
535.557	8465.22
535.923	8454.82
536.288	8434.26
536.653	8476.06
537.019	8348.83
537.384	8338.89
537.749	8344.99
538.114	8283.53
538.479	8282.62
538.845	8272.68
539.21	8219.57
539.575	8148.61
539.94	8192.68
540.305	8183.41
540.67	8167.82
541.034	8158.56
541.399	8163.3
541.764	8102.74
542.129	8105.9
542.494	8038.33
542.858	8081.27
543.223	8095.73
543.587	8016.64
543.952	7979.35
544.316	7939.81
544.681	7896.42
545.045	7873.14
545.41	7903.65
545.774	7820.94
546.138	7855.51
546.503	7822.97
546.867	7819.13
547.231	7744.78
547.595	7771
547.959	7753.6
548.324	7738.68
548.688	7730.32
549.052	7738.45
549.416	7647.61
549.779	7647.84
550.143	7592.92
550.507	7598.8
550.871	7622.3
551.235	7586.59
551.599	7593.15
551.962	7500.72
552.326	7547.95
552.689	7510.44
553.053	7480.61
553.417	7438.12
553.78	7528.97
554.143	7450.33
554.507	7438.8
554.87	7368.97
555.234	7450.78
555.597	7366.26
555.96	7339.6
556.323	7346.6
556.686	7380.72
557.05	7324
557.413	7286.04
557.776	7306.83
558.139	7341.85
558.502	7330.1
558.865	7276.09
559.228	7353.61
559.59	7355.19
559.953	7254.17
560.316	7331.23
560.679	7335.98
561.041	7271.12
561.404	7273.61
561.767	7333.27
562.129	7269.09
562.492	7280.16
562.854	7246.04
563.217	7235.19
563.579	7258.92
563.941	7300.73
564.304	7321.74
564.666	7326.04
565.028	7335.75
565.39	7328.75
565.753	7324.91
566.115	7338.01
566.477	7357.45
566.839	7320.61
567.201	7360.84
567.563	7395.86
567.925	7381.85
568.287	7398.58
568.648	7381.85
569.01	7389.09
569.372	7448.29
569.734	7368.07
570.095	7405.81
570.457	7450.55
570.819	7460.27
571.18	7409.65
571.542	7406.94
571.903	7413.72
572.265	7523.77
572.626	7514.73
572.987	7490.33
573.349	7465.47
573.71	7554.96
574.071	7564.67
574.432	7544.11
574.794	7599.25
575.155	7611.9
575.516	7538.01
575.877	7638.12
576.238	7614.16
576.599	7680.83
576.96	7706.59
577.32	7684.44
577.681	7674.28
578.042	7670.43
578.403	7719.25
578.763	7688.51
579.124	7693.71
579.485	7752.01
579.845	7757.66
580.206	7723.54
580.566	7799.92
580.927	7770.09
581.287	7774.39
581.648	7838.11
582.008	7804.44
582.368	7782.97
582.728	7809.19
583.089	7849.64
583.449	7836.53
583.809	7827.72
584.169	7848.06
584.529	7878.79
584.889	7900.71
585.249	7903.42
585.609	7854.61
585.969	7887.83
586.329	7945.68
586.688	7965.79
587.048	7954.49
587.408	7934.61
587.768	7961.95
588.127	7977.77
588.487	7971.44
588.846	8067.03
589.206	8046.7
589.565	8028.62
589.925	8112
590.284	8121.5
590.643	8159.91
591.003	8080.82
591.362	8147.03
591.721	8120.14
592.08	8118.11
592.44	8128.05
592.799	8180.93
593.158	8172.34
593.517	8173.25
593.876	8194.04
594.235	8165.56
594.593	8151.33
594.952	8182.28
595.311	8163.3
595.67	8226.13
596.029	8241.49
596.387	8233.81
596.746	8242.85
597.104	8307.03
597.463	8236.07
597.822	8294.82
598.18	8219.35
598.538	8293.47
598.897	8301.83
599.255	8234.26
599.613	8291.89
599.972	8296.18
600.33	8318.1
600.688	8281.27
601.046	8325.78
601.404	8301.38
601.762	8297.76
602.12	8394.03
602.478	8333.24
602.836	8394.48
603.194	8321.72
603.552	8309.74
603.91	8329.4
604.268	8348.38
604.625	8298.21
604.983	8375.5
605.341	8343.86
605.698	8357.87
606.056	8346.12
606.413	8383.64
606.771	8358.1
607.128	8410.3
607.485	8432.67
607.843	8386.12
608.2	8416.85
608.557	8423.63
608.914	8498.21
609.272	8489.85
609.629	8443.97
609.986	8537.3
610.343	8554.25
610.7	8576.17
611.057	8476.29
611.414	8457.31
611.771	8483.52
612.127	8522.39
612.484	8565.1
612.841	8576.17
613.198	8530.52
613.554	8542.28
613.911	8586.57
614.267	8546.34
614.624	8534.37
614.98	8576.17
615.337	8609.39
615.693	8624.53
616.05	8618.43
616.406	8614.14
616.762	8667.92
617.118	8630.63
617.475	8665.66
617.831	8639.22
618.187	8587.25
618.543	8648.26
618.899	8732.1
619.255	8683.97
619.611	8715.83
619.967	8692.78
620.323	8716.06
620.678	8668.37
621.034	8663.4
621.39	8693.91
621.746	8680.12
622.101	8751.54
622.457	8754.47
622.812	8737.07
623.168	8703.4
623.523	8704.76
623.879	8667.7
624.234	8651.43
624.589	8717.64
624.945	8709.5
625.3	8703.18
625.655	8658.66
626.01	8727.58
626.365	8737.75
626.72	8697.07
627.075	8699.56
627.43	8617.08
627.785	8682.84
628.14	8675.15
628.495	8694.14
628.85	8615.49
629.205	8655.72
629.559	8698.2
629.914	8679.22
630.269	8670.18
630.623	8638.54
630.978	8598.09
631.332	8657.98
631.687	8611.65
632.041	8607.81
632.396	8593.57
632.75	8544.31
633.104	8570.07
633.459	8589.96
633.813	8531.43
634.167	8585.44
634.521	8509.28
634.875	8554.93
635.229	8507.93
635.583	8467.48
635.937	8464.99
636.291	8461.6
636.645	8456.85
636.999	8400.81
637.352	8488.94
637.706	8443.75
638.06	8497.08
638.413	8405.33
638.767	8406.46
639.121	8422.5
639.474	8407.36
639.828	8407.36
640.181	8384.31
640.534	8401.26
640.888	8415.05
641.241	8367.36
641.594	8360.36
641.947	8403.97
642.301	8372.11
642.654	8423.41
643.007	8416.4
643.36	8336.86
643.713	8400.36
644.066	8335.05
644.419	8364.88
644.771	8221.83
645.124	8175.51
645.477	8156.3
645.83	8168.5
646.182	8081.27
646.535	8121.27
646.888	8139.12
647.24	8060.71
647.593	8083.53
647.945	8056.19
648.298	8032.68
648.65	8109.74
649.002	8046.7
649.355	8118.11
649.707	8057.54
650.059	8068.39
650.411	8232.9
650.763	8168.73
651.115	8290.08
651.467	8269.29
651.819	8265.22
652.171	8230.42
652.523	8139.12
652.875	8161.72
653.227	8242.4
653.578	8265.22
653.93	8228.84
654.282	8228.84
654.633	8179.35
654.985	8164.66
655.337	8222.06
655.688	8273.58
656.039	8225
656.391	8140.03
656.742	8187.48
657.094	8229.06
657.445	8232
657.796	8227.26
658.147	8248.5
658.498	8225
658.849	8247.82
659.2	8274.94
659.551	8264.99
659.902	8278.78
660.253	8307.71
660.604	8333.92
660.955	8221.15
661.306	8267.48
661.656	8315.16
662.007	8220.93
662.358	8314.48
662.708	8239.91
663.059	8311.32
663.409	8232.9
663.76	8259.57
664.11	8278.1
664.461	8350.87
664.811	8281.04
665.161	8312.45
665.511	8328.04
665.862	8300.93
666.212	8324.2
666.562	8355.39
666.912	8364.88
667.262	8356.74
667.612	8268.16
667.962	8341.83
668.312	8352.68
668.662	8342.28
669.011	8378.66
669.361	8358.55
669.711	8294.82
670.06	8375.5
670.41	8305.22
670.76	8282.85
671.109	8316.97
671.459	8269.51
671.808	8284.43
672.157	8326.69
672.507	8295.73
672.856	8289.63
673.205	8247.82
673.554	8307.71
673.904	8278.78
674.253	8245.11
674.602	8207.14
674.951	8161.72
675.3	8134.6
675.649	8218.22
675.998	8215.5
676.346	8220.48
676.695	8215.73
677.044	8169.86
677.393	8184.32
677.741	8166.69
678.09	8178.44
678.438	8141.61
678.787	8152
679.135	8131.44
679.484	8070.2
679.832	8136.64
680.181	8069.07
680.529	8042.63
680.877	8081.95
681.225	8009.63
681.573	8105.22
681.922	7975.06
682.27	8024.1
682.618	7991.78
682.966	7973.93
683.314	7940.94
683.661	8003.98
684.009	7964.66
684.357	7911.11
684.705	7880.15
685.053	7864.78
685.4	7864.1
685.748	7864.78
686.095	7852.35
686.443	7772.8
686.79	7801.5
687.138	7757.21
687.485	7780.71
687.832	7755.4
688.18	7747.72
688.527	7695.74
688.874	7643.99
689.221	7691
689.568	7600.61
689.915	7629.76
690.262	7626.14
690.609	7562.19
690.956	7549.76
691.303	7553.83
691.65	7537.33
691.997	7519.03
692.344	7495.98
692.69	7462.53
693.037	7455.75
693.383	7387.96
693.73	7378.69
694.077	7353.61
694.423	7348.18
694.769	7277.9
695.116	7250.78
695.462	7253.72
695.808	7264.12
696.155	7208.53
696.501	7173.95
696.847	7168.98
697.193	7174.85
697.539	7134.18
697.885	7079.94
698.231	7066.61
698.577	7075.65
698.923	7039.49
699.269	6974.86
699.614	6892.15
699.96	6930.11
700.306	6928.08
700.651	6901.19
700.997	6855.54
701.342	6870.23
701.688	6868.65
702.033	6765.15
702.379	6723.57
702.724	6749.55
703.069	6802.66
703.415	6679.05
703.76	6711.14
704.105	6617.58
704.45	6641.99
704.795	6610.35
705.14	6589.78
705.485	6592.5
705.83	6519.96
706.175	6550.69
706.52	6512.27
706.865	6508.43
707.209	6456.45
707.554	6439.28
707.899	6473.86
708.243	6404.03
708.588	6396.34
708.932	6343.92
709.277	6377.81
709.621	6379.62
709.966	6264.6
710.31	6318.38
710.654	6274.31
710.998	6256.01
711.342	6222.34
711.687	6179.63
712.031	6193.86
712.375	6195.67
712.719	6176.46
713.063	6198.16
713.407	6233.18
713.75	6159.29
714.094	6163.81
714.438	6169.23
714.782	6129.91
715.125	6084.26
715.469	6143.47
715.812	6121.55
716.156	6083.13
716.499	6045.39
716.843	6067.76
717.186	6062.34
717.53	6066.18
717.873	6108.67
718.216	6006.3
718.559	6018.95
718.902	5978.95
719.246	6020.53
719.589	5983.47
719.932	5994.55
720.275	5981.89
720.617	5973.53
720.96	5921.33
721.303	5964.72
721.646	5959.74
721.989	5914.77
722.331	5920.42
722.674	5953.42
723.016	5916.81
723.359	5948.22
723.701	5952.29
724.044	5884.27
724.386	5897.83
724.729	5888.79
725.071	5906.41
725.413	5818.51
725.755	5866.19
726.097	5853.31
726.439	5819.64
726.782	5808.11
727.124	5876.36
727.465	5818.96
727.807	5890.37
728.149	5835.45
728.491	5798.39
728.833	5868.9
729.175	5832.06
729.516	5836.13
729.858	5792.52
730.199	5807.43
730.541	5814.89
730.882	5854.66
731.224	5891.72
731.565	5768.56
731.906	5820.31
732.248	5852.4
732.589	5846.75
732.93	5817.15
733.271	5824.61
733.612	5763.82
733.953	5864.15
734.294	5836.58
734.635	5868.9
734.976	5851.95
735.317	5820.09
735.658	5851.05
735.999	5785.96
736.339	5845.62
736.68	5854.66
737.021	5795.45
737.361	5791.16
737.702	5878.16
738.042	5846.3
738.383	5852.4
738.723	5898.5
739.063	5855.57
739.404	5915.45
739.744	5898.28
740.084	5933.08
740.424	5920.42
740.764	5910.25
741.104	5989.35
741.444	5914.1
741.784	5913.87
742.124	6050.82
742.464	5996.35
742.804	5961.33
743.143	6047.65
743.483	6067.31
743.823	6028.67
744.162	6066.41
744.502	6070.02
744.841	6123.58
745.181	6167.65
745.52	6141.21
745.86	6252.39
746.199	6240.42
746.538	6258.72
746.877	6330.58
747.216	6331.03
747.556	6389.79
747.895	6491.26
748.234	6509.11
748.573	6528.09
748.911	6592.04
749.25	6617.35
749.589	6657.58
749.928	6728.99
750.267	6792.72
750.605	6925.59
750.944	6916.56
751.283	6992.49
751.621	7155.87
751.96	7124.46
752.298	7256.43
752.636	7281.74
752.975	7404.45
753.313	7461.17
753.651	7630.21
753.989	7671.34
754.327	7821.84
754.666	7896.19
755.004	8023.87
755.342	8136.64
755.679	8259.34
756.017	8412.11
756.355	8499.34
756.693	8616.62
757.031	8816.84
757.368	8872.21
757.706	8990.17
758.044	9099.1
758.381	9372.08
758.719	9505.41
759.056	9660.66
759.394	9817.72
759.731	9834.44
760.068	10043.48
760.405	10200.31
760.743	10343.81
761.08	10517.36
761.417	10654.99
761.754	10875.77
762.091	11027.86
762.428	11222.43
762.765	11318.93
763.102	11539.03
763.438	11603.89
763.775	11848.63
764.112	11982.86
764.449	12206.59
764.785	12338.33
765.122	12530.65
765.458	12648.16
765.795	12761.83
766.131	12950.3
766.467	13007.02
766.804	13207.46
767.14	13337.18
767.476	13535.59
767.812	13674.12
768.148	13873.21
768.485	13899.65
768.821	13980.78
769.157	14153.43
769.492	14334.89
769.828	14456.92
770.164	14556.35
770.5	14595.45
770.836	14739.17
771.171	14849.45
771.507	14952.5
771.842	15030.01
772.178	15202.21
772.513	15244.02
772.849	15476.78
773.184	15404.02
773.519	15547.51
773.855	15624.12
774.19	15725.82
774.525	15723.56
774.86	15852.14
775.195	15958.8
775.53	16020.5
775.865	15982.76
776.2	16082.19
776.535	16043.1
776.87	16121.74
777.205	16222.3
777.539	16239.93
777.874	16359.7
778.209	16353.82
778.543	16265.69
778.878	16371.22
779.212	16485.8
779.547	16430.66
779.881	16540.26
780.215	16453.25
780.55	16553.14
780.884	16530.09
781.218	16528.05
781.552	16755.84
781.886	16560.82
782.22	16638.11
782.554	16641.27
782.888	16397.44
783.222	16526.25
783.556	16561.5
783.889	16546.13
784.223	16521.05
784.557	16425.91
784.89	16555.4
785.224	16545
785.557	16511.78
785.891	16419.13
786.224	16512.01
786.558	16618.45
786.891	16487.83
787.224	16450.32
787.557	16467.94
787.891	16506.36
788.224	16499.81
788.557	16544.55
788.89	16464.1
789.223	16469.3
789.556	16370.09
789.888	16359.7
790.221	16331.22
790.554	16279.25
790.887	16361.96
791.219	16204.9
791.552	16260.26
791.884	16213.03
792.217	16270.66
792.549	16263.65
792.882	16141.17
793.214	16166.71
793.546	16162.87
793.879	16138.01
794.211	16079.25
794.543	16013.04
794.875	16100.95
795.207	16008.29
795.539	16056.43
795.871	16063.21
796.203	15876.09
796.535	15797.45
796.867	15746.15
797.198	15690.11
797.53	15850.78
797.862	15638.13
798.193	15780.5
798.525	15652.82
798.856	15734.85
799.188	15510.45
799.519	15522.2
799.85	15386.16
800.182	15461.87
800.513	15427.07
800.844	15325.83
801.175	15456.9
801.506	15435.43
801.837	15366.28
802.168	15279.73
802.499	15376.9
802.83	15283.79
803.161	15173.29
803.491	15169.67
803.822	15142.33
804.153	15103.68
804.483	15069.79
804.814	15003.12
805.145	14945.27
805.475	14985.5
805.805	14914.09
806.136	14908.66
806.466	14894.42
806.796	14938.49
807.126	14799.51
807.457	14796.35
807.787	14755.22
808.117	14680.19
808.447	14635.67
808.777	14712.28
809.107	14581.66
809.436	14568.78
809.766	14617.37
810.096	14596.13
810.426	14467.77
810.755	14527.43
811.085	14452.63
811.414	14427.32
811.744	14388.9
812.073	14329.24
812.403	14342.57
812.732	14257.15
813.061	14220.32
813.39	14307.55
813.719	14197.04
814.049	14242.46
814.378	14230.94
814.707	14113.65
815.036	14215.12
815.365	14007.89
815.693	13976.48
816.022	14011.06
816.351	13952.75
816.68	13844.28
817.008	14022.36
817.337	13868.24
817.665	13669.6
817.994	13819.42
818.322	13793.89
818.651	13762.25
818.979	13724.74
819.307	13879.99
819.636	13813.32
819.964	13689.03
820.292	13820.33
820.62	13800.22
820.948	13697.39
821.276	13709.15
821.604	13714.79
821.932	13705.3
822.259	13683.16
822.587	13701.69
822.915	13642.93
823.243	13738.75
823.57	13655.81
823.898	13728.81
824.225	13595.25
824.553	13698.3
824.88	13661.01
825.207	13625.53
825.535	13576.95
825.862	13743.95
826.189	13612.65
826.516	13642.03
826.843	13734
827.17	13695.59
827.497	13700.11
827.824	13699.65
828.151	13791.18
828.478	13750.73
828.805	13739.43
829.131	13710.73
829.458	13706.21
829.785	13639.09
830.111	13631.41
830.438	13766.09
830.764	13677.73
831.09	13719.99
831.417	13654.23
831.743	13716.83
832.069	13755.7
832.395	13608.36
832.722	13673.21
833.048	13690.84
833.374	13684.97
833.7	13602.48
834.026	13628.7
834.351	13712.53
834.677	13611.75
835.003	13668.92
835.329	13524.52
835.654	13642.71
835.98	13501.24
836.306	13536.95
836.631	13576.49
836.956	13511.18
837.282	13604.97
837.607	13485.2
837.932	13485.2
838.258	13548.7
838.583	13458.98
838.908	13411.53
839.233	13392.32
839.558	13339.66
839.883	13262.83
840.208	13195.49
840.533	13262.83
840.858	13263.28
841.182	13306.22
841.507	13209.27
841.832	13222.6
842.156	13032.55
842.481	13170.85
842.805	13073.46
843.13	13059.22
843.454	13118.65
843.778	12983.51
844.103	12985.1
844.427	12913.46
844.751	13031.65
845.075	12831.2
845.399	12806.34
845.723	12754.14
846.047	12839.56
846.371	12807.02
846.695	12694.03
847.019	12622.62
847.343	12591.21
847.666	12528.61
847.99	12459.91
848.313	12459.91
848.637	12368.84
848.96	12383.08
849.284	12383.3
849.607	12198.68
849.931	12209.98
850.254	12028.74
850.577	12023.99
850.9	11996.65
851.223	12042.3
851.546	11884.11
851.869	11803.88
852.192	11852.24
852.515	11776.54
852.838	11752.13
853.161	11719.82
853.483	11660.61
853.806	11551.46
854.129	11583.1
854.451	11562.99
854.774	11524.8
855.096	11503.1
855.419	11459.94
855.741	11427.85
856.063	11301.52
856.385	11353.27
856.708	11251.13
857.03	11177.23
857.352	11262.43
857.674	11261.07
857.996	11175.43
858.318	11113.96
858.64	11200.06
858.961	11128.2
859.283	11099.27
859.605	11028.09
859.926	11049.55
860.248	11000.06
860.57	10913.96
860.891	10972.04
861.212	10869.67
861.534	10819.28
861.855	10779.5
862.176	10840.97
862.498	10801.65
862.819	10849.33
863.14	10783.57
863.461	10729.79
863.782	10681.43
864.103	10770.92
864.424	10652.95
864.745	10693.63
865.065	10649.79
865.386	10622.45
865.707	10670.58
866.027	10596.68
866.348	10555.1
866.668	10555.56
866.989	10492.05
867.309	10479.63
867.63	10545.61
867.95	10533.86
868.27	10455.22
868.59	10521.66
868.91	10407.54
869.23	10392.85
869.55	10390.81
869.87	10415.9
870.19	10369.57
870.51	10362.79
870.83	10419.97
871.15	10274.21
871.469	10306.75
871.789	10313.53
872.109	10238.95
872.428	10218.39
872.748	10252.06
873.067	10235.56
873.386	10206.86
873.706	10209.35
874.025	10157.83
874.344	10094.78
874.663	10187.43
874.982	10111.73
875.301	10125.06
875.62	10106.08
875.939	10084.16
876.258	10054.1
876.577	10024.5
876.896	9994.21
877.214	9991.5
877.533	9989.02
877.852	9968.68
878.17	9937.04
878.489	9958.74
878.807	9956.25
879.125	9873.31
879.444	9904.73
879.762	9866.53
880.08	9882.58
880.398	9855.46
880.716	9865.86
881.034	9771.62
881.352	9805.97
881.67	9739.31
881.988	9752.19
882.306	9772.07
882.624	9668.12
882.941	9593.55
883.259	9660.44
883.577	9605.98
883.894	9606.65
884.212	9558.52
884.529	9609.59
884.846	9549.48
885.164	9481.69
885.481	9438.07
885.798	9442.82
886.115	9404.17
886.432	9423.38
886.75	9445.08
887.067	9419.31
887.383	9401.46
887.7	9386.32
888.017	9343.38
888.334	9379.09
888.651	9308.36
888.967	9293.44
889.284	9202.15
889.6	9250.73
889.917	9086.44
890.233	9119.44
890.55	9131.86
890.866	9120.79
891.182	9102.03
891.498	9059.32
891.815	9021.58
892.131	8985.65
892.447	8977.74
892.763	8968.93
893.079	8996.27
893.395	8822.27
893.71	8880.8
894.026	8844.41
894.342	8806.9
894.657	8758.77
894.973	8728.03
895.289	8711.08
895.604	8655.04
895.92	8558.77
896.235	8594.48
896.55	8611.65
896.865	8582.05
897.181	8535.5
897.496	8531.88
897.811	8470.41
898.126	8483.29
898.441	8455.72
898.756	8373.92
899.071	8303.41
899.386	8330.53
899.7	8229.74
900.015	8196.3
900.33	8214.15
900.644	8154.94
900.959	8214.6
901.273	8102.51
901.588	8195.62
901.902	8097.77
902.216	8059.58
902.531	8016.41
902.845	8004.66
903.159	7946.13
903.473	7957.43
903.787	7892.57
904.101	7856.42
904.415	7866.81
904.729	7829.07
905.042	7733.94
905.356	7676.08
905.67	7741.17
905.984	7712.01
906.297	7673.6
906.611	7681.73
906.924	7654.16
907.237	7554.05
907.551	7563.09
907.864	7586.14
908.177	7435.86
908.491	7474.28
908.804	7365.13
909.117	7362.19
909.43	7362.87
909.743	7271.35
910.056	7269.09
910.368	7279.71
910.681	7205.36
910.994	7193.38
911.307	7200.16
911.619	7095.76
911.932	7142.09
912.244	7046.27
912.557	7068.64
912.869	7053.73
913.181	7007.17
913.494	6987.74
913.806	6912.49
914.118	6935.76
914.43	6882.43
914.742	6862.55
915.054	6875.65
915.366	6814.64
915.678	6800.4
915.99	6741.64
916.302	6673.17
916.613	6693.96
916.925	6723.57
917.236	6616.9
917.548	6670.23
917.859	6674.98
918.171	6534.19
918.482	6542.1
918.794	6512.72
919.105	6532.61
919.416	6447.42
919.727	6463.01
920.038	6447.19
920.349	6406.29
920.66	6350.92
920.971	6370.13
921.282	6357.02
921.593	6252.84
921.903	6214.65
922.214	6210.59
922.525	6180.53
922.835	6194.09
923.146	6106.18
923.456	6192.28
923.767	6107.09
924.077	6076.58
924.387	6056.69
924.697	6021.89
925.008	6029.8
925.318	6010.14
925.628	5980.08
925.938	5943.7
926.248	5899.86
926.558	5855.79
926.867	5867.54
927.177	5814.66
927.487	5813.31
927.796	5758.85
928.106	5740.09
928.416	5760.88
928.725	5750.03
929.034	5688.11
929.344	5644.27
929.653	5695.12
929.962	5635.23
930.271	5615.35
930.581	5602.47
930.89	5536.03
931.199	5497.38
931.508	5513.43
931.817	5528.34
932.125	5482.02
932.434	5468.23
932.743	5418.97
933.051	5344.17
933.36	5417.39
933.669	5346.2
933.977	5359.76
934.286	5307.56
934.594	5278.86
934.902	5300.33
935.21	5261.91
935.519	5222.81
935.827	5217.62
936.135	5222.59
936.443	5145.08
936.751	5127.22
937.059	5121.35
937.367	5115.92
937.674	5069.15
937.982	5020.11
938.29	5012.88
938.597	5057.17
938.905	4991.18
939.213	4953.22
939.52	4972.2
939.827	4979.43
940.135	4943.5
940.442	4901.69
940.749	4867.57
941.056	4875.48
941.363	4820.34
941.67	4827.34
941.977	4806.33
942.284	4753.9
942.591	4732.21
942.898	4715.94
943.205	4725.43
943.511	4685.65
943.818	4707.35
944.125	4623.51
944.431	4634.81
944.738	4602.94
945.044	4602.04
945.35	4560.23
945.657	4563.17
945.963	4533.79
946.269	4528.37
946.575	4509.84
946.881	4443.17
947.187	4477.75
947.493	4450.86
947.799	4428.26
948.105	4423.97
948.41	4390.97
948.716	4340.8
949.022	4293.35
949.327	4315.72
949.633	4275.27
949.938	4299.22
950.244	4263.52
950.549	4221.49
950.854	4224.42
951.16	4224.42
951.465	4174.93
951.77	4159.79
952.075	4166.35
952.38	4134.71
952.685	4137.87
952.99	4083.41
953.294	4065.56
953.599	4053.58
953.904	4046.57
954.209	4036.86
954.513	4006.8
954.818	3976.97
955.122	4014.26
955.426	3991.66
955.731	3948.05
956.035	3924.77
956.339	3964.32
956.643	3945.33
956.948	3896.3
957.252	3846.35
957.556	3858.33
957.86	3855.17
958.163	3817.43
958.467	3783.98
958.771	3790.08
959.075	3764.55
959.378	3744.89
959.682	3774.72
959.985	3726.13
960.289	3683.87
960.592	3695.17
960.896	3654.49
961.199	3664.89
961.502	3673.7
961.805	3662.4
962.108	3611.11
962.411	3618.56
962.714	3549.86
963.017	3579.92
963.32	3566.59
963.623	3542.63
963.926	3521.84
964.228	3487.72
964.531	3527.27
964.833	3493.37
965.136	3444.33
965.438	3482.07
965.741	3407.5
966.043	3401.85
966.345	3414.27
966.648	3373.6
966.95	3371.79
967.252	3356.42
967.554	3373.37
967.856	3332.92
968.158	3308.74
968.46	3279.81
968.761	3286.37
969.063	3269.65
969.365	3230.78
969.666	3231.68
969.968	3204.56
970.269	3219.93
970.571	3242.75
970.872	3183.55
971.174	3150.78
971.475	3139.03
971.776	3144.9
972.077	3156.65
972.378	3125.02
972.679	3117.33
972.98	3108.75
973.281	3102.42
973.582	3071.01
973.883	3049.54
974.183	3059.71
974.484	3023.78
974.785	2995.53
975.085	3007.96
975.386	3029.2
975.686	2985.59
975.986	2956.66
976.287	2942.87
976.587	2911.69
976.887	2922.99
977.187	2895.64
977.487	2902.42
977.787	2853.84
978.087	2892.48
978.387	2889.32
978.687	2808.19
978.987	2821.3
979.286	2846.15
979.586	2770.22
979.885	2773.84
980.185	2744.24
980.484	2749.89
980.784	2753.73
981.083	2770
981.382	2746.95
981.682	2718.93
981.981	2707.85
982.28	2719.6
982.579	2685.93
982.878	2676.21
983.177	2658.81
983.475	2681.41
983.774	2632.15
984.073	2619.04
984.372	2612.94
984.67	2596.67
984.969	2586.27
985.267	2602.54
985.566	2594.18
985.864	2577.91
986.162	2529.78
986.461	2497.69
986.759	2508.76
987.057	2514.86
987.355	2486.16
987.653	2494.07
987.951	2498.37
988.249	2447.07
988.547	2454.98
988.844	2416.56
989.142	2441.64
989.44	2403.23
989.737	2395.32
990.035	2382.89
990.332	2352.38
990.63	2380.18
990.927	2387.18
991.224	2344.7
991.521	2313.96
991.819	2331.82
992.116	2299.5
992.413	2317.13
992.71	2295.66
993.006	2266.06
993.303	2280.75
993.6	2292.95
993.897	2284.13
994.193	2256.11
994.49	2230.8
994.787	2225.38
995.083	2221.76
995.379	2205.27
995.676	2182.67
995.972	2177.92
996.268	2160.97
996.565	2163.69
996.861	2139.96
997.157	2175.21
997.453	2160.75
997.749	2106.29
998.044	2109.22
998.34	2120.98
998.636	2088.66
998.932	2090.92
999.227	2083.69
999.523	2092.73
999.818	2036.01
1000.114	2053.86
1000.409	2052.05
1000.704	2041.43
1001	2008.89
1001.295	1995.1
1001.59	1982.45
1001.885	1985.84
1002.18	1991.26
1002.475	1972.05
1002.77	1970.24
1003.065	1948.55
1003.359	1912.85
1003.654	1933.41
1003.949	1909.46
1004.243	1907.2
1004.538	1874.88
1004.832	1874.88
1005.127	1850.93
1005.421	1845.28
1005.715	1851.15
1006.009	1822
1006.304	1836.69
1006.598	1801.66
1006.892	1803.02
1007.186	1796.69
1007.48	1753.53
1007.773	1748.33
1008.067	1762.11
1008.361	1785.39
1008.655	1730.03
1008.948	1726.18
1009.242	1707.88
1009.535	1691.16
1009.829	1685.51
1010.122	1655.45
1010.415	1670.37
1010.708	1670.37
1011.001	1655.9
1011.295	1652.74
1011.588	1662.23
1011.881	1648.67
1012.173	1609.8
1012.466	1606.86
1012.759	1576.58
1013.052	1595.34
1013.344	1596.47
1013.637	1598.05
1013.93	1570.03
1014.222	1573.87
1014.514	1563.7
1014.807	1537.04
1015.099	1539.3
1015.391	1528.45
1015.683	1499.07
1015.976	1509.24
1016.268	1473.53
1016.56	1491.16
1016.851	1478.96
1017.143	1497.71
1017.435	1448.22
1017.727	1451.39
1018.018	1453.65
1018.31	1444.16
1018.602	1425.63
1018.893	1431.28
1019.185	1396.47
1019.476	1384.95
1019.767	1388.11
1020.058	1364.39
1020.35	1357.83
1020.641	1374.1
1020.932	1337.49
1021.223	1329.36
1021.514	1345.85
1021.804	1307.21
1022.095	1311.73
1022.386	1311.96
1022.677	1304.27
1022.967	1293.88
1023.258	1287.78
1023.548	1258.63
1023.839	1286.42
1024.129	1285.07
1024.419	1264.5
1024.709	1237.16
1025	1234.9
1025.29	1231.96
1025.58	1222.47
1025.87	1212.75
1026.16	1196.71
1026.449	1206.42
1026.739	1189.25
1027.029	1204.16
1027.319	1191.28
1027.608	1162.13
1027.898	1153.77
1028.187	1145.86
1028.477	1134.11
1028.766	1148.57
1029.055	1123.04
1029.344	1144.73
1029.634	1134.79
1029.923	1135.46
1030.212	1072.87
1030.501	1090.72
1030.79	1080.32
1031.078	1073.09
1031.367	1090.27
1031.656	1069.48
1031.945	1065.64
1032.233	1029.25
1032.522	1053.66
1032.81	1024.51
1033.099	1041.46
1033.387	1050.72
1033.675	1025.41
1033.963	1049.59
1034.251	1041.23
1034.54	990.61
1034.828	1009.82
1035.116	976.15
1035.403	1010.5
1035.691	958.97
1035.979	977.95
1036.267	987.9
1036.554	962.81
1036.842	944.06
1037.129	924.4
1037.417	955.36
1037.704	961.01
1037.992	945.64
1038.279	959.88
1038.566	919.42
1038.853	919.42
1039.14	919.42
