Data from hue_50_FLMS001491_53.txt Node
Date: Mon Feb 06 15:10:31 GMT 2017
User: dcchb
Spectrometer: FLMS00149
Trigger mode: 0
Integration Time (sec): 2.000000E-2
Scans to average: 10
Electric dark correction enabled: true
Nonlinearity correction enabled: false
Boxcar width: 0
XAxis mode: Wavelengths
Number of Pixels in Spectrum: 2048
>>>>>Begin Spectral Data<<<<<
341.393	-13.45
341.776	-13.45
342.16	-13.45
342.543	-64.52
342.927	-70.39
343.31	-81.01
343.693	-91.64
344.077	-71.52
344.46	-47.57
344.843	-54.57
345.226	-43.95
345.61	-24.07
345.993	-1.69
346.376	-4.41
346.759	16.84
347.142	5.54
347.525	44.18
347.908	53.9
348.291	87.79
348.674	92.31
349.057	119.88
349.44	145.42
349.823	134.57
350.206	149.71
350.588	184.29
350.971	205.98
351.354	208.02
351.737	239.88
352.119	241.24
352.502	261.35
352.884	276.94
353.267	279.65
353.65	306.77
354.032	288.24
354.414	290.5
354.797	322.36
355.179	328.24
355.562	322.14
355.944	328.69
356.326	314
356.709	352.87
357.091	351.29
357.473	351.97
357.855	342.7
358.238	332.31
358.62	338.86
359.002	357.84
359.384	334.34
359.766	339.31
360.148	334.79
360.53	319.88
360.912	346.09
361.294	324.85
361.676	335.25
362.057	330.5
362.439	337.51
362.821	323.95
363.203	333.66
363.584	302.48
363.966	336.15
364.348	339.77
364.729	331.4
365.111	315.36
365.493	305.42
365.874	300.9
366.256	324.17
366.637	323.04
367.019	320.33
367.4	304.74
367.781	292.53
368.163	319.43
368.544	316.71
368.925	316.26
369.306	321.69
369.688	305.87
370.069	313.55
370.45	323.27
370.831	299.99
371.212	310.39
371.593	296.83
371.974	303.38
372.355	324.85
372.736	313.33
373.117	315.81
373.498	303.16
373.879	303.16
374.26	303.83
374.641	306.09
375.021	312.2
375.402	306.77
375.783	309.48
376.163	327.34
376.544	313.1
376.925	314.23
377.305	323.27
377.686	314.91
378.066	328.92
378.447	314.46
378.827	328.24
379.208	322.14
379.588	332.53
379.968	323.72
380.349	314.23
380.729	333.89
381.109	356.71
381.489	330.5
381.87	326.66
382.25	325.08
382.63	330.5
383.01	325.98
383.39	335.25
383.77	312.42
384.15	324.62
384.53	328.24
384.91	332.53
385.29	323.72
385.67	345.64
386.049	344.74
386.429	356.71
386.809	340.89
387.189	332.31
387.568	365.98
387.948	330.27
388.328	339.31
388.707	350.39
389.087	337.96
389.466	356.04
389.846	365.53
390.225	343.38
390.605	361.91
390.984	355.58
391.363	352.19
391.743	359.43
392.122	349.71
392.501	353.32
392.881	361.23
393.26	358.52
393.639	364.62
394.018	363.95
394.397	364.17
394.776	360.56
395.155	350.39
395.534	354
395.913	372.08
396.292	379.76
396.671	383.83
397.05	365.75
397.429	358.3
397.808	379.09
398.186	355.36
398.565	362.36
398.944	343.38
399.323	376.83
399.701	379.76
400.08	352.65
400.458	369.14
400.837	401.91
401.215	375.47
401.594	372.98
401.972	390.39
402.351	394.9
402.729	393.77
403.107	395.36
403.486	388.13
403.864	403.72
404.242	391.97
404.62	390.84
404.999	404.4
405.377	428.35
405.755	401.91
406.133	398.75
406.511	402.14
406.889	398.07
407.267	377.28
407.645	415.92
408.023	422.25
408.401	400.55
408.779	396.71
409.156	423.83
409.534	426.32
409.912	422.25
410.29	443.04
410.667	429.71
411.045	442.81
411.422	425.64
411.8	439.2
412.178	441.46
412.555	405.98
412.933	413.89
413.31	442.14
413.687	433.1
414.065	456.6
414.442	456.15
414.819	447.78
415.197	457.5
415.574	477.39
415.951	448.01
416.328	446.65
416.705	443.94
417.082	449.82
417.46	459.31
417.837	460.44
418.214	457.95
418.591	466.99
418.967	478.74
419.344	470.16
419.721	460.21
420.098	476.71
420.475	481.68
420.852	476.03
421.228	495.69
421.605	485.52
421.982	471.74
422.358	501.79
422.735	511.51
423.111	484.17
423.488	515.13
423.864	474
424.241	530.27
424.617	521.46
424.994	507.9
425.37	500.21
425.746	513.32
426.123	514
426.499	508.8
426.875	502.92
427.251	536.6
427.627	535.01
428.003	523.26
428.379	560.55
428.756	533.43
429.132	556.26
429.507	530.04
429.883	533.88
430.259	563.71
430.635	561.91
431.011	566.88
431.387	580.89
431.763	577.72
432.138	560.78
432.514	588.35
432.89	591.96
433.265	578.85
433.641	573.66
434.016	589.7
434.392	619.76
434.767	600.55
435.143	595.58
435.518	616.37
435.894	613.2
436.269	636.25
436.644	625.41
437.02	620.21
437.395	635.8
437.77	649.59
438.145	643.03
438.52	619.31
438.895	662.69
439.271	658.4
439.646	676.03
440.021	666.08
440.395	666.76
440.77	656.82
441.145	670.83
441.52	677.84
441.895	653.2
442.27	674.22
442.645	669.47
443.019	683.48
443.394	694.11
443.769	702.47
444.143	694.56
444.518	697.27
444.892	713.99
445.267	687.55
445.641	675.58
446.016	717.38
446.39	697.95
446.764	702.47
447.139	741.56
447.513	737.04
447.887	715.57
448.262	716.48
448.636	728.23
449.01	747.66
449.384	763.03
449.758	734.56
450.132	747.89
450.506	758.51
450.88	765.74
451.254	767.32
451.628	770.04
452.002	780.43
452.376	773.43
452.75	796.7
453.123	795.12
453.497	802.35
453.871	786.76
454.244	812.3
454.618	850.49
454.992	831.28
455.365	862.46
455.739	855.68
456.112	838.28
456.486	859.3
456.859	890.03
457.232	888
457.606	888.9
457.979	893.42
458.352	892.29
458.725	889.81
459.099	922.35
459.472	935.46
459.845	948.34
460.218	954.66
460.591	942.91
460.964	961.22
461.337	970.03
461.71	984.27
462.083	1018.17
462.456	1007.32
462.829	1035.57
463.201	1025.17
463.574	1009.58
463.947	1027.88
464.32	1060.88
464.692	1064.72
465.065	1073.31
465.438	1096.36
465.81	1137.71
466.183	1139.07
466.555	1136.81
466.928	1154.21
467.3	1163.25
467.672	1188.78
468.045	1215
468.417	1215.45
468.789	1234.88
469.161	1256.58
469.534	1282.57
469.906	1301.77
470.278	1327.76
470.65	1346.07
471.022	1348.78
471.394	1363.24
471.766	1413.64
472.138	1429.45
472.51	1466.97
472.882	1492.28
473.253	1514.2
473.625	1577.92
473.997	1577.92
474.369	1615.89
474.74	1651.14
475.112	1692.27
475.484	1722.1
475.855	1765.72
476.227	1795.32
476.598	1880.29
476.97	1917.58
477.341	1934.75
477.713	1984.69
478.084	2021.98
478.455	2089.55
478.827	2130.23
479.198	2224.46
479.569	2260.39
479.94	2356.21
480.311	2417.68
480.682	2443.44
481.053	2571.12
481.424	2596.65
481.795	2645.92
482.166	2754.39
482.537	2816.99
482.908	2906.03
483.279	3000.03
483.65	3082.74
484.021	3159.35
484.391	3290.65
484.762	3320.93
485.133	3402.28
485.503	3538.55
485.874	3633.24
486.244	3713.24
486.615	3833.68
486.985	3916.17
487.356	4032.78
487.726	4123.62
488.097	4303.5
488.467	4375.14
488.837	4462.59
489.207	4584.4
489.578	4766.77
489.948	4763.6
490.318	4926.99
490.688	5011.05
491.058	5136.7
491.428	5288.11
491.798	5387.32
492.168	5598.61
492.538	5632.73
492.908	5798.15
493.278	5905.04
493.648	5961.54
494.017	6118.14
494.387	6329.66
494.757	6445.82
495.126	6512.71
495.496	6629.77
495.866	6718.13
496.235	6859.37
496.605	7008.29
496.974	7103.88
497.344	7236.08
497.713	7308.4
498.082	7466.81
498.452	7646.24
498.821	7729.18
499.19	7840.81
499.559	7936.85
499.928	8095.72
500.298	8181.82
500.667	8306.34
501.036	8304.75
501.405	8509.95
501.774	8571.64
502.143	8723.27
502.512	8766.44
502.88	8925.98
503.249	8991.74
503.618	9125.07
503.987	9256.37
504.356	9333.88
504.724	9435.8
505.093	9620.65
505.462	9619.75
505.83	9807.54
506.199	9816.13
506.567	9965.05
506.936	10019.96
507.304	10151.26
507.672	10252.72
508.041	10356.22
508.409	10547.63
508.777	10628.99
509.145	10762.77
509.514	10828.08
509.882	10917.57
510.25	10955.08
510.618	11075.98
510.986	11120.05
511.354	11324.34
511.722	11412.24
512.09	11565.23
512.458	11543.09
512.826	11672.12
513.193	11728.84
513.561	11792.8
513.929	11955.05
514.297	12001.61
514.664	12216.51
515.032	12154.14
515.4	12372.22
515.767	12438.2
516.135	12577.18
516.502	12510.74
516.869	12820.11
517.237	12840.45
517.604	12802.94
517.972	12974.24
518.339	13103.5
518.706	13167.68
519.073	13195.47
519.44	13268.24
519.808	13472.08
520.175	13530.83
520.542	13698.06
520.909	13771.28
521.276	13743.25
521.643	13999.29
522.009	13997.26
522.376	14083.81
522.743	14186.41
523.11	14415.1
523.477	14434.31
523.843	14623.01
524.21	14683.34
524.577	14854.41
524.943	14941.87
525.31	14963.79
525.676	15176.66
526.043	15272.25
526.409	15281.29
526.776	15494.62
527.142	15579.82
527.508	15606.48
527.874	15754.73
528.241	15821.39
528.607	15979.13
528.973	16037.88
529.339	16178.9
529.705	16298.44
530.071	16417.53
530.437	16420.47
530.803	16474.93
531.169	16708.37
531.535	16638.77
531.901	16726.23
532.267	16716.96
532.632	16996.28
532.998	17025.2
533.364	17169.83
533.73	17168.25
534.095	17231.07
534.461	17367.34
534.826	17506.55
535.192	17480.33
535.557	17602.36
535.923	17649.37
536.288	17700.44
536.653	17784.96
537.019	17825.18
537.384	17837.61
537.749	17886.65
538.114	17989.92
538.479	18062.91
538.845	18174.55
539.21	18202.12
539.575	18195.57
539.94	18358.27
540.305	18463.58
540.67	18418.39
541.034	18686.63
541.399	18670.13
541.764	18631.49
542.129	18691.6
542.494	18859.05
542.858	18882.33
543.223	18927.07
543.587	19024.92
543.952	19090.91
544.316	19206.16
544.681	19124.36
545.045	19198.48
545.41	19313.5
545.774	19459.26
546.138	19431.01
546.503	19497.45
546.867	19490
547.231	19708.07
547.595	19856.77
547.959	19867.16
548.324	19717.56
548.688	19872.81
549.052	20041.62
549.416	20035.52
549.779	20076.42
550.143	20161.62
550.507	20257.43
550.871	20298.11
551.235	20259.24
551.599	20427.37
551.962	20646.35
552.326	20602.96
552.689	20723.41
553.053	20595.05
553.417	20674.82
553.78	20976.96
554.143	20932.9
554.507	20970.18
554.87	21101.71
555.234	21231.87
555.597	21233.23
555.96	21278.2
556.323	21382.83
556.686	21314.81
557.05	21536.5
557.413	21613.56
557.776	21585.08
558.139	21790.27
558.502	21829.37
558.865	21758.64
559.228	21952.3
559.59	22037.73
559.953	22187.1
560.316	22382.35
560.679	22430.03
561.041	22481.33
561.404	22580.99
561.767	22751.38
562.129	22672.96
562.492	22936.01
562.854	22968.32
563.217	23063.91
563.579	23081.31
563.941	23247.86
564.304	23250.8
564.666	23497.8
565.028	23481.98
565.39	23479.27
565.753	23599.72
566.115	23786.15
566.477	23894.17
566.839	24099.59
567.201	23951.12
567.563	24193.6
567.925	24173.71
568.287	24283.77
568.648	24416.42
569.01	24486.02
569.372	24608.28
569.734	24494.61
570.095	24763.98
570.457	24862.74
570.819	24997.2
571.18	24891.89
571.542	25202.16
571.903	25294.82
572.265	25204.87
572.626	25438.54
572.987	25409.39
573.349	25561.93
573.71	25698.42
574.071	25761.02
574.432	25809.38
574.794	26029.94
575.155	26038.52
575.516	25966.44
575.877	26137.05
576.238	26349.48
576.599	26302.47
576.96	26334.11
577.32	26457.5
577.681	26484.16
578.042	26766.19
578.403	26771.16
578.763	26865.62
579.124	26952.85
579.485	27091.6
579.845	27249.57
580.206	27265.38
580.566	27345.16
580.927	27459.28
581.287	27493.85
581.648	27548.09
582.008	27794.41
582.368	27618.82
582.728	27908.53
583.089	27909.66
583.449	28064.91
583.809	28171.35
584.169	28290.22
584.529	28275.98
584.889	28578.57
585.249	28530.21
585.609	28527.95
585.969	28695.18
586.329	28763.88
586.688	28938.79
587.048	28924.32
587.408	28971.78
587.768	29113.92
588.127	29060.14
588.487	29201.83
588.846	29463.07
589.206	29550.97
589.565	29568.83
589.925	29749.84
590.284	29751.2
590.643	29905.77
591.003	30029.83
591.362	30188.02
591.721	30357.73
592.08	30291.52
592.44	30542.36
592.799	30563.6
593.158	30564.51
593.517	30804.73
593.876	30725.86
594.235	30866.87
594.593	30938.28
594.952	31063.93
595.311	31040.88
595.67	31253.98
596.029	31526.97
596.387	31599.51
596.746	31639.51
597.104	31460.75
597.463	31722.44
597.822	31820.29
598.18	31736
598.538	31784.14
598.897	31985.26
599.255	31922.44
599.613	32487.17
599.972	32223.22
600.33	32388.19
600.688	32314.74
601.046	32598.8
601.404	32724.68
601.762	32681.51
602.12	32783.21
602.478	32994.5
602.836	33034.05
603.194	32862.3
603.552	33042.41
603.91	33015.74
604.268	33167.83
604.625	33281.72
604.983	33354.26
605.341	33297.99
605.698	33501.83
606.056	33616.18
606.413	33624.99
606.771	33688.04
607.128	33717.64
607.485	33605.56
607.843	33751.09
608.2	34095.49
608.557	34052.1
608.914	34112.89
609.272	34240.12
609.629	34335.48
609.986	34476.72
610.343	34434.69
610.7	34687.34
611.057	34563.05
611.414	34636.72
611.771	34758.97
612.127	35077.38
612.484	34863.83
612.841	34994.22
613.198	35041.23
613.554	35074.22
613.911	35259.3
614.267	35325.29
614.624	35308.34
614.98	35390.82
615.337	35503.13
615.693	35569.35
616.05	35575.9
616.406	35781.55
616.762	35780.87
617.118	35702
617.475	35762.11
617.831	35846.18
618.187	35880.3
618.543	35900.19
618.899	36054.98
619.255	36262.44
619.611	36133.4
619.967	36177.01
620.323	36287.07
620.678	36152.83
621.034	36226.28
621.39	36242.32
621.746	36377.91
622.101	36671.69
622.457	36296.79
622.812	36496.1
623.168	36643.67
623.523	36576.78
623.879	36777
624.234	36461.75
624.589	36609.55
624.945	36769.54
625.3	36724.35
625.655	36755.76
626.01	36808.64
626.365	36842.53
626.72	36937.22
627.075	36767.51
627.43	36749.2
627.785	36761.86
628.14	36850.67
628.495	36905.58
628.85	36830.11
629.205	36835.08
629.559	37013.6
629.914	36925.7
630.269	36919.82
630.623	36793.72
630.978	36907.84
631.332	36993.94
631.687	37074.84
632.041	36829.43
632.396	37011.57
632.75	36791.91
633.104	36771.8
633.459	36749.43
633.813	36740.84
634.167	36820.84
634.521	36787.85
634.875	36727.96
635.229	36687.06
635.583	36626.27
635.937	36652.93
636.291	36528.64
636.645	36573.39
636.999	36461.08
637.352	36674.18
637.706	36446.16
638.06	36571.81
638.413	36536.1
638.767	36498.59
639.121	36629.88
639.474	36279.16
639.828	36339.5
640.181	36582.88
640.534	36425.6
640.888	36322.32
641.241	36203.68
641.594	36244.81
641.947	36363
642.301	36341.98
642.654	36242.78
643.007	36329.33
643.36	36147.86
643.713	36125.94
644.066	36391.47
644.419	35927.08
644.771	35812.96
645.124	35573.19
645.477	35466.3
645.83	35348.11
646.182	35117.83
646.535	35109.47
646.888	35102.01
647.24	34993.09
647.593	35037.16
647.945	35116.7
648.298	34901.12
648.65	34694.12
649.002	34855.02
649.355	34836.49
649.707	34865.86
650.059	34987.89
650.411	35434.66
650.763	35463.59
651.115	35804.37
651.467	35638.5
651.819	35650.25
652.171	35475.79
652.523	35562.12
652.875	35466.75
653.227	35529.57
653.578	35614.54
653.93	35571.61
654.282	35230.83
654.633	35233.54
654.985	35269.02
655.337	35330.94
655.688	35395.34
656.039	35428.79
656.391	35157.38
656.742	35149.7
657.094	35242.8
657.445	35344.95
657.796	35202.58
658.147	35302.24
658.498	35325.74
658.849	35273.76
659.2	35170.94
659.551	35248.23
659.902	35226.98
660.253	35264.5
660.604	35279.41
660.955	35111.28
661.306	35216.59
661.656	35172.75
662.007	35132.07
662.358	35166.87
662.708	35126.42
663.059	35247.1
663.409	35050.26
663.76	35202.8
664.11	35078.74
664.461	35213.2
664.811	35081.22
665.161	35097.72
665.511	35025.86
665.862	35022.02
666.212	35058.63
666.562	35164.39
666.912	35022.47
667.262	34970.94
667.612	35069.02
667.962	35030.83
668.312	34831.97
668.662	35090.04
669.011	34957.16
669.361	34968.46
669.711	34801.68
670.06	34792.64
670.41	34703.38
670.76	34826.77
671.109	34895.24
671.459	34896.14
671.808	34707
672.157	34760.33
672.507	34606.43
672.856	34695.02
673.205	34794.23
673.554	34830.16
673.904	34774.34
674.253	34950.15
674.602	34769.59
674.951	34281.02
675.3	34097.97
675.649	34563.27
675.998	34505.87
676.346	34603.5
676.695	34739.76
677.044	34416.16
677.393	34709.93
677.741	34599.66
678.09	34668.58
678.438	34354.01
678.787	34447.34
679.135	34404.18
679.484	34227.24
679.832	34416.38
680.181	34173.45
680.529	34255.94
680.877	34205.09
681.225	34163.96
681.573	34415.03
681.922	34075.83
682.27	34024.76
682.618	34022.72
682.966	33961.25
683.314	34062.49
683.661	33907.47
684.009	33657.08
684.357	33728.49
684.705	33632.67
685.053	33661.15
685.4	33554.26
685.748	33450.08
686.095	33484.43
686.443	33280.37
686.79	33272.23
687.138	33403.98
687.485	33262.06
687.832	33268.84
688.18	33151.78
688.527	33067.72
688.874	33041.73
689.221	32954.05
689.568	32852.81
689.915	32847.84
690.262	32840.61
690.609	32679.03
690.956	32769.87
691.303	32771.45
691.65	32447.85
691.997	32403.1
692.344	32208.31
692.69	32330.79
693.037	32202.66
693.383	32106.16
693.73	32271.58
694.077	32046.5
694.423	31944.13
694.769	31961.98
695.116	31782.78
695.462	31733.52
695.808	31618.94
696.155	31632.05
696.501	31470.47
696.847	31411.72
697.193	31250.36
697.539	31427.31
697.885	31057.6
698.231	31038.84
698.577	31034.33
698.923	30971.28
699.269	30911.39
699.614	30680.44
699.96	30684.73
700.306	30735.8
700.651	30441.8
700.997	30462.36
701.342	30371.07
701.688	30262.82
702.033	30336.49
702.379	30152.77
702.724	30167.91
703.069	30168.59
703.415	29764.53
703.76	29872.77
704.105	29741.03
704.45	29775.6
704.795	29578.54
705.14	29597.98
705.485	29485.89
705.83	29363.18
706.175	29501.26
706.52	29361.37
706.865	29245.67
707.209	29156.18
707.554	29076.18
707.899	29200.25
708.243	28974.04
708.588	28960.93
708.932	28729.98
709.277	28832.12
709.621	28923.19
709.966	28704.22
710.31	28702.41
710.654	28450.89
710.998	28408.18
711.342	28424.9
711.687	28457.9
712.031	28332.02
712.375	28254.96
712.719	28220.84
713.063	28220.61
713.407	28357.33
713.75	28029.88
714.094	28071.69
714.438	27989.21
714.782	28057.23
715.125	27928.64
715.469	27811.36
715.812	27723
716.156	27612.72
716.499	27532.95
716.843	27691.36
717.186	27459.28
717.53	27628.09
717.873	27462.67
718.216	27446.4
718.559	27244.82
718.902	27231.71
719.246	27199.85
719.589	27109.46
719.932	27079.4
720.275	27033.53
720.617	26998.27
720.96	26962.12
721.303	26877.15
721.646	26916.02
721.989	26706.3
722.331	26895.23
722.674	26820.2
723.016	26735.68
723.359	26790.82
723.701	26720.54
724.044	26513.99
724.386	26388.8
724.729	26537.27
725.071	26528.23
725.413	26532.97
725.755	26440.55
726.097	26210.27
726.439	26140.67
726.782	26264.28
727.124	26293.21
727.465	26140.67
727.807	26055.25
728.149	26047.11
728.491	26044.63
728.833	26012.31
729.175	25782.71
729.516	25862.26
729.858	25882.6
730.199	25850.96
730.541	25952.65
730.882	25852.31
731.224	26027
731.565	25751.75
731.906	25723.73
732.248	25726.44
732.589	25544.3
732.93	25493.45
733.271	25471.76
733.612	25552.44
733.953	25484.41
734.294	25351.54
734.635	25320.58
734.976	25404.42
735.317	25164.65
735.658	25181.82
735.999	25229.28
736.339	25175.72
736.68	25276.51
737.021	25047.14
737.361	25082.17
737.702	25121.49
738.042	24997.65
738.383	24950.64
738.723	25046.69
739.063	24941.38
739.404	24917.88
739.744	24927.14
740.084	24772.57
740.424	24851.89
740.764	24714.94
741.104	24857.09
741.444	24632.91
741.784	24591.78
742.124	24682.18
742.464	24608.96
742.804	24532.8
743.143	24395.18
743.483	24589.75
743.823	24276.99
744.162	24397.66
744.502	24417.32
744.841	24252.36
745.181	24400.6
745.52	24208.29
745.86	24189.99
746.199	24244
746.538	24165.35
746.877	24186.14
747.216	24244.45
747.556	24120.61
747.895	24188.18
748.234	24026.15
748.573	23937.79
748.911	23918.13
749.25	23910.9
749.589	23877.68
749.928	23722.2
750.267	23919.94
750.605	23714.07
750.944	23693.05
751.283	23571.7
751.621	23652.82
751.96	23507.29
752.298	23551.13
752.636	23453.96
752.975	23341.42
753.313	23312.27
753.651	23385.71
753.989	23213.74
754.327	23274.08
754.666	23067.76
755.004	23126.06
755.342	23014.2
755.679	23133.74
756.017	22947.76
756.355	23009.23
756.693	22939.85
757.031	22941.2
757.368	22723.58
757.706	22805.62
758.044	22602.23
758.381	22699.18
758.719	22559.52
759.056	22517.94
759.394	22505.51
759.731	22334.89
760.068	22472.97
760.405	22278.62
760.743	22238.62
761.08	22158.4
761.417	22165.41
761.754	22045.18
762.091	22005.86
762.428	21986.65
762.765	21767.9
763.102	21875.47
763.438	21718.86
763.775	21602.48
764.112	21616.95
764.449	21670.5
764.785	21530.17
765.122	21357.07
765.458	21273
765.795	21221.02
766.131	21308.03
766.467	21142.61
766.804	21140.35
767.14	21057.86
767.476	21025.55
767.812	20751.43
768.148	20882.05
768.485	20744.65
768.821	20710.98
769.157	20693.58
769.492	20518.44
769.828	20629.63
770.164	20401.84
770.5	20291.1
770.836	20414.94
771.171	20168.4
771.507	20143.09
771.842	20011.56
772.178	20035.52
772.513	19926.59
772.849	19939.48
773.184	19749.42
773.519	19704
773.855	19620.84
774.19	19566.15
774.525	19528.19
774.86	19494.06
775.195	19539.94
775.53	19376.55
775.865	19341.53
776.2	19175.2
776.535	19040.74
776.87	18953.29
777.205	18961.65
777.539	18827.19
777.874	18868.09
778.209	18799.84
778.543	18777.47
778.878	18600.3
779.212	18558.72
779.547	18395.34
779.881	18492.06
780.215	18323.25
780.55	18380.87
780.884	18250.48
781.218	18213.65
781.552	18282.12
781.886	18082.58
782.22	18015.01
782.554	17961.45
782.888	17798.97
783.222	17789.48
783.556	17674.45
783.889	17570.5
784.223	17496.38
784.557	17588.35
784.89	17530.5
785.224	17361.92
785.557	17222.94
785.891	17264.07
786.224	17239.43
786.558	17159.44
786.891	17002.6
787.224	17087.57
787.557	16839.22
787.891	16926.9
788.224	16794.7
788.557	16887.35
788.89	16808.26
789.223	16729.62
789.556	16577.76
789.888	16568.72
790.221	16505.89
790.554	16408.5
790.887	16384.99
791.219	16359.46
791.552	16344.09
791.884	16243.75
792.217	16222.96
792.549	16077.88
792.882	15941.39
793.214	15893.93
793.546	15962.41
793.879	15898.45
794.211	15733.94
794.543	15786.59
794.875	15752.47
795.207	15770.09
795.539	15589.08
795.871	15713.15
796.203	15569.42
796.535	15429.54
796.867	15469.76
797.198	15404.23
797.53	15399.26
797.862	15234.97
798.193	15293.27
798.525	15224.8
798.856	15209.66
799.188	15077.23
799.519	15005.14
799.85	14931.47
800.182	14953.17
800.513	14884.92
800.844	14783
801.175	14842.43
801.506	14849.67
801.837	14703.68
802.168	14667.98
802.499	14658.48
802.83	14577.58
803.161	14531.03
803.491	14453.29
803.822	14536.91
804.153	14438.15
804.483	14286.29
804.814	14202.9
805.145	14235.22
805.475	14271.38
805.805	14214.2
806.136	14107.54
806.466	14238.16
806.796	14142.79
807.126	14009.24
807.457	13920.65
807.787	13985.96
808.117	13883.59
808.447	13844.95
808.777	13861.67
809.107	13772.86
809.436	13792.97
809.766	13716.59
810.096	13661
810.426	13631.62
810.755	13601.79
811.085	13556.59
811.414	13613.77
811.744	13469.59
812.073	13444.05
812.403	13492.87
812.732	13350.5
813.061	13337.84
813.39	13236.83
813.719	13244.96
814.049	13327.45
814.378	13219.2
814.707	13146.43
815.036	13089.71
815.365	13143.04
815.693	12982.82
816.022	13022.37
816.351	12956.83
816.68	12782.38
817.008	13016.04
817.337	12847.68
817.665	12806.78
817.994	12865.99
818.322	12834.35
818.651	12783.96
818.979	12678.65
819.307	12757.52
819.636	12642.49
819.964	12601.36
820.292	12620.12
820.62	12619.44
820.948	12535.38
821.276	12672.55
821.604	12575.83
821.932	12605.21
822.259	12592.1
822.587	12573.34
822.915	12557.3
823.243	12559.56
823.57	12560.91
823.898	12538.09
824.225	12515.26
824.553	12526.34
824.88	12541.03
825.207	12542.38
825.535	12529.95
825.862	12531.31
826.189	12517.3
826.516	12521.14
826.843	12577.64
827.17	12559.56
827.497	12593.91
827.824	12563.17
828.151	12627.8
828.478	12408.15
828.805	12537.18
829.131	12508.26
829.458	12480.01
829.785	12474.81
830.111	12415.83
830.438	12439.79
830.764	12415.61
831.09	12444.98
831.417	12454.7
831.743	12459.9
832.069	12426.9
832.395	12399.11
832.722	12371.99
833.048	12442.72
833.374	12417.41
833.7	12424.19
834.026	12292.22
834.351	12308.49
834.677	12343.97
835.003	12275.72
835.329	12331.31
835.654	12269.85
835.98	12217.64
836.306	12227.14
836.631	12281.15
836.956	12211.09
837.282	12194.59
837.607	12137.87
837.932	12072.34
838.258	12131.32
838.583	12191.2
838.908	11996.86
839.233	12116.63
839.558	12094.48
839.883	12027.37
840.208	11953.47
840.533	11961.83
840.858	12007.03
841.182	11946.24
841.507	11912.79
841.832	11856.52
842.156	11808.16
842.481	11895.39
842.805	11850.87
843.13	11810.88
843.454	11780.59
843.778	11730.2
844.103	11711.9
844.427	11645.23
844.751	11689.98
845.075	11624.89
845.399	11543.99
845.723	11558.45
846.047	11542.18
846.371	11442.98
846.695	11382.64
847.019	11395.07
847.343	11334.28
847.666	11249.99
847.99	11248.4
848.313	11304.45
848.637	11114.4
848.96	11098.8
849.284	11081.4
849.607	11020.39
849.931	10923.22
850.254	10867.85
850.577	10856.1
850.9	10769.77
851.223	10811.81
851.546	10661.98
851.869	10629.66
852.192	10747.85
852.515	10607.52
852.838	10540.17
853.161	10607.97
853.483	10530.91
853.806	10480.06
854.129	10482.55
854.451	10401.2
854.774	10294.98
855.096	10347.41
855.419	10306.06
855.741	10266.74
856.063	10239.17
856.385	10166.63
856.708	10160.07
857.03	10144.03
857.352	10103.8
857.674	10123.69
857.996	10072.62
858.318	10006.86
858.64	10003.92
858.961	9991.04
859.283	9917.59
859.605	9883.69
859.926	9858.16
860.248	9839.4
860.57	9821.32
860.891	9861.32
861.212	9757.14
861.534	9806.63
861.855	9736.81
862.176	9793.98
862.498	9782.45
862.819	9695.23
863.14	9730.48
863.461	9670.82
863.782	9624.04
864.103	9707.43
864.424	9575.23
864.745	9615.68
865.065	9626.75
865.386	9554.21
865.707	9527.77
866.027	9573.65
866.348	9431.73
866.668	9507.43
866.989	9487.1
867.309	9442.8
867.63	9437.83
867.95	9467.66
868.27	9336.59
868.59	9394.67
868.91	9356.7
869.23	9336.82
869.55	9363.93
869.87	9331.62
870.19	9293.88
870.51	9286.87
870.83	9281.22
871.15	9184.73
871.469	9291.17
871.789	9306.53
872.109	9232.86
872.428	9185.41
872.748	9218.85
873.067	9211.17
873.386	9192.41
873.706	9144.05
874.025	9109.48
874.344	9113.55
874.663	9122.36
874.982	9103.38
875.301	9010.27
875.62	8988.8
875.939	8996.03
876.258	8984.74
876.577	8999.88
876.896	8945.87
877.214	8932.08
877.533	8932.31
877.852	8886.21
878.17	8906.09
878.489	8893.44
878.807	8854.8
879.125	8911.97
879.444	8902.25
879.762	8821.8
880.08	8875.59
880.398	8821.12
880.716	8825.19
881.034	8759.88
881.352	8815.7
881.67	8800.56
881.988	8755.59
882.306	8717.17
882.624	8681.01
882.941	8655.7
883.259	8702.71
883.577	8600.11
883.894	8563.28
884.212	8621.81
884.529	8568.48
884.846	8540.68
885.164	8554.92
885.481	8499.1
885.798	8526.89
886.115	8475.6
886.432	8482.6
886.75	8422.26
887.067	8371.42
887.383	8396.73
887.7	8380.01
888.017	8318.31
888.334	8411.87
888.651	8318.09
888.967	8351.98
889.284	8248.71
889.6	8248.48
889.917	8180.91
890.233	8164.64
890.55	8176.85
890.866	8160.35
891.182	8127.13
891.498	8055.72
891.815	8102.72
892.131	8008.72
892.447	8018.43
892.763	7958.32
893.079	7984.08
893.395	7912.67
893.71	7960.58
894.026	7961.94
894.342	7869.96
894.657	7844.88
894.973	7845.33
895.289	7866.57
895.604	7821.6
895.92	7823.18
896.235	7741.15
896.55	7690.08
896.865	7700.7
897.181	7663.41
897.496	7651.44
897.811	7617.54
898.126	7595.62
898.441	7570.31
898.756	7504.55
899.071	7489.41
899.386	7548.39
899.7	7445.79
900.015	7410.09
900.33	7347.04
900.644	7304.1
900.959	7344.78
901.273	7280.83
901.588	7335.29
901.902	7250.77
902.216	7210.32
902.531	7232.47
902.845	7171.22
903.159	7120.83
903.473	7095.75
903.787	7078.12
904.101	7056.88
904.415	7050.78
904.729	7065.92
905.042	7008.97
905.356	7041.28
905.67	6950.21
905.984	6901.85
906.297	6861.4
906.611	6896.43
906.924	6876.32
907.237	6814.4
907.551	6805.36
907.864	6778.69
908.177	6707.73
908.491	6734.17
908.804	6712.48
909.117	6638.36
909.43	6616.89
909.743	6625.7
910.056	6595.42
910.368	6603.78
910.681	6591.35
910.994	6499.83
911.307	6475.87
911.619	6461.19
911.932	6462.54
912.244	6373.96
912.557	6380.74
912.869	6308.87
913.181	6332.83
913.494	6352.26
913.806	6290.12
914.118	6307.97
914.43	6253.51
914.742	6202.21
915.054	6178.71
915.366	6182.1
915.678	6107.07
915.99	6101.65
916.302	6080.41
916.613	5990.69
916.925	6017.36
917.236	5993.4
917.548	5973.97
917.859	6024.36
918.171	5946.85
918.482	5864.59
918.794	5864.37
919.105	5849.9
919.416	5825.27
919.727	5826.63
920.038	5771.94
920.349	5728.55
920.66	5716.57
920.971	5719.06
921.282	5703.92
921.593	5670.02
921.903	5629.57
922.214	5605.62
922.525	5644.26
922.835	5538.95
923.146	5512.51
923.456	5495.56
923.767	5514.54
924.077	5537.59
924.387	5457.37
924.697	5407.43
925.008	5436.58
925.318	5360.65
925.628	5397.71
925.938	5344.15
926.248	5269.35
926.558	5314.78
926.867	5242.01
927.177	5269.8
927.487	5195
927.796	5189.36
928.106	5191.84
928.416	5205.17
928.725	5143.71
929.034	5119.07
929.344	5129.24
929.653	5087.44
929.962	5021.68
930.271	5012.18
930.581	5029.81
930.89	5004.73
931.199	4968.12
931.508	4949.36
931.817	4929.7
932.125	4913.66
932.434	4916.59
932.743	4912.98
933.051	4816.48
933.36	4864.62
933.669	4814.22
933.977	4783.49
934.286	4748.69
934.594	4765.19
934.902	4731.29
935.21	4728.12
935.519	4732.87
935.827	4650.61
936.135	4641.12
936.443	4602.93
936.751	4595.25
937.059	4566.55
937.367	4520.22
937.674	4575.36
937.982	4554.12
938.29	4515.02
938.597	4479.32
938.905	4440.67
939.213	4454.23
939.52	4444.06
939.827	4430.96
940.135	4405.65
940.442	4388.25
940.749	4360.9
941.056	4365.65
941.363	4362.48
941.67	4301.02
941.977	4304.18
942.284	4270.74
942.591	4228.7
942.898	4185.77
943.205	4211.98
943.511	4208.36
943.818	4180.12
944.125	4135.37
944.431	4169.27
944.738	4156.39
945.044	4146.44
945.35	4066.9
945.657	4083.85
945.963	4104.86
946.269	4054.47
946.575	4016.73
946.881	4002.27
947.187	3993.68
947.493	3978.54
947.799	3943.51
948.105	3972.66
948.41	3915.49
948.716	3911.65
949.022	3870.07
949.327	3876.85
949.633	3809.05
949.938	3849.28
950.244	3884.53
950.549	3849.96
950.854	3778.09
951.16	3760.01
951.465	3751.88
951.77	3698.55
952.075	3745.55
952.38	3717.98
952.685	3708.26
952.99	3710.75
953.294	3687.7
953.599	3624.65
953.904	3615.39
954.209	3601.83
954.513	3565.89
954.818	3598.21
955.122	3557.99
955.426	3567.02
955.731	3539.68
956.035	3501.94
956.339	3506.24
956.643	3494.03
956.948	3446.58
957.252	3442.28
957.556	3455.84
957.86	3448.61
958.163	3419.01
958.467	3387.82
958.771	3395.05
959.075	3392.79
959.378	3386.69
959.682	3367.93
959.985	3343.08
960.289	3306.47
960.592	3297.88
960.896	3280.7
961.199	3273.93
961.502	3289.74
961.805	3252.23
962.108	3240.71
962.411	3237.54
962.714	3231.89
963.017	3203.64
963.32	3207.49
963.623	3150.76
963.926	3139.01
964.228	3173.81
964.531	3136.75
964.833	3152.57
965.136	3087.04
965.438	3073.48
965.741	3027.6
966.043	3089.3
966.345	3040.71
966.648	3038.9
966.95	2997.1
967.252	3019.47
967.554	2975.18
967.856	3000.03
968.158	2965.23
968.46	2944.44
968.761	2958.68
969.063	2946.93
969.365	2902.86
969.666	2901.96
969.968	2890.43
970.269	2901.73
970.571	2875.29
970.872	2872.81
971.174	2851.79
971.475	2796.65
971.776	2812.02
972.077	2824.22
972.378	2775.63
972.679	2758.68
972.98	2795.52
973.281	2756.88
973.582	2740.61
973.883	2765.46
974.183	2711.68
974.484	2721.4
974.785	2689.53
975.085	2683.21
975.386	2698.35
975.686	2660.38
975.986	2626.71
976.287	2640.04
976.587	2660.16
976.887	2593.94
977.187	2620.38
977.487	2605.92
977.787	2596.65
978.087	2562.98
978.387	2584.9
978.687	2540.39
978.987	2513.95
979.286	2568.41
979.586	2537
979.885	2497.22
980.185	2515.53
980.484	2475.53
980.784	2461.29
981.083	2461.52
981.382	2457.68
981.682	2459.94
981.981	2435.98
982.28	2438.01
982.579	2380.84
982.878	2421.52
983.177	2383.78
983.475	2348.53
983.774	2357.11
984.073	2376.32
984.372	2358.7
984.67	2308.53
984.969	2317.79
985.267	2309.66
985.566	2288.41
985.864	2332.26
986.162	2312.37
986.461	2286.38
986.759	2282.31
987.057	2254.29
987.355	2209.77
987.653	2238.7
987.951	2247.74
988.249	2245.7
988.547	2170.45
988.844	2182.2
989.142	2178.81
989.44	2191.02
989.737	2165.25
990.035	2146.05
990.332	2119.38
990.63	2128.42
990.927	2124.8
991.224	2091.36
991.521	2119.83
991.819	2071.47
992.116	2089.55
992.413	2079.38
992.71	2068.08
993.006	2080.96
993.303	2092.71
993.6	2040.74
993.897	2039.38
994.193	2026.27
994.49	2053.39
994.787	1999.16
995.083	2021.08
995.379	1997.12
995.676	1990.8
995.972	1976.11
996.268	1993.73
996.565	1934.53
996.861	1954.86
997.157	1934.07
997.453	1914.41
997.749	1906.73
998.044	1894.98
998.34	1886.84
998.636	1899.5
998.932	1868.09
999.227	1855.43
999.523	1887.75
999.818	1872.61
1000.114	1842.78
1000.409	1827.64
1000.704	1807.3
1001	1819.5
1001.295	1802.78
1001.59	1804.81
1001.885	1790.35
1002.18	1801.2
1002.475	1737.92
1002.77	1769.11
1003.065	1751.03
1003.359	1698.37
1003.654	1748.54
1003.949	1714.87
1004.243	1697.7
1004.538	1717.13
1004.832	1686.62
1005.127	1696.11
1005.421	1685.04
1005.715	1667.41
1006.009	1696.11
1006.304	1656.79
1006.598	1634.19
1006.892	1639.62
1007.186	1619.96
1007.48	1622.22
1007.773	1616.57
1008.067	1610.47
1008.361	1591.03
1008.655	1590.13
1008.948	1560.07
1009.242	1579.05
1009.535	1580.86
1009.829	1567.98
1010.122	1530.02
1010.415	1554.2
1010.708	1534.08
1011.001	1497.02
1011.295	1491.15
1011.588	1495.21
1011.881	1490.02
1012.173	1502.9
1012.466	1491.83
1012.759	1463.58
1013.052	1471.26
1013.344	1459.28
1013.637	1442.79
1013.93	1434.65
1014.222	1422.22
1014.514	1424.48
1014.807	1399.62
1015.099	1389
1015.391	1390.81
1015.683	1369.57
1015.976	1400.3
1016.268	1392.62
1016.56	1376.8
1016.851	1350.36
1017.143	1350.81
1017.435	1361.21
1017.727	1333.41
1018.018	1331.83
1018.31	1291.83
1018.602	1299.29
1018.893	1293.64
1019.185	1294.54
1019.476	1287.99
1019.767	1293.41
1020.058	1234.66
1020.35	1254.09
1020.641	1244.15
1020.932	1233.07
1021.223	1235.33
1021.514	1238.5
1021.804	1215.9
1022.095	1190.14
1022.386	1207.99
1022.677	1172.74
1022.967	1180.87
1023.258	1197.82
1023.548	1182
1023.839	1167.54
1024.129	1149.46
1024.419	1178.16
1024.709	1150.37
1025	1134.09
1025.29	1166.18
1025.58	1123.02
1025.87	1135.68
1026.16	1110.14
1026.449	1102.91
1026.739	1086.86
1027.029	1110.82
1027.319	1087.09
1027.608	1057.71
1027.898	1071.27
1028.187	1072.85
1028.477	1040.31
1028.766	1045.51
1029.055	1050.48
1029.344	1045.06
1029.634	1037.83
1029.923	1031.95
1030.212	1030.14
1030.501	991.5
1030.79	1008.45
1031.078	1010.93
1031.367	999.63
1031.656	994.89
1031.945	980.43
1032.233	977.71
1032.522	973.87
1032.81	965.51
1033.099	953.08
1033.387	928
1033.675	920.99
1033.963	953.76
1034.251	912.18
1034.54	938.85
1034.828	899.52
1035.116	904.27
1035.403	902.24
1035.691	914.89
1035.979	918.28
1036.267	902.01
1036.554	861.79
1036.842	878.73
1037.129	873.08
1037.417	870.6
1037.704	853.2
1037.992	858.62
1038.279	855.23
1038.566	844.38
1038.853	844.38
1039.14	844.38
