Data from hue_160_FLMS001491_00027.txt Node
Date: Tue Feb 07 16:50:58 GMT 2017
User: dcchb
Spectrometer: FLMS00149
Trigger mode: 0
Integration Time (sec): 2.000000E-2
Scans to average: 10
Electric dark correction enabled: true
Nonlinearity correction enabled: false
Boxcar width: 0
XAxis mode: Wavelengths
Number of Pixels in Spectrum: 2048
>>>>>Begin Spectral Data<<<<<
341.393	-21.95
341.776	-21.95
342.16	-21.95
342.543	-75.51
342.927	-70.76
343.31	-57.2
343.693	-72.79
344.077	-80.93
344.46	-60.82
344.843	-51.78
345.226	-43.64
345.61	-35.73
345.993	-29.18
346.376	-7.03
346.759	6.07
347.142	32.29
347.525	45.85
347.908	79.29
348.291	75.22
348.674	91.95
349.057	108.44
349.44	110.48
349.823	151.83
350.206	136.69
350.588	206.29
350.971	187.31
351.354	237.03
351.737	232.51
352.119	256.24
352.502	243.81
352.884	266.63
353.267	281.77
353.65	280.87
354.032	294.88
354.414	325.39
354.797	300.08
355.179	320.64
355.562	325.39
355.944	323.58
356.326	332.62
356.709	323.58
357.091	333.07
357.473	334.2
357.855	329
358.238	358.61
358.62	322.45
359.002	346.63
359.384	346.4
359.766	332.62
360.148	344.82
360.53	323.35
360.912	335.33
361.294	308.44
361.676	331.04
362.057	324.93
362.439	327.42
362.821	306.18
363.203	309.79
363.584	321.77
363.966	319.06
364.348	324.03
364.729	308.89
365.111	319.51
365.493	300.98
365.874	300.75
366.256	323.13
366.637	312.05
367.019	303.24
367.4	324.03
367.781	321.77
368.163	327.42
368.544	302.79
368.925	319.51
369.306	298.27
369.688	315.67
370.069	310.02
370.45	315.9
370.831	300.08
371.212	308.66
371.593	294.88
371.974	317.03
372.355	299.4
372.736	298.04
373.117	314.31
373.498	299.17
373.879	317.25
374.26	322.68
374.641	336.23
375.021	324.26
375.402	315.67
375.783	310.92
376.163	332.84
376.544	314.77
376.925	319.51
377.305	340.3
377.686	303.92
378.066	314.77
378.447	333.07
378.827	309.57
379.208	326.97
379.588	318.61
379.968	337.36
380.349	317.48
380.729	318.38
381.109	327.65
381.489	332.62
381.87	345.05
382.25	339.17
382.63	357.25
383.01	345.27
383.39	336.91
383.77	340.53
384.15	354.31
384.53	338.49
384.91	333.07
385.29	350.7
385.67	350.02
386.049	344.82
386.429	334.65
386.809	347.08
387.189	367.19
387.568	343.01
387.948	338.04
388.328	341.43
388.707	344.37
389.087	361.32
389.466	353.63
389.846	361.32
390.225	360.64
390.605	370.36
390.984	368.1
391.363	345.5
391.743	365.16
392.122	360.19
392.501	360.19
392.881	382.11
393.26	377.59
393.639	365.61
394.018	366.29
394.397	352.5
394.776	371.26
395.155	346.4
395.534	376.69
395.913	372.17
396.292	365.61
396.671	380.98
397.05	379.62
397.429	389.79
397.808	401.77
398.186	396.12
398.565	362.67
398.944	374.2
399.323	380.53
399.701	403.35
400.08	383.01
400.458	385.72
400.837	382.56
401.215	402.9
401.594	411.94
401.972	398.15
402.351	409.9
402.729	397.48
403.107	394.31
403.486	395.89
403.864	429.11
404.242	404.48
404.62	402
404.999	415.1
405.377	421.43
405.755	409.68
406.133	411.26
406.511	404.71
406.889	440.64
407.267	426.63
407.645	426.4
408.023	443.8
408.401	440.86
408.779	431.37
409.156	454.2
409.534	418.04
409.912	445.16
410.29	435.89
410.667	477.02
411.045	442.45
411.422	449.9
411.8	462.78
412.178	490.35
412.555	482.9
412.933	467.53
413.31	470.47
413.687	481.54
414.065	493.52
414.442	500.52
414.819	471.37
415.197	508.21
415.574	492.16
415.951	500.75
416.328	498.49
416.705	498.26
417.082	501.65
417.46	504.82
417.837	525.38
418.214	521.31
418.591	513.63
418.967	512.27
419.344	521.99
419.721	511.6
420.098	545.72
420.475	539.62
420.852	540.97
421.228	551.14
421.605	541.88
421.982	557.25
422.358	573.29
422.735	549.79
423.111	539.39
423.488	553.4
423.864	573.74
424.241	595.21
424.617	553.86
424.994	580.07
425.37	588.88
425.746	569.45
426.123	584.82
426.499	613.06
426.875	604.02
427.251	612.84
427.627	622.55
428.003	618.94
428.379	614.19
428.756	628.2
429.132	623.23
429.507	636.34
429.883	644.02
430.259	666.62
430.635	641.31
431.011	621.2
431.387	658.26
431.763	664.81
432.138	673.4
432.514	656.45
432.89	648.99
433.265	695.09
433.641	691.93
434.016	717.47
434.392	720.18
434.767	743.68
435.143	731.93
435.518	730.35
435.894	748.43
436.269	732.61
436.644	748.43
437.02	755.43
437.395	769.9
437.77	780.06
438.145	776
438.52	791.82
438.895	798.14
439.271	816
439.646	809.22
440.021	813.96
440.395	805.15
440.77	817.58
441.145	840.63
441.52	825.26
441.895	836.79
442.27	839.5
442.645	869.33
443.019	840.85
443.394	839.27
443.769	861.64
444.143	864.36
444.518	904.58
444.892	881.3
445.267	888.76
445.641	898.71
446.016	906.16
446.39	903.22
446.764	911.81
447.139	897.58
447.513	927.63
447.887	928.53
448.262	898.48
448.636	944.13
449.01	943.9
449.384	949.1
449.758	968.31
450.132	972.83
450.506	1004.92
450.88	998.14
451.254	999.72
451.628	1004.92
452.002	1039.94
452.376	1026.84
452.75	1041.53
453.123	1019.38
453.497	1035.88
453.871	1051.7
454.244	1083.79
454.618	1090.56
454.992	1129.43
455.365	1105.03
455.739	1125.82
456.112	1134.41
456.486	1103.22
456.859	1131.47
457.232	1183.22
457.606	1184.57
457.979	1204.23
458.352	1205.36
458.725	1225.48
459.099	1249.66
459.472	1237.68
459.845	1278.58
460.218	1264.8
460.591	1279.49
460.964	1326.04
461.337	1352.48
461.71	1352.7
462.083	1375.98
462.456	1398.13
462.829	1406.04
463.201	1377.11
463.574	1401.52
463.947	1463.44
464.32	1484.23
464.692	1490.1
465.065	1497.11
465.438	1524
465.81	1527.16
466.183	1565.13
466.555	1613.04
466.928	1616.43
467.3	1639.02
467.672	1649.42
468.045	1703.66
468.417	1709.08
468.789	1718.57
469.161	1781.62
469.534	1806.93
469.906	1864.33
470.278	1871.33
470.65	1900.94
471.022	1939.81
471.394	1976.19
471.766	1964.44
472.138	2031.56
472.51	2078.11
472.882	2113.36
473.253	2200.82
473.625	2179.8
473.997	2250.76
474.369	2301.61
474.74	2322.17
475.112	2420.47
475.484	2484.2
475.855	2502.73
476.227	2526.01
476.598	2619.11
476.97	2660.24
477.341	2758.54
477.713	2810.07
478.084	2880.12
478.455	2971.42
478.827	2988.37
479.198	3134.35
479.569	3161.02
479.94	3235.37
480.311	3330.05
480.682	3445.53
481.053	3520.56
481.424	3586.09
481.795	3732.3
482.166	3774.34
482.537	3889.59
482.908	4049.13
483.279	4101.33
483.65	4200.09
484.021	4295.23
484.391	4372.06
484.762	4486.86
485.133	4556.01
485.503	4687.98
485.874	4802.78
486.244	4894.08
486.615	5061.53
486.985	5117.35
487.356	5309.89
487.726	5391.24
488.097	5542.2
488.467	5634.17
488.837	5847.73
489.207	5880.95
489.578	6013.6
489.948	6080.49
490.318	6258.11
490.688	6350.77
491.058	6557.99
491.428	6659.01
491.798	6803.41
492.168	6994.36
492.538	7047.92
492.908	7148.03
493.278	7318.65
493.648	7376.05
494.017	7480.9
494.387	7674.8
494.757	7761.8
495.126	7873.21
495.496	7972.64
495.866	8110.27
496.235	8220.77
496.605	8314.56
496.974	8361.33
497.344	8544.15
497.713	8623.7
498.082	8750.02
498.452	8857.37
498.821	9031.15
499.19	9030.92
499.559	9126.51
499.928	9190.46
500.298	9267.75
500.667	9404.24
501.036	9550.68
501.405	9606.72
501.774	9627.74
502.143	9776.66
502.512	9832.48
502.88	9869.77
503.249	9931.01
503.618	10039.93
503.987	10041.29
504.356	10161.51
504.724	10208.74
505.093	10257.56
505.462	10348.85
505.83	10442.18
506.199	10478.34
506.567	10589.52
506.936	10632.69
507.304	10825.22
507.672	10769.18
508.041	10838.33
508.409	10906.8
508.777	10971.66
509.145	11108.38
509.514	11052.79
509.882	11172.79
510.25	11210.07
510.618	11227.93
510.986	11312.89
511.354	11406
511.722	11439.22
512.09	11461.14
512.458	11497.07
512.826	11593.57
513.193	11537.97
513.561	11586.33
513.929	11655.94
514.297	11747.23
514.664	11803.73
515.032	11812.77
515.4	11855.25
515.767	11859.32
516.135	11888.47
516.502	11826.33
516.869	12035.36
517.237	11931.18
517.604	11987.45
517.972	12069.71
518.339	12134.79
518.706	12076.26
519.073	12081.01
519.44	12137.73
519.808	12216.83
520.175	12196.71
520.542	12267.9
520.909	12304.96
521.276	12279.42
521.643	12375.92
522.009	12422.24
522.376	12438.06
522.743	12439.87
523.11	12532.98
523.477	12623.82
523.843	12625.63
524.21	12657.49
524.577	12675.34
524.943	12711.28
525.31	12713.99
525.676	12795.79
526.043	12797.38
526.409	12798.96
526.776	12925.51
527.142	12877.37
527.508	12817.94
527.874	12890.03
528.241	12910.37
528.607	12866.98
528.973	12859.75
529.339	12885.96
529.705	12957.37
530.071	13034.43
530.437	13032.4
530.803	13037.14
531.169	12959.63
531.535	12966.41
531.901	12885.51
532.267	12929.12
532.632	12971.38
532.998	12920.54
533.364	12953.76
533.73	12848.67
534.095	12938.61
534.461	12909.01
534.826	12932.06
535.192	12843.02
535.557	12931.16
535.923	12787.21
536.288	12796.92
536.653	12821.1
537.019	12714.67
537.384	12770.26
537.749	12730.03
538.114	12653.42
538.479	12643.26
538.845	12644.84
539.21	12543.14
539.575	12603.03
539.94	12553.99
540.305	12582.01
540.67	12465.63
541.034	12437.38
541.399	12473.09
541.764	12425.18
542.129	12396.48
542.494	12336.82
542.858	12396.71
543.223	12261.12
543.587	12269.03
543.952	12227.67
544.316	12246.43
544.681	12225.41
545.045	12180.22
545.41	12164.62
545.774	12114.23
546.138	11991.29
546.503	12088.69
546.867	11983.16
547.231	12071.07
547.595	12003.27
547.959	11963.05
548.324	11887.12
548.688	11826.55
549.052	11788.14
549.416	11816.16
549.779	11755.37
550.143	11743.17
550.507	11712.43
550.871	11687.8
551.235	11680.34
551.599	11650.29
551.962	11666.11
552.326	11630.63
552.689	11649.61
553.053	11473.57
553.417	11552.66
553.78	11650.74
554.143	11427.92
554.507	11477.64
554.87	11520.12
555.234	11513.57
555.597	11386.34
555.96	11404.64
556.323	11415.72
556.686	11380.01
557.05	11362.84
557.413	11308.6
557.776	11317.87
558.139	11367.58
558.502	11272.67
558.865	11315.61
559.228	11387.24
559.59	11349.05
559.953	11299.56
560.316	11390.41
560.679	11328.26
561.041	11376.85
561.404	11389.73
561.767	11377.53
562.129	11280.58
562.492	11393.57
562.854	11331.2
563.217	11295.72
563.579	11355.15
563.941	11332.78
564.304	11366.23
564.666	11377.75
565.028	11369.39
565.39	11436.51
565.753	11405.1
566.115	11410.52
566.477	11389.28
566.839	11410.29
567.201	11500.91
567.563	11474.92
567.925	11509.5
568.287	11483.06
568.648	11400.8
569.01	11514.7
569.372	11476.51
569.734	11510.63
570.095	11521.48
570.457	11556.96
570.819	11584.53
571.18	11535.26
571.542	11594.24
571.903	11524.87
572.265	11634.02
572.626	11624.52
572.987	11566.67
573.349	11682.15
573.71	11688.48
574.071	11595.6
574.432	11656.39
574.794	11721.02
575.155	11668.82
575.516	11591.31
575.877	11667.69
576.238	11663.62
576.599	11685.99
576.96	11702.04
577.32	11716.05
577.681	11735.26
578.042	11732.09
578.403	11728.93
578.763	11708.82
579.124	11658.65
579.485	11763.05
579.845	11771.87
580.206	11727.8
580.566	11679.66
580.927	11692.09
581.287	11721.92
581.648	11652.32
582.008	11737.52
582.368	11628.14
582.728	11663.85
583.089	11705.43
583.449	11716.27
583.809	11685.54
584.169	11704.3
584.529	11617.07
584.889	11681.02
585.249	11552.66
585.609	11643.96
585.969	11631.98
586.329	11590.4
586.688	11614.81
587.048	11528.48
587.408	11539.78
587.768	11584.07
588.127	11574.81
588.487	11552.89
588.846	11636.05
589.206	11541.82
589.565	11504.98
589.925	11515.83
590.284	11537.97
590.643	11591.76
591.003	11534.13
591.362	11551.76
591.721	11544.98
592.08	11536.62
592.44	11549.72
592.799	11541.36
593.158	11509.5
593.517	11474.7
593.876	11484.64
594.235	11477.86
594.593	11500.01
594.952	11511.53
595.311	11454.13
595.67	11460.01
596.029	11528.48
596.387	11457.75
596.746	11475.83
597.104	11401.25
597.463	11379.56
597.822	11425.21
598.18	11349.5
598.538	11464.08
598.897	11436.28
599.255	11298.43
599.613	11509.05
599.972	11416.85
600.33	11444.42
600.688	11347.02
601.046	11480.8
601.404	11448.26
601.762	11429.5
602.12	11383.63
602.478	11485.77
602.836	11428.6
603.194	11435.38
603.552	11421.82
603.91	11375.72
604.268	11479.44
604.625	11386.34
604.983	11481.03
605.341	11397.64
605.698	11411.2
606.056	11415.94
606.413	11430.18
606.771	11469.73
607.128	11465.43
607.485	11413.68
607.843	11437.41
608.2	11467.69
608.557	11513.12
608.914	11480.12
609.272	11478.77
609.629	11450.74
609.986	11504.3
610.343	11438.32
610.7	11593.79
611.057	11454.36
611.414	11497.75
611.771	11481.25
612.127	11567.8
612.484	11556.05
612.841	11558.09
613.198	11587.92
613.554	11486.68
613.911	11634.02
614.267	11589.72
614.624	11565.09
614.98	11633.34
615.337	11670.4
615.693	11671.3
616.05	11612.77
616.406	11727.57
616.762	11624.75
617.118	11649.16
617.475	11626.33
617.831	11711.53
618.187	11729.61
618.543	11696.61
618.899	11753.11
619.255	11714.69
619.611	11772.77
619.967	11684.64
620.323	11828.36
620.678	11714.92
621.034	11764.86
621.39	11698.87
621.746	11709.95
622.101	11867.23
622.457	11734.13
622.812	11749.95
623.168	11774.8
623.523	11756.5
623.879	11780.23
624.234	11678.99
624.589	11763.28
624.945	11705.65
625.3	11781.81
625.655	11711.75
626.01	11699.55
626.365	11804.18
626.72	11766.44
627.075	11738.87
627.43	11677.18
627.785	11732.32
628.14	11772.54
628.495	11681.92
628.85	11710.62
629.205	11663.17
629.559	11795.82
629.914	11679.89
630.269	11714.92
630.623	11686.22
630.978	11665.88
631.332	11688.48
631.687	11640.8
632.041	11636.73
632.396	11634.92
632.75	11548.59
633.104	11620.68
633.459	11605.99
633.813	11531.19
634.167	11552.89
634.521	11629.04
634.875	11533.23
635.229	11536.39
635.583	11501.36
635.937	11448.03
636.291	11528.03
636.645	11493.45
636.999	11417.07
637.352	11499.78
637.706	11373.68
638.06	11442.61
638.413	11395.6
638.767	11410.29
639.121	11412.33
639.474	11316.06
639.828	11364.42
640.181	11359
640.534	11313.12
640.888	11292.56
641.241	11284.65
641.594	11315.61
641.947	11270.18
642.301	11249.85
642.654	11297.53
643.007	11265.44
643.36	11280.81
643.713	11272.67
644.066	11256.4
644.419	11210.3
644.771	11091.43
645.124	11082.39
645.477	11097.53
645.83	11020.02
646.182	10972.56
646.535	10912.68
646.888	10935.28
647.24	10812.79
647.593	10903.41
647.945	10836.75
648.298	10847.37
648.65	10857.99
649.002	10870.87
649.355	10848.73
649.707	10827.94
650.059	10946.12
650.411	11016.63
650.763	11089.62
651.115	11161.94
651.467	11115.61
651.819	11080.81
652.171	11090.75
652.523	11056.4
652.875	11110.64
653.227	11037.65
653.578	11193.35
653.93	11100.7
654.282	11069.96
654.633	11045.78
654.985	11094.6
655.337	11071.55
655.688	11089.4
656.039	11216.63
656.391	10993.36
656.742	11063.86
657.094	11086.23
657.445	11128.94
657.796	11106.35
658.147	11025.44
658.498	11095.73
658.849	11053.47
659.2	11142.28
659.551	11058.44
659.902	11095.5
660.253	11129.62
660.604	11099.79
660.955	11071.09
661.306	11155.84
661.656	11154.48
662.007	11078.78
662.358	11160.13
662.708	11112.67
663.059	11159.68
663.409	11145.67
663.76	11154.93
664.11	11148.61
664.461	11169.62
664.811	11107.7
665.161	11146.35
665.511	11147.25
665.862	11087.36
666.212	11175.5
666.562	11189.28
666.912	11132.56
667.262	11198.1
667.612	11145.89
667.962	11150.86
668.312	11123.97
668.662	11172.56
669.011	11137.31
669.361	11158.1
669.711	11134.59
670.06	11123.07
670.41	11124.43
670.76	11094.37
671.109	11166.23
671.459	11128.94
671.808	11093.24
672.157	11133.24
672.507	11099.11
672.856	11119.23
673.205	11134.37
673.554	11060.92
673.904	11043.07
674.253	11196.06
674.602	11065.9
674.951	10905
675.3	10859.8
675.649	11003.75
675.998	10990.42
676.346	10955.62
676.695	11081.26
677.044	10947.71
677.393	11010.76
677.741	10982.51
678.09	10947.71
678.438	10947.48
678.787	10902.06
679.135	10949.74
679.484	10889.85
679.832	10915.84
680.181	10860.7
680.529	10883.08
680.877	10814.83
681.225	10802.63
681.573	10854.6
681.922	10711.33
682.27	10778.9
682.618	10761.04
682.966	10716.07
683.314	10754.72
683.661	10760.82
684.009	10693.93
684.357	10649.86
684.705	10658.45
685.053	10647.38
685.4	10608.73
685.748	10567.83
686.095	10480.15
686.443	10516.31
686.79	10440.6
687.138	10505.68
687.485	10454.16
687.832	10458
688.18	10428.17
688.527	10388.63
688.874	10399.92
689.221	10324.67
689.568	10293.94
689.915	10279.7
690.262	10321.51
690.609	10248.52
690.956	10158.57
691.303	10177.56
691.65	10114.06
691.997	10036.32
692.344	10055.07
692.69	10002.42
693.037	10019.14
693.383	9923.55
693.73	9968.98
694.077	9916.77
694.423	9871.12
694.769	9858.02
695.116	9813.27
695.462	9836.32
695.808	9810.56
696.155	9714.07
696.501	9655.09
696.847	9719.04
697.193	9621.19
697.539	9606.5
697.885	9564.92
698.231	9528.99
698.577	9535.54
698.923	9487.86
699.269	9444.47
699.614	9385.71
699.96	9371.48
700.306	9340.74
700.651	9316.34
700.997	9202.89
701.342	9277.02
701.688	9239.28
702.033	9174.42
702.379	9144.36
702.724	9143.23
703.069	9136.91
703.415	9041.09
703.76	9014.2
704.105	8983.24
704.45	8973.07
704.795	8920.19
705.14	8914.31
705.485	8880.19
705.83	8869.34
706.175	8796.12
706.52	8783.24
706.865	8747.76
707.209	8712.29
707.554	8657.15
707.899	8722.23
708.243	8656.24
708.588	8642.91
708.932	8588.22
709.277	8622.34
709.621	8626.64
709.966	8533.76
710.31	8566.3
710.654	8510.93
710.998	8504.38
711.342	8442.01
711.687	8415.57
712.031	8443.82
712.375	8413.31
712.719	8452.4
713.063	8395.01
713.407	8409.47
713.75	8361.56
714.094	8336.25
714.438	8306.19
714.782	8313.65
715.125	8336.48
715.469	8261.68
715.812	8302.13
716.156	8270.71
716.499	8250.83
716.843	8237.95
717.186	8209.47
717.53	8234.11
717.873	8188.23
718.216	8201.79
718.559	8199.08
718.902	8117.27
719.246	8077.95
719.589	8138.97
719.932	8131.51
720.275	8139.64
720.617	8123.15
720.96	8060.55
721.303	8095.13
721.646	8104.17
721.989	8016.71
722.331	8033.66
722.674	7981.46
723.016	8028.91
723.359	8048.8
723.701	8034.34
724.044	8013.32
724.386	7938.29
724.729	7985.52
725.071	8041.79
725.413	8023.72
725.755	7918.86
726.097	7932.19
726.439	7943.72
726.782	7923.83
727.124	7930.61
727.465	7913.66
727.807	7905.07
728.149	7842.03
728.491	7901.23
728.833	7944.85
729.175	7858.75
729.516	7859.65
729.858	7905.3
730.199	7845.42
730.541	7901.68
730.882	7851.29
731.224	7864.17
731.565	7860.78
731.906	7844.96
732.248	7854.23
732.589	7817.17
732.93	7855.13
733.271	7922.25
733.612	7849.48
733.953	7906.2
734.294	7814.46
734.635	7794.34
734.976	7878.41
735.317	7851.74
735.658	7803.61
735.999	7840.44
736.339	7822.59
736.68	7882.7
737.021	7885.41
737.361	7855.81
737.702	7853.1
738.042	7858.3
738.383	7838.18
738.723	7886.09
739.063	7887
739.404	7912.08
739.744	7922.02
740.084	7874.79
740.424	7913.66
740.764	7959.31
741.104	7971.97
741.444	7959.99
741.784	7992.76
742.124	8007.44
742.464	8014.9
742.804	8060.1
743.143	8070.04
743.483	8081.12
743.823	8017.61
744.162	8036.37
744.502	8111.62
744.841	8121.11
745.181	8166.76
745.52	8187.33
745.86	8258.74
746.199	8262.81
746.538	8313.65
746.877	8357.49
747.216	8366.98
747.556	8403.82
747.895	8495.79
748.234	8492.18
748.573	8580.54
748.911	8599.29
749.25	8672.29
749.589	8712.74
749.928	8761.55
750.267	8844.94
750.605	8947.31
750.944	8921.09
751.283	8973.75
751.621	9155.66
751.96	9190.46
752.298	9220.97
752.636	9397.01
752.975	9401.98
753.313	9472.94
753.651	9637.91
753.989	9722.88
754.327	9830.45
754.666	9927.17
755.004	10060.05
755.342	10203.09
755.679	10328.74
756.017	10330.1
756.355	10501.84
756.693	10604.66
757.031	10809.41
757.368	10888.72
757.706	11040.13
758.044	11109.74
758.381	11353.35
758.719	11419.78
759.056	11614.58
759.394	11725.77
759.731	11833.33
760.068	11992.88
760.405	12169.6
760.743	12302.7
761.08	12471.06
761.417	12555.57
761.754	12780.2
762.091	12984.94
762.428	13102
762.765	13160.53
763.102	13459.28
763.438	13505.38
763.775	13725.26
764.112	13871.92
764.449	14110.11
764.785	14149.2
765.122	14277.34
765.458	14404.34
765.795	14510.78
766.131	14715.52
766.467	14897.21
766.804	14967.71
767.14	14994.83
767.476	15345.1
767.812	15289.51
768.148	15514.82
768.485	15595.49
768.821	15693.12
769.157	15835.71
769.492	15905.54
769.828	16114.35
770.164	16048.59
770.5	16221.69
770.836	16360.45
771.171	16411.52
771.507	16511.18
771.842	16551.85
772.178	16697.39
772.513	16799.98
772.849	16816.7
773.184	16875.46
773.519	16996.36
773.855	16998.62
774.19	17043.59
774.525	17137.6
774.86	17282.68
775.195	17397.93
775.53	17462.79
775.865	17443.58
776.2	17334.66
776.535	17317.93
776.87	17571.49
777.205	17465.28
777.539	17566.97
777.874	17707.3
778.209	17608.32
778.543	17696.23
778.878	17568.1
779.212	17711.37
779.547	17653.07
779.881	17736.91
780.215	17705.72
780.55	17793.4
780.884	17680.18
781.218	17675.21
781.552	17842.67
781.886	17815.32
782.22	17780.07
782.554	17822.78
782.888	17612.39
783.222	17739.62
783.556	17618.04
783.889	17612.84
784.223	17690.81
784.557	17627.08
784.89	17648.77
785.224	17652.61
785.557	17512.51
785.891	17556.12
786.224	17568.32
786.558	17640.19
786.891	17496.69
787.224	17460.53
787.557	17374.2
787.891	17434.32
788.224	17566.74
788.557	17403.13
788.89	17448.55
789.223	17473.41
789.556	17331.49
789.888	17326.07
790.221	17312.96
790.554	17221.44
790.887	17245.62
791.219	17183.25
791.552	17187.77
791.884	17175.57
792.217	17056.92
792.549	17046.53
792.882	17004.04
793.214	16992.97
793.546	16974.67
793.879	16947.55
794.211	16798.85
794.543	17012.63
794.875	16881.56
795.207	16996.14
795.539	16826.2
795.871	16776.93
796.203	16651.51
796.535	16609.03
796.867	16595.92
797.198	16554.56
797.53	16652.64
797.862	16546.66
798.193	16636.82
798.525	16420.78
798.856	16540.33
799.188	16329.94
799.519	16334.68
799.85	16227.57
800.182	16209.49
800.513	16237.06
800.844	16108.02
801.175	16235.03
801.506	16162.03
801.837	16118.87
802.168	16043.39
802.499	16049.95
802.83	15984.41
803.161	15949.16
803.491	15980.34
803.822	15920.68
804.153	15815.38
804.483	15686.56
804.814	15718.65
805.145	15728.37
805.475	15664.19
805.805	15598.21
806.136	15597.3
806.466	15588.71
806.796	15578.55
807.126	15477.08
807.457	15491.77
807.787	15407.93
808.117	15387.82
808.447	15299.23
808.777	15374.93
809.107	15230.76
809.436	15234.37
809.766	15227.14
810.096	15174.04
810.426	15142.4
810.755	15173.81
811.085	15143.98
811.414	15083.87
811.744	15037.77
812.073	15031.44
812.403	14968.39
812.732	14905.57
813.061	14991.89
813.39	14845.68
813.719	14821.73
814.049	14884.78
814.378	14872.8
814.707	14756.87
815.036	14847.26
815.365	14735.18
815.693	14644.11
816.022	14570.44
816.351	14566.14
816.68	14549.42
817.008	14670.32
817.337	14439.59
817.665	14447.28
817.994	14433.49
818.322	14402.98
818.651	14390.78
818.979	14317.34
819.307	14367.05
819.636	14291.35
819.964	14289.99
820.292	14346.49
820.62	14287.28
820.948	14282.76
821.276	14343.55
821.604	14240.95
821.932	14248.41
822.259	14270.33
822.587	14248.86
822.915	14192.82
823.243	14281.4
823.57	14090.45
823.898	14264.68
824.225	14238.69
824.553	14151.46
824.88	14226.04
825.207	14293.83
825.535	14157.34
825.862	14188.07
826.189	14201.63
826.516	14319.37
826.843	14301.52
827.17	14251.12
827.497	14224.91
827.824	14211.58
828.151	14300.16
828.478	14243.89
828.805	14323.44
829.131	14273.04
829.458	14238.69
829.785	14191.91
830.111	14270.78
830.438	14317.56
830.764	14267.85
831.09	14316.88
831.417	14197.34
831.743	14186.27
832.069	14249.77
832.395	14224.23
832.722	14298.8
833.048	14176.77
833.374	14232.37
833.7	14131.35
834.026	14127.51
834.351	14044.57
834.677	14148.75
835.003	14104.46
835.329	14085.25
835.654	14120.73
835.98	14074.86
836.306	14126.61
836.631	14111.47
836.956	14053.39
837.282	14122.99
837.607	13974.07
837.932	13923.67
838.258	13913.28
838.583	13992.82
838.908	13837.12
839.233	13969.55
839.558	13930.23
839.883	13804.81
840.208	13769.78
840.533	13789.89
840.858	13737.24
841.182	13821.98
841.507	13795.54
841.832	13725.03
842.156	13655.66
842.481	13645.71
842.805	13637.13
843.13	13609.33
843.454	13570.46
843.778	13600.29
844.103	13457.47
844.427	13492.05
844.751	13473.06
845.075	13354.2
845.399	13376.34
845.723	13302.45
846.047	13367.98
846.371	13165.05
846.695	13212.51
847.019	13164.15
847.343	13075.33
847.666	13008.67
847.99	12921.89
848.313	12998.27
848.637	12909.24
848.96	12816.81
849.284	12736.81
849.607	12735.68
849.931	12704.04
850.254	12566.65
850.577	12555.8
850.9	12436.93
851.223	12400.55
851.546	12343.83
851.869	12362.36
852.192	12329.37
852.515	12283.04
852.838	12164.85
853.161	12232.64
853.483	12000.33
853.806	12048.02
854.129	12107.22
854.451	12062.71
854.774	11949.94
855.096	11969.37
855.419	11889.6
855.741	11858.64
856.063	11879.21
856.385	11856.61
856.708	11793.11
857.03	11686.67
857.352	11679.89
857.674	11622.27
857.996	11534.58
858.318	11556.5
858.64	11511.08
858.961	11505.21
859.283	11476.05
859.605	11431.31
859.926	11450.97
860.248	11342.05
860.57	11326.45
860.891	11344.53
861.212	11235.16
861.534	11270.64
861.855	11238.09
862.176	11224.99
862.498	11237.64
862.819	11199.23
863.14	11218.89
863.461	11224.99
863.782	11106.12
864.103	11072.67
864.424	11110.19
864.745	11107.02
865.065	11001.04
865.386	10994.03
865.707	10931.66
866.027	11013.47
866.348	10949.29
866.668	10930.98
866.989	10919.46
867.309	10847.37
867.63	10870.19
867.95	10917.88
868.27	10794.49
868.59	10846.01
868.91	10818.44
869.23	10785.9
869.55	10745.45
869.87	10756.75
870.19	10843.3
870.51	10751.78
870.83	10783.42
871.15	10714.04
871.469	10704.32
871.789	10699.8
872.109	10714.94
872.428	10531.22
872.748	10591.78
873.067	10553.59
873.386	10612.12
873.706	10571.22
874.025	10508.62
874.344	10545.46
874.663	10424.78
874.982	10511.11
875.301	10509.07
875.62	10396.76
875.939	10366.7
876.258	10415.97
876.577	10399.02
876.896	10320.83
877.214	10305.69
877.533	10370.77
877.852	10254.62
878.17	10312.92
878.489	10348.63
878.807	10251
879.125	10307.5
879.444	10253.71
879.762	10145.24
880.08	10151.12
880.398	10150.21
880.716	10203.77
881.034	10106.6
881.352	10111.12
881.67	10108.18
881.988	10048.75
882.306	10077.67
882.624	10092.81
882.941	9983.66
883.259	9961.74
883.577	9971.23
883.894	9912.25
884.212	9982.53
884.529	10005.81
884.846	9858.02
885.164	9869.54
885.481	9813.95
885.798	9807.17
886.115	9722.2
886.432	9774.63
886.75	9732.15
887.067	9732.15
887.383	9697.8
887.7	9714.29
888.017	9732.82
888.334	9680.4
888.651	9626.61
888.967	9578.02
889.284	9521.53
889.6	9502.55
889.917	9419.84
890.233	9428.2
890.55	9459.16
890.866	9390.46
891.182	9463.68
891.498	9383
891.815	9353.85
892.131	9281.99
892.447	9322.89
892.763	9209
893.079	9210.13
893.395	9158.15
893.71	9166.74
894.026	9115.21
894.342	9121.99
894.657	9061.65
894.973	9041.77
895.289	9044.03
895.604	9030.69
895.92	8978.49
896.235	8874.54
896.55	8908.44
896.865	8921.32
897.181	8854.2
897.496	8837.25
897.811	8828.21
898.126	8753.87
898.441	8737.14
898.756	8697.6
899.071	8727.43
899.386	8684.94
899.7	8502.57
900.015	8510.03
900.33	8489.92
900.644	8469.13
900.959	8476.59
901.273	8473.87
901.588	8383.25
901.902	8346.19
902.216	8375.12
902.531	8319.53
902.845	8312.97
903.159	8232.52
903.473	8170.83
903.787	8194.33
904.101	8187.33
904.415	8103.49
904.729	8118.63
905.042	8116.37
905.356	8038.86
905.67	7995.24
905.984	7988.24
906.297	7972.87
906.611	7893.78
906.924	7925.64
907.237	7888.35
907.551	7795.47
907.864	7735.81
908.177	7774.91
908.491	7758.86
908.804	7729.71
909.117	7633.44
909.43	7599.77
909.743	7584.18
910.056	7534.46
910.368	7533.78
910.681	7453.56
910.994	7454.69
911.307	7440.23
911.619	7411.53
911.932	7411.75
912.244	7338.99
912.557	7312.32
912.869	7272.32
913.181	7257.18
913.494	7267.8
913.806	7197.75
914.118	7116.62
914.43	7123.63
914.742	7112.55
915.054	7077.3
915.366	7063.74
915.678	7040.46
915.99	7029.39
916.302	6954.37
916.613	6902.39
916.925	6889.73
917.236	6906.91
917.548	6878.43
917.859	6833.01
918.171	6757.31
918.482	6770.87
918.794	6773.58
919.105	6732.9
919.416	6722.73
919.727	6646.35
920.038	6621.27
920.349	6612.45
920.66	6564.77
920.971	6529.97
921.282	6598.22
921.593	6471.89
921.903	6491.1
922.214	6478.67
922.525	6442.06
922.835	6419.24
923.146	6342.86
923.456	6358.45
923.767	6347.38
924.077	6335.17
924.387	6292.24
924.697	6252.69
925.008	6238
925.318	6205.01
925.628	6153.71
925.938	6170.66
926.248	6074.61
926.558	6080.04
926.867	6120.04
927.177	6032.36
927.487	6051.56
927.796	5979.48
928.106	5931.34
928.416	5935.41
928.725	5925.69
929.034	5842.76
929.344	5885.92
929.653	5859.25
929.962	5766.37
930.271	5824.45
930.581	5787.39
930.89	5721.4
931.199	5703.55
931.508	5706.26
931.817	5677.11
932.125	5706.49
932.434	5639.6
932.743	5659.48
933.051	5575.19
933.36	5551.46
933.669	5542.88
933.977	5532.71
934.286	5515.31
934.594	5486.38
934.902	5436.89
935.21	5421.3
935.519	5392.37
935.827	5422.2
936.135	5324.35
936.443	5315.99
936.751	5294.3
937.059	5323.67
937.367	5305.59
937.674	5241.19
937.982	5279.61
938.29	5207.29
938.597	5225.6
938.905	5149.44
939.213	5112.83
939.52	5103.57
939.827	5132.27
940.135	5085.94
940.442	5089.56
940.749	5045.26
941.056	5058.82
941.363	4985.15
941.67	4964.36
941.977	4943.12
942.284	4926.4
942.591	4928.88
942.898	4875.55
943.205	4916.9
943.511	4835.1
943.818	4905.83
944.125	4800.75
944.431	4788.32
944.738	4763.01
945.044	4760.3
945.35	4720.53
945.657	4704.93
945.963	4690.92
946.269	4676.91
946.575	4661.09
946.881	4605.27
947.187	4619.51
947.493	4559.63
947.799	4577.48
948.105	4548.1
948.41	4501.1
948.716	4490.7
949.022	4471.72
949.327	4485.5
949.633	4408.67
949.938	4423.81
950.244	4402.34
950.549	4376.35
950.854	4393.53
951.16	4371.16
951.465	4374.55
951.77	4331.84
952.075	4271.95
952.38	4270.82
952.685	4264.94
952.99	4266.3
953.294	4244.38
953.599	4196.7
953.904	4163.03
954.209	4130.71
954.513	4149.69
954.818	4106.08
955.122	4115.8
955.426	4107.43
955.731	4064.95
956.035	4087.77
956.339	4073.76
956.643	4057.27
956.948	4005.29
957.252	4013.2
957.556	3975.46
957.86	3982.69
958.163	3949.25
958.467	3948.12
958.771	3931.85
959.075	3922.81
959.378	3864.73
959.682	3855.92
959.985	3883.03
960.289	3835.8
960.592	3840.1
960.896	3764.17
961.199	3769.82
961.502	3784.28
961.805	3741.79
962.108	3722.13
962.411	3704.73
962.714	3692.98
963.017	3700.89
963.32	3661.34
963.623	3648.46
963.926	3639.2
964.228	3627.9
964.531	3635.58
964.833	3600.56
965.136	3533.66
965.438	3525.08
965.741	3543.61
966.043	3516.49
966.345	3487.79
966.648	3502.25
966.95	3526.66
967.252	3467
967.554	3469.71
967.856	3421.35
968.158	3403.5
968.46	3389.94
968.761	3376.83
969.063	3373.89
969.365	3364.4
969.666	3353.1
969.968	3303.84
970.269	3319.88
970.571	3278.76
970.872	3282.6
971.174	3294.57
971.475	3225.88
971.776	3245.76
972.077	3263.39
972.378	3257.74
972.679	3220.23
972.98	3210.96
973.281	3226.33
973.582	3163.05
973.883	3158.31
974.183	3177.29
974.484	3113.56
974.785	3101.13
975.085	3093
975.386	3131.87
975.686	3114.24
975.986	3032.89
976.287	3021.59
976.587	3027.69
976.887	3038.76
977.187	2999.44
977.487	2996.5
977.787	2967.58
978.087	2986.56
978.387	2962.38
978.687	2933.68
978.987	2911.31
979.286	2901.82
979.586	2889.84
979.885	2892.78
980.185	2857.07
980.484	2882.83
980.784	2849.39
981.083	2837.64
981.382	2826.34
981.682	2776.62
981.981	2815.49
982.28	2802.16
982.579	2770.07
982.878	2768.26
983.177	2761.71
983.475	2728.04
983.774	2740.24
984.073	2711.76
984.372	2674.93
984.67	2667.25
984.969	2655.04
985.267	2662.5
985.566	2648.26
985.864	2658.88
986.162	2636.29
986.461	2639.9
986.759	2628.6
987.057	2576.85
987.355	2569.85
987.653	2565.33
987.951	2587.02
988.249	2545.89
988.547	2558.1
988.844	2546.12
989.142	2484.65
989.44	2521.26
989.737	2485.56
990.035	2466.8
990.332	2464.09
990.63	2471.09
990.927	2435.84
991.224	2391.55
991.521	2436.74
991.819	2389.29
992.116	2426.57
992.413	2364.88
992.71	2378.21
993.006	2372.56
993.303	2374.6
993.6	2325.56
993.897	2323.07
994.193	2303.19
994.49	2285.34
994.787	2291.89
995.083	2262.51
995.379	2232.91
995.676	2244.21
995.972	2250.08
996.268	2254.83
996.565	2215.73
996.861	2222.06
997.157	2217.31
997.453	2224.32
997.749	2194.04
998.044	2177.54
998.34	2161.27
998.636	2186.81
998.932	2133.7
999.227	2152.91
999.523	2161.04
999.818	2090.54
1000.114	2095.06
1000.409	2086.02
1000.704	2091.22
1001	2056.87
1001.295	2059.58
1001.59	2030.2
1001.885	2045.12
1002.18	2038.56
1002.475	1993.82
1002.77	2018.68
1003.065	2000.82
1003.359	1986.81
1003.654	1973.71
1003.949	1951.56
1004.243	1942.52
1004.538	1951.56
1004.832	1940.49
1005.127	1917.21
1005.421	1873.82
1005.715	1902.07
1006.009	1902.29
1006.304	1883.09
1006.598	1860.26
1006.892	1865.23
1007.186	1853.26
1007.48	1829.75
1007.773	1825.23
1008.067	1798.34
1008.361	1788.4
1008.655	1797.21
1008.948	1800.38
1009.242	1755.18
1009.535	1758.8
1009.829	1766.03
1010.122	1743.43
1010.415	1722.41
1010.708	1734.62
1011.001	1699.36
1011.295	1704.56
1011.588	1676.31
1011.881	1678.57
1012.173	1679.48
1012.466	1675.41
1012.759	1646.26
1013.052	1625.01
1013.344	1628.4
1013.637	1641.96
1013.93	1617.33
1014.222	1633.15
1014.514	1592.47
1014.807	1601.96
1015.099	1598.57
1015.391	1569.87
1015.683	1593.83
1015.976	1566.03
1016.268	1532.13
1016.56	1546.6
1016.851	1538.69
1017.143	1506.15
1017.435	1485.36
1017.727	1483.1
1018.018	1473.38
1018.31	1460.72
1018.602	1464.57
1018.893	1441.29
1019.185	1465.47
1019.476	1441.06
1019.767	1439.48
1020.058	1441.06
1020.35	1408.75
1020.641	1391.8
1020.932	1364.68
1021.223	1380.27
1021.514	1359.71
1021.804	1354.06
1022.095	1359.94
1022.386	1363.1
1022.677	1348.86
1022.967	1320.39
1023.258	1348.41
1023.548	1319.94
1023.839	1300.05
1024.129	1298.47
1024.419	1287.85
1024.709	1303.67
1025	1279.94
1025.29	1277.23
1025.58	1252.59
1025.87	1251.46
1026.16	1228.87
1026.449	1230.67
1026.739	1213.73
1027.029	1214.63
1027.319	1216.66
1027.608	1211.69
1027.898	1197.23
1028.187	1172.6
1028.477	1166.49
1028.766	1174.86
1029.055	1160.39
1029.344	1164.91
1029.634	1137.34
1029.923	1130.79
1030.212	1143.9
1030.501	1129.66
1030.79	1140.73
1031.078	1102.77
1031.367	1119.04
1031.656	1120.62
1031.945	1098.25
1032.233	1110
1032.522	1095.54
1032.81	1075.88
1033.099	1073.16
1033.387	1057.8
1033.675	1066.16
1033.963	1054.18
1034.251	1032.49
1034.54	1020.74
1034.828	1025.48
1035.116	1040.62
1035.403	1031.36
1035.691	1011.7
1035.979	998.36
1036.267	967.86
1036.554	985.93
1036.842	968.99
1037.129	998.82
1037.417	976.67
1037.704	970.57
1037.992	963.79
1038.279	955.43
1038.566	941.42
1038.853	941.42
1039.14	941.42
