Data from hue_80_FLMS001491_11.txt Node
Date: Mon Feb 06 15:22:32 GMT 2017
User: dcchb
Spectrometer: FLMS00149
Trigger mode: 0
Integration Time (sec): 2.000000E-2
Scans to average: 10
Electric dark correction enabled: true
Nonlinearity correction enabled: false
Boxcar width: 0
XAxis mode: Wavelengths
Number of Pixels in Spectrum: 2048
>>>>>Begin Spectral Data<<<<<
341.393	-12.51
341.776	-12.51
342.16	-12.51
342.543	-59.29
342.927	-69.91
343.31	-62.91
343.693	-88.67
344.077	-71.27
344.46	-66.52
344.843	-50.48
345.226	-28.78
345.61	-30.82
345.993	-19.97
346.376	-12.97
346.759	7.6
347.142	13.47
347.525	62.06
347.908	85.79
348.291	88.73
348.674	82.62
349.057	92.12
349.44	125.34
349.823	155.84
350.206	155.84
350.588	182.74
350.971	189.97
351.354	229.06
351.737	219.8
352.119	249.4
352.502	260.7
352.884	244.43
353.267	291.21
353.65	274.26
354.032	286.46
354.414	290.76
354.797	300.92
355.179	342.51
355.562	316.74
355.944	319.91
356.326	315.84
356.709	325.56
357.091	329.17
357.473	346.12
357.855	335.27
358.238	358.32
358.62	350.64
359.002	338.89
359.384	344.99
359.766	329.85
360.148	332.11
360.53	340.02
360.912	314.94
361.294	312
361.676	315.16
362.057	323.52
362.439	314.94
362.821	309.51
363.203	321.26
363.584	324.88
363.966	317.87
364.348	315.39
364.729	321.26
365.111	312.9
365.493	314.26
365.874	292.34
366.256	294.37
366.637	304.77
367.019	310.42
367.4	310.42
367.781	321.49
368.163	317.65
368.544	299.57
368.925	310.42
369.306	302.28
369.688	305.22
370.069	311.32
370.45	320.81
370.831	307.03
371.212	311.09
371.593	311.77
371.974	298.66
372.355	297.99
372.736	305.9
373.117	300.92
373.498	323.97
373.879	325.56
374.26	304.99
374.641	298.66
375.021	303.64
375.402	310.87
375.783	329.62
376.163	301.83
376.544	309.51
376.925	317.65
377.305	321.94
377.686	328.49
378.066	305.67
378.447	306.8
378.827	333.01
379.208	302.73
379.588	332.34
379.968	337.99
380.349	316.52
380.729	322.62
381.109	328.04
381.489	334.37
381.87	326.46
382.25	342.28
382.63	326.23
383.01	336.63
383.39	327.82
383.77	323.07
384.15	321.94
384.53	339.79
384.91	313.13
385.29	354.03
385.67	341.38
386.049	336.63
386.429	324.65
386.809	347.25
387.189	332.11
387.568	361.71
387.948	355.39
388.328	356.52
388.707	330.08
389.087	354.03
389.466	346.57
389.846	359.91
390.225	352.67
390.605	353.13
390.984	346.57
391.363	354.03
391.743	368.72
392.122	365.56
392.501	354.03
392.881	374.37
393.26	358.78
393.639	361.04
394.018	359.45
394.397	380.47
394.776	377.31
395.155	378.21
395.534	371.88
395.913	365.1
396.292	384.99
396.671	379.57
397.05	373.24
397.429	387.25
397.808	374.14
398.186	371.88
398.565	384.09
398.944	397.42
399.323	400.13
399.701	383.18
400.08	389.28
400.458	399
400.837	378.21
401.215	387.02
401.594	383.63
401.972	404.65
402.351	382.28
402.729	403.97
403.107	403.07
403.486	392.45
403.864	378.66
404.242	388.15
404.62	387.7
404.999	407.59
405.377	417.53
405.755	403.52
406.133	417.98
406.511	405.78
406.889	411.66
407.267	423.63
407.645	414.14
408.023	430.64
408.401	428.38
408.779	435.38
409.156	420.7
409.534	438.77
409.912	438.32
410.29	452.11
410.667	439.9
411.045	437.42
411.422	429.06
411.8	433.12
412.178	445.1
412.555	448.27
412.933	434.03
413.31	469.96
413.687	450.52
414.065	464.54
414.442	487.13
414.819	472.22
415.197	461.82
415.574	462.05
415.951	486.46
416.328	461.82
416.705	457.08
417.082	461.82
417.46	466.34
417.837	478.09
418.214	478.32
418.591	511.31
418.967	495.5
419.344	511.09
419.721	491.2
420.098	508.83
420.475	499.79
420.852	509.05
421.228	499.34
421.605	502.5
421.982	505.21
422.358	520.35
422.735	520.58
423.111	518.32
423.488	536.4
423.864	520.35
424.241	529.39
424.617	535.04
424.994	523.29
425.37	534.36
425.746	530.97
426.123	532.1
426.499	523.52
426.875	568.71
427.251	561.03
427.627	574.59
428.003	574.14
428.379	538.88
428.756	587.92
429.132	598.54
429.507	565.78
429.883	597.87
430.259	600.35
430.635	615.27
431.011	596.06
431.387	579.79
431.763	605.32
432.138	605.32
432.514	619.33
432.89	643.06
433.265	634.7
433.641	629.96
434.016	621.37
434.392	645.1
434.767	643.06
435.143	662.27
435.518	632.67
435.894	673.34
436.269	660.24
436.644	684.64
437.02	682.61
437.395	684.19
437.77	705.66
438.145	687.81
438.52	681.93
438.895	681.71
439.271	686.9
439.646	712.89
440.021	709.95
440.395	721.48
440.77	731.42
441.145	723.74
441.52	728.03
441.895	719.22
442.27	742.04
442.645	744.75
443.019	733.91
443.394	730.52
443.769	728.26
444.143	734.81
444.518	770.29
444.892	749.73
445.267	763.06
445.641	764.19
446.016	768.03
446.39	788.37
446.764	780.01
447.139	793.11
447.513	784.53
447.887	796.96
448.262	784.75
448.636	779.78
449.01	812.55
449.384	798.31
449.758	826.79
450.132	813.91
450.506	840.35
450.88	836.5
451.254	847.12
451.628	871.08
452.002	854.36
452.376	865.88
452.75	875.82
453.123	894.58
453.497	890.06
453.871	877.86
454.244	908.14
454.618	895.26
454.992	921.92
455.365	904.52
455.739	947.91
456.112	944.3
456.486	940.68
456.859	956.95
457.232	1005.76
457.606	963.51
457.979	983.84
458.352	1005.99
458.725	1042.15
459.099	1014.8
459.472	1036.95
459.845	1041.7
460.218	1054.58
460.591	1042.37
460.964	1070.4
461.337	1089.6
461.71	1094.35
462.083	1104.74
462.456	1139.32
462.829	1131.86
463.201	1162.6
463.574	1178.64
463.947	1196.95
464.32	1182.03
464.692	1210.73
465.065	1227.45
465.438	1217.06
465.81	1246.21
466.183	1262.93
466.555	1298.64
466.928	1337.28
467.3	1308.58
467.672	1336.6
468.045	1381.12
468.417	1396.49
468.789	1413.66
469.161	1420.22
469.534	1437.84
469.906	1476.49
470.278	1482.81
470.65	1506.77
471.022	1539.76
471.394	1551.51
471.766	1613.43
472.138	1620.66
472.51	1649.59
472.882	1701.57
473.253	1725.75
473.625	1769.13
473.997	1801.22
474.369	1839.64
474.74	1882.13
475.112	1899.75
475.484	1970.48
475.855	2021.56
476.227	2019.75
476.598	2100.42
476.97	2098.62
477.341	2207.54
477.713	2246.41
478.084	2273.3
478.455	2399.17
478.827	2405.5
479.198	2440.98
479.569	2515.56
479.94	2627.19
480.311	2674.65
480.682	2785.38
481.053	2855.43
481.424	2899.05
481.795	2973.17
482.166	3060.4
482.537	3115.77
482.908	3256.78
483.279	3328.64
483.65	3437.34
484.021	3540.84
484.391	3597.33
484.762	3689.54
485.133	3752.81
485.503	3896.99
485.874	3987.16
486.244	4108.96
486.615	4219.47
486.985	4265.11
487.356	4405.22
487.726	4547.82
488.097	4687.02
488.467	4776.74
488.837	4919.11
489.207	5014.92
489.578	5187.8
489.948	5242.04
490.318	5406.55
490.688	5514.57
491.058	5648.81
491.428	5764.06
491.798	5907.78
492.168	6061.45
492.538	6178.51
492.908	6273.2
493.278	6426.86
493.648	6602.68
494.017	6747.53
494.387	6884.25
494.757	6963.12
495.126	7089.45
495.496	7245.15
495.866	7310.23
496.235	7455.31
496.605	7593.39
496.974	7740.05
497.344	7819.6
497.713	7928.97
498.082	8153.6
498.452	8305.46
498.821	8291.67
499.19	8382.07
499.559	8561.95
499.928	8671.78
500.298	8824.09
500.667	8915.84
501.036	8951.77
501.405	9090.07
501.774	9204.87
502.143	9352.21
502.512	9436.5
502.88	9570.96
503.249	9648.7
503.618	9780.22
503.987	9845.53
504.356	9903.61
504.724	10049.14
505.093	10091.4
505.462	10227.44
505.83	10295.01
506.199	10368.46
506.567	10579.07
506.936	10616.81
507.304	10735.68
507.672	10831.04
508.041	10919.4
508.409	11063.13
508.777	11136.35
509.145	11219.28
509.514	11236.46
509.882	11386.96
510.25	11456.34
510.618	11539.72
510.986	11543.11
511.354	11685.03
511.722	11765.71
512.09	11854.74
512.458	11947.62
512.826	12017.23
513.193	12063.33
513.561	12104.68
513.929	12184.91
514.297	12328.18
514.664	12369.31
515.032	12426.26
515.4	12521.39
515.767	12637.1
516.135	12671.9
516.502	12650.66
516.869	12817.43
517.237	12890.65
517.604	12908.28
517.972	12985.56
518.339	13070.08
518.706	12970.87
519.073	13136.97
519.44	13189.17
519.808	13317.53
520.175	13263.97
520.542	13464.42
520.909	13489.5
521.276	13526.57
521.643	13659.9
522.009	13660.12
522.376	13701.7
522.743	13755.26
523.11	13946.67
523.477	13957.74
523.843	14026.89
524.21	14120.45
524.577	14252.65
524.943	14268.92
525.31	14323.15
525.676	14334.91
526.043	14477.27
526.409	14469.59
526.776	14645.63
527.142	14636.37
527.508	14664.61
527.874	14735.8
528.241	14743.03
528.607	14755.23
528.973	14924.04
529.339	14809.47
529.705	14990.93
530.071	14992.74
530.437	15066.41
530.803	15114.55
531.169	15140.31
531.535	15141.44
531.901	15172.4
532.267	15116.13
532.632	15321.77
532.998	15263.47
533.364	15257.14
533.73	15311.15
534.095	15365.84
534.461	15372.62
534.826	15465.05
535.192	15354.54
535.557	15432.96
535.923	15473.63
536.288	15473.41
536.653	15469.56
537.019	15495.78
537.384	15464.37
537.749	15522.44
538.114	15529.45
538.479	15418.49
538.845	15529.22
539.21	15409.91
539.575	15444.03
539.94	15473.41
540.305	15519.28
540.67	15495.55
541.034	15530.58
541.399	15602.67
541.764	15545.04
542.129	15481.32
542.494	15543.24
542.858	15378.27
543.223	15527.19
543.587	15542.78
543.952	15434.54
544.316	15514.54
544.681	15406.06
545.045	15484.71
545.41	15539.85
545.774	15522.22
546.138	15432.05
546.503	15494.42
546.867	15522.22
547.231	15521.54
547.595	15500.3
547.959	15504.37
548.324	15504.59
548.688	15504.59
549.052	15434.31
549.416	15393.63
549.779	15397.25
550.143	15411.04
550.507	15477.7
550.871	15481.54
551.235	15351.6
551.599	15395.22
551.962	15511.15
552.326	15399.28
552.689	15458.72
553.053	15473.86
553.417	15449.45
553.78	15544.82
554.143	15459.17
554.507	15437.48
554.87	15454.88
555.234	15587.3
555.597	15415.56
555.96	15462.33
556.323	15396.8
556.686	15554.53
557.05	15538.94
557.413	15592.95
557.776	15555.89
558.139	15599.73
558.502	15674.53
558.865	15578.94
559.228	15683.34
559.59	15659.39
559.953	15697.81
560.316	15850.57
560.679	15769.67
561.041	15788.65
561.404	15739.16
561.767	15878.14
562.129	15823.45
562.492	15935.09
562.854	15914.98
563.217	15872.27
563.579	15952.72
563.941	15960.85
564.304	15971.7
564.666	16074.29
565.028	16036.78
565.39	16080.4
565.753	16091.24
566.115	16138.02
566.477	16161.52
566.839	16198.81
567.201	16271.58
567.563	16281.75
567.925	16347.06
568.287	16374.17
568.648	16308.19
569.01	16418.92
569.372	16562.42
569.734	16309.54
570.095	16536.88
570.457	16488.3
570.819	16534.85
571.18	16616.88
571.542	16727.61
571.903	16577.78
572.265	16617.33
572.626	16701.85
572.987	16713.15
573.349	16763.09
573.71	16753.15
574.071	16779.14
574.432	16891.9
574.794	16897.1
575.155	16886.93
575.516	16779.59
575.877	16832.02
576.238	16925.12
576.599	17005.34
576.96	16928.74
577.32	16975.06
577.681	16882.18
578.042	16961.73
578.403	16978
578.763	16890.09
579.124	17026.81
579.485	17069.97
579.845	17020.03
580.206	17010.54
580.566	17044.44
580.927	16995.85
581.287	17083.53
581.648	16970.99
582.008	17040.82
582.368	17046.7
582.728	17067.26
583.089	17074.04
583.449	16970.09
583.809	17012.35
584.169	16942.52
584.529	16992.69
584.889	17219.35
585.249	17030.2
585.609	16862.07
585.969	17063.42
586.329	16970.99
586.688	17044.21
587.048	17011.9
587.408	16954.72
587.768	16843.54
588.127	16927.38
588.487	16938.45
588.846	17008.51
589.206	16904.56
589.565	16800.15
589.925	17014.84
590.284	16898.23
590.643	16926.93
591.003	16970.54
591.362	17009.86
591.721	16982.29
592.08	16920.15
592.44	16931.45
592.799	16921.96
593.158	16933.26
593.517	16874.95
593.876	16969.41
594.235	16874.05
594.593	16926.48
594.952	16876.76
595.311	16896.19
595.67	16816.2
596.029	16998.34
596.387	16927.38
596.746	16963.99
597.104	16891.9
597.463	16898
597.822	16858.68
598.18	16853.71
598.538	16822.3
598.897	16943.2
599.255	16810.77
599.613	17022.52
599.972	16810.09
600.33	16979.13
600.688	16935.74
601.046	16952.24
601.404	17022.29
601.762	16924.22
602.12	17096.87
602.478	17074.27
602.836	16957.66
603.194	16913.37
603.552	16892.58
603.91	16838.79
604.268	16845.57
604.625	16898.91
604.983	16971.45
605.341	16944.55
605.698	17057.09
606.056	16992.24
606.413	16987.27
606.771	17100.03
607.128	17048.96
607.485	16970.77
607.843	16997.66
608.2	17114.27
608.557	17175.06
608.914	17006.25
609.272	17079.47
609.629	17049.64
609.986	17227.03
610.343	17140.26
610.7	17270.42
611.057	17210.31
611.414	17150.2
611.771	17285.34
612.127	17262.29
612.484	17315.17
612.841	17260.7
613.198	17266.35
613.554	17224.32
613.911	17346.8
614.267	17330.76
614.624	17249.63
614.98	17359.23
615.337	17492.11
615.693	17529.17
616.05	17333.47
616.406	17448.5
616.762	17478.33
617.118	17391.1
617.475	17441.04
617.831	17489.4
618.187	17432.45
618.543	17610.53
618.899	17608.49
619.255	17590.41
619.611	17615.27
619.967	17644.65
620.323	17699.34
620.678	17601.49
621.034	17506.35
621.39	17604.42
621.746	17507.03
622.101	17778.2
622.457	17584.99
622.812	17645.33
623.168	17669.96
623.523	17610.53
623.879	17635.61
624.234	17588.83
624.589	17707.7
624.945	17681.48
625.3	17702.73
625.655	17678.32
626.01	17711.77
626.365	17631.09
626.72	17674.7
627.075	17692.33
627.43	17609.62
627.785	17539.79
628.14	17701.6
628.495	17682.84
628.85	17631.54
629.205	17527.59
629.559	17675.38
629.914	17630.41
630.269	17603.97
630.623	17570.53
630.978	17532.79
631.332	17759.22
631.687	17548.61
632.041	17490.75
632.396	17589.51
632.75	17507.48
633.104	17563.75
633.459	17604.88
633.813	17392
634.167	17356.97
634.521	17427.71
634.875	17400.59
635.229	17450.98
635.583	17319.01
635.937	17325.79
636.291	17242.85
636.645	17268.61
636.999	17349.06
637.352	17334.37
637.706	17211.44
638.06	17223.42
638.413	17217.09
638.767	17180.93
639.121	17299.57
639.474	17078.11
639.828	17124.89
640.181	17149.97
640.534	17121.27
640.888	17058.22
641.241	17004.67
641.594	17098.9
641.947	17129.63
642.301	17036.76
642.654	17050.77
643.007	17087.83
643.36	17036.98
643.713	17064.55
644.066	17071.33
644.419	16994.5
644.771	16789.76
645.124	16723.32
645.477	16734.16
645.83	16565.36
646.182	16558.35
646.535	16462.53
646.888	16402.87
647.24	16414.17
647.593	16585.69
647.945	16477.67
648.298	16367.17
648.65	16313.84
649.002	16400.61
649.355	16440.84
649.707	16370.11
650.059	16474.96
650.411	16544.34
650.763	16636.99
651.115	16889.19
651.467	16772.13
651.819	16851.22
652.171	16809.42
652.523	16742.98
652.875	16726.71
653.227	16696.88
653.578	16771.23
653.93	16785.01
654.282	16683.77
654.633	16720.15
654.985	16765.58
655.337	16763.54
655.688	16662.3
656.039	16825.69
656.391	16613.04
656.742	16742.3
657.094	16695.52
657.445	16776.65
657.796	16677.22
658.147	16696.88
658.498	16741.85
658.849	16766.25
659.2	16679.25
659.551	16692.81
659.902	16758.57
660.253	16749.98
660.604	16734.16
660.955	16643.09
661.306	16732.81
661.656	16690.55
662.007	16755.18
662.358	16738.91
662.708	16908.85
663.059	16794.28
663.409	16745.24
663.76	16771.45
664.11	16855.52
664.461	16863.65
664.811	16848.74
665.161	16849.64
665.511	16771
665.862	16793.15
666.212	16860.49
666.562	16854.61
666.912	16829.76
667.262	16819.59
667.612	16792.24
667.962	16771.68
668.312	16715.63
668.662	16891.9
669.011	16658.46
669.361	16745.46
669.711	16781.85
670.06	16796.54
670.41	16789.53
670.76	16688.97
671.109	16852.35
671.459	16660.72
671.808	16750.89
672.157	16710.44
672.507	16575.75
672.856	16725.35
673.205	16647.16
673.554	16733.49
673.904	16634.96
674.253	16692.36
674.602	16651.23
674.951	16450.33
675.3	16366.04
675.649	16595.86
675.998	16623.66
676.346	16632.02
676.695	16712.02
677.044	16463.66
677.393	16458.47
677.741	16591.34
678.09	16462.99
678.438	16451.69
678.787	16458.47
679.135	16481.29
679.484	16344.34
679.832	16455.98
680.181	16299.6
680.529	16336.89
680.877	16445.58
681.225	16266.15
681.573	16409.88
681.922	16270.22
682.27	16213.27
682.618	16259.15
682.966	16227.29
683.314	16211.69
683.661	16206.72
684.009	16056.67
684.357	16050.11
684.705	15962.89
685.053	16042.88
685.4	15999.04
685.748	15913.4
686.095	15801.99
686.443	15816
686.79	15814.87
687.138	15781.87
687.485	15790.01
687.832	15750.46
688.18	15700.97
688.527	15665.94
688.874	15643.35
689.221	15538.26
689.568	15491.03
689.915	15381.66
690.262	15441.54
690.609	15392.96
690.956	15366.97
691.303	15436.35
691.65	15313.64
691.997	15230.48
692.344	15180.76
692.69	15118.39
693.037	15192.28
693.383	15073.64
693.73	15027.77
694.077	14949.13
694.423	14960.88
694.769	14883.37
695.116	14822.35
695.462	14842.24
695.808	14787.78
696.155	14781.22
696.501	14621.45
696.847	14589.81
697.193	14543.26
697.539	14603.83
697.885	14368.8
698.231	14357.5
698.577	14402.93
698.923	14363.15
699.269	14284.51
699.614	14174.46
699.96	14143.95
700.306	14141.46
700.651	14033.22
700.997	14100.79
701.342	13928.81
701.688	13909.15
702.033	13930.17
702.379	13920.23
702.724	13899.89
703.069	13796.39
703.415	13662.15
703.76	13581.03
704.105	13660.8
704.45	13696.73
704.795	13534.7
705.14	13547.58
705.485	13532.21
705.83	13442.27
706.175	13373.35
706.52	13395.95
706.865	13268.49
707.209	13301.94
707.554	13261.94
707.899	13230.53
708.243	13109.85
708.588	13193.01
708.932	13043.41
709.277	13053.81
709.621	12963.87
709.966	12918.45
710.31	12982.4
710.654	12795.06
710.998	12892.23
711.342	12804.32
711.687	12884.1
712.031	12737.43
712.375	12708.51
712.719	12737.89
713.063	12708.73
713.407	12642.97
713.75	12661.05
714.094	12677.32
714.438	12671.45
714.782	12515.29
715.125	12478.01
715.469	12471
715.812	12448.4
716.156	12440.94
716.499	12470.1
716.843	12532.47
717.186	12401.4
717.53	12499.25
717.873	12415.41
718.216	12351.45
718.559	12331.79
718.902	12213.38
719.246	12249.99
719.589	12228.97
719.932	12185.81
720.275	12153.95
720.617	12179.71
720.96	12139.71
721.303	12138.81
721.646	12224
721.989	12098.58
722.331	12171.57
722.674	12104.91
723.016	12100.61
723.359	12105.81
723.701	12106.72
724.044	12017.68
724.386	11987.4
724.729	12027.4
725.071	11974.97
725.413	11930.45
725.755	11991.69
726.097	11850.68
726.439	11925.03
726.782	11914.86
727.124	11931.58
727.465	11856.33
727.807	11800.96
728.149	11830.56
728.491	11789.89
728.833	11893.61
729.175	11802.99
729.516	11831.47
729.858	11781.98
730.199	11824.92
730.541	11786.95
730.882	11724.58
731.224	11785.82
731.565	11729.1
731.906	11795.76
732.248	11736.78
732.589	11739.04
732.93	11735.2
733.271	11746.95
733.612	11745.14
733.953	11754.18
734.294	11673.73
734.635	11718.93
734.976	11732.94
735.317	11675.99
735.658	11636.9
735.999	11691.36
736.339	11668.76
736.68	11790.34
737.021	11688.65
737.361	11688.65
737.702	11790.57
738.042	11793.28
738.383	11749.66
738.723	11753.96
739.063	11767.74
739.404	11729.1
739.744	11786.5
740.084	11758.7
740.424	11693.17
740.764	11738.59
741.104	11864.69
741.444	11808.87
741.784	11860.39
742.124	11838.7
742.464	11822.88
742.804	11852.26
743.143	11840.28
743.483	11880.28
743.823	11808.87
744.162	11967.28
744.502	11951.69
744.841	11847.74
745.181	11968.64
745.52	11999.83
745.86	12054.74
746.199	12033.5
746.538	12051.35
746.877	12065.81
747.216	12170.44
747.556	12188.97
747.895	12247.95
748.234	12242.31
748.573	12369.08
748.911	12379.25
749.25	12408.85
749.589	12419.25
749.928	12484.56
750.267	12612.92
750.605	12661.5
750.944	12641.84
751.283	12820.37
751.621	12790.54
751.96	12826.24
752.298	13030.08
752.636	13085.67
752.975	13117.08
753.313	13067.14
753.651	13321.82
753.989	13345.55
754.327	13438.88
754.666	13534.47
755.004	13614.7
755.342	13786.22
755.679	13852.66
756.017	13842.49
756.355	14014.24
756.693	14067.12
757.031	14184.4
757.368	14230.95
757.706	14331.06
758.044	14478.63
758.381	14621.45
758.719	14632.3
759.056	14778.06
759.394	14903.03
759.731	14878.62
760.068	15021.44
760.405	15239.97
760.743	15241.1
761.08	15446.06
761.417	15423.46
761.754	15496.68
762.091	15658.94
762.428	15696
762.765	15775.55
763.102	16017.57
763.438	15941.64
763.775	16091.47
764.112	16334.18
764.449	16396.09
764.785	16268.19
765.122	16424.34
765.458	16488.52
765.795	16578.91
766.131	16721.51
766.467	16695.3
766.804	16782.75
767.14	16744.79
767.476	16906.82
767.812	16954.72
768.148	16989.3
768.485	17027.94
768.821	17171.89
769.157	17137.77
769.492	17269.07
769.828	17292.12
770.164	17130.76
770.5	17289.18
770.836	17365.56
771.171	17347.71
771.507	17381.83
771.842	17404.43
772.178	17396.52
772.513	17462.28
772.849	17460.02
773.184	17454.15
773.519	17498.89
773.855	17446.01
774.19	17449.85
774.525	17474.94
774.86	17578.66
775.195	17495.27
775.53	17491.88
775.865	17472
776.2	17417.08
776.535	17300.48
776.87	17464.54
777.205	17361.27
777.539	17412.56
777.874	17322.17
778.209	17356.52
778.543	17255.96
778.878	17273.13
779.212	17300.25
779.547	17178.22
779.881	17303.42
780.215	17141.16
780.55	17202.4
780.884	17127.6
781.218	17100.93
781.552	17149.52
781.886	17085.57
782.22	17009.41
782.554	16976.42
782.888	16871.11
783.222	16863.65
783.556	16768.74
783.889	16800.15
784.223	16734.16
784.557	16731.45
784.89	16754.73
785.224	16604.68
785.557	16582.76
785.891	16505.02
786.224	16532.59
786.558	16541.18
786.891	16332.14
787.224	16369.2
787.557	16281.07
787.891	16307.51
788.224	16295.08
788.557	16395.87
788.89	16304.57
789.223	16173.95
789.556	16123.56
789.888	16134.18
790.221	16106.38
790.554	15969.89
790.887	15977.57
791.219	15932.6
791.552	15954.07
791.884	15817.58
792.217	15748.88
792.549	15807.64
792.882	15655.55
793.214	15577.13
793.546	15686.51
793.879	15548.88
794.211	15448.32
794.543	15512.5
794.875	15483.12
795.207	15563.57
795.539	15458.94
795.871	15450.81
796.203	15249.46
796.535	15213.98
796.867	15189.35
797.198	15160.65
797.53	15153.64
797.862	15089.69
798.193	15093.53
798.525	14979.63
798.856	15054.89
799.188	14830.71
799.519	14863.48
799.85	14851.95
800.182	14850.82
800.513	14823.93
800.844	14642.24
801.175	14697.83
801.506	14705.07
801.837	14602.92
802.168	14547.1
802.499	14545.52
802.83	14491.51
803.161	14484.28
803.491	14388.24
803.822	14499.42
804.153	14308.47
804.483	14245.64
804.814	14234.34
805.145	14261.46
805.475	14100.56
805.805	14133.33
806.136	14149.15
806.466	14100.56
806.796	14092.2
807.126	13983.28
807.457	13923.84
807.787	14011.52
808.117	13895.6
808.447	13873.67
808.777	13838.2
809.107	13817.41
809.436	13812.21
809.766	13813.79
810.096	13698.31
810.426	13673.23
810.755	13696.28
811.085	13615.15
811.414	13642.95
811.744	13516.62
812.073	13424.42
812.403	13468.04
812.732	13425.1
813.061	13317.76
813.39	13301.49
813.719	13368.6
814.049	13366.34
814.378	13328.38
814.707	13210.87
815.036	13296.97
815.365	13134.03
815.693	13049.97
816.022	13037.54
816.351	13035.05
816.68	12954.15
817.008	13011.55
817.337	12913.7
817.665	12882.97
817.994	12948.73
818.322	12916.64
818.651	12857.43
818.979	12825.57
819.307	12840.26
819.636	12766.59
819.964	12733.82
820.292	12675.74
820.62	12780.37
820.948	12701.95
821.276	12719.81
821.604	12736.53
821.932	12717.32
822.259	12611.79
822.587	12731.78
822.915	12655.4
823.243	12725
823.57	12609.75
823.898	12633.71
824.225	12672.8
824.553	12656.98
824.88	12677.32
825.207	12688.4
825.535	12706.25
825.862	12698.11
826.189	12658.34
826.516	12682.52
826.843	12777.88
827.17	12753.48
827.497	12740.37
827.824	12773.59
828.151	12709.41
828.478	12722.07
828.805	12789.64
829.131	12659.47
829.458	12641.39
829.785	12645.23
830.111	12691.11
830.438	12644.33
830.764	12656.76
831.09	12650.88
831.417	12666.47
831.743	12603.65
832.069	12654.27
832.395	12540.38
832.722	12579.02
833.048	12557.33
833.374	12605.01
833.7	12440.94
834.026	12647.49
834.351	12620.83
834.677	12510.32
835.003	12613.14
835.329	12536.76
835.654	12526.82
835.98	12371.34
836.306	12529.98
836.631	12432.36
836.956	12442.75
837.282	12452.02
837.607	12402.08
837.932	12375.41
838.258	12435.29
838.583	12335.86
838.908	12299.48
839.233	12327.95
839.558	12289.31
839.883	12194.17
840.208	12331.12
840.533	12155.53
840.858	12219.93
841.182	12207.73
841.507	12166.83
841.832	12087.06
842.156	12061.97
842.481	12057
842.805	12057.68
843.13	11947.62
843.454	11992.37
843.778	11947.62
844.103	11899.72
844.427	11903.56
844.751	11919.6
845.075	11861.3
845.399	11831.47
845.723	11754.41
846.047	11788.08
846.371	11709.66
846.695	11701.3
847.019	11539.05
847.343	11540.85
847.666	11393.97
847.99	11440.07
848.313	11452.72
848.637	11381.31
848.96	11385.83
849.284	11380.63
849.607	11101.09
849.931	11243.91
850.254	11145.38
850.577	11120.53
850.9	10977.03
851.223	10946.07
851.546	10918.72
851.869	10842.57
852.192	10951.04
852.515	10829.69
852.838	10775
853.161	10706.98
853.483	10717.15
853.806	10661.56
854.129	10620.2
854.451	10542.24
854.774	10558.73
855.096	10552.41
855.419	10472.41
855.741	10422.24
856.063	10401.45
856.385	10392.64
856.708	10349.47
857.03	10283.49
857.352	10357.38
857.674	10289.81
857.996	10267.44
858.318	10163.72
858.64	10162.59
858.961	10161.23
859.283	10109.03
859.605	10055.24
859.926	10136.37
860.248	10061.57
860.57	10020.44
860.891	10026.77
861.212	10001.46
861.534	9874.01
861.855	9918.98
862.176	9867.68
862.498	9912.65
862.819	9897.96
863.14	9868.13
863.461	9840.33
863.782	9801.24
864.103	9814.35
864.424	9758.3
864.745	9810.28
865.065	9708.36
865.386	9714.69
865.707	9689.38
866.027	9733.9
866.348	9646.22
866.668	9677.17
866.989	9659.77
867.309	9542.26
867.63	9537.74
867.95	9575.93
868.27	9542.26
868.59	9581.13
868.91	9533
869.23	9526.44
869.55	9514.02
869.87	9494.58
870.19	9428.82
870.51	9551.75
870.83	9469.5
871.15	9427.92
871.469	9372.1
871.789	9419.33
872.109	9352.66
872.428	9334.59
872.748	9334.13
873.067	9383.85
873.386	9368.48
873.706	9340.69
874.025	9303.17
874.344	9243.06
874.663	9269.95
874.982	9209.84
875.301	9280.58
875.62	9180.24
875.939	9184.31
876.258	9171.65
876.577	9187.24
876.896	9145.44
877.214	9094.82
877.533	9122.16
877.852	9096.4
878.17	9097.53
878.489	9087.36
878.807	9032.9
879.125	9079.22
879.444	9041.94
879.762	9030.41
880.08	8994.03
880.398	9002.16
880.716	8933.69
881.034	9005.1
881.352	8911.55
881.67	8951.77
881.988	8900.7
882.306	8895.5
882.624	8787.25
882.941	8800.36
883.259	8824.09
883.577	8728.05
883.894	8809.63
884.212	8801.94
884.529	8710.19
884.846	8751.1
885.164	8677.2
885.481	8686.24
885.798	8688.73
886.115	8554.94
886.432	8676.52
886.75	8537.32
887.067	8554.49
887.383	8536.64
887.7	8546.58
888.017	8507.94
888.334	8498.45
888.651	8437.66
888.967	8509.52
889.284	8408.96
889.6	8388.4
889.917	8336.42
890.233	8324.22
890.55	8319.24
890.866	8342.52
891.182	8283.09
891.498	8256.2
891.815	8239.02
892.131	8241.96
892.447	8187.27
892.763	8135.75
893.079	8136.42
893.395	8051
893.71	8076.99
894.026	8002.42
894.342	8039.25
894.657	7927.16
894.973	7979.37
895.289	7995.86
895.604	7986.15
895.92	7896.88
896.235	7865.47
896.55	7796.77
896.865	7857.34
897.181	7872.48
897.496	7802.65
897.811	7747.28
898.126	7686.49
898.441	7763.1
898.756	7656.21
899.071	7637.23
899.386	7598.13
899.7	7632.48
900.015	7570.56
900.33	7523.11
900.644	7474.07
900.959	7481.53
901.273	7494.41
901.588	7414.18
901.902	7394.52
902.216	7353.39
902.531	7362.21
902.845	7369.89
903.159	7292.15
903.473	7222.78
903.787	7194.08
904.101	7185.94
904.415	7210.57
904.729	7148.88
905.042	7164.25
905.356	7133.51
905.67	7032.27
905.984	7050.58
906.297	7061.42
906.611	7006.96
906.924	6966.29
907.237	6941.2
907.551	6874.99
907.864	6907.3
908.177	6900.3
908.491	6869.57
908.804	6798.61
909.117	6780.3
909.43	6769.45
909.743	6758.38
910.056	6694.2
910.368	6689.68
910.681	6658.72
910.994	6569.23
911.307	6586.41
911.619	6465.28
911.932	6553.87
912.244	6467.77
912.557	6449.92
912.869	6445.17
913.181	6398.17
913.494	6392.52
913.806	6316.81
914.118	6411.05
914.43	6378.96
914.742	6335.79
915.054	6231.39
915.366	6282.69
915.678	6253.08
915.99	6243.14
916.302	6150.04
916.613	6168.79
916.925	6109.36
917.236	6073.65
917.548	6089.92
917.859	6077.72
918.171	6023.03
918.482	6005.63
918.794	6031.85
919.105	5988.68
919.416	5893.55
919.727	5917.27
920.038	5875.47
920.349	5851.06
920.66	5862.36
920.971	5824.62
921.282	5844.28
921.593	5762.02
921.903	5678.64
922.214	5702.82
922.525	5675.7
922.835	5628.69
923.146	5684.96
923.456	5630.73
923.767	5617.85
924.077	5568.58
924.387	5527.23
924.697	5556.83
925.008	5516.15
925.318	5511.86
925.628	5521.8
925.938	5472.31
926.248	5395.48
926.558	5425.54
926.867	5384.41
927.177	5323.17
927.487	5315.71
927.796	5295.82
928.106	5279.78
928.416	5308.7
928.725	5259.44
929.034	5285.65
929.344	5214.24
929.653	5186.45
929.962	5140.35
930.271	5086.56
930.581	5112.55
930.89	5076.62
931.199	5068.71
931.508	5054.25
931.817	5060.57
932.125	5012.66
932.434	4999.33
932.743	4985.55
933.051	4917.53
933.36	4951.2
933.669	4897.19
933.977	4870.3
934.286	4824.65
934.594	4848.15
934.902	4839.11
935.21	4760.24
935.519	4827.13
935.827	4754.14
936.135	4699.45
936.443	4685.67
936.751	4673.92
937.059	4730.41
937.367	4677.08
937.674	4625.78
937.982	4650.87
938.29	4581.04
938.597	4574.94
938.905	4544.88
939.213	4534.26
939.52	4515.05
939.827	4493.58
940.135	4497.2
940.442	4449.29
940.749	4496.29
941.056	4464.43
941.363	4395.51
941.67	4378.56
941.977	4357.09
942.284	4338.11
942.591	4357.77
942.898	4359.35
943.205	4301.27
943.511	4290.65
943.818	4305.56
944.125	4238
944.431	4225.11
944.738	4195.51
945.044	4187.15
945.35	4216.98
945.657	4135.63
945.963	4180.82
946.269	4155.06
946.575	4154.61
946.881	4076.64
947.187	4061.96
947.493	4027.83
947.799	4025.8
948.105	3995.29
948.41	4046.14
948.716	4031.67
949.022	3989.41
949.327	3980.38
949.633	3886.82
949.938	3905.58
950.244	3935.4
950.549	3899.02
950.854	3860.15
951.16	3837.55
951.465	3853.6
951.77	3790.32
952.075	3775.64
952.38	3776.77
952.685	3764.79
952.99	3733.15
953.294	3717.33
953.599	3722.98
953.904	3661.74
954.209	3722.98
954.513	3666.94
954.818	3628.97
955.122	3671.01
955.426	3643.66
955.731	3614.28
956.035	3649.76
956.339	3568.41
956.643	3568.41
956.948	3550.33
957.252	3521.63
957.556	3529.54
957.86	3514.63
958.163	3493.38
958.467	3512.82
958.771	3473.27
959.075	3456.1
959.378	3451.8
959.682	3415.87
959.985	3425.59
960.289	3378.58
960.592	3406.83
960.896	3371.35
961.199	3325.48
961.502	3339.26
961.805	3266.27
962.108	3302.65
962.411	3292.26
962.714	3281.18
963.017	3250.68
963.32	3271.47
963.623	3235.99
963.926	3235.76
964.228	3195.76
964.531	3198.93
964.833	3177.01
965.136	3130.23
965.438	3120.06
965.741	3131.36
966.043	3078.7
966.345	3089.1
966.648	3111.47
966.95	3064.69
967.252	3044.81
967.554	3079.61
967.856	3037.8
968.158	3041.87
968.46	2981.76
968.761	3003.45
969.063	2988.76
969.365	2980.18
969.666	2955.77
969.968	2975.66
970.269	2943.11
970.571	2907.86
970.872	2952.38
971.174	2895.21
971.475	2879.84
971.776	2858.6
972.077	2857.92
972.378	2854.08
972.679	2825.6
972.98	2825.83
973.281	2816.56
973.582	2826.96
973.883	2812.5
974.183	2726.85
974.484	2784.25
974.785	2749.45
975.085	2753.06
975.386	2786.73
975.686	2730.01
975.986	2697.92
976.287	2690.24
976.587	2676.46
976.887	2659.28
977.187	2641.2
977.487	2674.87
977.787	2632.61
978.087	2661.54
978.387	2613.41
978.687	2621.09
978.987	2569.79
979.286	2604.59
979.586	2534.09
979.885	2561.2
980.185	2519.62
980.484	2520.3
980.784	2555.1
981.083	2508.1
981.382	2505.84
981.682	2490.7
981.981	2493.63
982.28	2502.45
982.579	2471.26
982.878	2447.08
983.177	2431.72
983.475	2460.19
983.774	2442.56
984.073	2372.96
984.372	2405.73
984.67	2418.83
984.969	2392.62
985.267	2376.12
985.566	2355.11
985.864	2343.13
986.162	2335.9
986.461	2324.37
986.759	2319.4
987.057	2302.45
987.355	2330.93
987.653	2277.6
987.951	2298.61
988.249	2277.14
988.547	2269.23
988.844	2205.28
989.142	2241.66
989.44	2234.43
989.737	2210.7
990.035	2164.15
990.332	2190.14
990.63	2150.37
990.927	2171.84
991.224	2179.07
991.521	2187.65
991.819	2158.28
992.116	2160.31
992.413	2139.29
992.71	2135
993.006	2110.59
993.303	2113.53
993.6	2115.11
993.897	2097.26
994.193	2059.75
994.49	2048
994.787	2059.07
995.083	2014.55
995.379	2010.48
995.676	2041.22
995.972	2027.43
996.268	1999.41
996.565	2003.25
996.861	1977.72
997.157	1984.72
997.453	1964.61
997.749	1954.44
998.044	1933.2
998.34	1919.41
998.636	1930.03
998.932	1909.92
999.227	1897.49
999.523	1895.46
999.818	1904.5
1000.114	1863.82
1000.409	1859.53
1000.704	1848.91
1001	1859.98
1001.295	1840.09
1001.59	1832.18
1001.885	1819.53
1002.18	1803.03
1002.475	1774.11
1002.77	1803.03
1003.065	1759.42
1003.359	1768.91
1003.654	1762.81
1003.949	1751.51
1004.243	1749.25
1004.538	1747.21
1004.832	1727.78
1005.127	1711.51
1005.421	1713.54
1005.715	1700.89
1006.009	1701.34
1006.304	1676.71
1006.598	1666.09
1006.892	1671.96
1007.186	1658.63
1007.48	1642.13
1007.773	1628.35
1008.067	1612.08
1008.361	1614.11
1008.655	1615.69
1008.948	1608.23
1009.242	1577.5
1009.535	1592.42
1009.829	1597.39
1010.122	1553.32
1010.415	1560.33
1010.708	1526.88
1011.001	1515.58
1011.295	1532.3
1011.588	1536.82
1011.881	1521.91
1012.173	1523.72
1012.466	1519.2
1012.759	1496.15
1013.052	1490.95
1013.344	1492.76
1013.637	1488.24
1013.93	1458.86
1014.222	1457.73
1014.514	1430.39
1014.807	1446.66
1015.099	1426.32
1015.391	1414.79
1015.683	1403.27
1015.976	1441.01
1016.268	1392.42
1016.56	1361.01
1016.851	1360.78
1017.143	1354
1017.435	1341.57
1017.727	1350.39
1018.018	1329.6
1018.31	1350.84
1018.602	1325.53
1018.893	1314.23
1019.185	1329.15
1019.476	1301.8
1019.767	1298.64
1020.058	1304.51
1020.35	1276.72
1020.641	1262.93
1020.932	1248.7
1021.223	1237.4
1021.514	1239.43
1021.804	1238.07
1022.095	1231.52
1022.386	1234.46
1022.677	1224.06
1022.967	1216.38
1023.258	1189.26
1023.548	1219.77
1023.839	1193.1
1024.129	1171.86
1024.419	1161.92
1024.709	1158.98
1025	1154.24
1025.29	1132.99
1025.58	1136.61
1025.87	1146.78
1026.16	1133.22
1026.449	1127.8
1026.739	1084.41
1027.029	1104.97
1027.319	1099.77
1027.608	1103.16
1027.898	1071.53
1028.187	1084.41
1028.477	1075.59
1028.766	1084.63
1029.055	1059.77
1029.344	1055.03
1029.634	1051.64
1029.923	1032.43
1030.212	1014.8
1030.501	1032.43
1030.79	1003.28
1031.078	1007.57
1031.367	998.76
1031.656	1001.92
1031.945	989.49
1032.233	998.08
1032.522	998.08
1032.81	964.64
1033.099	967.57
1033.387	990.85
1033.675	951.75
1033.963	937.97
1034.251	954.92
1034.54	930.96
1034.828	893
1035.116	909.27
1035.403	915.37
1035.691	909.95
1035.979	911.08
1036.267	911.76
1036.554	901.59
1036.842	880.57
1037.129	910.85
1037.417	890.74
1037.704	890.97
1037.992	889.38
1038.279	871.3
1038.566	890.51
1038.853	890.51
1039.14	890.51
