Data from hue_22_FLMS001491_00012.txt Node
Date: Tue Feb 07 17:09:40 GMT 2017
User: dcchb
Spectrometer: FLMS00149
Trigger mode: 0
Integration Time (sec): 2.000000E-2
Scans to average: 10
Electric dark correction enabled: true
Nonlinearity correction enabled: false
Boxcar width: 0
XAxis mode: Wavelengths
Number of Pixels in Spectrum: 2048
>>>>>Begin Spectral Data<<<<<
341.393	-3.55
341.776	-3.55
342.16	-3.55
342.543	-67.05
342.927	-68.18
343.31	-50.32
343.693	-62.75
344.077	-59.81
344.46	-75.18
344.843	-59.36
345.226	-37.67
345.61	-39.02
345.993	-17.1
346.376	5.27
346.759	4.82
347.142	23.8
347.525	58.15
347.908	63.57
348.291	52.27
348.674	83.46
349.057	109.9
349.44	131.82
349.823	153.29
350.206	165.94
350.588	208.43
350.971	203.91
351.354	245.94
351.737	251.14
352.119	253.62
352.502	262.66
352.884	273.28
353.267	290.23
353.65	304.92
354.032	303.11
354.414	306.96
354.797	318.03
355.179	332.94
355.562	315.99
355.944	322.1
356.326	327.97
356.709	342.89
357.091	352.83
357.473	339.95
357.855	333.4
358.238	347.18
358.62	363.22
359.002	346.73
359.384	336.11
359.766	363.22
360.148	330.46
360.53	351.47
360.912	352.83
361.294	329.78
361.676	346.5
362.057	339.95
362.439	344.69
362.821	326.16
363.203	353.28
363.584	329.33
363.966	336.11
364.348	328.42
364.729	327.52
365.111	297.01
365.493	335.66
365.874	326.39
366.256	316.67
366.637	324.13
367.019	324.58
367.4	316.9
367.781	318.25
368.163	327.07
368.544	312.6
368.925	309.44
369.306	327.52
369.688	317.35
370.069	328.42
370.45	308.31
370.831	334.75
371.212	322.1
371.593	324.13
371.974	318.03
372.355	331.59
372.736	334.3
373.117	318.03
373.498	318.25
373.879	317.12
374.26	321.42
374.641	300.18
375.021	332.27
375.402	323.45
375.783	297.92
376.163	346.5
376.544	342.21
376.925	319.61
377.305	328.65
377.686	327.97
378.066	336.33
378.447	340.17
378.827	349.44
379.208	338.59
379.588	346.95
379.968	328.88
380.349	342.43
380.729	343.79
381.109	348.54
381.489	337.01
381.87	327.29
382.25	330.23
382.63	360.74
383.01	341.08
383.39	359.84
383.77	375.65
384.15	364.13
384.53	339.5
384.91	358.48
385.29	370
385.67	345.82
386.049	345.82
386.429	361.42
386.809	363.9
387.189	362.09
387.568	361.42
387.948	366.39
388.328	372.04
388.707	376.11
389.087	358.71
389.466	377.91
389.846	358.71
390.225	393.28
390.605	373.85
390.984	393.73
391.363	362.09
391.743	385.15
392.122	381.3
392.501	371.81
392.881	380.4
393.26	384.02
393.639	382.21
394.018	384.47
394.397	374.98
394.776	413.39
395.155	393.51
395.534	400.74
395.913	392.6
396.292	406.84
396.671	407.97
397.05	378.37
397.429	396.67
397.808	403.9
398.186	393.28
398.565	414.07
398.944	405.26
399.323	401.42
399.701	418.82
400.08	414.3
400.458	408.2
400.837	422.66
401.215	411.36
401.594	430.57
401.972	424.24
402.351	410.23
402.729	408.42
403.107	422.88
403.486	435.99
403.864	440.51
404.242	424.69
404.62	447.52
404.999	438.25
405.377	454.75
405.755	454.75
406.133	441.87
406.511	452.71
406.889	459.27
407.267	447.29
407.645	462.66
408.023	455.65
408.401	467.63
408.779	448.65
409.156	472.37
409.534	465.6
409.912	468.76
410.29	486.84
410.667	484.13
411.045	484.35
411.422	462.21
411.8	498.36
412.178	474.86
412.555	511.47
412.933	481.41
413.31	498.36
413.687	474.63
414.065	497.01
414.442	497.01
414.819	498.59
415.197	530
415.574	526.84
415.951	530
416.328	517.8
416.705	499.72
417.082	525.03
417.46	539.04
417.837	538.36
418.214	542.43
418.591	537.23
418.967	549.89
419.344	539.27
419.721	535.65
420.098	546.95
420.475	550.34
420.852	556.21
421.228	561.86
421.605	557.57
421.982	590.34
422.358	569.55
422.735	570.68
423.111	572.94
423.488	575.65
423.864	572.48
424.241	605.7
424.617	590.56
424.994	591.02
425.37	598.25
425.746	589.66
426.123	607.06
426.499	615.65
426.875	625.36
427.251	614.74
427.627	626.72
428.003	632.37
428.379	617
428.756	626.95
429.132	644.57
429.507	649.77
429.883	646.61
430.259	682.99
430.635	650.22
431.011	673.73
431.387	671.24
431.763	688.87
432.138	680.96
432.514	693.39
432.89	690
433.265	699.04
433.641	709.66
434.016	706.72
434.392	724.57
434.767	734.51
435.143	734.29
435.518	757.79
435.894	731.35
436.269	760.73
436.644	759.15
437.02	730.45
437.395	766.38
437.77	758.47
438.145	764.8
438.52	779.03
438.895	784
439.271	776.32
439.646	796.21
440.021	790.56
440.395	794.85
440.77	817
441.145	800.5
441.52	826.94
441.895	850.44
442.27	845.47
442.645	846.15
443.019	869.43
443.394	843.66
443.769	855.64
444.143	848.64
444.518	868.3
444.892	842.76
445.267	880.73
445.641	877.79
446.016	852.93
446.39	855.87
446.764	863.55
447.139	890.89
447.513	889.09
447.887	878.47
448.262	919.82
448.636	907.84
449.01	924.57
449.384	922.76
449.758	931.8
450.132	928.18
450.506	938.8
450.88	950.1
451.254	960.27
451.628	940.38
452.002	986.94
452.376	976.99
452.75	974.96
453.123	998.91
453.497	1007.28
453.871	996.88
454.244	1002.98
454.618	1016.77
454.992	1022.42
455.365	1034.39
455.739	1073.04
456.112	1080.49
456.486	1075.07
456.859	1077.1
457.232	1098.12
457.606	1116.88
457.979	1110.78
458.352	1136.54
458.725	1128.63
459.099	1155.29
459.472	1166.82
459.845	1186.48
460.218	1180.6
460.591	1190.32
460.964	1193.71
461.337	1227.16
461.71	1249.53
462.083	1267.38
462.456	1272.58
462.829	1265.8
463.201	1317.1
463.574	1296.76
463.947	1313.03
464.32	1333.37
464.692	1366.14
465.065	1343.99
465.438	1375.18
465.81	1377.21
466.183	1397.55
466.555	1447.94
466.928	1453.82
467.3	1458.56
467.672	1460.15
468.045	1501.27
468.417	1518
468.789	1519.35
469.161	1526.13
469.534	1554.61
469.906	1610.2
470.278	1605.23
470.65	1590.09
471.022	1635.06
471.394	1673.47
471.766	1698.56
472.138	1689.97
472.51	1741.72
472.882	1785.79
473.253	1802.06
473.625	1794.83
473.997	1841.38
474.369	1835.5
474.74	1899.91
475.112	1952.11
475.484	1953.24
475.855	2002.96
476.227	1987.14
476.598	2059.23
476.97	2077.08
477.341	2163.86
477.713	2153.01
478.084	2173.8
478.455	2239.79
478.827	2252.21
479.198	2289.5
479.569	2307.58
479.94	2407.92
480.311	2420.35
480.682	2468.93
481.053	2550.29
481.424	2565.2
481.795	2623.73
482.166	2658.31
482.537	2698.98
482.908	2753.9
483.279	2792.09
483.65	2834.35
484.021	2891.97
484.391	2938.3
484.762	2959.54
485.133	3026.66
485.503	3083.61
485.874	3131.29
486.244	3159.99
486.615	3258.52
486.985	3280.89
487.356	3373.77
487.726	3368.34
488.097	3416.48
488.467	3468.91
488.837	3532.41
489.207	3578.06
489.578	3643.82
489.948	3710.71
490.318	3749.35
490.688	3747.09
491.058	3814.43
491.428	3890.36
491.798	3926.3
492.168	3998.61
492.538	4051.94
492.908	4091.49
493.278	4185.05
493.648	4203.8
494.017	4222.56
494.387	4289.9
494.757	4306.17
495.126	4392.05
495.496	4348.66
495.866	4404.7
496.235	4433.17
496.605	4497.13
496.974	4517.24
497.344	4592.04
497.713	4625.26
498.082	4688.31
498.452	4688.08
498.821	4735.31
499.19	4749.32
499.559	4812.37
499.928	4819.38
500.298	4824.35
500.667	4872.26
501.036	4895.31
501.405	4924.69
501.774	4976.89
502.143	5012.59
502.512	5041.97
502.88	5075.19
503.249	5041.52
503.618	5149.09
503.987	5173.95
504.356	5224.11
504.724	5248.29
505.093	5250.33
505.462	5221.18
505.83	5270.89
506.199	5331.91
506.567	5403.77
506.936	5399.25
507.304	5470.89
507.672	5468.18
508.041	5522.86
508.409	5590.21
508.777	5575.07
509.145	5644.89
509.514	5591.56
509.882	5619.81
510.25	5685.34
510.618	5690.77
510.986	5724.67
511.354	5726.25
511.722	5721.73
512.09	5791.56
512.458	5794.49
512.826	5847.6
513.193	5940.93
513.561	5901.38
513.929	5944.1
514.297	5962.4
514.664	6010.53
515.032	6024.54
515.4	6090.31
515.767	5990.42
516.135	6112.9
516.502	6087.82
516.869	6215.5
517.237	6183.64
517.604	6235.61
517.972	6213.92
518.339	6259.34
518.706	6293.69
519.073	6297.08
519.44	6313.58
519.808	6353.35
520.175	6388.38
520.542	6418.21
520.909	6524.19
521.276	6484.87
521.643	6529.62
522.009	6580.24
522.376	6604.19
522.743	6612.33
523.11	6664.98
523.477	6752.21
523.843	6734.36
524.21	6845.54
524.577	6824.3
524.943	6893.22
525.31	6955.37
525.676	7049.6
526.043	7012.77
526.409	7034.91
526.776	7137.51
527.142	7097.96
527.508	7152.2
527.874	7201.92
528.241	7278.3
528.607	7271.74
528.973	7316.71
529.339	7310.61
529.705	7409.59
530.071	7465.41
530.437	7431.97
530.803	7533.66
531.169	7573.2
531.535	7507.67
531.901	7602.36
532.267	7619.76
532.632	7618.85
532.998	7740.43
533.364	7675.58
533.73	7777.04
534.095	7823.14
534.461	7824.27
534.826	7917.6
535.192	7951.5
535.557	7981.78
535.923	8018.39
536.288	8014.55
536.653	8070.82
537.019	8109.91
537.384	8072.17
537.749	8163.7
538.114	8151.95
538.479	8176.58
538.845	8131.83
539.21	8213.19
539.575	8270.14
539.94	8367.53
540.305	8387.42
540.67	8361.21
541.034	8378.61
541.399	8486.63
541.764	8481.43
542.129	8442.11
542.494	8551.03
542.858	8601.65
543.223	8575.89
543.587	8583.8
543.952	8654.53
544.316	8718.49
544.681	8717.36
545.045	8826.96
545.41	8787.18
545.774	8918.71
546.138	8851.59
546.503	8879.16
546.867	8923.68
547.231	8996.9
547.595	8981.3
547.959	8970.23
548.324	9002.32
548.688	9072.37
549.052	9067.85
549.416	9090
549.779	9132.26
550.143	9167.74
550.507	9243.67
550.871	9299.49
551.235	9260.17
551.599	9327.28
551.962	9337.9
552.326	9378.36
552.689	9393.72
553.053	9391.01
553.417	9404.34
553.78	9561.85
554.143	9545.13
554.507	9593.04
554.87	9611.34
555.234	9625.58
555.597	9638.01
555.96	9687.73
556.323	9745.13
556.686	9830.32
557.05	9765.01
557.413	9809.76
557.776	9926.14
558.139	9953.48
558.502	9953.48
558.865	9963.88
559.228	10035.96
559.59	9991.45
559.953	10044.78
560.316	10208.62
560.679	10191.22
561.041	10199.12
561.404	10191.89
561.767	10315.51
562.129	10267.6
562.492	10408.84
562.854	10376.75
563.217	10378.78
563.579	10442.73
563.941	10536.97
564.304	10575.61
564.666	10623.07
565.028	10686.57
565.39	10618.32
565.753	10737.64
566.115	10778.32
566.477	10796.85
566.839	10816.51
567.201	10919.56
567.563	10875.94
567.925	10949.16
568.287	10965.88
568.648	11011.98
569.01	11042.94
569.372	11092.89
569.734	11029.16
570.095	11178.99
570.457	11225.76
570.819	11261.7
571.18	11313.9
571.542	11331.07
571.903	11372.88
572.265	11510.73
572.626	11523.16
572.987	11524.51
573.349	11543.27
573.71	11707.33
574.071	11649.71
574.432	11712.08
574.794	11911.17
575.155	11906.65
575.516	11889.25
575.877	12005.63
576.238	12069.36
576.599	12144.16
576.96	12249.24
577.32	12261.67
577.681	12365.17
578.042	12519.29
578.403	12560.87
578.763	12591.38
579.124	12693.52
579.485	12889.9
579.845	12973.97
580.206	13015.77
580.566	13085.15
580.927	13211.02
581.287	13420.96
581.648	13513.84
582.008	13644.68
582.368	13752.48
582.728	13937.56
583.089	14012.81
583.449	14302.29
583.809	14473.14
584.169	14609.18
584.529	14734.37
584.889	15017.75
585.249	15024.31
585.609	15207.58
585.969	15650.28
586.329	15747.68
586.688	16027.67
587.048	16115.35
587.408	16286.87
587.768	16563.7
588.127	16724.38
588.487	17093.63
588.846	17523.68
589.206	17486.16
589.565	17727.06
589.925	18146.03
590.284	18286.14
590.643	18530.66
591.003	19033.24
591.362	19291.31
591.721	19515.72
592.08	19750.06
592.44	20209.03
592.799	20392.98
593.158	20650.38
593.517	21023.02
593.876	21344.14
594.235	21523.12
594.593	21831.81
594.952	22222.99
595.311	22498.24
595.67	22813.71
596.029	23260.02
596.387	23556.29
596.746	24101.36
597.104	24167.57
597.463	24445.08
597.822	24928.91
598.18	25143.59
598.538	25475.78
598.897	25956.68
599.255	25950.8
599.613	26671.01
599.972	26752.14
600.33	27158.23
600.688	27446.35
601.046	27821.03
601.404	28164.98
601.762	28372.21
602.12	28894
602.478	29178.51
602.836	29387.32
603.194	29620.53
603.552	29926.52
603.91	30171.93
604.268	30582.09
604.625	30960.84
604.983	31186.37
605.341	31345.69
605.698	31866.58
606.056	32029.51
606.413	32368.49
606.771	32770.96
607.128	33014.57
607.485	33065.87
607.843	33423.6
608.2	33861.33
608.557	34194.43
608.914	34257.93
609.272	34645.49
609.629	34951.02
609.986	35280.72
610.343	35359.14
610.7	35739.02
611.057	35939.01
611.414	36177.88
611.771	36277.76
612.127	36619.67
612.484	37002.04
612.841	37163.39
613.198	37149.38
613.554	37491.74
613.911	37844.5
614.267	37925.63
614.624	38181.89
614.98	38445.61
615.337	38637.92
615.693	38675.89
616.05	39004.69
616.406	39327.17
616.762	39272.48
617.118	39470.45
617.475	39556.32
617.831	39954.5
618.187	40099.58
618.543	40253.48
618.899	40665.22
619.255	40529.63
619.611	40797.87
619.967	40965.1
620.323	41208.48
620.678	41121.7
621.034	41195.15
621.39	41362.15
621.746	41496.61
622.101	41964.62
622.457	41685.98
622.812	41905.64
623.168	42098.62
623.523	42066.08
623.879	42349.47
624.234	42187.21
624.589	42476.02
624.945	42737.48
625.3	42650.02
625.655	42858.83
626.01	42873.75
626.365	42978.83
626.72	42963.01
627.075	43097.69
627.43	43070.58
627.785	43021.31
628.14	43334.75
628.495	43404.58
628.85	43381.3
629.205	43220.86
629.559	43636.89
629.914	43339.95
630.269	43577.68
630.623	43480.28
630.978	43396.44
631.332	43685.02
631.687	43806.15
632.041	43707.17
632.396	43744.68
632.75	43814.51
633.104	43843.21
633.459	43724.8
633.813	43762.54
634.167	43857.45
634.521	43854.74
634.875	43876.88
635.229	43848.64
635.583	43874.85
635.937	43863.78
636.291	43846.38
636.645	44019.25
636.999	43986.48
637.352	44026.26
637.706	43846.6
638.06	43982.64
638.413	43765.25
638.767	43734.29
639.121	43720.95
639.474	43753.27
639.828	43834.4
640.181	43800.27
640.534	43735.87
640.888	43755.53
641.241	43539.49
641.594	43704.46
641.947	43900.84
642.301	43709.2
642.654	43763.21
643.007	43756.66
643.36	43850.67
643.713	43797.11
644.066	43967.5
644.419	43625.59
644.771	43474.63
645.124	43010.69
645.477	42975.89
645.83	42774.99
646.182	42591.49
646.535	42567.54
646.888	42785.61
647.24	42602.79
647.593	42684.6
647.945	42628.55
648.298	42506.52
648.65	42435.56
649.002	42332.74
649.355	42519.63
649.707	42485.28
650.059	42621.32
650.411	43224.02
650.763	43111.48
651.115	43580.62
651.467	43313.96
651.819	43292.04
652.171	43294.98
652.523	43280.29
652.875	43247.52
653.227	43135.21
653.578	43360.06
653.93	43300.63
654.282	43153.74
654.633	43083.68
654.985	43269.67
655.337	43169.33
655.688	43137.47
656.039	43384.92
656.391	42954.2
656.742	42959.39
657.094	43104.7
657.445	43231.7
657.796	43137.02
658.147	43080.97
658.498	43129.33
658.849	43204.36
659.2	43010.69
659.551	42855.44
659.902	43045.49
660.253	43170.46
660.604	43033.06
660.955	42820.19
661.306	43118.94
661.656	42954.42
662.007	43108.77
662.358	43094.53
662.708	43057.47
663.059	42926.85
663.409	42748.55
663.76	43064.93
664.11	42986.28
664.461	43058.6
664.811	43044.59
665.161	42915.78
665.511	42851.15
665.862	42944.03
666.212	43097.69
666.562	42940.64
666.912	42867.19
667.262	42829.9
667.612	42912.39
667.962	43057.47
668.312	42961.88
668.662	43085.94
669.011	42943.35
669.361	42857.47
669.711	42812.5
670.06	42696.58
670.41	42696.12
670.76	42725.27
671.109	42822
671.459	42692.73
671.808	42721.66
672.157	42823.13
672.507	42522.57
672.856	42623.36
673.205	42626.97
673.554	42849.11
673.904	42712.62
674.253	42875.1
674.602	42623.36
674.951	42163.03
675.3	42015.24
675.649	42543.36
675.998	42415.9
676.346	42572.74
676.695	42615
677.044	42371.61
677.393	42424.49
677.741	42531.16
678.09	42467.43
678.438	42391.05
678.787	42341.56
679.135	42433.31
679.484	42133.88
679.832	42388.11
680.181	42182.01
680.529	42202.8
680.877	42036.71
681.225	42001.68
681.573	42284.61
681.922	41966.2
682.27	41983.15
682.618	41912.87
682.966	41782.47
683.314	41807.11
683.661	41723.72
684.009	41546.55
684.357	41482.37
684.705	41448.7
685.053	41483.5
685.4	41437.63
685.748	41281.92
686.095	41326.22
686.443	41306.56
686.79	41137.97
687.138	41156.28
687.485	41256.16
687.832	41118.31
688.18	41057.52
688.527	40944.08
688.874	40891.88
689.221	40742.73
689.568	40693.46
689.915	40487.82
690.262	40620.02
690.609	40367.37
690.956	40351.55
691.303	40432
691.65	39982.97
691.997	40098
692.344	39810.1
692.69	39761.74
693.037	39774.17
693.383	39474.06
693.73	39582.08
694.077	39383.67
694.423	39352.71
694.769	39285.59
695.116	39181.87
695.462	39241.98
695.808	39058.93
696.155	39199.04
696.501	38914.53
696.847	38818.03
697.193	38592.05
697.539	38749.11
697.885	38465.5
698.231	38366.52
698.577	38537.81
698.923	38331.49
699.269	38225.96
699.614	38004.72
699.96	37819.87
700.306	37937.15
700.651	37811.05
700.997	37645.18
701.342	37717.04
701.688	37534.22
702.033	37468.01
702.379	37365.64
702.724	37256.94
703.069	37218.3
703.415	37022.37
703.76	36894.69
704.105	37082.03
704.45	36937.18
704.795	36794.36
705.14	36583.29
705.485	36645.21
705.83	36571.54
706.175	36483.63
706.52	36369.74
706.865	36361.37
707.209	36259.91
707.554	36038.22
707.899	36082.51
708.243	35878
708.588	35886.13
708.932	35607.95
709.277	35776.31
709.621	35805
709.966	35501.06
710.31	35588.74
710.654	35247.05
710.998	35391.68
711.342	35343.77
711.687	35223.55
712.031	35027.4
712.375	34900.62
712.719	35054.06
713.063	34911.92
713.407	35073.72
713.75	34725.03
714.094	34770.23
714.438	34619.05
714.782	34680.97
715.125	34454.76
715.469	34662.89
715.812	34334.76
716.156	34117.59
716.499	34108.78
716.843	34282.79
717.186	34013.64
717.53	34238.72
717.873	34185.16
718.216	34063.81
718.559	33918.5
718.902	33770.26
719.246	33842.12
719.589	33633.31
719.932	33711.73
720.275	33479.64
720.617	33570.71
720.96	33540.21
721.303	33411.4
721.646	33457.72
721.989	33258.18
722.331	33297.73
722.674	33267.67
723.016	33224.28
723.359	33140.67
723.701	33196.26
724.044	32931.86
724.386	32745.65
724.729	33067.9
725.071	32979.99
725.413	32855.93
725.755	32857.29
726.097	32678.08
726.439	32488.48
726.782	32637.4
727.124	32696.39
727.465	32520.35
727.807	32428.37
728.149	32375.26
728.491	32307.92
728.833	32401.7
729.175	32302.72
729.516	32197.87
729.858	32186.34
730.199	32239.22
730.541	32178.89
730.882	32107.7
731.224	32046.46
731.565	31850.76
731.906	31859.35
732.248	31886.46
732.589	31697.32
732.93	31712.01
733.271	31688.95
733.612	31665.9
733.953	31790.65
734.294	31649.86
734.635	31441.96
734.976	31692.8
735.317	31367.38
735.658	31320.83
735.999	31420.49
736.339	31375.74
736.68	31410.77
737.021	31321.28
737.361	30992.7
737.702	31320.83
738.042	31184.56
738.383	31044.45
738.723	31253.94
739.063	31053.04
739.404	31064.56
739.744	30980.72
740.084	30847.62
740.424	30879.03
740.764	30870.9
741.104	30877.9
741.444	30655.31
741.784	30643.78
742.124	30791.13
742.464	30659.15
742.804	30540.06
743.143	30620.96
743.483	30527.63
743.823	30307.52
744.162	30382.77
744.502	30423.68
744.841	30212.16
745.181	30296.9
745.52	30299.84
745.86	30267.3
746.199	30238.6
746.538	30037.92
746.877	30195.43
747.216	30201.31
747.556	30106.4
747.895	30168.32
748.234	29897.36
748.573	29782.56
748.911	29804.71
749.25	29848.33
749.589	29801.09
749.928	29753.86
750.267	29768.33
750.605	29587.99
750.944	29647.88
751.283	29497.6
751.621	29651.49
751.96	29404.27
752.298	29364.04
752.636	29458.05
752.975	29365.85
753.313	29178.29
753.651	29247.44
753.989	29138.29
754.327	29140.77
754.666	28957.95
755.004	29018.06
755.342	28929.25
755.679	28910.95
756.017	28651.97
756.355	29028.46
756.693	28670.05
757.031	28764.74
757.368	28522.26
757.706	28432.09
758.044	28496.5
758.381	28382.15
758.719	28288.82
759.056	28280.91
759.394	28284.3
759.731	28072.1
760.068	28105.77
760.405	27985.1
760.743	27874.82
761.08	27835.5
761.417	27842.95
761.754	27722.05
762.091	27693.35
762.428	27567.93
762.765	27495.62
763.102	27514.6
763.438	27403.87
763.775	27288.84
764.112	27235.74
764.449	27283.87
764.785	27098.79
765.122	26941.28
765.458	26886.6
765.795	26865.58
766.131	26847.05
766.467	26664
766.804	26557.11
767.14	26614.96
767.476	26418.36
767.812	26269.89
768.148	26432.82
768.485	26093.17
768.821	26029.22
769.157	26017.69
769.492	25960.07
769.828	25877.36
770.164	25699.51
770.5	25667.19
770.836	25680.07
771.171	25419.06
771.507	25370.93
771.842	25259.97
772.178	25253.19
772.513	25217.94
772.849	25012.97
773.184	25026.98
773.519	24933.65
773.855	24794.45
774.19	24664.28
774.525	24582.93
774.86	24620.44
775.195	24505.64
775.53	24456.15
775.865	24299.54
776.2	24210.51
776.535	24041.92
776.87	24024.3
777.205	23935.94
777.539	23845.55
777.874	23855.04
778.209	23711.54
778.543	23617.08
778.878	23421.83
779.212	23461.6
779.547	23346.58
779.881	23429.96
780.215	23195.39
780.55	23254.6
780.884	23147.26
781.218	23077.88
781.552	23005.57
781.886	22844.44
782.22	22806.02
782.554	22660.94
782.888	22486.26
783.222	22440.84
783.556	22251.01
783.889	22215.53
784.223	22116.78
784.557	22097.12
784.89	22109.32
785.224	21908.65
785.557	21848.54
785.891	21893.28
786.224	21716.11
786.558	21817.58
786.891	21580.52
787.224	21404.93
787.557	21494.42
787.891	21381.2
788.224	21408.32
788.557	21219.63
788.89	21209.23
789.223	21230.47
789.556	21067.99
789.888	20963.59
790.221	20842.91
790.554	20766.76
790.887	20698.51
791.219	20646.99
791.552	20585.07
791.884	20476.37
792.217	20402.47
792.549	20367.9
792.882	20294.9
793.214	20125.42
793.546	20182.36
793.879	20106.21
794.211	19897.17
794.543	20014.01
794.875	19911.64
795.207	19942.82
795.539	19763.17
795.871	19827.12
796.203	19634.81
796.535	19515.94
796.867	19498.77
797.198	19420.12
797.53	19439.11
797.862	19224.42
798.193	19284.54
798.525	19179.23
798.856	19157.31
799.188	19021.49
799.519	18910.99
799.85	18868.28
800.182	18856.07
800.513	18883.42
800.844	18662.18
801.175	18692.91
801.506	18690.43
801.837	18621.05
802.168	18636.87
802.499	18534.95
802.83	18441.39
803.161	18291.34
803.491	18370.66
803.822	18284.56
804.153	18266.26
804.483	18064.91
804.814	18110.1
805.145	18034.17
805.475	17977.68
805.805	17878.7
806.136	17927.73
806.466	17985.81
806.796	17890.22
807.126	17651.13
807.457	17719.15
807.787	17672.15
808.117	17584.02
808.447	17574.07
808.777	17572.72
809.107	17458.37
809.436	17417.69
809.766	17306.96
810.096	17312.16
810.426	17184.25
810.755	17210.47
811.085	17213.4
811.414	17143.12
811.744	17005.73
812.073	17014.09
812.403	17059.06
812.732	16873.98
813.061	16947.2
813.39	16853.86
813.719	16715.34
814.049	16899.97
814.378	16716.69
814.707	16641.21
815.036	16579.07
815.365	16569.58
815.693	16483.03
816.022	16441.45
816.351	16392.63
816.68	16324.84
817.008	16401.67
817.337	16310.6
817.665	16298.4
817.994	16258.63
818.322	16245.52
818.651	16109.25
818.979	16200.55
819.307	16196.48
819.636	16112.42
819.964	15948.58
820.292	16016.15
820.62	16031.97
820.948	15928.01
821.276	15954.91
821.604	15935.47
821.932	15987.67
822.259	16006.2
822.587	15852.76
822.915	15943.83
823.243	15868.58
823.57	15915.13
823.898	15883.72
824.225	15843.5
824.553	15852.31
824.88	15837.85
825.207	15925.53
825.535	15811.41
825.862	15851.86
826.189	15861.8
826.516	15897.05
826.843	15885.08
827.17	15836.94
827.497	15864.74
827.824	15800.56
828.151	15840.56
828.478	15932.31
828.805	15928.24
829.131	15871.97
829.458	15815.25
829.785	15706.55
830.111	15741.35
830.438	15841.91
830.764	15771.63
831.09	15894.57
831.417	15710.84
831.743	15833.55
832.069	15647.12
832.395	15676.49
832.722	15714.46
833.048	15703.84
833.374	15740.9
833.7	15631.75
834.026	15668.81
834.351	15716.04
834.677	15582.03
835.003	15608.93
835.329	15667.68
835.654	15643.05
835.98	15574.35
836.306	15608.25
836.631	15525.76
836.956	15524.63
837.282	15617.51
837.607	15431.3
837.932	15320.12
838.258	15497.74
838.583	15421.36
838.908	15296.62
839.233	15299.56
839.558	15274.92
839.883	15226.79
840.208	15198.77
840.533	15135.04
840.858	15127.58
841.182	15230.86
841.507	15142.95
841.832	15124.42
842.156	15066.79
842.481	15008.26
842.805	14979.79
843.13	14937.08
843.454	14911.77
843.778	14796.52
844.103	14754.26
844.427	14778.44
844.751	14763.75
845.075	14721.49
845.399	14663.41
845.723	14610.08
846.047	14593.81
846.371	14439.92
846.695	14490.76
847.019	14320.6
847.343	14389.97
847.666	14172.81
847.99	14159.7
848.313	14202.86
848.637	14086.03
848.96	14042.87
849.284	14037.89
849.607	13892.36
849.931	13956.09
850.254	13822.76
850.577	13780.5
850.9	13657.56
851.223	13632.25
851.546	13568.75
851.869	13503.9
852.192	13543.67
852.515	13391.36
852.838	13433.62
853.161	13366.05
853.483	13338.48
853.806	13309.33
854.129	13285.15
854.451	13171.7
854.774	13158.59
855.096	13077.01
855.419	13068.88
855.741	13051.7
856.063	13068.65
856.385	12970.35
856.708	12838.15
857.03	12832.95
857.352	12883.57
857.674	12795.21
857.996	12770.36
858.318	12644.71
858.64	12672.28
858.961	12582.56
859.283	12603.81
859.605	12429.12
859.926	12596.8
860.248	12512.96
860.57	12439.74
860.891	12428.9
861.212	12393.64
861.534	12362.46
861.855	12329.69
862.176	12307.54
862.498	12286.75
862.819	12325.17
863.14	12194.55
863.461	12172.18
863.782	12153.88
864.103	12200.43
864.424	12128.79
864.745	12125.63
865.065	12101
865.386	12017.83
865.707	11976.48
866.027	11988.91
866.348	12031.84
866.668	11901.45
866.989	11929.7
867.309	11834.56
867.63	11926.08
867.95	11842.47
868.27	11820.1
868.59	11854.9
868.91	11903.94
869.23	11823.04
869.55	11729.48
869.87	11751.85
870.19	11709.82
870.51	11791.4
870.83	11800.21
871.15	11716.15
871.469	11638.86
871.789	11714.11
872.109	11591.86
872.428	11586.21
872.748	11552.99
873.067	11557.96
873.386	11523.61
873.706	11517.73
874.025	11496.49
874.344	11445.65
874.663	11388.25
874.982	11364.07
875.301	11467.11
875.62	11390.51
875.939	11388.92
876.258	11412.2
876.577	11347.57
876.896	11348.02
877.214	11295.14
877.533	11285.88
877.852	11287.23
878.17	11290.4
878.489	11248.14
878.807	11192.54
879.125	11181.47
879.444	11181.7
879.762	11160.46
880.08	11177.86
880.398	11103.51
880.716	11172.88
881.034	11067.58
881.352	11092.66
881.67	10987.8
881.988	11014.7
882.306	11028.93
882.624	10957.75
882.941	10923.4
883.259	10937.64
883.577	10847.02
883.894	10879.78
884.212	10803.18
884.529	10823.29
884.846	10815.61
885.164	10787.58
885.481	10734.25
885.798	10732.9
886.115	10652.67
886.432	10720.92
886.75	10614.25
887.067	10674.37
887.383	10576.29
887.7	10572.45
888.017	10562.28
888.334	10573.58
888.651	10562.96
888.967	10517.99
889.284	10364.77
889.6	10421.49
889.917	10295.17
890.233	10345.34
890.55	10258.56
890.866	10312.57
891.182	10319.35
891.498	10324.32
891.815	10174.94
892.131	10114.15
892.447	10116.19
892.763	10091.33
893.079	10078.9
893.395	10013.37
893.71	10014.27
894.026	9886.59
894.342	9962.97
894.657	9956.42
894.973	9859.92
895.289	9832.35
895.604	9831.9
895.92	9781.73
896.235	9748.74
896.55	9706.26
896.865	9740.61
897.181	9706.71
897.496	9631
897.811	9643.21
898.126	9597.11
898.441	9498.13
898.756	9522.08
899.071	9481.18
899.386	9416.32
899.7	9407.51
900.015	9370.9
900.33	9253.16
900.644	9273.95
900.959	9332.71
901.273	9229.66
901.588	9179.72
901.902	9135.88
902.216	9104.24
902.531	9112.6
902.845	9064.47
903.159	9035.99
903.473	8997.12
903.787	8946.5
904.101	8907.63
904.415	8892.49
904.729	8830.57
905.042	8847.3
905.356	8882.32
905.67	8808.2
905.984	8787.64
906.297	8773.4
906.611	8662.44
906.924	8602.56
907.237	8642.78
907.551	8629
907.864	8572.05
908.177	8531.6
908.491	8478.04
908.804	8444.59
909.117	8332.51
909.43	8426.97
909.743	8291.6
910.056	8324.15
910.368	8249.8
910.681	8189.91
910.994	8222.45
911.307	8164.38
911.619	8134.55
911.932	8165.28
912.244	8051.84
912.557	8068.56
912.869	7963.03
913.181	7934.1
913.494	7909.47
913.806	7782.92
914.118	7869.92
914.43	7923.25
914.742	7902.69
915.054	7801.22
915.366	7789.02
915.678	7701.34
915.99	7652.3
916.302	7668.34
916.613	7581.79
916.925	7629.25
917.236	7571.62
917.548	7533.66
917.859	7578.85
918.171	7421.57
918.482	7407.79
918.794	7375.7
919.105	7390.38
919.416	7318.97
919.727	7323.72
920.038	7309.71
920.349	7188.81
920.66	7208.92
920.971	7251.63
921.282	7199.88
921.593	7102.03
921.903	7131.41
922.214	7087.12
922.525	7042.6
922.835	6969.83
923.146	6901.81
923.456	6923.73
923.767	6853.9
924.077	6877.86
924.387	6869.95
924.697	6805.77
925.008	6810.96
925.318	6783.17
925.628	6775.49
925.938	6675.83
926.248	6620.46
926.558	6652.78
926.867	6628.14
927.177	6589.5
927.487	6565.1
927.796	6538.2
928.106	6501.14
928.416	6498.88
928.725	6463.86
929.034	6402.16
929.344	6372.33
929.653	6362.39
929.962	6340.47
930.271	6314.25
930.581	6273.8
930.89	6254.14
931.199	6185.9
931.508	6212.79
931.817	6169.17
932.125	6161.49
932.434	6149.29
932.743	6122.62
933.051	6071.55
933.36	6040.14
933.669	5999.46
933.977	5962.4
934.286	5975.28
934.594	5964.43
934.902	5922.63
935.21	5897.32
935.519	5872.46
935.827	5893.02
936.135	5785.46
936.443	5781.61
936.751	5727.83
937.059	5729.19
937.367	5713.59
937.674	5711.33
937.982	5708.17
938.29	5655.29
938.597	5653.93
938.905	5596.53
939.213	5551.11
939.52	5510.66
939.827	5511.11
940.135	5486.03
940.442	5436.31
940.749	5444
941.056	5420.95
941.363	5415.07
941.67	5373.71
941.977	5362.64
942.284	5316.99
942.591	5301.63
942.898	5203.1
943.205	5261.63
943.511	5196.77
943.818	5205.81
944.125	5173.27
944.431	5141.18
944.738	5219.82
945.044	5108.41
945.35	5104.8
945.657	5051.01
945.963	5045.81
946.269	5030.67
946.575	5019.83
946.881	5006.27
947.187	5000.17
947.493	4926.95
947.799	4960.62
948.105	4916.78
948.41	4872.26
948.716	4915.87
949.022	4862.09
949.327	4858.25
949.633	4795.65
949.938	4790.91
950.244	4773.96
950.549	4717.01
950.854	4690.57
951.16	4698.48
951.465	4666.84
951.77	4681.08
952.075	4628.65
952.38	4611.02
952.685	4630.91
952.99	4574.19
953.294	4554.3
953.599	4565.37
953.904	4464.13
954.209	4465.04
954.513	4453.96
954.818	4442.89
955.122	4458.94
955.426	4446.73
955.731	4425.94
956.035	4389.79
956.339	4374.87
956.643	4301.43
956.948	4294.65
957.252	4343.69
957.556	4298.49
957.86	4302.56
958.163	4246.06
958.467	4265.04
958.771	4217.81
959.075	4195.67
959.378	4188.21
959.682	4205.16
959.985	4151.37
960.289	4120.87
960.592	4070.92
960.896	4087.65
961.199	4084.48
961.502	4068.89
961.805	4046.07
962.108	4004.71
962.411	3999.97
962.714	4005.62
963.017	3972.17
963.32	3949.35
963.623	3983.24
963.926	3902.11
964.228	3874.32
964.531	3880.19
964.833	3893.53
965.136	3844.26
965.438	3841.78
965.741	3839.07
966.043	3805.85
966.345	3796.81
966.648	3752.97
966.95	3785.06
967.252	3726.3
967.554	3705.06
967.856	3708.9
968.158	3669.13
968.46	3671.16
968.761	3640.65
969.063	3657.83
969.365	3601.78
969.666	3597.04
969.968	3574.89
970.269	3569.69
970.571	3569.02
970.872	3538.73
971.174	3531.5
971.475	3498.06
971.776	3491.05
972.077	3463.71
972.378	3451.28
972.679	3490.37
972.98	3352.75
973.281	3450.38
973.582	3426.2
973.883	3371.96
974.183	3398.63
974.484	3380.77
974.785	3332.86
975.085	3364.28
975.386	3315.01
975.686	3329.02
975.986	3301.23
976.287	3301.23
976.587	3298.06
976.887	3219.65
977.187	3233.66
977.487	3216.03
977.787	3179.65
978.087	3211.51
978.387	3186.88
978.687	3166.32
978.987	3134.45
979.286	3153.43
979.586	3100.1
979.885	3074.57
980.185	3128.35
980.484	3046.77
980.784	3072.98
981.083	3065.75
981.382	3018.75
981.682	3023.95
981.981	2972.65
982.28	2976.72
982.579	2987.56
982.878	3001.57
983.177	2950.5
983.475	2945.53
983.774	2884.51
984.073	2941.91
984.372	2899.43
984.67	2894.23
984.969	2879.99
985.267	2873.67
985.566	2822.14
985.864	2868.47
986.162	2862.37
986.461	2794.57
986.759	2805.42
987.057	2786.66
987.355	2779.21
987.653	2742.6
987.951	2776.72
988.249	2759.32
988.547	2732.43
988.844	2723.84
989.142	2683.39
989.44	2681.81
989.737	2662.83
990.035	2665.54
990.332	2623.5
990.63	2655.14
990.927	2599.55
991.224	2614.69
991.521	2580.57
991.819	2571.98
992.116	2580.79
992.413	2555.03
992.71	2589.16
993.006	2537.18
993.303	2529.72
993.6	2565.43
993.897	2547.57
994.193	2498.31
994.49	2499.67
994.787	2450.4
995.083	2434.81
995.379	2446.33
995.676	2441.36
995.972	2429.16
996.268	2416.05
996.565	2414.92
996.861	2356.84
997.157	2349.61
997.453	2357.75
997.749	2386.9
998.044	2354.13
998.34	2330.63
998.636	2308.03
998.932	2329.95
999.227	2268.26
999.523	2250.86
999.818	2265.55
1000.114	2250.41
1000.409	2235.72
1000.704	2220.58
1001	2238.2
1001.295	2184.19
1001.59	2153.69
1001.885	2205.44
1002.18	2160.24
1002.475	2171.31
1002.77	2141.26
1003.065	2145.55
1003.359	2127.7
1003.654	2105.1
1003.949	2118.43
1004.243	2116.17
1004.538	2067.59
1004.832	2060.36
1005.127	2048.83
1005.421	2023.97
1005.715	2033.69
1006.009	2019.9
1006.304	2032.56
1006.598	2009.51
1006.892	2009.51
1007.186	2005.89
1007.48	1969.96
1007.773	1923.41
1008.067	1969.06
1008.361	1955.27
1008.655	1932
1008.948	1922.96
1009.242	1914.82
1009.535	1880.7
1009.829	1883.41
1010.122	1847.48
1010.415	1879.57
1010.708	1856.29
1011.001	1818.55
1011.295	1821.49
1011.588	1808.16
1011.881	1788.05
1012.173	1804.99
1012.466	1772.45
1012.759	1790.53
1013.052	1757.31
1013.344	1738.56
1013.637	1755.28
1013.93	1744.21
1014.222	1732.45
1014.514	1706.69
1014.807	1690.42
1015.099	1701.49
1015.391	1679.8
1015.683	1647.48
1015.976	1654.26
1016.268	1645.23
1016.56	1659.91
1016.851	1649.74
1017.143	1642.29
1017.435	1618.79
1017.727	1634.38
1018.018	1615.4
1018.31	1558.45
1018.602	1597.77
1018.893	1569.07
1019.185	1530.88
1019.476	1533.14
1019.767	1516.64
1020.058	1525.23
1020.35	1500.82
1020.641	1502.86
1020.932	1476.19
1021.223	1497.21
1021.514	1470.77
1021.804	1465.34
1022.095	1464.21
1022.386	1448.17
1022.677	1443.2
1022.967	1420.15
1023.258	1415.4
1023.548	1402.07
1023.839	1403.2
1024.129	1406.36
1024.419	1408.85
1024.709	1368.17
1025	1385.12
1025.29	1363.65
1025.58	1355.29
1025.87	1326.36
1026.16	1319.13
1026.449	1331.11
1026.739	1291.79
1027.029	1281.39
1027.319	1287.72
1027.608	1278
1027.898	1312.35
1028.187	1285.23
1028.477	1273.94
1028.766	1237.78
1029.055	1247.27
1029.344	1243.88
1029.634	1219.02
1029.923	1221.96
1030.212	1224.45
1030.501	1192.58
1030.79	1200.72
1031.078	1176.08
1031.367	1165.46
1031.656	1165.46
1031.945	1147.61
1032.233	1191.68
1032.522	1190.1
1032.81	1139.93
1033.099	1147.16
1033.387	1151.68
1033.675	1117.1
1033.963	1111.45
1034.251	1115.97
1034.54	1104.22
1034.828	1098.57
1035.116	1052.92
1035.403	1055.18
1035.691	1083.88
1035.979	1071.68
1036.267	1056.09
1036.554	1030.78
1036.842	1059.48
1037.129	1039.37
1037.417	1016.32
1037.704	994.17
1037.992	1011.34
1038.279	1042.08
1038.566	1006.37
1038.853	1006.37
1039.14	1006.37
