Data from hue_280_FLMS001491_00018.txt Node
Date: Tue Feb 07 15:54:55 GMT 2017
User: dcchb
Spectrometer: FLMS00149
Trigger mode: 0
Integration Time (sec): 2.000000E-2
Scans to average: 10
Electric dark correction enabled: true
Nonlinearity correction enabled: false
Boxcar width: 0
XAxis mode: Wavelengths
Number of Pixels in Spectrum: 2048
>>>>>Begin Spectral Data<<<<<
341.393	1.61
341.776	1.61
342.16	1.61
342.543	-70.25
342.927	-54.43
343.31	-62.79
343.693	-72.74
344.077	-65.96
344.46	-46.52
344.843	-53.98
345.226	-55.56
345.61	-36.35
345.993	-17.6
346.376	-10.82
346.759	11.33
347.142	22.4
347.525	50.42
347.908	64.21
348.291	71.66
348.674	85.45
349.057	116.86
349.44	114.15
349.823	125.45
350.206	155.73
350.588	168.16
350.971	193.02
351.354	223.75
351.737	222.4
352.119	251.55
352.502	256.07
352.884	260.81
353.267	274.6
353.65	284.31
354.032	290.87
354.414	289.96
354.797	311.43
355.179	303.52
355.562	299
355.944	298.55
356.326	310.53
356.709	338.1
357.091	325.67
357.473	332
357.855	324.54
358.238	321.6
358.62	340.81
359.002	328.38
359.384	346.46
359.766	338.78
360.148	336.29
360.53	327.93
360.912	324.77
361.294	333.58
361.676	311.88
362.057	328.38
362.439	331.54
362.821	323.64
363.203	320.02
363.584	316.4
363.966	320.92
364.348	321.15
364.729	305.33
365.111	322.05
365.493	334.93
365.874	339.23
366.256	298.78
366.637	296.07
367.019	308.95
367.4	315.73
367.781	301.04
368.163	306.23
368.544	305.78
368.925	308.27
369.306	303.3
369.688	310.53
370.069	293.13
370.45	312.79
370.831	324.77
371.212	315.95
371.593	317.99
371.974	309.85
372.355	306.91
372.736	317.08
373.117	301.72
373.498	328.83
373.879	310.3
374.26	310.08
374.641	327.93
375.021	310.53
375.402	315.95
375.783	337.42
376.163	317.31
376.544	325.44
376.925	332.67
377.305	337.19
377.686	340.13
378.066	334.26
378.447	347.82
378.827	319.12
379.208	339.23
379.588	310.75
379.968	336.06
380.349	336.29
380.729	340.36
381.109	334.03
381.489	322.28
381.87	330.64
382.25	316.4
382.63	333.8
383.01	338.55
383.39	312.56
383.77	341.71
384.15	337.65
384.53	332.22
384.91	344.43
385.29	343.3
385.67	355.27
386.049	364.99
386.429	337.87
386.809	361.37
387.189	369.51
387.568	348.04
387.948	340.36
388.328	363.18
388.707	351.43
389.087	360.02
389.466	381.26
389.846	389.62
390.225	390.75
390.605	362.05
390.984	385.78
391.363	379.45
391.743	373.13
392.122	379
392.501	395.5
392.881	396.18
393.26	379.23
393.639	388.94
394.018	372.9
394.397	394.37
394.776	381.94
395.155	411.99
395.534	379.68
395.913	364.54
396.292	393.01
396.671	433.92
397.05	410.19
397.429	403.86
397.808	403.18
398.186	414.25
398.565	422.62
398.944	393.92
399.323	416.97
399.701	419.9
400.08	403.41
400.458	424.88
400.837	423.29
401.215	413.58
401.594	420.13
401.972	433.69
402.351	427.36
402.729	428.72
403.107	444.99
403.486	432.33
403.864	448.15
404.242	458.55
404.62	460.13
404.999	437.53
405.377	447.02
405.755	451.09
406.133	438.89
406.511	474.14
406.889	468.49
407.267	487.47
407.645	466.91
408.023	470.98
408.401	499.45
408.779	510.98
409.156	516.85
409.534	512.78
409.912	517.3
410.29	548.71
410.667	521.82
411.045	546
411.422	542.84
411.8	552.78
412.178	552.78
412.555	572.22
412.933	562.05
413.31	604.53
413.687	587.81
414.065	607.92
414.442	593.91
414.819	600.69
415.197	601.37
415.574	611.31
415.951	663.51
416.328	652.89
416.705	648.82
417.082	645.21
417.46	658.77
417.837	666.9
418.214	668.49
418.591	689.05
418.967	668.03
419.344	675.94
419.721	701.93
420.098	708.48
420.475	720.01
420.852	715.04
421.228	728.82
421.605	743.74
421.982	745.55
422.358	752.32
422.735	753.23
423.111	785.32
423.488	778.09
423.864	787.58
424.241	815.83
424.617	848.37
424.994	838.42
425.37	854.02
425.746	831.64
426.123	859.67
426.499	828.71
426.875	876.39
427.251	887.91
427.627	895.6
428.003	917.29
428.379	917.74
428.756	929.95
429.132	941.92
429.507	962.71
429.883	966.1
430.259	960.23
430.635	986.22
431.011	1008.36
431.387	1042.26
431.763	1052.2
432.138	1047.68
432.514	1042.49
432.89	1061.47
433.265	1083.62
433.641	1097.17
434.016	1106.89
434.392	1135.82
434.767	1154.35
435.143	1143.05
435.518	1166.78
435.894	1148.92
436.269	1196.15
436.644	1225.31
437.02	1247.91
437.395	1233.67
437.77	1274.35
438.145	1285.42
438.52	1272.09
438.895	1299.88
439.271	1294.68
439.646	1352.54
440.021	1331.52
440.395	1352.31
440.77	1350.73
441.145	1336.72
441.52	1390.95
441.895	1378.98
442.27	1381.91
442.645	1400.9
443.019	1418.97
443.394	1440.44
443.769	1428.01
444.143	1447.22
444.518	1474.57
444.892	1441.12
445.267	1461.68
445.641	1506.88
446.016	1487.67
446.39	1509.59
446.764	1517.73
447.139	1539.2
447.513	1526.09
447.887	1519.08
448.262	1545.75
448.636	1520.67
449.01	1557.95
449.384	1559.08
449.758	1569.48
450.132	1584.39
450.506	1599.99
450.88	1571.96
451.254	1622.81
451.628	1612.42
452.002	1666.43
452.376	1649.48
452.75	1685.18
453.123	1650.61
453.497	1700.77
453.871	1695.12
454.244	1716.14
454.618	1720.66
454.992	1737.84
455.365	1745.52
455.739	1741.68
456.112	1772.19
456.486	1809.02
456.859	1844.5
457.232	1841.34
457.606	1830.71
457.979	1882.92
458.352	1862.8
458.725	1921.11
459.099	1921.56
459.472	1951.62
459.845	1979.41
460.218	1996.81
460.591	2019.86
460.964	1999.52
461.337	2023.93
461.71	2053.08
462.083	2091.72
462.456	2079.07
462.829	2057.83
463.201	2111.84
463.574	2126.98
463.947	2146.64
464.32	2206.98
464.692	2201.78
465.065	2180.54
465.438	2246.3
465.81	2279.74
466.183	2300.98
466.555	2316.13
466.928	2338.05
467.3	2319.29
467.672	2358.61
468.045	2376.46
468.417	2364.03
468.789	2398.16
469.161	2433.64
469.534	2422.11
469.906	2476.12
470.278	2516.57
470.65	2531.49
471.022	2535.78
471.394	2627.98
471.766	2615.55
472.138	2678.6
472.51	2674.99
472.882	2725.15
473.253	2758.83
473.625	2752.95
473.997	2800.63
474.369	2794.76
474.74	2814.19
475.112	2861.42
475.484	2905.94
475.855	2962.66
476.227	2990.23
476.598	3067.97
476.97	3070.46
477.341	3105.71
477.713	3152.71
478.084	3178.02
478.455	3254.41
478.827	3259.15
479.198	3301.64
479.569	3374.18
479.94	3409.66
480.311	3452.14
480.682	3503.21
481.053	3552.25
481.424	3616.88
481.795	3588.41
482.166	3625.24
482.537	3670.21
482.908	3777.78
483.279	3806.71
483.65	3811.45
484.021	3890.32
484.391	3893.26
484.762	3901.17
485.133	3961.28
485.503	4018.68
485.874	4072.92
486.244	4086.25
486.615	4169.41
486.985	4217.54
487.356	4269.52
487.726	4295.96
488.097	4356.98
488.467	4327.6
488.837	4400.59
489.207	4448.05
489.578	4525.33
489.948	4519.01
490.318	4567.82
490.688	4582.51
491.058	4684.65
491.428	4688.94
491.798	4736.85
492.168	4793.12
492.538	4799.68
492.908	4877.41
493.278	4901.59
493.648	4918.54
494.017	4924.64
494.387	5013.91
494.757	5020.69
495.126	5085.54
495.496	5061.82
495.866	5100.01
496.235	5130.06
496.605	5180.68
496.974	5137.29
497.344	5235.37
497.713	5257.52
498.082	5249.61
498.452	5278.08
498.821	5343.39
499.19	5290.06
499.559	5400.11
499.928	5413.9
500.298	5438.08
500.667	5495.03
501.036	5441.24
501.405	5510.39
501.774	5481.92
502.143	5536.83
502.512	5561.24
502.88	5683.04
503.249	5537.06
503.618	5611.63
503.987	5690.05
504.356	5662.93
504.724	5740.89
505.093	5719.43
505.462	5737.28
505.83	5704.29
506.199	5744.28
506.567	5860.44
506.936	5806.43
507.304	5888.01
507.672	5916.71
508.041	5921.68
508.409	5977.05
508.777	5934.79
509.145	5991.06
509.514	5937.95
509.882	6003.94
510.25	5995.12
510.618	6034.9
510.986	6041
511.354	6061.56
511.722	6102.24
512.09	6094.56
512.458	6122.58
512.826	6115.12
513.193	6165.29
513.561	6131.17
513.929	6243.93
514.297	6270.6
514.664	6284.38
515.032	6308.11
515.4	6248.9
515.767	6320.54
516.135	6342.91
516.502	6320.77
516.869	6442.34
517.237	6464.72
517.604	6318.28
517.972	6464.04
518.339	6492.51
518.706	6407.77
519.073	6496.13
519.44	6504.72
519.808	6480.31
520.175	6530.25
520.542	6588.78
520.909	6657.71
521.276	6526.64
521.643	6694.99
522.009	6711.26
522.376	6723.92
522.743	6701.77
523.11	6730.7
523.477	6799.85
523.843	6804.37
524.21	6910.58
524.577	6912.84
524.943	6912.16
525.31	6936.57
525.676	6949.22
526.043	6941.77
526.409	7032.39
526.776	7054.31
527.142	7066.51
527.508	7139.73
527.874	7146.73
528.241	7144.47
528.607	7131.59
528.973	7321.19
529.339	7215.21
529.705	7249.1
530.071	7324.36
530.437	7374.07
530.803	7356.67
531.169	7328.65
531.535	7349.89
531.901	7428.53
532.267	7376.11
532.632	7418.59
532.998	7475.31
533.364	7557.57
533.73	7501.98
534.095	7562.54
534.461	7612.03
534.826	7609.55
535.192	7582.65
535.557	7665.14
535.923	7647.06
536.288	7688.64
536.653	7687.51
537.019	7645.93
537.384	7686.83
537.749	7762.99
538.114	7739.94
538.479	7782.65
538.845	7767.06
539.21	7727.96
539.575	7786.26
539.94	7839.82
540.305	7881.4
540.67	7864.68
541.034	7832.82
541.399	7951.23
541.764	7925.02
542.129	7925.7
542.494	7944
542.858	7988.07
543.223	7955.75
543.587	8079.59
543.952	7985.81
544.316	8042.98
544.681	8014.96
545.045	8061.06
545.41	8049.99
545.774	8123.66
546.138	8064.45
546.503	8163.88
546.867	8142.64
547.231	8159.14
547.595	8135.86
547.959	8150.32
548.324	8193.49
548.688	8216.54
549.052	8229.64
549.416	8254.5
549.779	8252.24
550.143	8215.18
550.507	8280.49
550.871	8290.66
551.235	8320.04
551.599	8306.25
551.962	8393.93
552.326	8378.11
552.689	8424.21
553.053	8375.18
553.417	8339.92
553.78	8472.35
554.143	8416.3
554.507	8484.32
554.87	8460.37
555.234	8499.92
555.597	8488.84
555.96	8504.66
556.323	8525.91
556.686	8525.23
557.05	8580.37
557.413	8576.98
557.776	8610.88
558.139	8634.38
558.502	8669.4
558.865	8669.18
559.228	8746.92
559.59	8765.9
559.953	8759.35
560.316	8839.34
560.679	8800.25
561.041	8842.51
561.404	8856.07
561.767	8965.89
562.129	8924.09
562.492	8997.98
562.854	9021.03
563.217	9057.87
563.579	9024.88
563.941	9070.52
564.304	9075.27
564.666	9129.96
565.028	9137.19
565.39	9164.08
565.753	9198.2
566.115	9236.17
566.477	9286.79
566.839	9236.85
567.201	9315.49
567.563	9373.57
567.925	9431.87
568.287	9421.48
568.648	9437.07
569.01	9464.64
569.372	9564.52
569.734	9506.44
570.095	9522.72
570.457	9618.76
570.819	9690.62
571.18	9628.25
571.542	9700.79
571.903	9783.5
572.265	9804.29
572.626	9866.66
572.987	9759.55
573.349	9807.91
573.71	9802.71
574.071	9905.76
574.432	9932.65
574.794	10072.76
575.155	10002.7
575.516	9976.26
575.877	10115.24
576.238	10122.47
576.599	10236.37
576.96	10213.32
577.32	10262.13
577.681	10323.15
578.042	10309.14
578.403	10354.56
578.763	10428.91
579.124	10470.49
579.485	10491.28
579.845	10542.8
580.206	10546.87
580.566	10578.73
580.927	10595
581.287	10779.86
581.648	10723.59
582.008	10886.75
582.368	10844.04
582.728	10892.17
583.089	10890.82
583.449	11027.31
583.809	11028.44
584.169	11093.97
584.529	11098.72
584.889	11268.43
585.249	11225.95
585.609	11323.12
585.969	11401.76
586.329	11460.29
586.688	11437.02
587.048	11517.47
587.408	11603.11
587.768	11634.52
588.127	11745.26
588.487	11723.34
588.846	11904.12
589.206	11930.79
589.565	11969.66
589.925	12060.95
590.284	12067.51
590.643	12208.07
591.003	12246.03
591.362	12443.77
591.721	12429.31
592.08	12521.05
592.44	12533.94
592.799	12693.48
593.158	12656.42
593.517	12751.56
593.876	12781.16
594.235	12828.84
594.593	12846.7
594.952	13013.92
595.311	13055.5
595.67	13133.24
596.029	13274.71
596.387	13293.24
596.746	13203.97
597.104	13345.44
597.463	13377.76
597.822	13457.3
598.18	13547.02
598.538	13555.6
598.897	13727.8
599.255	13622.04
599.613	13868.36
599.972	13741.36
600.33	13892.32
600.688	13828.14
601.046	13937.97
601.404	14052.31
601.762	14026.78
602.12	14162.59
602.478	14110.62
602.836	14181.8
603.194	14242.14
603.552	14241.91
603.91	14311.97
604.268	14354
604.625	14397.62
604.983	14492.98
605.341	14403.27
605.698	14513.77
606.056	14536.6
606.413	14568.46
606.771	14677.38
607.128	14704.27
607.485	14658.63
607.843	14796.02
608.2	14774.33
608.557	14825.85
608.914	14779.75
609.272	14933.87
609.629	15025.4
609.986	14952.86
610.343	15039.63
610.7	15129.12
611.057	15037.82
611.414	15134.32
611.771	15188.33
612.127	15270.81
612.484	15270.36
612.841	15277.14
613.198	15226.75
613.554	15340.19
613.911	15400.08
614.267	15377.48
614.624	15448.21
614.98	15421.54
615.337	15533.41
615.693	15486.4
616.05	15492.5
616.406	15629.9
616.762	15508.32
617.118	15570.24
617.475	15646.85
617.831	15647.53
618.187	15727.98
618.543	15699.28
618.899	15723.91
619.255	15741.31
619.611	15684.59
619.967	15809.1
620.323	15789.44
620.678	15693.4
621.034	15774.75
621.39	15719.16
621.746	15712.16
622.101	15924.36
622.457	15848.65
622.812	15848.43
623.168	15952.15
623.523	15932.04
623.879	15928.65
624.234	15919.38
624.589	15911.25
624.945	15915.54
625.3	15988.53
625.655	15985.14
626.01	16061.07
626.365	15934.52
626.72	16003.68
627.075	15989.89
627.43	15906.73
627.785	15927.97
628.14	16100.62
628.495	16053.17
628.85	15929.1
629.205	15887.29
629.559	15967.74
629.914	15993.28
630.269	15871.93
630.623	15875.09
630.978	15942.89
631.332	15951.02
631.687	15985.82
632.041	15941.08
632.396	15844.58
632.75	15833.74
633.104	15930.46
633.459	15764.81
633.813	15775.43
634.167	15786.96
634.521	15792.16
634.875	15818.6
635.229	15775.66
635.583	15736.34
635.937	15784.02
636.291	15656.11
636.645	15734.98
636.999	15700.41
637.352	15708.54
637.706	15587.42
638.06	15695.43
638.413	15653.4
638.767	15639.17
639.121	15715.77
639.474	15529.56
639.828	15608.21
640.181	15583.57
640.534	15579.96
640.888	15559.62
641.241	15607.08
641.594	15542.67
641.947	15548.77
642.301	15523.91
642.654	15502.67
643.007	15502.9
643.36	15426.74
643.713	15513.52
644.066	15487.76
644.419	15370.92
644.771	15286.41
645.124	15136.81
645.477	15173.19
645.83	14978.17
646.182	14972.74
646.535	15070.59
646.888	14991.72
647.24	14872.86
647.593	14989.69
647.945	14937.26
648.298	14919.64
648.65	14928.22
649.002	14875.12
649.355	14980.65
649.707	14938.39
650.059	15027.88
650.411	15261.32
650.763	15376.57
651.115	15386.29
651.467	15374.99
651.819	15340.87
652.171	15364.82
652.523	15292.06
652.875	15333.18
653.227	15271.27
653.578	15375.9
653.93	15350.13
654.282	15278.72
654.633	15267.42
654.985	15337.93
655.337	15297.71
655.688	15362.11
656.039	15357.59
656.391	15342.9
656.742	15334.54
657.094	15264.71
657.445	15330.02
657.796	15291.38
658.147	15261.1
658.498	15290.7
658.849	15266.07
659.2	15251.83
659.551	15250.25
659.902	15330.92
660.253	15364.37
660.604	15390.36
660.955	15280.08
661.306	15293.41
661.656	15329.12
662.007	15361.21
662.358	15389.45
662.708	15296.8
663.059	15343.35
663.409	15228.78
663.76	15409.11
664.11	15350.59
664.461	15441.88
664.811	15410.47
665.161	15239.18
665.511	15308.33
665.862	15393.07
666.212	15473.52
666.562	15498.38
666.912	15342.22
667.262	15422.22
667.612	15346.29
667.962	15478.94
668.312	15328.89
668.662	15457.02
669.011	15351.49
669.361	15377.48
669.711	15345.39
670.06	15331.83
670.41	15304.71
670.76	15383.35
671.109	15401.43
671.459	15334.54
671.808	15338.38
672.157	15285.28
672.507	15282.79
672.856	15182.68
673.205	15293.41
673.554	15231.49
673.904	15179.97
674.253	15266.29
674.602	15229.23
674.951	15033.53
675.3	14972.97
675.649	15156.47
675.998	15131.61
676.346	15148.1
676.695	15163.92
677.044	15011.38
677.393	15077.15
677.741	15196.69
678.09	15031.05
678.438	15007.09
678.787	15110.59
679.135	15079.41
679.484	14996.02
679.832	15001.22
680.181	14906.53
680.529	15013.64
680.877	14998.05
681.225	14869.47
681.573	14970.48
681.922	14866.53
682.27	14834.44
682.618	14872.86
682.966	14750.83
683.314	14863.82
683.661	14767.55
684.009	14605.07
684.357	14561.23
684.705	14622.02
685.053	14604.39
685.4	14593.77
685.748	14538.63
686.095	14521.23
686.443	14483.94
686.79	14457.05
687.138	14464.96
687.485	14391.06
687.832	14409.82
688.18	14476.03
688.527	14285.3
688.874	14350.84
689.221	14266.09
689.568	14219.77
689.915	14173.89
690.262	14076.04
690.609	14148.36
690.956	14037.63
691.303	13940.9
691.65	13972.32
691.997	13965.54
692.344	13887.12
692.69	13836.73
693.037	13767.35
693.383	13720.57
693.73	13739.78
694.077	13656.17
694.423	13685.77
694.769	13529.84
695.116	13579.56
695.462	13517.64
695.808	13497.3
696.155	13491.2
696.501	13297.08
696.847	13293.92
697.193	13141.38
697.539	13278.1
697.885	13141.6
698.231	13038.78
698.577	13100.93
698.923	13105.67
699.269	12961.27
699.614	12998.78
699.96	12928.5
700.306	12782.97
700.651	12870.42
700.997	12740.71
701.342	12719.92
701.688	12662.75
702.033	12584.1
702.379	12608.74
702.724	12566.7
703.069	12542.52
703.415	12452.13
703.76	12486.25
704.105	12477.44
704.45	12335.98
704.795	12297.56
705.14	12202.19
705.485	12264.56
705.83	12157
706.175	12137.56
706.52	12133.72
706.865	12077.68
707.209	12025.93
707.554	12007.85
707.899	11975.08
708.243	11969.43
708.588	11940.73
708.932	11902.77
709.277	11890.56
709.621	11816.89
709.966	11737.57
710.31	11836.33
710.654	11713.17
710.998	11663.22
711.342	11653.51
711.687	11579.38
712.031	11579.84
712.375	11524.02
712.719	11513.85
713.063	11496.22
713.407	11612.38
713.75	11437.47
714.094	11496.45
714.438	11471.14
714.782	11505.71
715.125	11380.75
715.469	11421.2
715.812	11323.57
716.156	11246.96
716.499	11302.33
716.843	11359.96
717.186	11278.38
717.53	11282.22
717.873	11312.27
718.216	11293.52
718.559	11141.66
718.902	11105.05
719.246	11150.02
719.589	11086.06
719.932	11104.14
720.275	11178.94
720.617	11095.78
720.96	11131.26
721.303	11030.25
721.646	11073.41
721.989	10970.36
722.331	10977.82
722.674	11013.98
723.016	10910.7
723.359	10879.74
723.701	10941.66
724.044	10893.3
724.386	10817.14
724.729	10915.67
725.071	10912.06
725.413	10882.23
725.755	10899.85
726.097	10820.99
726.439	10760.2
726.782	10818.95
727.124	10833.19
727.465	10826.86
727.807	10849.01
728.149	10849.69
728.491	10769.01
728.833	10773.98
729.175	10755.68
729.516	10730.14
729.858	10745.51
730.199	10742.12
730.541	10756.36
730.882	10750.03
731.224	10836.81
731.565	10744.38
731.906	10770.59
732.248	10745.73
732.589	10664.83
732.93	10665.51
733.271	10775.34
733.612	10713.19
733.953	10705.28
734.294	10722.91
734.635	10704.83
734.976	10729.46
735.317	10670.26
735.658	10642.23
735.999	10699.41
736.339	10582.8
736.68	10694.89
737.021	10730.59
737.361	10658.28
737.702	10744.6
738.042	10767.2
738.383	10696.7
738.723	10672.06
739.063	10792.29
739.404	10778.28
739.744	10786.41
740.084	10650.14
740.424	10748.45
740.764	10743.02
741.104	10819.18
741.444	10701.22
741.784	10744.15
742.124	10876.35
742.464	10841.1
742.804	10828.9
743.143	10856.01
743.483	10932.4
743.823	10911.15
744.162	10878.16
744.502	10994.54
744.841	10970.14
745.181	11033.86
745.52	11027.08
745.86	11063.24
746.199	11128.1
746.538	11233.41
746.877	11267.75
747.216	11330.35
747.556	11257.36
747.895	11392.27
748.234	11411.71
748.573	11456.9
748.911	11560.63
749.25	11677.24
749.589	11636.56
749.928	11753.17
750.267	11866.61
750.605	11889.89
750.944	11994.29
751.283	12036.77
751.621	12055.3
751.96	12134.62
752.298	12253.49
752.636	12406.26
752.975	12438.12
753.313	12565.12
753.651	12676.98
753.989	12718.11
754.327	12854.15
754.666	12903.42
755.004	13123.75
755.342	13255.5
755.679	13330.75
756.017	13359
756.355	13657.3
756.693	13712.44
757.031	13890.06
757.368	13973.9
757.706	14097.74
758.044	14257.05
758.381	14395.36
758.719	14437.84
759.056	14732.75
759.394	14830.6
759.731	14935.45
760.068	15082.34
760.405	15141.55
760.743	15253.64
761.08	15580.18
761.417	15623.35
761.754	15719.61
762.091	15941.3
762.428	15972.26
762.765	16220.17
763.102	16376.77
763.438	16478.92
763.775	16588.52
764.112	16770.43
764.449	16972.24
764.785	16922.3
765.122	17079.13
765.458	17190.99
765.795	17255.39
766.131	17504.43
766.467	17548.27
766.804	17512.34
767.14	17746
767.476	17829.84
767.812	17947.58
768.148	18145.09
768.485	18110.51
768.821	18235.48
769.157	18328.59
769.492	18384.18
769.828	18437.51
770.164	18439.09
770.5	18586.43
770.836	18746.2
771.171	18746.2
771.507	18884.5
771.842	18792.98
772.178	18870.72
772.513	19042.69
772.849	18997.95
773.184	19030.49
773.519	19118.17
773.855	19121.56
774.19	19127.89
774.525	19220.99
774.86	19240.2
775.195	19278.62
775.53	19336.92
775.865	19267.77
776.2	19299.41
776.535	19309.8
776.87	19385.51
777.205	19267.77
777.539	19282.46
777.874	19329.01
778.209	19170.6
778.543	19377.82
778.878	19303.7
779.212	19272.06
779.547	19364.72
779.881	19368.11
780.215	19362.01
780.55	19416.69
780.884	19307.54
781.218	19346.64
781.552	19400.87
781.886	19215.12
782.22	19240.43
782.554	19219.18
782.888	19088.57
783.222	19139.41
783.556	19107.77
783.889	19118.62
784.223	18992.3
784.557	18983.03
784.89	19087.21
785.224	19093.31
785.557	18950.49
785.891	18916.14
786.224	18945.52
786.558	18904.62
786.891	18801.34
787.224	18770.83
787.557	18703.72
787.891	18720.89
788.224	18686.99
788.557	18753.89
788.89	18650.39
789.223	18719.76
789.556	18519.32
789.888	18527.9
790.221	18508.47
790.554	18289.49
790.887	18361.81
791.219	18449.49
791.552	18345.99
791.884	18264.41
792.217	18216.27
792.549	18142.6
792.882	18068.25
793.214	17997.07
793.546	18079.1
793.879	17956.39
794.211	17865.32
794.543	17975.83
794.875	17922.49
795.207	17975.15
795.539	17910.29
795.871	17884.76
796.203	17692.67
796.535	17513.92
796.867	17609.06
797.198	17623.52
797.53	17555.5
797.862	17451.55
798.193	17488.16
798.525	17417.2
798.856	17454.48
799.188	17229.18
799.519	17291.33
799.85	17129.52
800.182	17120.03
800.513	17212.23
800.844	16967.49
801.175	17107.15
801.506	17069.18
801.837	16893.82
802.168	16908.51
802.499	16887.27
802.83	16802.75
803.161	16771.79
803.491	16806.82
803.822	16746.71
804.153	16654.96
804.483	16557.78
804.814	16508.07
805.145	16395.76
805.475	16455.87
805.805	16398.24
806.136	16396.21
806.466	16418.13
806.796	16296.32
807.126	16284.8
807.457	16130
807.787	16276.21
808.117	16129.1
808.447	16149.89
808.777	16177.46
809.107	16002.32
809.436	15972.26
809.766	15958.7
810.096	15999.38
810.426	15882.77
810.755	15962.09
811.085	15945.37
811.414	15822.66
811.744	15748.31
812.073	15702.67
812.403	15801.42
812.732	15596.23
813.061	15646.17
813.39	15494.31
813.719	15525.27
814.049	15537.02
814.378	15474.65
814.707	15467.87
815.036	15418.15
815.365	15431.71
815.693	15190.59
816.022	15192.62
816.351	15236.46
816.68	15093.87
817.008	15191.04
817.337	15025.4
817.665	15105.17
817.994	15129.35
818.322	15165.05
818.651	14976.36
818.979	14892.29
819.307	15005.28
819.636	14917.15
819.964	14943.59
820.292	14905.85
820.62	14883.48
820.948	14871.95
821.276	14897.94
821.604	14920.54
821.932	14814.55
822.259	14924.83
822.587	14774.78
822.915	14789.47
823.243	14845.29
823.57	14793.31
823.898	14812.75
824.225	14751.05
824.553	14790.6
824.88	14827.21
825.207	14842.35
825.535	14819.53
825.862	14871.5
826.189	14845.51
826.516	14878.51
826.843	14884.61
827.17	14824.72
827.497	14835.8
827.824	14875.34
828.151	14921.44
828.478	14869.92
828.805	14778.4
829.131	14837.15
829.458	14780.88
829.785	14784.95
830.111	14725.74
830.438	14921.67
830.764	14868.34
831.09	14855.46
831.417	14775.01
831.743	14833.99
832.069	14768.91
832.395	14741.79
832.722	14733.65
833.048	14698.85
833.374	14724.61
833.7	14601.45
834.026	14639.64
834.351	14661.79
834.677	14642.13
835.003	14611.4
835.329	14699.3
835.654	14659.3
835.98	14545.41
836.306	14588.8
836.631	14599.87
836.956	14640.77
837.282	14585.18
837.607	14575.69
837.932	14496.6
838.258	14493.66
838.583	14511.06
838.908	14492.3
839.233	14392.19
839.558	14308.58
839.883	14369.82
840.208	14301.57
840.533	14311.52
840.858	14338.86
841.182	14254.12
841.507	14297.51
841.832	14273.55
842.156	14266.09
842.481	14259.54
842.805	14199.43
843.13	14044.4
843.454	14033.78
843.778	14022.03
844.103	14042.14
844.427	13993.78
844.751	13983.16
845.075	13933.22
845.399	13843.51
845.723	13767.8
846.047	13787.91
846.371	13647.8
846.695	13656.17
847.019	13618.2
847.343	13492.33
847.666	13477.87
847.99	13364.87
848.313	13423.86
848.637	13269.74
848.96	13362.16
849.284	13275.39
849.607	13097.09
849.931	13132.79
850.254	13020.02
850.577	13024.54
850.9	12838.33
851.223	12929.86
851.546	12931.44
851.869	12755.85
852.192	12776.64
852.515	12707.72
852.838	12674.27
853.161	12658.45
853.483	12551.11
853.806	12567.38
854.129	12517.89
854.451	12477.44
854.774	12385.47
855.096	12398.57
855.419	12305.02
855.741	12313.15
856.063	12218.46
856.385	12265.69
856.708	12164.68
857.03	12153.16
857.352	12153.83
857.674	12078.13
857.996	12020.73
858.318	12023.89
858.64	11971.69
858.961	12004.46
859.283	11838.81
859.605	11843.78
859.926	11820.51
860.248	11851.24
860.57	11801.98
860.891	11792.03
861.212	11685.6
861.534	11664.35
861.855	11591.36
862.176	11697.35
862.498	11656.9
862.819	11629.55
863.14	11543
863.461	11568.99
863.782	11561.08
864.103	11527.18
864.424	11482.44
864.745	11532.61
865.065	11456.45
865.386	11379.84
865.707	11411.03
866.027	11384.14
866.348	11410.58
866.668	11314.08
866.989	11292.84
867.309	11194.99
867.63	11305.27
867.95	11259.39
868.27	11194.54
868.59	11199.51
868.91	11161.77
869.23	11206.97
869.55	11121.32
869.87	11190.47
870.19	11171.94
870.51	11137.14
870.83	11139.4
871.15	11015.33
871.469	11000.19
871.789	11139.17
872.109	11138.49
872.428	10993.64
872.748	10988.21
873.067	10973.75
873.386	10983.69
873.706	10867.31
874.025	10872.96
874.344	10886.97
874.663	10941.44
874.982	10792.06
875.301	10920.42
875.62	10755.45
875.939	10772.63
876.258	10828.9
876.577	10779.41
876.896	10756.58
877.214	10741.67
877.533	10736.92
877.852	10741.89
878.17	10749.35
878.489	10724.72
878.807	10708.67
879.125	10624.61
879.444	10681.56
879.762	10581.9
880.08	10601.56
880.398	10531.28
880.716	10590.26
881.034	10548.9
881.352	10535.34
881.67	10494.22
881.988	10479.3
882.306	10488.34
882.624	10371.05
882.941	10256.93
883.259	10250.83
883.577	10303.49
883.894	10245.86
884.212	10251.96
884.529	10263.71
884.846	10159.08
885.164	10222.58
885.481	10168.8
885.798	10206.54
886.115	10103.72
886.432	10110.72
886.75	10128.35
887.067	10094.23
887.383	9996.83
887.7	10015.36
888.017	9984.17
888.334	9958.64
888.651	9946.66
888.967	9884.06
889.284	9832.99
889.6	9848.13
889.917	9776.04
890.233	9782.6
890.55	9693.11
890.866	9735.59
891.182	9710.28
891.498	9638.19
891.815	9645.88
892.131	9622.37
892.447	9592.54
892.763	9625.54
893.079	9478.2
893.395	9516.84
893.71	9450.63
894.026	9430.74
894.342	9434.81
894.657	9375.15
894.973	9365.43
895.289	9320.69
895.604	9340.8
895.92	9256.51
896.235	9204.76
896.55	9243.18
896.865	9197.07
897.181	9178.77
897.496	9160.01
897.811	9128.15
898.126	9052.9
898.441	9051.77
898.756	9007.93
899.071	8938.78
899.386	8975.61
899.7	8890.19
900.015	8854.48
900.33	8769.29
900.644	8763.64
900.959	8784.88
901.273	8671.21
901.588	8710.31
901.902	8612.91
902.216	8626.47
902.531	8698.1
902.845	8546.7
903.159	8522.06
903.473	8432.35
903.787	8461.95
904.101	8457.88
904.415	8374.95
904.729	8463.76
905.042	8393.71
905.356	8303.31
905.67	8238.46
905.984	8274.39
906.297	8238.68
906.611	8216.99
906.924	8195.29
907.237	8157.33
907.551	8099.25
907.864	8083.43
908.177	8092.92
908.491	8026.48
908.804	7984.23
909.117	7940.16
909.43	7927.96
909.743	7861.74
910.056	7808.18
910.368	7868.3
910.681	7780.39
910.994	7772.48
911.307	7715.98
911.619	7659.94
911.932	7716.44
912.244	7596.89
912.557	7573.39
912.869	7512.6
913.181	7465.14
913.494	7519.15
913.806	7365.71
914.118	7424.47
914.43	7356.44
914.742	7394.41
915.054	7358.25
915.366	7283.9
915.678	7273.28
915.99	7200.29
916.302	7160.52
916.613	7151.03
916.925	7161.42
917.236	7124.81
917.548	7056.57
917.859	7066.51
918.171	7045.72
918.482	6989.45
918.794	7024.48
919.105	6929.79
919.416	6906.74
919.727	6884.82
920.038	6891.82
920.349	6823.35
920.66	6830.13
920.971	6791.71
921.282	6783.13
921.593	6664.94
921.903	6653.19
922.214	6680.76
922.525	6661.55
922.835	6605.73
923.146	6582.45
923.456	6527.09
923.767	6535.45
924.077	6477.15
924.387	6527.31
924.697	6514.66
925.008	6385.85
925.318	6399.18
925.628	6423.81
925.938	6382.91
926.248	6263.37
926.558	6293.65
926.867	6288.68
927.177	6302.01
927.487	6204.61
927.796	6147.89
928.106	6154.44
928.416	6124.84
928.725	6127.1
929.034	6043.49
929.344	6065.63
929.653	6031.96
929.962	5989.7
930.271	5963.49
930.581	5957.16
930.89	5906.77
931.199	5873.55
931.508	5834.45
931.817	5872.42
932.125	5892.98
932.434	5814.11
932.743	5798.97
933.051	5728.92
933.36	5761.68
933.669	5711.29
933.977	5696.83
934.286	5658.18
934.594	5675.13
934.902	5620.9
935.21	5558.07
935.519	5540.22
935.827	5562.14
936.135	5521.24
936.443	5494.35
936.751	5524.4
937.059	5467
937.367	5443.27
937.674	5420.22
937.982	5413.67
938.29	5378.64
938.597	5356.27
938.905	5326.44
939.213	5266.33
939.52	5276.05
939.827	5237.4
940.135	5214.81
940.442	5195.37
940.749	5184.52
941.056	5179.55
941.363	5149.72
941.67	5102.27
941.977	5082.15
942.284	5050.06
942.591	5026.79
942.898	5027.92
943.205	5038.31
943.511	4991.31
943.818	4971.65
944.125	4910.18
944.431	4920.8
944.738	4911.09
945.044	4876.74
945.35	4818.66
945.657	4825.66
945.963	4833.12
946.269	4755.84
946.575	4769.17
946.881	4789.51
947.187	4672.22
947.493	4715.38
947.799	4679.68
948.105	4646.23
948.41	4661.6
948.716	4611.66
949.022	4580.92
949.327	4619.57
949.633	4559.91
949.938	4592
950.244	4593.13
950.549	4502.28
950.854	4479.23
951.16	4502.06
951.465	4467.71
951.77	4416.18
952.075	4420.7
952.38	4389.52
952.685	4399.69
952.99	4329.86
953.294	4310.88
953.599	4265.45
953.904	4284.66
954.209	4255.28
954.513	4229.97
954.818	4237.43
955.122	4199.69
955.426	4189.52
955.731	4221.16
956.035	4164.89
956.339	4141.16
956.643	4106.36
956.948	4102.75
957.252	4086.47
957.556	4100.49
957.86	4061.62
958.163	4063.42
958.467	4002.86
958.771	4025.23
959.075	4010.77
959.378	3942.75
959.682	3947.04
959.985	3933.48
960.289	3944.33
960.592	3856.2
960.896	3874.73
961.199	3876.31
961.502	3803.54
961.805	3779.36
962.108	3784.11
962.411	3765.8
962.714	3799.7
963.017	3789.76
963.32	3772.13
963.623	3754.28
963.926	3768.97
964.228	3665.47
964.531	3669.08
964.833	3632.48
965.136	3646.03
965.438	3607.84
965.741	3630.89
966.043	3609.42
966.345	3626.6
966.648	3590.89
966.95	3559.03
967.252	3513.61
967.554	3518.13
967.856	3494.85
968.158	3510.22
968.46	3461.18
968.761	3413.27
969.063	3447.4
969.365	3406.04
969.666	3465.02
969.968	3397.45
970.269	3398.13
970.571	3399.71
970.872	3384.8
971.174	3346.61
971.475	3383.89
971.776	3326.49
972.077	3271.58
972.378	3324.01
972.679	3293.05
972.98	3272.03
973.281	3277
973.582	3225.93
973.883	3217.57
974.183	3243.33
974.484	3215.31
974.785	3192.49
975.085	3140.74
975.386	3195.2
975.686	3145.71
975.986	3157.46
976.287	3114.3
976.587	3089.89
976.887	3088.99
977.187	3063.22
977.487	3052.6
977.787	3069.33
978.087	3061.19
978.387	3011.02
978.687	3032.72
978.987	3007.18
979.286	2934.19
979.586	2999.27
979.885	2961.76
980.185	2938.93
980.484	2971.48
980.784	2923.12
981.083	2914.53
981.382	2880.63
981.682	2882.66
981.981	2858.03
982.28	2834.08
982.579	2795.43
982.878	2850.12
983.177	2823.68
983.475	2838.15
983.774	2793.63
984.073	2754.98
984.372	2734.19
984.67	2731.03
984.969	2730.8
985.267	2724.48
985.566	2719.28
985.864	2678.83
986.162	2641.77
986.461	2661.88
986.759	2646.51
987.057	2616.23
987.355	2610.81
987.653	2634.99
987.951	2584.82
988.249	2605.84
988.547	2603.8
988.844	2573.52
989.142	2550.92
989.44	2529
989.737	2523.8
990.035	2530.36
990.332	2486.74
990.63	2478.61
990.927	2482.22
991.224	2473.86
991.521	2461.21
991.819	2471.15
992.116	2465.05
992.413	2428.44
992.71	2419.85
993.006	2404.94
993.303	2433.64
993.6	2364.94
993.897	2378.27
994.193	2368.1
994.49	2342.79
994.787	2315.9
995.083	2371.49
995.379	2309.12
995.676	2305.73
995.972	2307.99
996.268	2266.64
996.565	2268.22
996.861	2290.36
997.157	2220.99
997.453	2254.21
997.749	2232.96
998.044	2210.37
998.34	2182.8
998.636	2200.87
998.932	2212.63
999.227	2157.03
999.523	2161.33
999.818	2156.58
1000.114	2110.93
1000.409	2124.27
1000.704	2087.66
1001	2118.84
1001.295	2094.89
1001.59	2094.66
1001.885	2048.11
1002.18	2053.08
1002.475	2051.27
1002.77	2053.76
1003.065	2030.71
1003.359	2012.18
1003.654	1999.52
1003.949	1965.17
1004.243	1981.45
1004.538	1968.56
1004.832	1969.24
1005.127	1933.54
1005.421	1942.12
1005.715	1905.51
1006.009	1893.99
1006.304	1922.24
1006.598	1889.24
1006.892	1879.75
1007.186	1854.67
1007.48	1860.09
1007.773	1862.13
1008.067	1847.44
1008.361	1844.73
1008.655	1828
1008.948	1828.23
1009.242	1809.02
1009.535	1811.28
1009.829	1776.93
1010.122	1774.44
1010.415	1750.49
1010.708	1753.2
1011.001	1750.72
1011.295	1728.34
1011.588	1702.13
1011.881	1701.45
1012.173	1708.01
1012.466	1678.85
1012.759	1718.4
1013.052	1695.35
1013.344	1657.61
1013.637	1654.9
1013.93	1627.78
1014.222	1619.87
1014.514	1600.44
1014.807	1586.88
1015.099	1570.83
1015.391	1599.31
1015.683	1571.96
1015.976	1579.2
1016.268	1563.15
1016.56	1557.73
1016.851	1540.1
1017.143	1519.76
1017.435	1531.97
1017.727	1487.9
1018.018	1515.47
1018.31	1485.64
1018.602	1475.24
1018.893	1463.27
1019.185	1481.8
1019.476	1451.29
1019.767	1447.22
1020.058	1428.47
1020.35	1422.59
1020.641	1414.45
1020.932	1414
1021.223	1412.19
1021.514	1407.67
1021.804	1365.64
1022.095	1355.02
1022.386	1369.26
1022.677	1354.12
1022.967	1344.85
1023.258	1311.86
1023.548	1322.48
1023.839	1316.15
1024.129	1306.89
1024.419	1295.59
1024.709	1302.82
1025	1303.95
1025.29	1276.15
1025.58	1284.74
1025.87	1243.84
1026.16	1240.9
1026.449	1246.1
1026.739	1259.88
1027.029	1248.13
1027.319	1189.6
1027.608	1200.9
1027.898	1192.77
1028.187	1206.32
1028.477	1194.35
1028.766	1182.37
1029.055	1172.65
1029.344	1160.9
1029.634	1151.64
1029.923	1176.04
1030.212	1135.59
1030.501	1131.75
1030.79	1126.1
1031.078	1133.78
1031.367	1123.39
1031.656	1110.06
1031.945	1101.47
1032.233	1119.09
1032.522	1085.65
1032.81	1097.17
1033.099	1069.6
1033.387	1062.15
1033.675	1063.96
1033.963	1054.24
1034.251	1067.8
1034.54	1051.3
1034.828	1028.02
1035.116	1011.53
1035.403	1014.92
1035.691	992.54
1035.979	1040.9
1036.267	997.74
1036.554	962.71
1036.842	988.02
1037.129	994.13
1037.417	978.53
1037.704	976.95
1037.992	935.37
1038.279	960.23
1038.566	929.95
1038.853	929.95
1039.14	929.95
