Data from hue_210_FLMS001491_00014.txt Node
Date: Tue Feb 07 16:40:49 GMT 2017
User: dcchb
Spectrometer: FLMS00149
Trigger mode: 0
Integration Time (sec): 2.000000E-2
Scans to average: 10
Electric dark correction enabled: true
Nonlinearity correction enabled: false
Boxcar width: 0
XAxis mode: Wavelengths
Number of Pixels in Spectrum: 2048
>>>>>Begin Spectral Data<<<<<
341.393	-7.4
341.776	-7.4
342.16	-7.4
342.543	-37
342.927	-50.11
343.31	-65.7
343.693	-69.55
344.077	-62.31
344.46	-57.34
344.843	-55.54
345.226	-39.26
345.61	-18.93
345.993	-25.03
346.376	22.2
346.759	-9.66
347.142	19.49
347.525	41.41
347.908	31.02
348.291	82.77
348.674	90
349.057	116.44
349.44	118.7
349.823	147.62
350.206	151.92
350.588	182.2
350.971	206.38
351.354	238.24
351.737	247.51
352.119	238.24
352.502	269.88
352.884	288.18
353.267	283.44
353.65	285.25
354.032	294.29
354.414	310.78
354.797	314.17
355.179	326.15
355.562	308.07
355.944	314.4
356.326	319.6
356.709	337.67
357.091	336.09
357.473	347.17
357.855	340.61
358.238	355.98
358.62	343.32
359.002	341.97
359.384	343.55
359.766	338.58
360.148	331.57
360.53	336.09
360.912	332.25
361.294	327.73
361.676	327.73
362.057	336.77
362.439	311.69
362.821	316.66
363.203	322.76
363.584	321.63
363.966	311.01
364.348	313.95
364.729	341.06
365.111	304.46
365.493	334.96
365.874	320.5
366.256	321.63
366.637	300.16
367.019	317.56
367.4	309.2
367.781	330.67
368.163	325.25
368.544	319.6
368.925	292.25
369.306	315.08
369.688	305.36
370.069	341.06
370.45	308.3
370.831	304
371.212	316.21
371.593	312.36
371.974	308.75
372.355	305.36
372.736	336.09
373.117	305.13
373.498	325.7
373.879	319.37
374.26	319.37
374.641	334.96
375.021	297
375.402	308.52
375.783	313.95
376.163	327.96
376.544	315.53
376.925	303.33
377.305	320.95
377.686	325.25
378.066	327.51
378.447	333.61
378.827	335.87
379.208	344.91
379.588	309.65
379.968	331.8
380.349	316.66
380.729	317.34
381.109	325.25
381.489	337.22
381.87	319.14
382.25	353.49
382.63	324.79
383.01	323.89
383.39	345.13
383.77	349.43
384.15	357.34
384.53	337.45
384.91	348.3
385.29	327.05
385.67	354.62
386.049	353.72
386.429	343.78
386.809	360.72
387.189	374.06
387.568	351.46
387.948	351.23
388.328	352.59
388.707	352.82
389.087	347.17
389.466	356.88
389.846	339.26
390.225	361.63
390.605	360.95
390.984	351.91
391.363	367.28
391.743	373.61
392.122	379.48
392.501	376.09
392.881	376.09
393.26	372.7
393.639	384.23
394.018	377
394.397	396.43
394.776	392.36
395.155	405.7
395.534	387.39
395.913	386.94
396.292	395.53
396.671	401.63
397.05	406.37
397.429	389.65
397.808	392.59
398.186	397.79
398.565	403.66
398.944	420.84
399.323	401.4
399.701	408.41
400.08	404.11
400.458	419.48
400.837	462.64
401.215	421.51
401.594	435.3
401.972	422.64
402.351	431.68
402.729	440.04
403.107	424
403.486	448.18
403.864	429.88
404.242	449.31
404.62	446.37
404.999	448.18
405.377	440.72
405.755	438.46
406.133	467.84
406.511	494.05
406.889	482.3
407.267	481.17
407.645	483.66
408.023	482.98
408.401	515.3
408.779	491.34
409.156	518.01
409.534	508.29
409.912	524.79
410.29	520.04
410.667	535.86
411.045	545.8
411.422	580.38
411.8	573.83
412.178	536.31
412.555	570.89
412.933	593.49
413.31	598.68
413.687	620.15
414.065	628.97
414.442	608.18
414.819	629.64
415.197	635.07
415.574	641.62
415.951	651.34
416.328	679.13
416.705	696.31
417.082	713.26
417.46	668.74
417.837	694.05
418.214	722.3
418.591	710.32
418.967	709.64
419.344	739.7
419.721	734.73
420.098	736.76
420.475	744.44
420.852	778.79
421.228	800.26
421.605	814.5
421.982	820.83
422.358	835.06
422.735	855.63
423.111	851.56
423.488	873.48
423.864	879.13
424.241	898.11
424.617	916.42
424.994	932.46
425.37	939.69
425.746	958.22
426.123	963.2
426.499	968.17
426.875	969.07
427.251	1020.37
427.627	1013.59
428.003	1020.14
428.379	1073.47
428.756	1064.66
429.132	1070.99
429.507	1069.63
429.883	1073.47
430.259	1100.14
430.635	1121.83
431.011	1135.39
431.387	1140.37
431.763	1175.17
432.138	1191.44
432.514	1190.08
432.89	1216.75
433.265	1237.09
433.641	1266.92
434.016	1260.36
434.392	1314.37
434.767	1329.74
435.143	1338.33
435.518	1382.39
435.894	1384.2
436.269	1442.28
436.644	1446.12
437.02	1484.31
437.395	1494.48
437.77	1517.98
438.145	1525.67
438.52	1603.86
438.895	1604.31
439.271	1606.79
439.646	1597.3
440.021	1691.31
440.395	1672.78
440.77	1703.51
441.145	1708.94
441.52	1736.51
441.895	1755.04
442.27	1797.3
442.645	1769.05
443.019	1848.14
443.394	1846.56
443.769	1856.05
444.143	1851.99
444.518	1924.53
444.892	1899.67
445.267	1901.7
445.641	1952.77
446.016	1933.56
446.39	1970.85
446.764	1956.16
447.139	1957.07
447.513	2000.68
447.887	2007.91
448.262	2020.12
448.636	2061.47
449.01	2063.28
449.384	2098.53
449.758	2119.77
450.132	2148.7
450.506	2154.8
450.88	2137.4
451.254	2159.55
451.628	2170.39
452.002	2209.04
452.376	2253.33
452.75	2251.52
453.123	2279.09
453.497	2296.95
453.871	2335.14
454.244	2386.89
454.618	2386.89
454.992	2419.2
455.365	2403.16
455.739	2468.69
456.112	2474.79
456.486	2522.25
456.859	2499.2
457.232	2581.01
457.606	2605.41
457.979	2634.11
458.352	2665.3
458.725	2677.73
459.099	2709.14
459.472	2761.11
459.845	2759.98
460.218	2754.56
460.591	2818.74
460.964	2835.91
461.337	2891.28
461.71	2910.94
462.083	2978.51
462.456	2947.55
462.829	2987.55
463.201	3036.81
463.574	3067.09
463.947	3092.4
464.32	3146.19
464.692	3174.89
465.065	3186.19
465.438	3236.58
465.81	3313.87
466.183	3309.12
466.555	3381.44
466.928	3401.1
467.3	3426.86
467.672	3469.8
468.045	3531.72
468.417	3567.65
468.789	3609.23
469.161	3574.2
469.534	3649.9
469.906	3744.59
470.278	3779.62
470.65	3781.88
471.022	3858.26
471.394	3915.89
471.766	3983.91
472.138	4005.83
472.51	4083.56
472.882	4120.4
473.253	4164.24
473.625	4181.19
473.997	4330.56
474.369	4296.44
474.74	4366.72
475.112	4455.98
475.484	4495.98
475.855	4611.23
476.227	4590.22
476.598	4715.19
476.97	4693.94
477.341	4877.22
477.713	4898.46
478.084	4918.57
478.455	5033.82
478.827	5086.93
479.198	5196.98
479.569	5231.33
479.94	5388.84
480.311	5393.59
480.682	5484.21
481.053	5577.76
481.424	5675.61
481.795	5700.7
482.166	5777.08
482.537	5860.47
482.908	5971.65
483.279	5972.55
483.65	6102.27
484.021	6191.53
484.391	6278.76
484.762	6333
485.133	6407.12
485.503	6415.26
485.874	6570.05
486.244	6543.16
486.615	6754.46
486.985	6777.73
487.356	6882.59
487.726	6966.65
488.097	7093.66
488.467	7081
488.837	7174.78
489.207	7290.71
489.578	7347.66
489.948	7391.05
490.318	7502.23
490.688	7466.07
491.058	7647.99
491.428	7689.57
491.798	7701.55
492.168	7892.05
492.538	7890.24
492.908	7906.97
493.278	8045.49
493.648	8022.9
494.017	8160.97
494.387	8219.05
494.757	8258.14
495.126	8316
495.496	8257.01
495.866	8374.3
496.235	8473.05
496.605	8552.15
496.974	8567.74
497.344	8597.34
497.713	8601.86
498.082	8645.03
498.452	8773.61
498.821	8796.66
499.19	8746.72
499.559	8892.7
499.928	8852.71
500.298	8908.3
500.667	8955.3
501.036	8999.82
501.405	9000.72
501.774	9077.56
502.143	9114.39
502.512	9098.12
502.88	9201.85
503.249	9104
503.618	9239.59
503.987	9183.54
504.356	9129.53
504.724	9320.49
505.093	9286.59
505.462	9349.42
505.83	9339.02
506.199	9386.48
506.567	9473.25
506.936	9423.09
507.304	9577.66
507.672	9506.47
508.041	9574.95
508.409	9603.65
508.777	9578.79
509.145	9655.62
509.514	9590.09
509.882	9643.87
510.25	9669.18
510.618	9755.96
510.986	9748.5
511.354	9762.96
511.722	9799.57
512.09	9845.9
512.458	9834.15
512.826	9866.01
513.193	9907.14
513.561	9932.68
513.929	9871.89
514.297	9967.25
514.664	9993.01
515.032	10039.11
515.4	10047.7
515.767	9978.33
516.135	10029.62
516.502	9923.19
516.869	10078.89
517.237	10061.03
517.604	9997.99
517.972	10059
518.339	10085.67
518.706	10057.65
519.073	10127.93
519.44	10119.79
519.808	10176.29
520.175	10098.1
520.542	10156.4
520.909	10156.17
521.276	10118.43
521.643	10172.9
522.009	10265.55
522.376	10290.41
522.743	10252.67
523.11	10289.05
523.477	10272.33
523.843	10299.67
524.21	10328.82
524.577	10386.45
524.943	10323.17
525.31	10259
525.676	10446.56
526.043	10425.55
526.409	10456.05
526.776	10445.88
527.142	10421.25
527.508	10458.76
527.874	10433
528.241	10444.53
528.607	10374.02
528.973	10487.69
529.339	10418.77
529.705	10527.46
530.071	10542.6
530.437	10439.78
530.803	10432.55
531.169	10437.3
531.535	10421.48
531.901	10387.13
532.267	10336.51
532.632	10358.88
532.998	10360.91
533.364	10353.91
533.73	10354.59
534.095	10336.73
534.461	10312.55
534.826	10331.31
535.192	10335.38
535.557	10300.8
535.923	10246.34
536.288	10267.13
536.653	10257.64
537.019	10154.82
537.384	10162.5
537.749	10238.66
538.114	10180.35
538.479	10122.05
538.845	10102.84
539.21	9974.94
539.575	9999.57
539.94	9985.1
540.305	9987.14
540.67	9891.55
541.034	9917.99
541.399	9890.64
541.764	9842.28
542.129	9813.36
542.494	9887.48
542.858	9775.84
543.223	9704.66
543.587	9738.56
543.952	9739.46
544.316	9719.57
544.681	9572.46
545.045	9632.57
545.41	9633.02
545.774	9589.86
546.138	9584.21
546.503	9456.31
546.867	9467.15
547.231	9510.99
547.595	9466.02
547.959	9432.35
548.324	9406.36
548.688	9388.28
549.052	9389.41
549.416	9342.41
549.779	9201.62
550.143	9241.17
550.507	9317.78
550.871	9274.39
551.235	9167.05
551.599	9195.52
551.962	9179.7
552.326	9095.86
552.689	9121.85
553.053	9066.26
553.417	9073.94
553.78	9141.29
554.143	9039.37
554.507	8980.16
554.87	8962.31
555.234	9063.77
555.597	8918.92
555.96	8945.36
556.323	8957.79
556.686	8894.74
557.05	8909.65
557.413	8971.35
557.776	8881.18
558.139	8891.12
558.502	8866.04
558.865	8882.53
559.228	8835.08
559.59	8899.03
559.953	8804.12
560.316	8895.87
560.679	8815.19
561.041	8892.48
561.404	8902.65
561.767	8866.26
562.129	8852.03
562.492	8868.3
562.854	8887.05
563.217	8796.21
563.579	8842.99
563.941	8878.69
564.304	8828.52
564.666	8871.91
565.028	8862.65
565.39	8877.56
565.753	8873.95
566.115	8957.11
566.477	8906.04
566.839	8878.47
567.201	8939.48
567.563	8939.03
567.925	8911.23
568.287	8988.52
568.648	8922.53
569.01	8998.01
569.372	8995.98
569.734	8919.14
570.095	8972.7
570.457	9026.71
570.819	9013.15
571.18	8988.97
571.542	9043.43
571.903	9074.85
572.265	9076.65
572.626	9088.18
572.987	9082.98
573.349	9113.72
573.71	9111
574.071	9122.08
574.432	9163.66
574.794	9136.54
575.155	9133.38
575.516	9209.31
575.877	9172.47
576.238	9103.77
576.599	9196.88
576.96	9132.47
577.32	9130.44
577.681	9207.27
578.042	9216.99
578.403	9292.02
578.763	9205.24
579.124	9248.63
579.485	9279.81
579.845	9273.71
580.206	9308.74
580.566	9261.28
580.927	9230.55
581.287	9320.94
581.648	9333.37
582.008	9393.03
582.368	9271.45
582.728	9353.71
583.089	9347.61
583.449	9250.43
583.809	9374.5
584.169	9326.59
584.529	9338.79
584.889	9397.1
585.249	9337.66
585.609	9286.59
585.969	9383.31
586.329	9328.85
586.688	9402.97
587.048	9372.01
587.408	9404.55
587.768	9385.35
588.127	9374.27
588.487	9409.98
588.846	9434.16
589.206	9318.23
589.565	9356.42
589.925	9399.81
590.284	9461.73
590.643	9396.87
591.003	9420.15
591.362	9496.08
591.721	9482.29
592.08	9440.94
592.44	9484.33
592.799	9420.37
593.158	9471.22
593.517	9458.11
593.876	9460.82
594.235	9447.27
594.593	9437.77
594.952	9483.2
595.311	9449.98
595.67	9458.79
596.029	9481.39
596.387	9473.71
596.746	9528.85
597.104	9427.15
597.463	9440.03
597.822	9511.67
598.18	9490.65
598.538	9470.32
598.897	9523.42
599.255	9471.9
599.613	9578.11
599.972	9513.93
600.33	9558.22
600.688	9479.58
601.046	9483.2
601.404	9547.38
601.762	9502.86
602.12	9522.52
602.478	9525.68
602.836	9460.37
603.194	9582.63
603.552	9510.54
603.91	9451.11
604.268	9554.83
604.625	9444.78
604.983	9492.69
605.341	9469.86
605.698	9572.69
606.056	9516.87
606.413	9518
606.771	9537.88
607.128	9561.61
607.485	9548.96
607.843	9572.69
608.2	9562.74
608.557	9585.34
608.914	9533.37
609.272	9635.06
609.629	9649.29
609.986	9641.84
610.343	9585.34
610.7	9661.27
611.057	9657.2
611.414	9613.14
611.771	9661.95
612.127	9723.42
612.484	9676.86
612.841	9626.47
613.198	9659.46
613.554	9684.32
613.911	9760.03
614.267	9710.76
614.624	9717.32
614.98	9668.95
615.337	9757.77
615.693	9713.25
616.05	9759.57
616.406	9764.09
616.762	9753.92
617.118	9725
617.475	9751.89
617.831	9795.05
618.187	9783.3
618.543	9700.82
618.899	9757.09
619.255	9812
619.611	9735.62
619.967	9835.05
620.323	9854.71
620.678	9824.2
621.034	9772.68
621.39	9789.4
621.746	9848.16
622.101	9875.73
622.457	9830.76
622.812	9799.8
623.168	9891.32
623.523	9823.98
623.879	9864.43
624.234	9841.61
624.589	9856.52
624.945	9830.98
625.3	9869.18
625.655	9880.47
626.01	9859.68
626.365	9825.33
626.72	9836.63
627.075	9841.38
627.43	9791.89
627.785	9809.74
628.14	9774.94
628.495	9835.73
628.85	9795.51
629.205	9754.6
629.559	9817.2
629.914	9771.55
630.269	9750.08
630.623	9648.16
630.978	9788.05
631.332	9769.74
631.687	9775.17
632.041	9738.11
632.396	9734.04
632.75	9720.48
633.104	9703.3
633.459	9574.04
633.813	9617.66
634.167	9626.92
634.521	9605.23
634.875	9633.48
635.229	9558.68
635.583	9540.37
635.937	9578.11
636.291	9575.85
636.645	9586.47
636.999	9541.05
637.352	9591.22
637.706	9559.13
638.06	9574.95
638.413	9544.21
638.767	9494.72
639.121	9449.07
639.474	9394.16
639.828	9412.01
640.181	9443.42
640.534	9516.19
640.888	9430.32
641.241	9350.77
641.594	9463.08
641.947	9455.63
642.301	9459.69
642.654	9387.38
643.007	9432.58
643.36	9416.53
643.713	9336.53
644.066	9410.43
644.419	9278.46
644.771	9289.3
645.124	9200.27
645.477	9183.77
645.83	9122.53
646.182	9047.95
646.535	9008.86
646.888	9108.29
647.24	8997.33
647.593	9112.13
647.945	9061.74
648.298	9080.04
648.65	9083.43
649.002	9015.41
649.355	9023.32
649.707	9077.78
650.059	9091.79
650.411	9143.54
650.763	9174.96
651.115	9352.8
651.467	9198.23
651.819	9277.55
652.171	9280.94
652.523	9179.25
652.875	9223.32
653.227	9245.24
653.578	9247.72
653.93	9251.34
654.282	9233.71
654.633	9183.77
654.985	9253.15
655.337	9204.11
655.688	9240.49
656.039	9297.89
656.391	9209.98
656.742	9224.9
657.094	9216.31
657.445	9306.7
657.796	9278.46
658.147	9322.75
658.498	9263.54
658.849	9257.44
659.2	9328.17
659.551	9182.19
659.902	9282.52
660.253	9229.19
660.604	9361.17
660.955	9252.69
661.306	9260.15
661.656	9326.36
662.007	9220.83
662.358	9261.96
662.708	9259.47
663.059	9260.15
663.409	9161.17
663.76	9281.62
664.11	9343.99
664.461	9272.36
664.811	9276.42
665.161	9302.41
665.511	9228.51
665.862	9268.74
666.212	9230.77
666.562	9303.54
666.912	9268.51
667.262	9306.93
667.612	9310.77
667.962	9366.14
668.312	9308.74
668.662	9317.78
669.011	9287.27
669.361	9303.77
669.711	9235.29
670.06	9268.51
670.41	9197.55
670.76	9263.54
671.109	9309.64
671.459	9286.14
671.808	9235.29
672.157	9254.05
672.507	9151.23
672.856	9176.76
673.205	9234.62
673.554	9229.64
673.904	9228.06
674.253	9200.27
674.602	9211.79
674.951	9082.08
675.3	9021.29
675.649	9136.99
675.998	9078.24
676.346	9134.96
676.695	9181.06
677.044	9090.44
677.393	9084.79
677.741	9093.38
678.09	9085.92
678.438	9060.84
678.787	9098.12
679.135	9091.79
679.484	9012.93
679.832	9088.18
680.181	8990.78
680.529	9007.05
680.877	8962.98
681.225	8947.39
681.573	8992.59
681.922	8925.02
682.27	8968.18
682.618	8929.54
682.966	8886.6
683.314	8914.4
683.661	8810.9
684.009	8761.63
684.357	8798.24
684.705	8799.37
685.053	8826.04
685.4	8695.42
685.748	8765.02
686.095	8748.3
686.443	8708.3
686.79	8678.25
687.138	8701.3
687.485	8727.51
687.832	8670.79
688.18	8643.9
688.527	8610.45
688.874	8578.36
689.221	8542.66
689.568	8512.83
689.915	8456.78
690.262	8509.89
690.609	8495.2
690.956	8413.85
691.303	8425.37
691.65	8388.31
691.997	8394.86
692.344	8341.76
692.69	8301.08
693.037	8328.2
693.383	8219.05
693.73	8272.83
694.077	8192.61
694.423	8177.47
694.769	8185.15
695.116	8119.84
695.462	8076.91
695.808	8070.35
696.155	8115.55
696.501	7976.12
696.847	8005.72
697.193	7907.19
697.539	7964.14
697.885	7867.19
698.231	7868.32
698.577	7883.24
698.923	7842.11
699.269	7772.28
699.614	7701.1
699.96	7686.18
700.306	7677.59
700.651	7646.18
700.997	7662.91
701.342	7617.71
701.688	7625.17
702.033	7575
702.379	7527.09
702.724	7491.84
703.069	7557.6
703.415	7418.17
703.76	7422.91
704.105	7438.5
704.45	7349.47
704.795	7363.93
705.14	7400.31
705.485	7303.14
705.83	7299.3
706.175	7301.11
706.52	7258.85
706.865	7291.39
707.209	7202.58
707.554	7210.26
707.899	7271.05
708.243	7158.06
708.588	7122.81
708.932	7109.25
709.277	7160.32
709.621	7111.06
709.966	7082.13
710.31	7036.26
710.654	6974.11
710.998	7054.79
711.342	6980.89
711.687	6977.73
712.031	6968.01
712.375	6923.04
712.719	6905.86
713.063	6940.66
713.407	7004.17
713.75	6843.49
714.094	6888.91
714.438	6861.12
714.782	6831.52
715.125	6837.62
715.469	6821.57
715.812	6810.05
716.156	6760.78
716.499	6769.14
716.843	6836.03
717.186	6747.9
717.53	6788.13
717.873	6808.24
718.216	6756.04
718.559	6716.04
718.902	6638.3
719.246	6697.73
719.589	6695.47
719.932	6639.43
720.275	6656.6
720.617	6646.44
720.96	6639.2
721.303	6583.39
721.646	6655.47
721.989	6602.59
722.331	6655.47
722.674	6637.4
723.016	6603.95
723.359	6574.12
723.701	6573.44
724.044	6596.49
724.386	6526.21
724.729	6549.71
725.071	6582.93
725.413	6565.99
725.755	6569.83
726.097	6569.6
726.439	6521.92
726.782	6497.06
727.124	6542.94
727.465	6503.61
727.807	6511.52
728.149	6493.67
728.491	6481.47
728.833	6516.04
729.175	6475.82
729.516	6495.7
729.858	6476.5
730.199	6504.74
730.541	6463.16
730.882	6454.58
731.224	6520.34
731.565	6465.2
731.906	6469.04
732.248	6497.74
732.589	6456.84
732.93	6472.2
733.271	6434.92
733.612	6438.08
733.953	6490.06
734.294	6487.12
734.635	6464.07
734.976	6485.99
735.317	6415.71
735.658	6431.07
735.999	6470.85
736.339	6451.41
736.68	6499.55
737.021	6483.28
737.361	6467.46
737.702	6487.57
738.042	6495.7
738.383	6467.91
738.723	6489.15
739.063	6518.98
739.404	6488.02
739.744	6505.2
740.084	6475.59
740.424	6542.26
740.764	6540.45
741.104	6546.55
741.444	6599.43
741.784	6587.23
742.124	6578.64
742.464	6662.93
742.804	6635.81
743.143	6609.6
743.483	6666.32
743.823	6649.83
744.162	6671.29
744.502	6752.2
744.841	6684.85
745.181	6818.63
745.52	6810.95
745.86	6857.28
746.199	6816.37
746.538	6890.95
746.877	6956.48
747.216	6923.94
747.556	7010.49
747.895	7088.23
748.234	7058.4
748.573	7132.52
748.911	7166.65
749.25	7240.77
749.589	7339.07
749.928	7316.25
750.267	7402.12
750.605	7484.83
750.944	7528.22
751.283	7681.66
751.621	7694.54
751.96	7686.63
752.298	7800.3
752.636	7984.48
752.975	7993.52
753.313	8078.71
753.651	8222.67
753.989	8309.89
754.327	8448.42
754.666	8511.92
755.004	8645.93
755.342	8799.15
755.679	8913.49
756.017	9021.29
756.355	9108.74
756.693	9275.97
757.031	9414.95
757.368	9502.18
757.706	9617.88
758.044	9741.5
758.381	9946.46
758.719	10108.94
759.056	10258.77
759.394	10344.87
759.731	10576.73
760.068	10695.14
760.405	10793.9
760.743	11018.98
761.08	11183.94
761.417	11406.76
761.754	11594.33
762.091	11722.23
762.428	11824.15
762.765	11975.79
763.102	12246.74
763.438	12415.78
763.775	12468.88
764.112	12724.69
764.449	12929.43
764.785	13052.59
765.122	13246.49
765.458	13319.71
765.795	13486.71
766.131	13712.01
766.467	13854.83
766.804	13969.63
767.14	14062.51
767.476	14201.94
767.812	14335.27
768.148	14603.74
768.485	14676.05
768.821	14756.28
769.157	14972.77
769.492	15163.95
769.828	15240.56
770.164	15269.26
770.5	15425.41
770.836	15638.52
771.171	15556.71
771.507	15747.21
771.842	15830.83
772.178	15944.27
772.513	16089.8
772.849	16209.57
773.184	16205.05
773.519	16344.03
773.855	16396.46
774.19	16480.75
774.525	16653.4
774.86	16781.54
775.195	16818.15
775.53	16825.6
775.865	16813.63
776.2	16886.62
776.535	16877.13
776.87	17019.95
777.205	17009.1
777.539	17076.22
777.874	17153.73
778.209	17142.88
778.543	17177.01
778.878	17187.85
779.212	17287.51
779.547	17285.25
779.881	17349.66
780.215	17253.84
780.55	17435.53
780.884	17405.93
781.218	17415.87
781.552	17558.01
781.886	17528.41
782.22	17449.54
782.554	17423.55
782.888	17469.88
783.222	17400.73
783.556	17389.66
783.889	17477.11
784.223	17360.73
784.557	17384.01
784.89	17479.14
785.224	17491.57
785.557	17419.26
785.891	17475.3
786.224	17385.14
786.558	17428.75
786.891	17395.08
787.224	17355.98
787.557	17297.45
787.891	17324.57
788.224	17281.18
788.557	17306.49
788.89	17317.12
789.223	17290.45
789.556	17240.51
789.888	17326.38
790.221	17254.52
790.554	17044.13
790.887	17148.98
791.219	17163
791.552	17118.02
791.884	17063.79
792.217	17072.38
792.549	16982.43
792.882	16900.86
793.214	16852.72
793.546	16909.22
793.879	16891.82
794.211	16843.23
794.543	16882.55
794.875	16752.84
795.207	16880.52
795.539	16685.49
795.871	16762.55
796.203	16694.98
796.535	16566.17
796.867	16694.76
797.198	16604.14
797.53	16525.95
797.862	16490.7
798.193	16498.38
798.525	16520.98
798.856	16405.27
799.188	16232.62
799.519	16298.61
799.85	16240.99
800.182	16235.34
800.513	16160.54
800.844	16165.96
801.175	16211.16
801.506	16182.68
801.837	16137.94
802.168	16026.53
802.499	16052.74
802.83	15992.86
803.161	15927.1
803.491	15997.15
803.822	15973.42
804.153	15909.24
804.483	15835.12
804.814	15766.42
805.145	15704.28
805.475	15685.97
805.805	15691.4
806.136	15593.77
806.466	15617.72
806.796	15582.02
807.126	15548.35
807.457	15452.76
807.787	15548.8
808.117	15508.8
808.447	15341.8
808.777	15497.05
809.107	15334.34
809.436	15284.85
809.766	15283.5
810.096	15255.7
810.426	15235.36
810.755	15214.12
811.085	15218.19
811.414	15220.67
811.744	15088.7
812.073	15041.92
812.403	15048.93
812.732	15012.54
813.061	15007.57
813.39	14933.68
813.719	14918.99
814.049	14974.13
814.378	14935.48
814.707	14843.96
815.036	14836.5
815.365	14719.9
815.693	14695.94
816.022	14687.35
816.351	14707.01
816.68	14575.04
817.008	14632.67
817.337	14565.55
817.665	14454.14
817.994	14521.48
818.322	14512.22
818.651	14479.9
818.979	14465.44
819.307	14523.06
819.636	14562.39
819.964	14380.02
820.292	14401.94
820.62	14447.59
820.948	14338.21
821.276	14396.06
821.604	14297.08
821.932	14368.49
822.259	14446.91
822.587	14387.93
822.915	14272
823.243	14402.84
823.57	14404.42
823.898	14334.37
824.225	14303.41
824.553	14307.93
824.88	14361.49
825.207	14306.57
825.535	14290.3
825.862	14375.72
826.189	14295.73
826.516	14382.96
826.843	14408.04
827.17	14442.16
827.497	14434.48
827.824	14409.17
828.151	14367.81
828.478	14420.92
828.805	14397.87
829.131	14364.88
829.458	14342.5
829.785	14334.14
830.111	14324.88
830.438	14507.47
830.764	14402.16
831.09	14453.46
831.417	14383.41
831.743	14380.02
832.069	14346.35
832.395	14288.95
832.722	14296.18
833.048	14294.6
833.374	14351.32
833.7	14274.03
834.026	14272.9
834.351	14216.18
834.677	14166.92
835.003	14256.18
835.329	14310.41
835.654	14305.67
835.98	14200.36
836.306	14173.92
836.631	14104.32
836.956	14246.01
837.282	14158.55
837.607	14137.99
837.932	14079.46
838.258	14122.85
838.583	14036.52
838.908	14010.54
839.233	14045.34
839.558	14041.27
839.883	14008.05
840.208	13891.44
840.533	13927.83
840.858	13878.56
841.182	13882.63
841.507	13905.68
841.832	13841.05
842.156	13820.71
842.481	13889.18
842.805	13725.35
843.13	13659.58
843.454	13627.72
843.778	13700.71
844.103	13643.09
844.427	13565.35
844.751	13575.52
845.075	13539.36
845.399	13478.12
845.723	13383.89
846.047	13481.51
846.371	13291.23
846.695	13360.84
847.019	13319.25
847.343	13154.74
847.666	13125.14
847.99	13052.14
848.313	13034.52
848.637	13038.36
848.96	12980.96
849.284	12926.27
849.607	12826.16
849.931	12759.95
850.254	12725.37
850.577	12662.1
850.9	12600.18
851.223	12581.19
851.546	12565.15
851.869	12459.84
852.192	12501.65
852.515	12309.34
852.838	12381.65
853.161	12390.24
853.483	12252.16
853.806	12199.96
854.129	12160.64
854.451	12181.88
854.774	12075.9
855.096	11979.85
855.419	12069.34
855.741	11998.84
856.063	11937.14
856.385	11922.23
856.708	11847.2
857.03	11772.4
857.352	11816.47
857.674	11798.62
857.996	11732.4
858.318	11645.85
858.64	11697.6
858.961	11663.25
859.283	11684.27
859.605	11509.36
859.926	11625.51
860.248	11504.16
860.57	11442.24
860.891	11440.21
861.212	11450.15
861.534	11363.6
861.855	11456.7
862.176	11376.03
862.498	11365.18
862.819	11354.11
863.14	11294.45
863.461	11263.72
863.782	11221.68
864.103	11251.51
864.424	11155.47
864.745	11237.95
865.065	11157.05
865.386	11060.78
865.707	11099.2
866.027	11124.28
866.348	11075.92
866.668	11112.76
866.989	11098.75
867.309	10930.62
867.63	11023.72
867.95	10997.28
868.27	10898.08
868.59	10898.75
868.91	10926.1
869.23	10960.67
869.55	10832.54
869.87	10913.22
870.19	10874.12
870.51	10839.32
870.83	10894.23
871.15	10713.45
871.469	10786.89
871.789	10802.94
872.109	10760
872.428	10685.65
872.748	10772.65
873.067	10703.28
873.386	10685.2
873.706	10653.79
874.025	10630.51
874.344	10598.42
874.663	10642.04
874.982	10589.83
875.301	10610.4
875.62	10545.99
875.939	10473.68
876.258	10533.34
876.577	10554.13
876.896	10481.81
877.214	10488.14
877.533	10473
877.852	10391.65
878.17	10418.54
878.489	10511.87
878.807	10374.02
879.125	10363.17
879.444	10355.94
879.762	10307.58
880.08	10357.98
880.398	10269.62
880.716	10308.03
881.034	10293.57
881.352	10261.93
881.67	10216.74
881.988	10189.17
882.306	10227.81
882.624	10117.53
882.941	10056.29
883.259	10050.19
883.577	10035.95
883.894	10036.4
884.212	10069.85
884.529	10079.11
884.846	9990.53
885.164	9955.95
885.481	9933.81
885.798	9848.84
886.115	9864.88
886.432	9894.94
886.75	9862.4
887.067	9814.71
887.383	9840.25
887.7	9811.32
888.017	9770.87
888.334	9837.09
888.651	9804.09
888.967	9780.14
889.284	9622.18
889.6	9610.43
889.917	9612.91
890.233	9576.3
890.55	9527.26
890.866	9560.94
891.182	9477.1
891.498	9512.35
891.815	9462.18
892.131	9433.48
892.447	9414.27
892.763	9360.49
893.079	9333.82
893.395	9280.72
893.71	9263.99
894.026	9252.69
894.342	9291.11
894.657	9143.77
894.973	9169.08
895.289	9155.52
895.604	9137.9
895.92	9012.02
896.235	9041.4
896.55	9024.68
896.865	8959.37
897.181	8906.71
897.496	8986.49
897.811	8901.07
898.126	8891.8
898.441	8774.06
898.756	8804.57
899.071	8744.01
899.386	8802.08
899.7	8655.2
900.015	8613.39
900.33	8585.82
900.644	8558.7
900.959	8608.42
901.273	8504.24
901.588	8507.4
901.902	8401.64
902.216	8431.93
902.531	8429.67
902.845	8360.29
903.159	8333.62
903.473	8362.55
903.787	8265.83
904.101	8223.57
904.415	8228.77
904.729	8231.7
905.042	8153.06
905.356	8112.84
905.67	8123.46
905.984	8128.2
906.297	8069.45
906.611	8014.99
906.924	7980.86
907.237	8015.44
907.551	7897.48
907.864	7856.57
908.177	7857.7
908.491	7849.12
908.804	7827.42
909.117	7720.08
909.43	7707.88
909.743	7681.89
910.056	7676.46
910.368	7653.41
910.681	7569.57
910.994	7564.83
911.307	7539.75
911.619	7490.26
911.932	7487.77
912.244	7432.86
912.557	7374.1
912.869	7346.76
913.181	7339.98
913.494	7325.06
913.806	7231.05
914.118	7276.02
914.43	7194.44
914.742	7201.68
915.054	7175.91
915.366	7147.89
915.678	7111.96
915.99	7064.96
916.302	7035.58
916.613	6947.67
916.925	6941.57
917.236	7051.4
917.548	6937.95
917.859	6931.4
918.171	6863.38
918.482	6880.1
918.794	6800.56
919.105	6877.39
919.416	6819.31
919.727	6758.3
920.038	6715.59
920.349	6665.87
920.66	6683.27
920.971	6607.57
921.282	6664.74
921.593	6564.4
921.903	6535.7
922.214	6522.37
922.525	6490.06
922.835	6477.4
923.146	6476.04
923.456	6431.3
923.767	6403.96
924.077	6388.14
924.387	6341.81
924.697	6266.33
925.008	6356.95
925.318	6290.51
925.628	6229.27
925.938	6224.07
926.248	6172.78
926.558	6190.85
926.867	6146.79
927.177	6147.47
927.487	6064.53
927.796	6078.99
928.106	6038.99
928.416	6033.34
928.725	6040.12
929.034	6004.87
929.344	5935.49
929.653	5890.98
929.962	5868.15
930.271	5884.65
930.581	5857.3
930.89	5783.63
931.199	5760.81
931.508	5758.78
931.817	5794.71
932.125	5760.58
932.434	5717.87
932.743	5636.97
933.051	5660.25
933.36	5665.44
933.669	5613.02
933.977	5550.65
934.286	5597.42
934.594	5554.26
934.902	5500.93
935.21	5482.4
935.519	5471.55
935.827	5473.13
936.135	5380.93
936.443	5406.02
936.751	5391.78
937.059	5382.29
937.367	5361.05
937.674	5308.39
937.982	5275.4
938.29	5281.73
938.597	5244.44
938.905	5201.5
939.213	5147.72
939.52	5175.51
939.827	5185
940.135	5174.16
940.442	5138.45
940.749	5112.46
941.056	5104.78
941.363	5043.09
941.67	5025.01
941.977	5021.62
942.284	4972.13
942.591	4961.51
942.898	4954.73
943.205	4924.67
943.511	4895.3
943.818	4893.94
944.125	4835.86
944.431	4826.37
944.738	4826.37
945.044	4778.91
945.35	4803.32
945.657	4721.97
945.963	4709.31
946.269	4695.75
946.575	4677.67
946.881	4712.47
947.187	4654.85
947.493	4627.96
947.799	4572.37
948.105	4586.15
948.41	4632.93
948.716	4581.63
949.022	4533.72
949.327	4519.03
949.633	4511.58
949.938	4506.15
950.244	4450.79
950.549	4399.26
950.854	4412.37
951.16	4388.42
951.465	4409.21
951.77	4411.24
952.075	4355.65
952.38	4270.68
952.685	4355.65
952.99	4304.12
953.294	4242.2
953.599	4266.16
953.904	4234.3
954.209	4209.21
954.513	4229.55
954.818	4210.57
955.122	4140.96
955.426	4138.48
955.731	4116.56
956.035	4084.47
956.339	4127.41
956.643	4081.31
956.948	4062.32
957.252	4039.5
957.556	4048.09
957.86	3976
958.163	4011.7
958.467	4001.99
958.771	3950.91
959.075	3932.38
959.378	3953.4
959.682	3940.74
959.985	3899.61
960.289	3896
960.592	3841.54
960.896	3836.34
961.199	3794.31
961.502	3839.28
961.805	3792.5
962.108	3769.67
962.411	3754.99
962.714	3724.25
963.017	3706.85
963.32	3731.48
963.623	3718.83
963.926	3654.88
964.228	3663.91
964.531	3627.53
964.833	3638.6
965.136	3591.37
965.438	3629.57
965.741	3602
966.043	3581.21
966.345	3583.47
966.648	3559.06
966.95	3534.43
967.252	3541.88
967.554	3525.84
967.856	3500.53
968.158	3445.84
968.46	3438.16
968.761	3428.89
969.063	3421.66
969.365	3418.72
969.666	3397.48
969.968	3382.57
970.269	3342.79
970.571	3314.77
970.872	3337.14
971.174	3268.67
971.475	3310.25
971.776	3286.07
972.077	3272.06
972.378	3247.88
972.679	3220.54
972.98	3256.92
973.281	3218.5
973.582	3232.29
973.883	3204.49
974.183	3211.05
974.484	3158.39
974.785	3149.13
975.085	3144.38
975.386	3122.91
975.686	3127.88
975.986	3123.14
976.287	3078.62
976.587	3090.82
976.887	3040.88
977.187	3058.96
977.487	3044.27
977.787	3008.34
978.087	3008.79
978.387	2947.32
978.687	3023.48
978.987	2941
979.286	2978.06
979.586	2946.65
979.885	2936.93
980.185	2884.05
980.484	2880.43
980.784	2872.98
981.083	2859.87
981.382	2840.89
981.682	2834.11
981.981	2809.7
982.28	2814.45
982.579	2836.14
982.878	2791.4
983.177	2739.42
983.475	2760.66
983.774	2767.67
984.073	2754.33
984.372	2743.49
984.67	2717.73
984.969	2744.17
985.267	2711.17
985.566	2692.87
985.864	2689.25
986.162	2682.02
986.461	2616.48
986.759	2616.94
987.057	2611.74
987.355	2618.07
987.653	2576.49
987.951	2572.87
988.249	2574.9
988.547	2550.05
988.844	2551.63
989.142	2556.15
989.44	2512.76
989.737	2493.1
990.035	2503.95
990.332	2510.95
990.63	2512.53
990.927	2435.25
991.224	2428.24
991.521	2484.28
991.819	2427.79
992.116	2440.22
992.413	2430.05
992.71	2387.56
993.006	2393.21
993.303	2404.06
993.6	2359.09
993.897	2334.23
994.193	2333.33
994.49	2350.73
994.787	2317.51
995.083	2287.68
995.379	2311.86
995.676	2281.35
995.972	2265.08
996.268	2261.92
996.565	2252.43
996.861	2245.42
997.157	2243.16
997.453	2217.85
997.749	2211.98
998.044	2185.99
998.34	2207.68
998.636	2203.61
998.932	2184.86
999.227	2133.33
999.523	2137.4
999.818	2157.06
1000.114	2108.93
1000.409	2133.56
1000.704	2097.85
1001	2077.97
1001.295	2081.81
1001.59	2101.24
1001.885	2039.32
1002.18	2037.97
1002.475	2047.01
1002.77	2035.03
1003.065	2006.78
1003.359	2014.24
1003.654	1982.15
1003.949	1976.28
1004.243	1971.98
1004.538	1972.21
1004.832	1946.45
1005.127	1955.49
1005.421	1901.7
1005.715	1885.43
1006.009	1890.85
1006.304	1913.9
1006.598	1887.92
1006.892	1897.63
1007.186	1850.86
1007.48	1852.89
1007.773	1870.52
1008.067	1821.25
1008.361	1793.23
1008.655	1802.95
1008.948	1796.62
1009.242	1798.65
1009.535	1786.68
1009.829	1800.91
1010.122	1746.9
1010.415	1761.14
1010.708	1707.81
1011.001	1678.2
1011.295	1739.22
1011.588	1706
1011.881	1710.29
1012.173	1683.63
1012.466	1689.5
1012.759	1654.7
1013.052	1668.49
1013.344	1647.47
1013.637	1640.92
1013.93	1647.7
1014.222	1636.17
1014.514	1588.94
1014.807	1615.38
1015.099	1597.53
1015.391	1591.65
1015.683	1593.23
1015.976	1566.57
1016.268	1582.16
1016.56	1548.26
1016.851	1513.46
1017.143	1530.86
1017.435	1529.06
1017.727	1521.15
1018.018	1490.19
1018.31	1493.8
1018.602	1477.08
1018.893	1473.69
1019.185	1472.56
1019.476	1452
1019.767	1456.74
1020.058	1423.52
1020.35	1431.43
1020.641	1426.01
1020.932	1399.34
1021.223	1377.42
1021.514	1380.13
1021.804	1381.26
1022.095	1391.66
1022.386	1358.44
1022.677	1352.34
1022.967	1338.1
1023.258	1327.71
1023.548	1309.17
1023.839	1328.16
1024.129	1305.33
1024.419	1327.93
1024.709	1294.49
1025	1295.62
1025.29	1275.28
1025.58	1253.36
1025.87	1272.57
1026.16	1248.61
1026.449	1273.92
1026.739	1215.17
1027.029	1210.87
1027.319	1221.95
1027.608	1237.31
1027.898	1215.17
1028.187	1211.32
1028.477	1196.18
1028.766	1171.1
1029.055	1164.77
1029.344	1162.29
1029.634	1174.26
1029.923	1156.41
1030.212	1132.68
1030.501	1156.86
1030.79	1136.52
1031.078	1115.73
1031.367	1125.22
1031.656	1113.47
1031.945	1114.15
1032.233	1059.01
1032.522	1052.68
1032.81	1076.86
1033.099	1066.7
1033.387	1082.74
1033.675	1040.48
1033.963	1056.3
1034.251	1055.62
1034.54	1036.19
1034.828	1061.72
1035.116	1049.75
1035.403	1013.36
1035.691	1020.14
1035.979	1023.31
1036.267	1000.48
1036.554	1013.14
1036.842	1023.98
1037.129	971.33
1037.417	993.7
1037.704	974.95
1037.992	979.01
1038.279	976.08
1038.566	923.2
1038.853	923.2
1039.14	923.2
