Data from hue_150_FLMS001491_00100.txt Node
Date: Tue Feb 07 16:54:49 GMT 2017
User: dcchb
Spectrometer: FLMS00149
Trigger mode: 0
Integration Time (sec): 2.000000E-2
Scans to average: 10
Electric dark correction enabled: true
Nonlinearity correction enabled: false
Boxcar width: 0
XAxis mode: Wavelengths
Number of Pixels in Spectrum: 2048
>>>>>Begin Spectral Data<<<<<
341.393	-15.8
341.776	-15.8
342.16	-15.8
342.543	-51.28
342.927	-78.85
343.31	-66.65
343.693	-76.37
344.077	-69.36
344.46	-44.73
344.843	-56.93
345.226	-51.06
345.61	-39.53
345.993	-16.93
346.376	5.21
346.759	11.31
347.142	20.35
347.525	49.05
347.908	68.94
348.291	77.98
348.674	82.5
349.057	106.23
349.44	99.67
349.823	146
350.206	160.24
350.588	188.48
350.971	223.96
351.354	207.47
351.737	240.69
352.119	219.44
352.502	252.21
352.884	251.53
353.267	264.87
353.65	284.07
354.032	293.11
354.414	290.4
354.797	309.38
355.179	299.89
355.562	314.81
355.944	323.17
356.326	318.42
356.709	307.58
357.091	341.7
357.473	332.89
357.855	328.59
358.238	320.68
358.62	333.79
359.002	321.14
359.384	343.28
359.766	341.47
360.148	331.08
360.53	335.82
360.912	345.32
361.294	313.23
361.676	317.97
362.057	325.66
362.439	310.97
362.821	317.97
363.203	332.21
363.584	335.82
363.966	339.44
364.348	315.71
364.729	304.19
365.111	299.67
365.493	306.9
365.874	297.86
366.256	302.15
366.637	310.74
367.019	288.82
367.4	304.41
367.781	321.81
368.163	298.76
368.544	308.25
368.925	288.14
369.306	315.71
369.688	310.74
370.069	295.83
370.45	313.9
370.831	324.53
371.212	308.71
371.593	306.67
371.974	315.03
372.355	300.8
372.736	328.82
373.117	320.01
373.498	304.64
373.879	307.58
374.26	312.77
374.641	336.05
375.021	307.12
375.402	320.46
375.783	297.41
376.163	298.09
376.544	309.16
376.925	322.04
377.305	343.73
377.686	342.83
378.066	317.07
378.447	293.34
378.827	304.19
379.208	331.53
379.588	333.79
379.968	322.72
380.349	328.59
380.729	323.4
381.109	328.14
381.489	319.55
381.87	305.77
382.25	314.13
382.63	320.91
383.01	327.46
383.39	318.2
383.77	348.03
384.15	322.94
384.53	320.91
384.91	337.63
385.29	328.82
385.67	320.91
386.049	347.35
386.429	341.25
386.809	336.05
387.189	357.74
387.568	336.28
387.948	335.6
388.328	355.26
388.707	344.64
389.087	348.93
389.466	352.55
389.846	356.16
390.225	347.58
390.605	341.7
390.984	337.18
391.363	371.53
391.743	345.77
392.122	355.26
392.501	344.86
392.881	384.64
393.26	362.04
393.639	361.13
394.018	354.81
394.397	357.29
394.776	378.99
395.155	369.5
395.534	373.79
395.913	378.76
396.292	381.92
396.671	374.47
397.05	367.69
397.429	375.37
397.808	387.8
398.186	371.76
398.565	364.3
398.944	368.82
399.323	370.17
399.701	355.26
400.08	367.91
400.458	378.31
400.837	368.37
401.215	396.84
401.594	396.84
401.972	391.42
402.351	389.16
402.729	396.16
403.107	397.07
403.486	394.81
403.864	397.97
404.242	378.54
404.62	409.72
404.999	405.2
405.377	402.94
405.755	423.73
406.133	407.46
406.511	409.95
406.889	417.86
407.267	405.43
407.645	415.6
408.023	431.64
408.401	419.89
408.779	413.56
409.156	431.19
409.534	414.47
409.912	423.96
410.29	445.65
410.667	445.2
411.045	435.48
411.422	450.85
411.8	441.36
412.178	435.26
412.555	467.35
412.933	448.36
413.31	461.92
413.687	464.18
414.065	453.34
414.442	478.65
414.819	459.44
415.197	469.61
415.574	456.27
415.951	465.76
416.328	485.65
416.705	461.02
417.082	467.12
417.46	473.67
417.837	460.12
418.214	490.4
418.591	499.89
418.967	470.06
419.344	482.04
419.721	497.85
420.098	487.46
420.475	504.18
420.852	497.85
421.228	488.81
421.605	502.6
421.982	512.54
422.358	510.74
422.735	515.25
423.111	518.19
423.488	523.39
423.864	553.45
424.241	556.84
424.617	535.82
424.994	557.06
425.37	531.98
425.746	552.54
426.123	568.59
426.499	538.08
426.875	538.31
427.251	548.25
427.627	578.3
428.003	554.35
428.379	573.33
428.756	580.79
429.132	566.78
429.507	601.58
429.883	591.41
430.259	609.04
430.635	580.11
431.011	579.89
431.387	622.6
431.763	614.24
432.138	627.57
432.514	605.87
432.89	632.99
433.265	625.08
433.641	621.47
434.016	625.08
434.392	631.18
434.767	653.33
435.143	675.02
435.518	670.73
435.894	654.91
436.269	667.79
436.644	673.22
437.02	690.39
437.395	692.65
437.77	681.8
438.145	697.62
438.52	708.02
438.895	717.06
439.271	695.36
439.646	750.28
440.021	707.11
440.395	715.7
440.77	753.89
441.145	726.55
441.52	743.72
441.895	745.53
442.27	758.19
442.645	743.27
443.019	762.71
443.394	755.02
443.769	775.36
444.143	763.16
444.518	776.04
444.892	766.32
445.267	779.88
445.641	792.31
446.016	796.38
446.39	789.6
446.764	824.85
447.139	818.07
447.513	807.68
447.887	826.43
448.262	828.92
448.636	835.25
449.01	832.99
449.384	842.48
449.758	836.6
450.132	861.23
450.506	849.71
450.88	844.29
451.254	886.32
451.628	861.91
452.002	876.83
452.376	896.26
452.75	894.68
453.123	909.37
453.497	903.95
453.871	911.63
454.244	917.73
454.618	916.83
454.992	953.21
455.365	939.65
455.739	965.86
456.112	971.51
456.486	988.91
456.859	1011.06
457.232	1005.86
457.606	992.98
457.979	1034.56
458.352	1067.78
458.725	1060.33
459.099	1080.66
459.472	1078.63
459.845	1091.06
460.218	1073.43
460.591	1109.59
460.964	1085.41
461.337	1134
461.71	1156.59
462.083	1144.16
462.456	1160.44
462.829	1188.46
463.201	1204.05
463.574	1201.56
463.947	1216.93
464.32	1237.27
464.692	1248.34
465.065	1272.3
465.438	1303.48
465.81	1293.09
466.183	1294.9
466.555	1348.68
466.928	1341.9
467.3	1378.06
467.672	1399.3
468.045	1431.84
468.417	1456.7
468.789	1476.81
469.161	1484.04
469.534	1547.54
469.906	1571.05
470.278	1558.84
470.65	1609.24
471.022	1640.42
471.394	1637.71
471.766	1673.64
472.138	1736.92
472.51	1765.17
472.882	1776.01
473.253	1845.62
473.625	1868.21
473.997	1904.14
474.369	1952.51
474.74	1976.01
475.112	2032.05
475.484	2040.64
475.855	2103.46
476.227	2150.01
476.598	2239.05
476.97	2286.73
477.341	2355.43
477.713	2355.66
478.084	2426.84
478.455	2492.83
478.827	2571.47
479.198	2654.18
479.569	2715.65
479.94	2790.22
480.311	2843.56
480.682	2924.23
481.053	3017.56
481.424	3065.02
481.795	3166.94
482.166	3238.12
482.537	3361.06
482.908	3421.17
483.279	3533.93
483.65	3589.07
484.021	3716.53
484.391	3804.66
484.762	3895.05
485.133	3946.35
485.503	4080.13
485.874	4228.15
486.244	4267.02
486.615	4410.75
486.985	4559.67
487.356	4682.83
487.726	4789.49
488.097	4874.01
488.467	4991.52
488.837	5112.42
489.207	5239.65
489.578	5405.52
489.948	5489.59
490.318	5574.1
490.688	5678.51
491.058	5826.98
491.428	5951.72
491.798	6108.55
492.168	6247.76
492.538	6325.72
492.908	6424.7
493.278	6635.09
493.648	6704.7
494.017	6824.24
494.387	6965.48
494.757	7035.08
495.126	7200.5
495.496	7245.02
495.866	7402.31
496.235	7436.88
496.605	7686.14
496.974	7702.64
497.344	7843.42
497.713	7927.49
498.082	8016.3
498.452	8151.21
498.821	8225.79
499.19	8337.2
499.559	8440.7
499.928	8614.25
500.298	8668.71
500.667	8790.52
501.036	8776.51
501.405	8863.06
501.774	8992.55
502.143	9081.36
502.512	9097.18
502.88	9219.66
503.249	9260.56
503.618	9370.39
503.987	9439.99
504.356	9491.29
504.724	9605.19
505.093	9655.58
505.462	9668.23
505.83	9784.62
506.199	9853.77
506.567	10006.08
506.936	10059.86
507.304	10140.76
507.672	10149.13
508.041	10210.59
508.409	10298.73
508.777	10377.59
509.145	10429.12
509.514	10428.21
509.882	10505.5
510.25	10586.18
510.618	10603.13
510.986	10671.6
511.354	10749.34
511.722	10814.42
512.09	10903.91
512.458	10858.26
512.826	10977.58
513.193	11005.83
513.561	10968.54
513.929	11033.4
514.297	11163.79
514.664	11201.75
515.032	11209.21
515.4	11204.24
515.767	11254.18
516.135	11326.95
516.502	11213.96
516.869	11386.61
517.237	11364.46
517.604	11382.54
517.972	11431.13
518.339	11512.71
518.706	11477.68
519.073	11467.06
519.44	11513.38
519.808	11669.99
520.175	11553.16
520.542	11659.82
520.909	11717.67
521.276	11649.2
521.643	11743.89
522.009	11814.62
522.376	11742.3
522.743	11784.11
523.11	11850.55
523.477	11857.56
523.843	11968.96
524.21	11981.85
524.577	12029.75
524.943	12027.72
525.31	12053.03
525.676	12127.15
526.043	12063.2
526.409	12076.08
526.776	12222.29
527.142	12153.59
527.508	12209.64
527.874	12245.34
528.241	12252.12
528.607	12162.86
528.973	12188.85
529.339	12244.89
529.705	12242.4
530.071	12262.97
530.437	12291.67
530.803	12274.04
531.169	12248.05
531.535	12179.58
531.901	12194.5
532.267	12246.25
532.632	12192.69
532.998	12184.1
533.364	12215.51
533.73	12161.28
534.095	12249.41
534.461	12153.82
534.826	12231.78
535.192	12122.18
535.557	12180.26
535.923	12127.15
536.288	12077.89
536.653	12059.58
537.019	11992.47
537.384	12028.17
537.749	12040.38
538.114	11903.88
538.479	11964.67
538.845	11903.88
539.21	11772.81
539.575	11835.64
539.94	11819.82
540.305	11813.49
540.67	11721.74
541.034	11768.29
541.399	11706.82
541.764	11669.09
542.129	11684.45
542.494	11674.06
542.858	11612.36
543.223	11571.46
543.587	11575.53
543.952	11482.88
544.316	11492.14
544.681	11480.39
545.045	11425.7
545.41	11445.59
545.774	11342.31
546.138	11301.86
546.503	11282.66
546.867	11274.29
547.231	11297.34
547.595	11270
547.959	11231.81
548.324	11122.89
548.688	11155.88
549.052	11087.63
549.416	11080.85
549.779	11074.3
550.143	10991.14
550.507	11039.05
550.871	11026.39
551.235	10876.11
551.599	10907.3
551.962	10903.46
552.326	10889.9
552.689	10891.25
553.053	10779.62
553.417	10773.97
553.78	10950.46
554.143	10754.99
554.507	10729.45
554.87	10777.36
555.234	10711.6
555.597	10675.89
555.96	10729.68
556.323	10743.69
556.686	10658.49
557.05	10650.13
557.413	10665.95
557.776	10630.02
558.139	10588.44
558.502	10625.5
558.865	10612.16
559.228	10614.65
559.59	10566.29
559.953	10536.69
560.316	10607.87
560.679	10578.95
561.041	10670.47
561.404	10643.12
561.767	10545.27
562.129	10657.14
562.492	10628.21
562.854	10519.06
563.217	10500.98
563.579	10503.01
563.941	10628.21
564.304	10541.66
564.666	10580.3
565.028	10712.05
565.39	10589.57
565.753	10601.32
566.115	10639.51
566.477	10659.39
566.839	10700.07
567.201	10713.4
567.563	10732.84
567.925	10690.81
568.287	10626.63
568.648	10721.09
569.01	10726.06
569.372	10698.94
569.734	10681.99
570.095	10803.12
570.457	10733.29
570.819	10799.73
571.18	10763.35
571.542	10816.9
571.903	10762.89
572.265	10788.88
572.626	10798.83
572.987	10832.5
573.349	10838.15
573.71	10776.91
574.071	10832.5
574.432	10776.91
574.794	10848.77
575.155	10783.23
575.516	10797.7
575.877	10852.84
576.238	10889.67
576.599	10938.48
576.96	10919.95
577.32	10873.4
577.681	10945.49
578.042	10962.66
578.403	10837.7
578.763	10819.84
579.124	10887.86
579.485	10859.39
579.845	11036.79
580.206	10858.71
580.566	10828.66
580.927	10869.78
581.287	10937.13
581.648	10818.94
582.008	10872.95
582.368	10867.3
582.728	10838.6
583.089	10862.1
583.449	10836.34
583.809	10900.97
584.169	10880.86
584.529	10801.31
584.889	10903.46
585.249	10832.27
585.609	10792.72
585.969	10763.8
586.329	10775.78
586.688	10774.42
587.048	10789.11
587.408	10737.36
587.768	10776.68
588.127	10740.75
588.487	10713.86
588.846	10760.18
589.206	10712.27
589.565	10743.46
589.925	10751.37
590.284	10691.94
590.643	10638.6
591.003	10677.25
591.362	10706.4
591.721	10648.77
592.08	10707.76
592.44	10682.9
592.799	10653.52
593.158	10636.34
593.517	10664.59
593.876	10695.78
594.235	10628.44
594.593	10653.07
594.952	10603.13
595.311	10644.71
595.67	10658.26
596.029	10743.23
596.387	10692.61
596.746	10712.27
597.104	10674.08
597.463	10593.86
597.822	10618.72
598.18	10580.98
598.538	10539.85
598.897	10604.03
599.255	10521.32
599.613	10742.56
599.972	10624.14
600.33	10641.54
600.688	10583.01
601.046	10630.7
601.404	10654.88
601.762	10571.71
602.12	10709.56
602.478	10609.23
602.836	10639.28
603.194	10569.23
603.552	10559.96
603.91	10518.16
604.268	10600.41
604.625	10563.13
604.983	10603.13
605.341	10610.13
605.698	10654.65
606.056	10706.63
606.413	10628.21
606.771	10661.2
607.128	10622.56
607.485	10607.87
607.843	10555.44
608.2	10604.03
608.557	10658.72
608.914	10635.44
609.272	10594.31
609.629	10652.84
609.986	10727.64
610.343	10571.94
610.7	10695.1
611.057	10707.76
611.414	10657.81
611.771	10739.62
612.127	10728.32
612.484	10701.2
612.841	10729.68
613.198	10751.6
613.554	10611.03
613.911	10726.06
614.267	10718.83
614.624	10726.74
614.98	10702.56
615.337	10758.6
615.693	10719.28
616.05	10740.52
616.406	10803.12
616.762	10822.33
617.118	10888.09
617.475	10767.64
617.831	10796.57
618.187	10827.07
618.543	10866.85
618.899	10851.71
619.255	10853.06
619.611	10930.12
619.967	10855.1
620.323	10933.96
620.678	10887.86
621.034	10871.37
621.39	10847.86
621.746	10813.74
622.101	10921.53
622.457	10865.27
622.812	10881.99
623.168	10900.52
623.523	10903.46
623.879	10915.43
624.234	10847.41
624.589	10927.18
624.945	10905.26
625.3	10929.67
625.655	10945.26
626.01	10885.6
626.365	10935.09
626.72	10879.73
627.075	10899.39
627.43	10836.34
627.785	10840.63
628.14	10912.72
628.495	10883.57
628.85	10841.31
629.205	10795.89
629.559	10886.51
629.914	10818.71
630.269	10858.26
630.623	10773.06
630.978	10763.35
631.332	10860.97
631.687	10849.45
632.041	10752.5
632.396	10744.36
632.75	10672.5
633.104	10726.51
633.459	10640.19
633.813	10703.69
634.167	10693.97
634.521	10680.41
634.875	10676.57
635.229	10650.36
635.583	10622.33
635.937	10592.5
636.291	10616.01
636.645	10619.17
636.999	10596.12
637.352	10649.9
637.706	10549.34
638.06	10608.55
638.413	10570.13
638.767	10530.58
639.121	10563.35
639.474	10456.24
639.828	10538.95
640.181	10471.15
640.534	10511.6
640.888	10531.49
641.241	10425.28
641.594	10473.41
641.947	10514.54
642.301	10411.04
642.654	10445.84
643.007	10515.67
643.36	10444.26
643.713	10442.23
644.066	10512.73
644.419	10436.8
644.771	10345.5
645.124	10190.03
645.477	10236.81
645.83	10117.04
646.182	10102.12
646.535	10092.18
646.888	10130.37
647.24	10067.55
647.593	10121.56
647.945	10079.75
648.298	9990.49
648.65	10060.99
649.002	10040.2
649.355	10081.33
649.707	10069.58
650.059	10108.45
650.411	10245.17
650.763	10273.87
651.115	10310.93
651.467	10328.33
651.819	10314.09
652.171	10268.9
652.523	10271.38
652.875	10220.31
653.227	10205.17
653.578	10284.26
653.93	10329.46
654.282	10176.02
654.633	10251.27
654.985	10277.48
655.337	10274.55
655.688	10303.47
656.039	10379.63
656.391	10178.28
656.742	10272.96
657.094	10331.04
657.445	10311.61
657.796	10340.99
658.147	10278.39
658.498	10301.66
658.849	10300.31
659.2	10348.22
659.551	10265.05
659.902	10366.75
660.253	10298.05
660.604	10363.36
660.955	10320.19
661.306	10241.33
661.656	10312.29
662.007	10362.91
662.358	10327.88
662.708	10362.68
663.059	10304.38
663.409	10274.77
663.76	10367.2
664.11	10398.84
664.461	10335.34
664.811	10363.36
665.161	10361.32
665.511	10307.77
665.862	10359.74
666.212	10374.88
666.562	10352.28
666.912	10280.65
667.262	10302.12
667.612	10336.01
667.962	10322.91
668.312	10269.35
668.662	10383.47
669.011	10326.3
669.361	10371.72
669.711	10278.84
670.06	10322.68
670.41	10359.29
670.76	10252.63
671.109	10329.46
671.459	10324.26
671.808	10276.81
672.157	10357.26
672.507	10206.53
672.856	10183.7
673.205	10306.18
673.554	10341.89
673.904	10223.47
674.253	10309.12
674.602	10186.41
674.951	10086.08
675.3	10070.71
675.649	10226.86
675.998	10172.63
676.346	10218.95
676.695	10226.86
677.044	10187.54
677.393	10187.09
677.741	10226.19
678.09	10194.32
678.438	10214.43
678.787	10122.69
679.135	10152.74
679.484	10042.91
679.832	10096.7
680.181	10106.19
680.529	10018.28
680.877	10001.11
681.225	9955.68
681.573	10048.56
681.922	9965.63
682.27	9970.83
682.618	10014.67
682.966	9925.85
683.314	9998.62
683.661	9943.48
684.009	9884.95
684.357	9844.73
684.705	9831.62
685.053	9868.91
685.4	9789.36
685.748	9776.93
686.095	9717.05
686.443	9757.5
686.79	9782.36
687.138	9684.05
687.485	9748.68
687.832	9595.24
688.18	9617.16
688.527	9638.4
688.874	9587.56
689.221	9550.5
689.568	9563.38
689.915	9538.97
690.262	9513.89
690.609	9460.1
690.956	9509.59
691.303	9481.57
691.65	9395.25
691.997	9404.74
692.344	9269.15
692.69	9261.01
693.037	9315.7
693.383	9222.82
693.73	9195.25
694.077	9126.78
694.423	9149.6
694.769	9113.45
695.116	9117.29
695.462	9075.48
695.808	9075.48
696.155	9062.37
696.501	8982.38
696.847	8943.73
697.193	8848.14
697.539	8844.3
697.885	8863.96
698.231	8779.67
698.577	8837.75
698.923	8771.99
699.269	8729.05
699.614	8743.29
699.96	8651.09
700.306	8655.61
700.651	8505.55
700.997	8546
701.342	8549.62
701.688	8558.89
702.033	8516.85
702.379	8480.7
702.724	8412.45
703.069	8507.81
703.415	8387.59
703.76	8350.76
704.105	8398.44
704.45	8358.89
704.795	8311.21
705.14	8225.11
705.485	8212
705.83	8189.86
706.175	8176.75
706.52	8175.84
706.865	8151.21
707.209	8151.66
707.554	8037.09
707.899	8107.15
708.243	8026.02
708.588	8051.55
708.932	8022.18
709.277	8012.46
709.621	7962.97
709.966	7888.39
710.31	7998
710.654	7818.11
710.998	7929.75
711.342	7819.24
711.687	7814.5
712.031	7787.15
712.375	7769.08
712.719	7727.04
713.063	7771.56
713.407	7792.13
713.75	7691.56
714.094	7727.27
714.438	7661.06
714.782	7649.3
715.125	7629.64
715.469	7641.62
715.812	7589.87
716.156	7599.36
716.499	7591.68
716.843	7585.8
717.186	7551.91
717.53	7548.74
717.873	7579.93
718.216	7522.75
718.559	7524.56
718.902	7440.5
719.246	7523.88
719.589	7449.08
719.932	7394.62
720.275	7501.96
720.617	7438.69
720.96	7388.29
721.303	7481.17
721.646	7437.56
721.989	7391.91
722.331	7411.12
722.674	7463.77
723.016	7407.28
723.359	7436.43
723.701	7420.84
724.044	7334.28
724.386	7363.44
724.729	7355.75
725.071	7314.62
725.413	7296.09
725.755	7312.14
726.097	7294.06
726.439	7232.59
726.782	7284.12
727.124	7311.46
727.465	7308.52
727.807	7305.36
728.149	7260.39
728.491	7282.08
728.833	7275.3
729.175	7224.46
729.516	7264.91
729.858	7240.95
730.199	7255.42
730.541	7270.78
730.882	7238.69
731.224	7296.55
731.565	7268.3
731.906	7284.12
732.248	7271.24
732.589	7267.85
732.93	7219.71
733.271	7225.36
733.612	7254.74
733.953	7203.67
734.294	7225.13
734.635	7264.23
734.976	7331.8
735.317	7285.7
735.658	7280.27
735.999	7240.73
736.339	7293.16
736.68	7227.17
737.021	7289.77
737.361	7219.26
737.702	7317.56
738.042	7266.72
738.383	7370.67
738.723	7264.91
739.063	7325.7
739.404	7331.12
739.744	7335.87
740.084	7267.62
740.424	7372.25
740.764	7348.3
741.104	7345.36
741.444	7275.98
741.784	7399.82
742.124	7397.79
742.464	7411.57
742.804	7432.14
743.143	7485.69
743.483	7448.63
743.823	7453.6
744.162	7498.8
744.502	7527.27
744.841	7554.84
745.181	7582.64
745.52	7633.71
745.86	7659.93
746.199	7658.8
746.538	7731.56
746.877	7790.32
747.216	7787.83
747.556	7831.9
747.895	7857.43
748.234	7911.44
748.573	7974.95
748.911	7964.55
749.25	8030.99
749.589	8120.48
749.928	8180.14
750.267	8263.98
750.605	8349.85
750.944	8388.04
751.283	8433.46
751.621	8546.23
751.96	8662.39
752.298	8655.61
752.636	8760.24
752.975	8844.75
753.313	8927.46
753.651	9103.28
753.989	9113.22
754.327	9237.06
754.666	9280.9
755.004	9490.84
755.342	9568.35
755.679	9727.44
756.017	9798.4
756.355	9899.87
756.693	10083.59
757.031	10226.64
757.368	10275
757.706	10484.94
758.044	10586.63
758.381	10678.15
758.719	10844.93
759.056	11009.22
759.394	11076.33
759.731	11127.18
760.068	11401.07
760.405	11527.17
760.743	11712.93
761.08	11881.28
761.417	11984.33
761.754	12090.54
762.091	12290.76
762.428	12492.57
762.765	12623.41
763.102	12744.99
763.438	12883.97
763.775	12972.55
764.112	13179.33
764.449	13377.97
764.785	13510.62
765.122	13586.1
765.458	13785.19
765.795	13901.57
766.131	14097.04
766.467	14217.04
766.804	14321.45
767.14	14446.87
767.476	14639.63
767.812	14733.41
768.148	14858.83
768.485	14911.94
768.821	15084.14
769.157	15248.2
769.492	15358.25
769.828	15438.93
770.164	15468.99
770.5	15651.13
770.836	15723.44
771.171	15746.72
771.507	15906.04
771.842	15942.19
772.178	15989.42
772.513	16125.24
772.849	16191.23
773.184	16254.95
773.519	16327.49
773.855	16268.74
774.19	16485.91
774.525	16497.66
774.86	16568.17
775.195	16605.91
775.53	16636.64
775.865	16705.34
776.2	16752.12
776.535	16701.72
776.87	16744.21
777.205	16792.34
777.539	16875.73
777.874	17005.22
778.209	16929.51
778.543	16975.61
778.878	16995.27
779.212	16971.32
779.547	17092.45
779.881	17122.73
780.215	17025.56
780.55	17141.48
780.884	17040.24
781.218	17099
781.552	17152.56
781.886	17094.93
782.22	17083.63
782.554	17072.79
782.888	17006.8
783.222	17044.76
783.556	17073.69
783.889	16949.17
784.223	16896.29
784.557	16911.21
784.89	16941.94
785.224	16948.5
785.557	16777.65
785.891	16838.44
786.224	16943.3
786.558	16953.01
786.891	16793.92
787.224	16809.06
787.557	16813.13
787.891	16753.25
788.224	16818.33
788.557	16763.19
788.89	16853.13
789.223	16872.34
789.556	16721.83
789.888	16676.41
790.221	16720.48
790.554	16644.55
790.887	16568.17
791.219	16556.19
791.552	16476.64
791.884	16481.61
792.217	16442.52
792.549	16454.04
792.882	16397.55
793.214	16371.11
793.546	16424.67
793.879	16374.72
794.211	16180.15
794.543	16277.1
794.875	16218.57
795.207	16396.42
795.539	16122.3
795.871	16175.18
796.203	16011.8
796.535	15977.22
796.867	16038.69
797.198	15918.69
797.53	16057.45
797.862	15914.62
798.193	16005.24
798.525	15774.29
798.856	15904.91
799.188	15685.7
799.519	15690.22
799.85	15531.36
800.182	15713.5
800.513	15666.95
800.844	15529.55
801.175	15545.59
801.506	15588.98
801.837	15436.67
802.168	15369.78
802.499	15397.35
802.83	15341.76
803.161	15293.17
803.491	15304.47
803.822	15358.25
804.153	15160.29
804.483	15149.9
804.814	15082.78
805.145	15082.78
805.475	15087.75
805.805	15000.52
806.136	15042.1
806.466	14995.78
806.796	15009.79
807.126	14903.35
807.457	14812.05
807.787	14879.4
808.117	14828.55
808.447	14774.54
808.777	14790.81
809.107	14753.75
809.436	14710.59
809.766	14642.34
810.096	14589.01
810.426	14558.05
810.755	14716.69
811.085	14573.42
811.414	14545.62
811.744	14502.68
812.073	14419.75
812.403	14420.65
812.732	14357.83
813.061	14355.34
813.39	14268.11
813.719	14181.11
814.049	14384.49
814.378	14239.64
814.707	14168.46
815.036	14178.85
815.365	14088.91
815.693	14016.82
816.022	14055.69
816.351	14046.88
816.68	13956.03
817.008	13988.57
817.337	13845.75
817.665	13791.06
817.994	13977.73
818.322	13878.29
818.651	13804.17
818.979	13707.9
819.307	13855.02
819.636	13776.15
819.964	13761.69
820.292	13823.61
820.62	13791.06
820.948	13610.5
821.276	13842.59
821.604	13643.05
821.932	13716.26
822.259	13638.98
822.587	13697.06
822.915	13692.99
823.243	13739.54
823.57	13612.76
823.898	13679.43
824.225	13644.63
824.553	13654.34
824.88	13646.21
825.207	13765.98
825.535	13651.18
825.862	13707.22
826.189	13727.11
826.516	13697.06
826.843	13760.1
827.17	13712.2
827.497	13735.02
827.824	13713.1
828.151	13761.23
828.478	13742.93
828.805	13815.92
829.131	13733.89
829.458	13692.08
829.785	13702.48
830.111	13664.51
830.438	13746.32
830.764	13763.49
831.09	13737.05
831.417	13684.17
831.743	13679.65
832.069	13642.37
832.395	13693.89
832.722	13626.32
833.048	13622.25
833.374	13649.37
833.7	13608.02
834.026	13558.98
834.351	13644.4
834.677	13624.06
835.003	13550.84
835.329	13574.57
835.654	13529.83
835.98	13532.99
836.306	13534.8
836.631	13488.7
836.956	13499.77
837.282	13554.23
837.607	13425.65
837.932	13396.72
838.258	13489.15
838.583	13423.62
838.908	13336.39
839.233	13454.8
839.558	13366.67
839.883	13233.11
840.208	13264.98
840.533	13234.69
840.858	13253.22
841.182	13300.91
841.507	13255.71
841.832	13152.89
842.156	13203.28
842.481	13127.58
842.805	13057.07
843.13	13002.38
843.454	13061.82
843.778	12989.05
844.103	12999.67
844.427	12902.73
844.751	12930.52
845.075	12927.58
845.399	12823.18
845.723	12846.46
846.047	12763.29
846.371	12661.83
846.695	12686.69
847.019	12548.61
847.343	12596.75
847.666	12459.8
847.99	12459.57
848.313	12477.65
848.637	12301.39
848.96	12324.66
849.284	12287.15
849.607	12213.25
849.931	12142.07
850.254	12121.5
850.577	12076.76
850.9	11966.03
851.223	11968.06
851.546	11896.65
851.869	11820.04
852.192	11853.94
852.515	11722.64
852.838	11704.57
853.161	11646.94
853.483	11661.63
853.806	11641.52
854.129	11542.31
854.451	11514.74
854.774	11512.48
855.096	11424.8
855.419	11415.08
855.741	11386.61
856.063	11332.82
856.385	11300.28
856.708	11328.08
857.03	11198.36
857.352	11270.9
857.674	11169.44
857.996	11107.74
858.318	11075.2
858.64	11113.17
858.961	11062.77
859.283	10977.13
859.605	10996.34
859.926	10939.61
860.248	10938.48
860.57	10908.2
860.891	10923.79
861.212	10888.99
861.534	10829.56
861.855	10801.31
862.176	10859.39
862.498	10773.29
862.819	10782.33
863.14	10724.03
863.461	10642.9
863.782	10747.53
864.103	10690.58
864.424	10641.54
864.745	10689
865.065	10616.01
865.386	10545.27
865.707	10564.93
866.027	10589.79
866.348	10546.63
866.668	10564.48
866.989	10529.68
867.309	10424.82
867.63	10500.08
867.95	10511.83
868.27	10398.16
868.59	10356.8
868.91	10349.57
869.23	10341.66
869.55	10309.12
869.87	10386.63
870.19	10354.32
870.51	10335.79
870.83	10324.26
871.15	10270.93
871.469	10278.61
871.789	10255.79
872.109	10250.14
872.428	10177.37
872.748	10189.35
873.067	10182.8
873.386	10209.01
873.706	10103.25
874.025	10115.45
874.344	10004.04
874.663	10140.09
874.982	10089.92
875.301	10002.91
875.62	10103.7
875.939	10029.13
876.258	10030.94
876.577	9969.7
876.896	9914.78
877.214	9907.1
877.533	10014.21
877.852	9907.1
878.17	9919.98
878.489	9952.07
878.807	9875.23
879.125	9891.28
879.444	9839.76
879.762	9822.58
880.08	9781.9
880.398	9752.98
880.716	9809.25
881.034	9776.48
881.352	9727.89
881.67	9718.85
881.988	9713.88
882.306	9691.74
882.624	9608.12
882.941	9597.73
883.259	9649.03
883.577	9560.67
883.894	9553.66
884.212	9514.34
884.529	9510.5
884.846	9506.2
885.164	9484.28
885.481	9453.1
885.798	9376.72
886.115	9395.7
886.432	9407.9
886.75	9306.21
887.067	9357.06
887.383	9325.42
887.7	9386.21
888.017	9292.88
888.334	9242.93
888.651	9327.68
888.967	9223.05
889.284	9181.69
889.6	9127.91
889.917	9114.8
890.233	9114.12
890.55	9072.32
890.866	9120
891.182	9096.72
891.498	9028.93
891.815	9022.15
892.131	8928.82
892.447	8942.6
892.763	8876.39
893.079	8845.88
893.395	8884.3
893.71	8824.64
894.026	8804.08
894.342	8805.43
894.657	8794.81
894.973	8667.36
895.289	8713.23
895.604	8641.37
895.92	8604.76
896.235	8616.51
896.55	8539
896.865	8608.83
897.181	8518.43
897.496	8499.23
897.811	8414.48
898.126	8419
898.441	8448.61
898.756	8407.25
899.071	8300.13
899.386	8331.09
899.7	8268.5
900.015	8271.66
900.33	8129.97
900.644	8175.84
900.959	8143.75
901.273	8133.81
901.588	8059.01
901.902	8002.29
902.216	8035.06
902.531	8015.4
902.845	7979.24
903.159	7845.23
903.473	7928.17
903.787	7848.4
904.101	7840.71
904.415	7806.36
904.729	7809.53
905.042	7753.03
905.356	7748.51
905.67	7718.68
905.984	7684.78
906.297	7664.45
906.611	7596.65
906.924	7600.72
907.237	7573.15
907.551	7487.27
907.864	7548.74
908.177	7536.77
908.491	7501.06
908.804	7435.3
909.117	7335.64
909.43	7263.78
909.743	7285.25
910.056	7311.91
910.368	7235.53
910.681	7169.77
910.994	7212.48
911.307	7139.49
911.619	7085.93
911.932	7076.89
912.244	7059.26
912.557	7019.04
912.869	7018.13
913.181	7007.29
913.494	6952.15
913.806	6929.55
914.118	6901.98
914.43	6857.69
914.742	6862.21
915.054	6813.62
915.366	6715.09
915.678	6822.89
915.99	6715.32
916.302	6718.93
916.613	6677.35
916.925	6668.54
917.236	6608.43
917.548	6585.38
917.859	6577.47
918.171	6562.78
918.482	6505.83
918.794	6468.09
919.105	6467.87
919.416	6438.71
919.727	6417.47
920.038	6391.71
920.349	6340.19
920.66	6341.09
920.971	6304.48
921.282	6301.77
921.593	6220.87
921.903	6220.64
922.214	6240.08
922.525	6199.63
922.835	6171.83
923.146	6110.36
923.456	6069.46
923.767	6083.7
924.077	6101.32
924.387	5967.54
924.697	5997.37
925.008	5973.19
925.318	6026.52
925.628	6012.06
925.938	5916.24
926.248	5876.24
926.558	5817.71
926.867	5854.55
927.177	5808.67
927.487	5804.61
927.796	5757.6
928.106	5743.59
928.416	5732.29
928.725	5681.9
929.034	5638.96
929.344	5669.92
929.653	5641.9
929.962	5590.83
930.271	5609.81
930.581	5506.31
930.89	5513.99
931.199	5480.77
931.508	5502.69
931.817	5446.88
932.125	5458.18
932.434	5432.41
932.743	5389.25
933.051	5349.7
933.36	5352.19
933.669	5311.29
933.977	5330.72
934.286	5302.93
934.594	5265.64
934.902	5229.26
935.21	5231.97
935.519	5219.54
935.827	5177.05
936.135	5203.95
936.443	5049.6
936.751	5116.49
937.059	5115.36
937.367	5099.99
937.674	5018.64
937.982	5056.83
938.29	5024.97
938.597	4951.52
938.905	4947.23
939.213	4917.62
939.52	4912.65
939.827	4904.74
940.135	4861.13
940.442	4909.49
940.749	4830.17
941.056	4792.2
941.363	4820.68
941.67	4747.23
941.977	4734.8
942.284	4763.28
942.591	4720.57
942.898	4688.25
943.205	4698.2
943.511	4676.05
943.818	4695.94
944.125	4647.35
944.431	4595.83
944.738	4560.12
945.044	4540.91
945.35	4532.55
945.657	4525.32
945.963	4538.88
946.269	4483.51
946.575	4480.35
946.881	4417.98
947.187	4440.58
947.493	4392.22
947.799	4352.22
948.105	4369.84
948.41	4325.55
948.716	4342.5
949.022	4326.68
949.327	4298.21
949.633	4311.77
949.938	4204.65
950.244	4263.63
950.549	4198.77
950.854	4171.43
951.16	4187.7
951.465	4156.06
951.77	4171.43
952.075	4145.89
952.38	4107.93
952.685	4106.8
952.99	4109.06
953.294	4067.03
953.599	4026.8
953.904	4019.8
954.209	4003.52
954.513	3976.63
954.818	3987.48
955.122	3978.89
955.426	3967.14
955.731	3954.49
956.035	3887.6
956.339	3881.04
956.643	3908.61
956.948	3860.03
957.252	3859.35
957.556	3831.1
957.86	3841.72
958.163	3788.62
958.467	3825.9
958.771	3802.63
959.075	3757.43
959.378	3738.22
959.682	3719.92
959.985	3703.19
960.289	3726.47
960.592	3690.99
960.896	3664.32
961.199	3626.59
961.502	3681.05
961.805	3601.5
962.108	3600.82
962.411	3616.64
962.714	3560.6
963.017	3563.54
963.32	3578.45
963.623	3529.41
963.926	3498.23
964.228	3498.91
964.531	3467.27
964.833	3456.42
965.136	3441.05
965.438	3404.44
965.741	3372.13
966.043	3398.34
966.345	3410.55
966.648	3377.1
966.95	3402.86
967.252	3345.01
967.554	3340.04
967.856	3292.13
968.158	3279.48
968.46	3241.51
968.761	3275.41
969.063	3262.98
969.365	3228.63
969.666	3195.64
969.968	3216.43
970.269	3195.86
970.571	3203.32
970.872	3142.53
971.174	3185.24
971.475	3104.34
971.776	3128.07
972.077	3120.84
972.378	3151.34
972.679	3086.71
972.98	3080.84
973.281	3065.7
973.582	3058.01
973.883	3015.98
974.183	3020.05
974.484	3022.76
974.785	2982.53
975.085	2981.63
975.386	3016.88
975.686	2953.83
975.986	2955.19
976.287	2942.54
976.587	2940.05
976.887	2894.18
977.187	2932.82
977.487	2909.99
977.787	2845.82
978.087	2853.27
978.387	2847.4
978.687	2858.02
978.987	2840.62
979.286	2772.14
979.586	2835.42
979.885	2754.52
980.185	2781.18
980.484	2742.77
980.784	2742.09
981.083	2740.73
981.382	2717.68
981.682	2676.1
981.981	2688.31
982.28	2705.71
982.579	2663.22
982.878	2655.54
983.177	2636.55
983.475	2653.96
983.774	2614.41
984.073	2635.65
984.372	2606.95
984.67	2570.79
984.969	2596.33
985.267	2573.96
985.566	2557.24
985.864	2520.85
986.162	2537.8
986.461	2505.48
986.759	2507.07
987.057	2485.37
987.355	2499.61
987.653	2481.53
987.951	2460.29
988.249	2436.11
988.547	2441.98
988.844	2449.89
989.142	2447.63
989.44	2395.21
989.737	2396.34
990.035	2430.46
990.332	2411.7
990.63	2371.03
990.927	2371.03
991.224	2319.73
991.521	2337.13
991.819	2328.54
992.116	2323.57
992.413	2331.7
992.71	2288.32
993.006	2250.12
993.303	2273.17
993.6	2274.76
993.897	2221.88
994.193	2252.38
994.49	2236.57
994.787	2205.38
995.083	2222.1
995.379	2203.8
995.676	2172.84
995.972	2145.72
996.268	2150.24
996.565	2138.26
996.861	2174.65
997.157	2158.15
997.453	2148.43
997.749	2104.59
998.044	2079.06
998.34	2068.66
998.636	2073.41
998.932	2081.77
999.227	2043.35
999.523	2026.85
999.818	2051.26
1000.114	2044.25
1000.409	2012.39
1000.704	2018.94
1001	1992.96
1001.295	1974.88
1001.59	1975.1
1001.885	1977.59
1002.18	1952.05
1002.475	1956.12
1002.77	1934.65
1003.065	1903.47
1003.359	1895.11
1003.654	1906.63
1003.949	1860.08
1004.243	1869.8
1004.538	1856.69
1004.832	1849.23
1005.127	1830.93
1005.421	1843.58
1005.715	1798.38
1006.009	1792.06
1006.304	1776.46
1006.598	1806.07
1006.892	1805.62
1007.186	1792.28
1007.48	1776.46
1007.773	1728.78
1008.067	1763.58
1008.361	1721.1
1008.655	1690.14
1008.948	1713.42
1009.242	1701.66
1009.535	1710.48
1009.829	1696.69
1010.122	1634.77
1010.415	1683.13
1010.708	1679.52
1011.001	1650.37
1011.295	1633.87
1011.588	1618.05
1011.881	1601.78
1012.173	1626.86
1012.466	1593.19
1012.759	1603.81
1013.052	1576.47
1013.344	1634.32
1013.637	1590.48
1013.93	1542.8
1014.222	1550.26
1014.514	1536.47
1014.807	1564.04
1015.099	1526.98
1015.391	1513.19
1015.683	1510.93
1015.976	1474.33
1016.268	1475.68
1016.56	1469.35
1016.851	1471.84
1017.143	1468.45
1017.435	1459.18
1017.727	1430.94
1018.018	1455.8
1018.31	1395.46
1018.602	1427.55
1018.893	1416.47
1019.185	1404.05
1019.476	1376.48
1019.767	1382.12
1020.058	1356.59
1020.35	1372.41
1020.641	1336.02
1020.932	1322.69
1021.223	1339.19
1021.514	1346.19
1021.804	1303.26
1022.095	1335.35
1022.386	1317.72
1022.677	1268.68
1022.967	1289.47
1023.258	1291.51
1023.548	1247.89
1023.839	1257.16
1024.129	1289.25
1024.419	1232.98
1024.709	1251.96
1025	1266.65
1025.29	1223.03
1025.58	1239.3
1025.87	1204.95
1026.16	1177.84
1026.449	1187.78
1026.739	1192.75
1027.029	1196.82
1027.319	1167.89
1027.608	1152.3
1027.898	1164.05
1028.187	1156.14
1028.477	1170.83
1028.766	1135.35
1029.055	1133.77
1029.344	1123.37
1029.634	1105.07
1029.923	1119.98
1030.212	1091.74
1030.501	1105.97
1030.79	1096.48
1031.078	1056.94
1031.367	1063.04
1031.656	1068.91
1031.945	1076.14
1032.233	1049.25
1032.522	1040.89
1032.81	1050.83
1033.099	1037.27
1033.387	1045.86
1033.675	1032.3
1033.963	1033.43
1034.251	1039.76
1034.54	1025.98
1034.828	1001.57
1035.116	971.97
1035.403	984.17
1035.691	978.97
1035.979	978.07
1036.267	923.61
1036.554	956.37
1036.842	968.58
1037.129	944.17
1037.417	935.58
1037.704	964.96
1037.992	921.57
1038.279	924.96
1038.566	900.1
1038.853	900.1
1039.14	900.1
