Data from hue_210_FLMS001491_00022.txt Node
Date: Tue Feb 07 16:40:57 GMT 2017
User: dcchb
Spectrometer: FLMS00149
Trigger mode: 0
Integration Time (sec): 2.000000E-2
Scans to average: 10
Electric dark correction enabled: true
Nonlinearity correction enabled: false
Boxcar width: 0
XAxis mode: Wavelengths
Number of Pixels in Spectrum: 2048
>>>>>Begin Spectral Data<<<<<
341.393	-21.84
341.776	-21.84
342.16	-21.84
342.543	-68.84
342.927	-71.1
343.31	-77.88
343.693	-63.64
344.077	-57.31
344.46	-64.77
344.843	-31.33
345.226	-46.02
345.61	-27.71
345.993	-9.86
346.376	11.84
346.759	-0.37
347.142	18.62
347.525	60.65
347.908	41.67
348.291	60.65
348.674	78.05
349.057	107.43
349.44	124.6
349.823	143.58
350.206	173.19
350.588	199.85
350.971	189.01
351.354	223.81
351.737	252.73
352.119	227.2
352.502	270.13
352.884	279.4
353.267	290.02
353.65	302.45
354.032	310.13
354.414	308.1
354.797	333.18
355.179	334.77
355.562	316.46
355.944	327.76
356.326	331.38
356.709	331.38
357.091	333.41
357.473	345.61
357.855	328.44
358.238	351.71
358.62	335.67
359.002	350.13
359.384	313.07
359.766	333.64
360.148	336.35
360.53	336.57
360.912	322.56
361.294	326.86
361.676	342.67
362.057	337.93
362.439	319.17
362.821	322.34
363.203	327.76
363.584	318.49
363.966	324.82
364.348	325.05
364.729	318.04
365.111	316.01
365.493	312.17
365.874	324.37
366.256	298.16
366.637	323.47
367.019	313.3
367.4	312.84
367.781	312.62
368.163	318.49
368.544	305.84
368.925	308.33
369.306	309.46
369.688	293.86
370.069	312.17
370.45	305.61
370.831	310.59
371.212	301.09
371.593	303.58
371.974	307.65
372.355	316.23
372.736	298.83
373.117	315.1
373.498	300.42
373.879	304.94
374.26	312.84
374.641	313.97
375.021	313.3
375.402	316.23
375.783	320.3
376.163	325.05
376.544	331.6
376.925	316.69
377.305	325.27
377.686	325.95
378.066	311.71
378.447	321.21
378.827	328.89
379.208	326.86
379.588	322.11
379.968	323.01
380.349	309.46
380.729	325.27
381.109	326.18
381.489	349.68
381.87	328.66
382.25	340.19
382.63	330.47
383.01	349
383.39	340.64
383.77	336.57
384.15	319.17
384.53	349.91
384.91	348.1
385.29	332.28
385.67	346.97
386.049	356.01
386.429	368.44
386.809	351.71
387.189	343.35
387.568	365.5
387.948	362.56
388.328	356.69
388.707	346.52
389.087	364.37
389.466	355.33
389.846	350.36
390.225	385.84
390.605	364.37
390.984	380.41
391.363	357.59
391.743	355.33
392.122	371.83
392.501	364.82
392.881	361.88
393.26	379.96
393.639	396.46
394.018	367.31
394.397	365.95
394.776	370.24
395.155	379.51
395.534	387.87
395.913	362.34
396.292	423.12
396.671	372.73
397.05	392.84
397.429	396.46
397.808	401.43
398.186	375.89
398.565	418.38
398.944	391.03
399.323	396.23
399.701	412.96
400.08	403.24
400.458	411.83
400.837	418.15
401.215	396.68
401.594	423.12
401.972	429
402.351	411.37
402.729	420.86
403.107	434.42
403.486	437.14
403.864	430.58
404.242	439.17
404.62	439.62
404.999	455.89
405.377	436.46
405.755	441.66
406.133	461.32
406.511	460.86
406.889	467.64
407.267	478.26
407.645	453.86
408.023	488.66
408.401	504.93
408.779	487.53
409.156	523.23
409.534	497.47
409.912	524.36
410.29	523.46
410.667	523.69
411.045	527.53
411.422	549.22
411.8	555.55
412.178	566.17
412.555	560.3
412.933	573.85
413.31	565.04
413.687	598.49
414.065	621.76
414.442	618.83
414.819	641.88
415.197	602.33
415.574	620.41
415.951	634.87
416.328	639.39
416.705	668.09
417.082	661.54
417.46	681.42
417.837	682.78
418.214	707.18
418.591	709.9
418.967	724.59
419.344	725.04
419.721	710.12
420.098	743.34
420.475	759.16
420.852	777.24
421.228	791.25
421.605	807.52
421.982	795.32
422.358	798.26
422.735	819.95
423.111	816.79
423.488	857.46
423.864	864.02
424.241	878.48
424.617	889.1
424.994	922.77
425.37	909.44
425.746	926.16
426.123	927.29
426.499	974.97
426.875	971.81
427.251	1005.03
427.627	1015.43
428.003	1048.42
428.379	1047.51
428.756	1054.75
429.132	1058.36
429.507	1046.84
429.883	1082.09
430.259	1101.98
430.635	1099.94
431.011	1111.69
431.387	1151.01
431.763	1158.92
432.138	1150.11
432.514	1177.23
432.89	1201.86
433.265	1218.13
433.641	1263.55
434.016	1263.33
434.392	1292.71
434.767	1315.76
435.143	1329.32
435.518	1353.27
435.894	1344
436.269	1391.91
436.644	1428.3
437.02	1458.58
437.395	1429.2
437.77	1500.38
438.145	1539.71
438.52	1540.16
438.895	1567.28
439.271	1560.04
439.646	1616.09
440.021	1652.7
440.395	1654.28
440.77	1668.29
441.145	1681.85
441.52	1733.15
441.895	1712.58
442.27	1737.44
442.645	1752.81
443.019	1799.13
443.394	1788.06
443.769	1829.64
444.143	1819.92
444.518	1843.43
444.892	1849.98
445.267	1891.33
445.641	1903.09
446.016	1906.25
446.39	1946.02
446.764	1937.43
447.139	1932.69
447.513	1974.27
447.887	1972.46
448.262	1980.15
448.636	2011.11
449.01	2007.94
449.384	2020.14
449.758	2091.56
450.132	2108.5
450.506	2108.5
450.88	2138.11
451.254	2083.42
451.628	2163.19
452.002	2195.73
452.376	2226.92
452.75	2182.85
453.123	2238.22
453.497	2284.77
453.871	2295.17
454.244	2295.84
454.618	2335.39
454.992	2351.66
455.365	2367.25
455.739	2417.42
456.112	2441.83
456.486	2470.08
456.859	2504.2
457.232	2513.24
457.606	2530.41
457.979	2550.07
458.352	2588.72
458.725	2635.27
459.099	2647.25
459.472	2694.03
459.845	2691.54
460.218	2741.03
460.591	2754.59
460.964	2772.22
461.337	2834.36
461.71	2888.14
462.083	2904.64
462.456	2896.05
462.829	2949.61
463.201	2966.33
463.574	3030.51
463.947	3033.45
464.32	3081.81
464.692	3095.82
465.065	3145.76
465.438	3200
465.81	3237.74
466.183	3269.38
466.555	3314.8
466.928	3343.73
467.3	3366.78
467.672	3369.04
468.045	3458.3
468.417	3470.05
468.789	3483.83
469.161	3544.17
469.534	3644.51
469.906	3681.12
470.278	3690.84
470.65	3661.23
471.022	3813.77
471.394	3859.19
471.766	3860.55
472.138	3896.71
472.51	3972.64
472.882	4075.23
473.253	4039.98
473.625	4124.5
473.997	4191.16
474.369	4227.09
474.74	4308.22
475.112	4356.35
475.484	4437.26
475.855	4442.45
476.227	4479.74
476.598	4634.77
476.97	4630.02
477.341	4713.18
477.713	4783.24
478.084	4811.94
478.455	4925.83
478.827	4977.13
479.198	5098.48
479.569	5082.66
479.94	5220.29
480.311	5301.87
480.682	5354.07
481.053	5503.67
481.424	5499.15
481.795	5586.83
482.166	5683.78
482.537	5709.31
482.908	5818.91
483.279	5875.86
483.65	5914.51
484.021	6051
484.391	6127.83
484.762	6140.49
485.133	6213.25
485.503	6329.18
485.874	6438.56
486.244	6471.55
486.615	6589.06
486.985	6608.72
487.356	6737.99
487.726	6728.04
488.097	6875.38
488.467	6912.9
488.837	6946.12
489.207	7111.76
489.578	7140.91
489.948	7188.6
490.318	7290.06
490.688	7335.49
491.058	7434.69
491.428	7475.59
491.798	7548.36
492.168	7677.4
492.538	7694.57
492.908	7786.09
493.278	7913.55
493.648	7870.84
494.017	7985.19
494.387	8037.16
494.757	8074.9
495.126	8128.01
495.496	8124.39
495.866	8154.22
496.235	8205.07
496.605	8349.7
496.974	8281.22
497.344	8373.65
497.713	8455.23
498.082	8471.5
498.452	8530.26
498.821	8574.1
499.19	8541.56
499.559	8661.78
499.928	8647.99
500.298	8694.09
500.667	8733.64
501.036	8751.95
501.405	8789.68
501.774	8819.74
502.143	8905.84
502.512	8860.64
502.88	8978.61
503.249	8827.42
503.618	9009.11
503.987	8984.48
504.356	9031.49
504.724	9004.82
505.093	9052.05
505.462	9091.37
505.83	9143.12
506.199	9163.23
506.567	9302.67
506.936	9252.72
507.304	9319.16
507.672	9300.18
508.041	9238.94
508.409	9359.16
508.777	9449.33
509.145	9409.55
509.514	9399.39
509.882	9436.9
510.25	9449.55
510.618	9449.78
510.986	9521.42
511.354	9500.63
511.722	9546.73
512.09	9660.4
512.458	9649.77
512.826	9663.33
513.193	9671.92
513.561	9694.07
513.929	9703.33
514.297	9721.86
514.664	9703.11
515.032	9751.47
515.4	9813.16
515.767	9754.63
516.135	9806.15
516.502	9707.63
516.869	9833.95
517.237	9877.11
517.604	9819.94
517.972	9840.96
518.339	9884.34
518.706	9850
519.073	9828.53
519.44	9876.89
519.808	9995.08
520.175	9886.15
520.542	10003.89
520.909	9997.11
521.276	9886.6
521.643	9913.04
522.009	9943.55
522.376	10014.51
522.743	10014.28
523.11	10066.03
523.477	10118.69
523.843	10074.85
524.21	10146.71
524.577	10160.95
524.943	10108.97
525.31	10110.1
525.676	10127.95
526.043	10160.5
526.409	10174.73
526.776	10267.61
527.142	10215.18
527.508	10114.4
527.874	10241.62
528.241	10292.47
528.607	10250.21
528.973	10221.51
529.339	10228.52
529.705	10318.91
530.071	10258.57
530.437	10249.76
530.803	10285.46
531.169	10284.56
531.535	10173.6
531.901	10206.37
532.267	10118.01
532.632	10225.13
532.998	10226.03
533.364	10191.91
533.73	10176.54
534.095	10205.92
534.461	10140.84
534.826	10209.08
535.192	10130.44
535.557	10129.31
535.923	10057.9
536.288	10085.24
536.653	10110.33
537.019	9985.58
537.384	9977
537.749	10061.29
538.114	9911.24
538.479	9869.66
538.845	9934.29
539.21	9862.65
539.575	9882.99
539.94	9823.1
540.305	9856.77
540.67	9744.91
541.034	9784.01
541.399	9753.73
541.764	9754.18
542.129	9705.82
542.494	9720.51
542.858	9664.92
543.223	9617.91
543.587	9695.88
543.952	9557.12
544.316	9606.16
544.681	9503.56
545.045	9556.9
545.41	9534.07
545.774	9412.94
546.138	9417.46
546.503	9420.63
546.867	9397.35
547.231	9349.22
547.595	9345.6
547.959	9316
548.324	9266.28
548.688	9214.08
549.052	9259.28
549.416	9227.41
549.779	9170.24
550.143	9142.9
550.507	9151.26
550.871	9120.07
551.235	9133.63
551.599	9097.47
551.962	9026.51
552.326	9023.58
552.689	9057.25
553.053	8916.69
553.417	8925.27
553.78	9050.02
554.143	8895.44
554.507	8884.37
554.87	8893.64
555.234	8905.61
555.597	8880.76
555.96	8858.61
556.323	8862.45
556.686	8767.76
557.05	8866.97
557.413	8790.81
557.776	8822.9
558.139	8814.99
558.502	8812.73
558.865	8775
559.228	8806.86
559.59	8789.01
559.953	8766.86
560.316	8820.42
560.679	8764.6
561.041	8815.67
561.404	8798.72
561.767	8771.83
562.129	8737.93
562.492	8779.29
562.854	8723.02
563.217	8706.52
563.579	8712.17
563.941	8769.8
564.304	8775.22
564.666	8720.76
565.028	8714.66
565.39	8783.81
565.753	8809.8
566.115	8714.88
566.477	8812.28
566.839	8748.33
567.201	8903.35
567.563	8800.53
567.925	8854.99
568.287	8874.43
568.648	8867.65
569.01	8861.32
569.372	8873.52
569.734	8851.38
570.095	8953.97
570.457	8934.99
570.819	8928.21
571.18	8853.86
571.542	8944.26
571.903	8942.9
572.265	8975.67
572.626	8956.23
572.987	8939.96
573.349	8962.56
573.71	8930.47
574.071	8958.72
574.432	8990.58
574.794	9057.93
575.155	8963.01
575.516	8991.03
575.877	9056.12
576.238	9033.52
576.599	9093.86
576.96	9061.99
577.32	9105.83
577.681	9131.14
578.042	9085.95
578.403	9114.87
578.763	9125.72
579.124	9122.78
579.485	9191.03
579.845	9180.18
580.206	9141.77
580.566	9164.82
580.927	9199.16
581.287	9232.84
581.648	9168.21
582.008	9200.97
582.368	9255.89
582.728	9253.17
583.089	9264.25
583.449	9254.53
583.809	9157.81
584.169	9260.41
584.529	9275.55
584.889	9316.45
585.249	9289.33
585.609	9245.27
585.969	9317.81
586.329	9297.02
586.688	9262.21
587.048	9280.52
587.408	9294.98
587.768	9262.89
588.127	9248.66
588.487	9294.76
588.846	9319.16
589.206	9327.98
589.565	9339.27
589.925	9343.57
590.284	9359.84
590.643	9422.21
591.003	9369.78
591.362	9374.3
591.721	9381.53
592.08	9417.01
592.44	9434.19
592.799	9479.61
593.158	9441.19
593.517	9396
593.876	9419.05
594.235	9371.14
594.593	9365.04
594.952	9429.67
595.311	9334.75
595.67	9380.86
596.029	9359.61
596.387	9467.63
596.746	9485.26
597.104	9426.5
597.463	9379.05
597.822	9444.36
598.18	9387.18
598.538	9377.24
598.897	9481.42
599.255	9405.94
599.613	9557.35
599.972	9425.6
600.33	9461.76
600.688	9397.35
601.046	9481.64
601.404	9493.85
601.762	9439.38
602.12	9487.74
602.478	9483.45
602.836	9436.45
603.194	9463.56
603.552	9492.72
603.91	9401.42
604.268	9534.75
604.625	9521.64
604.983	9508.54
605.341	9509.44
605.698	9462.21
606.056	9515.31
606.413	9506.28
606.771	9527.07
607.128	9578.82
607.485	9478.48
607.843	9458.14
608.2	9587.4
608.557	9571.36
608.914	9552.38
609.272	9571.81
609.629	9631.47
609.986	9583.79
610.343	9562.32
610.7	9615.88
611.057	9617.68
611.414	9621.3
611.771	9553.96
612.127	9660.17
612.484	9554.64
612.841	9685.71
613.198	9664.46
613.554	9681.86
613.911	9750.34
614.267	9729.09
614.624	9636.67
614.98	9636.22
615.337	9699.04
615.693	9722.54
616.05	9695.2
616.406	9726.61
616.762	9700.39
617.118	9780.84
617.475	9736.78
617.831	9749.66
618.187	9777
618.543	9725.7
618.899	9786.49
619.255	9712.15
619.611	9740.85
619.967	9759.83
620.323	9810.22
620.678	9734.74
621.034	9779.04
621.39	9695.88
621.746	9701.07
622.101	9896.32
622.457	9772.03
622.812	9829.66
623.168	9776.32
623.523	9831.24
623.879	9807.51
624.234	9715.54
624.589	9820.84
624.945	9772.71
625.3	9782.2
625.655	9808.64
626.01	9847.28
626.365	9788.08
626.72	9761.41
627.075	9746.04
627.43	9784.46
627.785	9732.26
628.14	9732.71
628.495	9846.83
628.85	9766.38
629.205	9656.78
629.559	9790.34
629.914	9691.36
630.269	9634.86
630.623	9674.18
630.978	9688.64
631.332	9717.34
631.687	9703.78
632.041	9632.6
632.396	9790.11
632.75	9617.91
633.104	9673.28
633.459	9597.57
633.813	9552.83
634.167	9608.42
634.521	9652.94
634.875	9617.91
635.229	9641.41
635.583	9574.3
635.937	9564.35
636.291	9519.83
636.645	9528.65
636.999	9493.62
637.352	9528.42
637.706	9469.67
638.06	9493.85
638.413	9459.27
638.767	9485.49
639.121	9421.98
639.474	9376.79
639.828	9446.16
640.181	9412.72
640.534	9404.58
640.888	9431.25
641.241	9293.4
641.594	9337.69
641.947	9408.88
642.301	9362.32
642.654	9375.21
643.007	9372.95
643.36	9368.43
643.713	9316.68
644.066	9418.14
644.419	9321.42
644.771	9247.53
645.124	9187.64
645.477	9170.69
645.83	9212.27
646.182	9106.29
646.535	9005.5
646.888	9038.49
647.24	9041.43
647.593	9041.2
647.945	8982.67
648.298	8945.61
648.65	8939.06
649.002	8996.91
649.355	8963.01
649.707	9048.21
650.059	9090.24
650.411	9154.65
650.763	9153.97
651.115	9233.06
651.467	9224.02
651.819	9203.46
652.171	9257.69
652.523	9177.7
652.875	9156.91
653.227	9161.2
653.578	9193.06
653.93	9215.66
654.282	9154.42
654.633	9111.03
654.985	9170.69
655.337	9212.5
655.688	9281.42
656.039	9259.95
656.391	9212.5
656.742	9205.94
657.094	9214.08
657.445	9232.61
657.796	9209.11
658.147	9212.5
658.498	9208.43
658.849	9217.02
659.2	9189.67
659.551	9170.69
659.902	9257.02
660.253	9271.03
660.604	9266.28
660.955	9242.1
661.306	9287.52
661.656	9295.21
662.007	9298.37
662.358	9273.74
662.708	9267.41
663.059	9262.89
663.409	9207.53
663.76	9286.85
664.11	9308.77
664.461	9274.42
664.811	9260.18
665.161	9288.2
665.511	9234.64
665.862	9301.31
666.212	9350.12
666.562	9259.73
666.912	9299.95
667.262	9280.07
667.612	9257.92
667.962	9339.5
668.312	9321.2
668.662	9215.66
669.011	9289.56
669.361	9328.65
669.711	9235.32
670.06	9239.39
670.41	9256.56
670.76	9182.89
671.109	9288.2
671.459	9231.03
671.808	9206.85
672.157	9267.64
672.507	9177.7
672.856	9193.29
673.205	9205.27
673.554	9224.25
673.904	9237.36
674.253	9190.13
674.602	9199.39
674.951	9076.46
675.3	9028.1
675.649	9166.62
675.998	9114.87
676.346	9149
676.695	9195.1
677.044	9059.06
677.393	9079.39
677.741	9111.26
678.09	9056.34
678.438	9076.91
678.787	9056.12
679.135	9092.5
679.484	9026.74
679.832	9069.45
680.181	9011.83
680.529	8958.95
680.877	8972.5
681.225	8992.39
681.573	9045.95
681.922	8915.78
682.27	8876.69
682.618	8874.43
682.966	8937.48
683.314	8890.92
683.661	8907.87
684.009	8851.6
684.357	8802.11
684.705	8767.54
685.053	8823.36
685.4	8782.45
685.748	8775.45
686.095	8805.95
686.443	8735.67
686.79	8627.2
687.138	8682.79
687.485	8682.12
687.832	8617.94
688.18	8638.95
688.527	8531.16
688.874	8577.94
689.221	8565.51
689.568	8549.69
689.915	8484.83
690.262	8488.68
690.609	8418.85
690.956	8387.89
691.303	8356.48
691.65	8390.37
691.997	8373.88
692.344	8306.53
692.69	8318.74
693.037	8262.69
693.383	8226.99
693.73	8173.66
694.077	8153.32
694.423	8185.18
694.769	8123.04
695.116	8123.04
695.462	8118.97
695.808	8069.48
696.155	8059.53
696.501	7949.48
696.847	8017.73
697.193	7880.56
697.539	7944.28
697.885	7838.97
698.231	7818.41
698.577	7818.41
698.923	7766.89
699.269	7794.23
699.614	7708.36
699.96	7681.46
700.306	7653.89
700.651	7631.52
700.997	7655.93
701.342	7621.58
701.688	7565.54
702.033	7492.09
702.379	7505.88
702.724	7492.77
703.069	7504.75
703.415	7409.83
703.76	7408.93
704.105	7392.43
704.45	7356.5
704.795	7321.47
705.14	7380.91
705.485	7308.14
705.83	7267.92
706.175	7228.6
706.52	7246.67
706.865	7202.38
707.209	7163.96
707.554	7147.92
707.899	7204.64
708.243	7066.11
708.588	7103.4
708.932	7047.81
709.277	6999.22
709.621	7065.44
709.966	6968.94
710.31	7043.06
710.654	6903.41
710.998	6967.36
711.342	6950.18
711.687	6928.94
712.031	6891.65
712.375	6831.32
712.719	6903.18
713.063	6872.67
713.407	6879.23
713.75	6785.9
714.094	6791.77
714.438	6731.21
714.782	6823.41
715.125	6740.47
715.469	6737.53
715.812	6767.14
716.156	6749.06
716.499	6732.56
716.843	6706.35
717.186	6705.45
717.53	6675.39
717.873	6755.16
718.216	6699.8
718.559	6654.15
718.902	6680.36
719.246	6689.85
719.589	6599.01
719.932	6589.29
720.275	6648.95
720.617	6563.98
720.96	6624.09
721.303	6576.86
721.646	6610.53
721.989	6583.19
722.331	6617.31
722.674	6561.49
723.016	6597.43
723.359	6557.43
723.701	6622.74
724.044	6534.6
724.386	6557.88
724.729	6520.37
725.071	6542.51
725.413	6549.52
725.755	6553.81
726.097	6496.64
726.439	6537.54
726.782	6478.56
727.124	6481.72
727.465	6486.92
727.807	6487.82
728.149	6481.95
728.491	6497.09
728.833	6453.93
729.175	6420.25
729.516	6393.81
729.858	6449.41
730.199	6460.25
730.541	6516.75
730.882	6470.65
731.224	6527.6
731.565	6443.31
731.906	6497.09
732.248	6429.52
732.589	6417.77
732.93	6393.36
733.271	6471.33
733.612	6433.14
733.953	6433.59
734.294	6433.59
734.635	6362.86
734.976	6478.56
735.317	6449.41
735.658	6411.89
735.999	6434.04
736.339	6404.44
736.68	6486.47
737.021	6500.03
737.361	6452.34
737.702	6510.87
738.042	6451.44
738.383	6479.91
738.723	6518.33
739.063	6555.17
739.404	6574.15
739.744	6524.66
740.084	6516.75
740.424	6529.86
740.764	6544.77
741.104	6584.77
741.444	6585.67
741.784	6579.12
742.124	6611.66
742.464	6670.87
742.804	6648.05
743.143	6627.03
743.483	6714.26
743.823	6662.73
744.162	6720.36
744.502	6750.64
744.841	6762.84
745.181	6835.61
745.52	6849.85
745.86	6918.77
746.199	6960.13
746.538	6966.91
746.877	7013.46
747.216	7039
747.556	6976.17
747.895	7115.38
748.234	7118.77
748.573	7166.68
748.911	7220.91
749.25	7264.07
749.589	7362.38
749.928	7346.11
750.267	7433.79
750.605	7554.24
750.944	7631.52
751.283	7656.61
751.621	7751.97
751.96	7736.15
752.298	7910.16
752.636	8007.11
752.975	8024.51
753.313	8102.47
753.651	8250.04
753.989	8381.33
754.327	8389.24
754.666	8513.99
755.004	8678.05
755.342	8771.61
755.679	8895.44
756.017	9037.36
756.355	9204.59
756.693	9207.3
757.031	9420.85
757.368	9488.2
757.706	9702.2
758.044	9821.52
758.381	9984.23
758.719	10152.13
759.056	10236.88
759.394	10393.71
759.731	10563.42
760.068	10690.65
760.405	10850.42
760.743	10958.67
761.08	11250.64
761.417	11307.58
761.754	11508.26
762.091	11665.31
762.428	11804.75
762.765	11922.03
763.102	12192.31
763.438	12329.25
763.775	12500.55
764.112	12698.96
764.449	12838.39
764.785	13008.33
765.122	13130.59
765.458	13297.14
765.795	13486.96
766.131	13678.14
766.467	13744.81
766.804	13900.74
767.14	13997
767.476	14253.27
767.812	14283.33
768.148	14496.2
768.485	14615.75
768.821	14695.52
769.157	14830.88
769.492	14971.22
769.828	15203.3
770.164	15173.7
770.5	15367.82
770.836	15482.39
771.171	15601.03
771.507	15706.34
771.842	15718.32
772.178	15835.37
772.513	16013.22
772.849	16066.55
773.184	16110.85
773.519	16195.59
773.855	16291.41
774.19	16320.33
774.525	16458.64
774.86	16519.88
775.195	16590.61
775.53	16710.38
775.865	16660.89
776.2	16689.82
776.535	16603.72
776.87	16840.09
777.205	16868.57
777.539	16910.6
777.874	17027.21
778.209	16975.68
778.543	17022.24
778.878	16955.57
779.212	17092.06
779.547	17103.59
779.881	17246.64
780.215	17125.28
780.55	17188.56
780.884	17198.5
781.218	17302
781.552	17322.34
781.886	17301.32
782.22	17327.76
782.554	17377.25
782.888	17184.72
783.222	17245.73
783.556	17208.9
783.889	17304.04
784.223	17184.49
784.557	17203.02
784.89	17224.49
785.224	17247.09
785.557	17138.62
785.891	17238.95
786.224	17231.95
786.558	17260.87
786.891	17144.49
787.224	17054.1
787.557	17132.06
787.891	17191.95
788.224	17104.95
788.557	17171.61
788.89	17199.63
789.223	17198.95
789.556	17024.72
789.888	17033.08
790.221	17039.64
790.554	16949.92
790.887	16922.8
791.219	16870.15
791.552	16859.53
791.884	16881
792.217	16886.42
792.549	16776.82
792.882	16730.27
793.214	16755.35
793.546	16677.39
793.879	16652.08
794.211	16561.01
794.543	16645.3
794.875	16547.45
795.207	16673.54
795.539	16641.23
795.871	16627.22
796.203	16483.27
796.535	16470.16
796.867	16415.02
797.198	16418.86
797.53	16341.12
797.862	16215.93
798.193	16376.6
798.525	16234.23
798.856	16335.93
799.188	16101.58
799.519	15989.27
799.85	16016.84
800.182	16024.3
800.513	16094.12
800.844	15880.8
801.175	16067.01
801.506	15985.2
801.837	15929.61
802.168	15890.51
802.499	15796.28
802.83	15735.72
803.161	15709.73
803.491	15762.83
803.822	15785.66
804.153	15679.9
804.483	15602.16
804.814	15567.81
805.145	15525.78
805.475	15509.96
805.805	15560.13
806.136	15502.28
806.466	15458.44
806.796	15471.77
807.126	15381.38
807.457	15308.61
807.787	15323.07
808.117	15318.1
808.447	15258.21
808.777	15233.58
809.107	15222.74
809.436	15212.57
809.766	15107.94
810.096	15080.82
810.426	14994.94
810.755	15066.36
811.085	15034.94
811.414	15035.62
811.744	14920.14
812.073	14898.68
812.403	14867.49
812.732	14904.55
813.061	14727.38
813.39	14713.82
813.719	14796.53
814.049	14779.58
814.378	14787.27
814.707	14614.16
815.036	14649.19
815.365	14597.67
815.693	14553.6
816.022	14617.1
816.351	14518.57
816.68	14475.64
817.008	14489.65
817.337	14279.94
817.665	14327.62
817.994	14424.11
818.322	14328.97
818.651	14248.3
818.979	14300.05
819.307	14280.61
819.636	14214.4
819.964	14215.98
820.292	14302.08
820.62	14243.33
820.948	14221.18
821.276	14261.63
821.604	14170.79
821.932	14141.86
822.259	14156.77
822.587	14164.91
822.915	14171.01
823.243	14252.37
823.57	14115.42
823.898	14191.58
824.225	14132.59
824.553	14113.61
824.88	14165.36
825.207	14215.3
825.535	14128.3
825.862	14192.03
826.189	14216.43
826.516	14222.54
826.843	14210.78
827.17	14236.09
827.497	14216.43
827.824	14195.87
828.151	14304.12
828.478	14218.24
828.805	14239.94
829.131	14253.04
829.458	14249.65
829.785	14078.36
830.111	14171.24
830.438	14245.36
830.764	14160.39
831.09	14281.07
831.417	14191.35
831.743	14173.72
832.069	14266.38
832.395	14155.19
832.722	14164.01
833.048	14092.82
833.374	14218.69
833.7	14048.75
834.026	14069.55
834.351	14143.67
834.677	14171.69
835.003	14089.21
835.329	14172.14
835.654	14044.01
835.98	14090.34
836.306	14088.75
836.631	14025.7
836.956	13982.32
837.282	14075.19
837.607	13948.87
837.932	13898.7
838.258	13897.12
838.583	13965.59
838.908	13856.67
839.233	13781.19
839.558	13811.7
839.883	13783
840.208	13666.17
840.533	13731.48
840.858	13743.9
841.182	13657.8
841.507	13694.19
841.832	13657.58
842.156	13624.81
842.481	13629.56
842.805	13625.26
843.13	13534.87
843.454	13508.2
843.778	13473.4
844.103	13403.57
844.427	13380.98
844.751	13431.6
845.075	13410.35
845.399	13358.38
845.723	13258.49
846.047	13299.17
846.371	13150.25
846.695	13190.92
847.019	13042.91
847.343	13077.03
847.666	12945.96
847.99	12919.29
848.313	12945.51
848.637	12853.31
848.96	12847.66
849.284	12744.16
849.607	12635.68
849.931	12657.15
850.254	12544.39
850.577	12462.81
850.9	12404.28
851.223	12383.71
851.546	12334.9
851.869	12327.67
852.192	12314.34
852.515	12163.83
852.838	12176.94
853.161	12158.41
853.483	12087.22
853.806	12042.48
854.129	12050.84
854.451	11950.05
854.774	11963.61
855.096	11910.51
855.419	11917.06
855.741	11848.81
856.063	11797.51
856.385	11727.46
856.708	11665.99
857.03	11727.46
857.352	11661.7
857.674	11633.9
857.996	11609.5
858.318	11474.81
858.64	11535.6
858.961	11478.43
859.283	11465.32
859.605	11312.56
859.926	11350.52
860.248	11347.13
860.57	11360.46
860.891	11326.57
861.212	11281.14
861.534	11263.29
861.855	11167.47
862.176	11247.92
862.498	11205.21
862.819	11201.6
863.14	11079.57
863.461	11113.24
863.782	11030.08
864.103	11073.69
864.424	11058.55
864.745	11048.83
865.065	11028.95
865.386	11015.61
865.707	10951.44
866.027	10972.45
866.348	10915.5
866.668	10965.9
866.989	10885.67
867.309	10803.64
867.63	10939.91
867.95	10915.5
868.27	10769.07
868.59	10809.29
868.91	10857.65
869.23	10756.19
869.55	10696.07
869.87	10815.85
870.19	10723.64
870.51	10712.8
870.83	10701.5
871.15	10605
871.469	10613.14
871.789	10726.36
872.109	10546.7
872.428	10575.63
872.748	10643.19
873.067	10512.35
873.386	10597.09
873.706	10569.3
874.025	10490.66
874.344	10436.65
874.663	10449.3
874.982	10522.75
875.301	10499.92
875.62	10420.15
875.939	10425.57
876.258	10453.37
876.577	10381.96
876.896	10414.95
877.214	10344.67
877.533	10322.98
877.852	10365.91
878.17	10318.68
878.489	10283.43
878.807	10233.94
879.125	10244.79
879.444	10222.64
879.762	10163.43
880.08	10159.37
880.398	10152.81
880.716	10123.43
881.034	10140.38
881.352	10106.94
881.67	10095.86
881.988	10112.36
882.306	10053.61
882.624	10066.03
882.941	10008.86
883.259	9891.35
883.577	9954.4
883.894	10010.44
884.212	9895.19
884.529	9826.04
884.846	9888.41
885.164	9844.57
885.481	9816.55
885.798	9793.73
886.115	9762.77
886.432	9740.17
886.75	9724.57
887.067	9743.56
887.383	9687.74
887.7	9660.62
888.017	9568.19
888.334	9586.95
888.651	9594.41
888.967	9589.89
889.284	9529.78
889.6	9572.71
889.917	9410.91
890.233	9418.59
890.55	9458.82
890.866	9377.69
891.182	9381.31
891.498	9344.47
891.815	9371.59
892.131	9297.92
892.447	9265.83
892.763	9175.66
893.079	9136.57
893.395	9182.67
893.71	9121.2
894.026	9125.95
894.342	9090.02
894.657	9017.47
894.973	9050.69
895.289	9007.31
895.604	9008.44
895.92	8929.12
896.235	8855.67
896.55	8857.7
896.865	8831.94
897.181	8851.83
897.496	8833.75
897.811	8731.83
898.126	8760.76
898.441	8716.24
898.756	8669.46
899.071	8665.85
899.386	8560.31
899.7	8565.96
900.015	8531.39
900.33	8445.06
900.644	8431.28
900.959	8511.73
901.273	8450.03
901.588	8332.3
901.902	8353.99
902.216	8342.46
902.531	8296.36
902.845	8274.67
903.159	8214.78
903.473	8174.56
903.787	8176.59
904.101	8142.92
904.415	8121.45
904.729	8044.84
905.042	7980.21
905.356	8017.95
905.67	7987.22
905.984	7975.47
906.297	7996.71
906.611	7877.39
906.924	7900.22
907.237	7847.56
907.551	7795.13
907.864	7781.8
908.177	7749.49
908.491	7746.32
908.804	7633.78
909.117	7622.48
909.43	7532.77
909.743	7573.44
910.056	7592.43
910.368	7478.53
910.681	7426.78
910.994	7454.35
911.307	7419.78
911.619	7369.61
911.932	7402.38
912.244	7374.81
912.557	7314.47
912.869	7213.68
913.181	7290.29
913.494	7232.44
913.806	7198.31
914.118	7182.27
914.43	7115.83
914.742	7103.63
915.054	7076.06
915.366	7020.47
915.678	7022.95
915.99	7000.13
916.302	6956.96
916.613	6890.98
916.925	6926.23
917.236	6878.55
917.548	6815.05
917.859	6849.85
918.171	6760.13
918.482	6795.61
918.794	6780.92
919.105	6722.85
919.416	6625.9
919.727	6690.3
920.038	6600.14
920.349	6569.63
920.66	6592.91
920.971	6536.41
921.282	6520.59
921.593	6487.37
921.903	6439.69
922.214	6434.72
922.525	6413.25
922.835	6368.28
923.146	6368.05
923.456	6342.06
923.767	6271.33
924.077	6271.78
924.387	6260.26
924.697	6178.45
925.008	6173.48
925.318	6220.94
925.628	6184.1
925.938	6181.39
926.248	6093.26
926.558	6062.07
926.867	6031.79
927.177	6046.25
927.487	6026.37
927.796	5984.11
928.106	5946.37
928.416	5934.17
928.725	5916.31
929.034	5906.37
929.344	5869.31
929.653	5859.37
929.962	5805.36
930.271	5748.41
930.581	5795.86
930.89	5677.68
931.199	5671.8
931.508	5710.44
931.817	5670.22
932.125	5674.51
932.434	5665.25
932.743	5640.84
933.051	5554.51
933.36	5563.33
933.669	5550.22
933.977	5549.77
934.286	5491.47
934.594	5495.31
934.902	5426.38
935.21	5388.42
935.519	5393.84
935.827	5349.77
936.135	5317.69
936.443	5315.65
936.751	5311.81
937.059	5285.6
937.367	5249.89
937.674	5230
937.982	5253.96
938.29	5225.71
938.597	5188.42
938.905	5135.77
939.213	5121.76
939.52	5091.93
939.827	5141.87
940.135	5089.89
940.442	5043.34
940.749	5046.51
941.056	5027.75
941.363	4951.14
941.67	4947.3
941.977	4936
942.284	4954.76
942.591	4924.02
942.898	4871.6
943.205	4889.9
943.511	4839.73
943.818	4841.09
944.125	4816
944.431	4781.88
944.738	4766.51
945.044	4733.75
945.35	4714.54
945.657	4686.29
945.963	4686.06
946.269	4647.87
946.575	4652.39
946.881	4617.14
947.187	4618.95
947.493	4593.41
947.799	4556.12
948.105	4564.03
948.41	4515.45
948.716	4545.05
949.022	4491.27
949.327	4476.13
949.633	4410.14
949.938	4435.45
950.244	4411.95
950.549	4400.65
950.854	4361.33
951.16	4352.96
951.465	4316.81
951.77	4291.5
952.075	4292.4
952.38	4258.28
952.685	4297.6
952.99	4223.48
953.294	4227.77
953.599	4213.08
953.904	4149.58
954.209	4124.95
954.513	4168.11
954.818	4146.64
955.122	4130.82
955.426	4146.64
955.731	4096.7
956.035	4065.51
956.339	4037.27
956.643	4035.91
956.948	4005.4
957.252	4018.06
957.556	3971.51
957.86	3938.29
958.163	3909.36
958.467	3915.69
958.771	3895.12
959.075	3878.63
959.378	3912.98
959.682	3887.21
959.985	3885.86
960.289	3832.75
960.592	3811.74
960.896	3794.56
961.199	3776.03
961.502	3795.01
961.805	3753.66
962.108	3699.65
962.411	3717.28
962.714	3688.35
963.017	3674.56
963.32	3664.85
963.623	3655.58
963.926	3623.72
964.228	3591.18
964.531	3597.96
964.833	3593.89
965.136	3607
965.438	3537.84
965.741	3551.63
966.043	3510.95
966.345	3496.72
966.648	3485.64
966.95	3433.44
967.252	3430.05
967.554	3474.8
967.856	3448.81
968.158	3409.71
968.46	3369.26
968.761	3398.87
969.063	3395.7
969.365	3357.06
969.666	3351.18
969.968	3312.09
970.269	3311.86
970.571	3259.43
970.872	3253.33
971.174	3267.57
971.475	3275.93
971.776	3259.66
972.077	3258.76
972.378	3225.08
972.679	3167.23
972.98	3205.88
973.281	3197.29
973.582	3172.66
973.883	3151.87
974.183	3138.53
974.484	3093.34
974.785	3140.79
975.085	3083.17
975.386	3098.53
975.686	3045.88
975.986	3038.65
976.287	3069.16
976.587	3023.73
976.887	3042.26
977.187	2977.18
977.487	3040.46
977.787	2958.2
978.087	2933.11
978.387	2926.11
978.687	2939.44
978.987	2886.11
979.286	2901.48
979.586	2905.77
979.885	2879.33
980.185	2893.12
980.484	2836.39
980.784	2853.34
981.083	2824.64
981.382	2806.56
981.682	2794.36
981.981	2811.54
982.28	2768.37
982.579	2756.85
982.878	2762.95
983.177	2758.88
983.475	2779.67
983.774	2712.1
984.073	2711.43
984.372	2712.78
984.67	2679.56
984.969	2691.99
985.267	2670.07
985.566	2681.14
985.864	2627.13
986.162	2636.17
986.461	2622.39
986.759	2611.32
987.057	2557.08
987.355	2568.83
987.653	2574.71
987.951	2561.83
988.249	2541.26
988.547	2564.09
988.844	2516.4
989.142	2523.41
989.44	2514.14
989.737	2486.35
990.035	2455.84
990.332	2459
990.63	2452.45
990.927	2437.99
991.224	2406.8
991.521	2437.08
991.819	2394.37
992.116	2399.34
992.413	2342.85
992.71	2376.97
993.006	2347.59
993.303	2374.71
993.6	2339.01
993.897	2332.9
994.193	2336.29
994.49	2345.11
994.787	2327.26
995.083	2292.68
995.379	2279.12
995.676	2280.02
995.972	2246.58
996.268	2253.36
996.565	2235.28
996.861	2189.86
997.157	2195.28
997.453	2201.83
997.749	2213.59
998.044	2207.94
998.34	2168.39
998.636	2172.91
998.932	2153.47
999.227	2131.33
999.523	2126.81
999.818	2121.38
1000.114	2115.28
1000.409	2093.82
1000.704	2063.31
1001	2070.76
1001.295	2063.08
1001.59	2045.91
1001.885	2043.87
1002.18	2011.11
1002.475	2045.23
1002.77	2014.04
1003.065	1995.96
1003.359	1972.69
1003.654	1974.95
1003.949	1954.84
1004.243	1920.26
1004.538	1971.56
1004.832	1912.35
1005.127	1914.61
1005.421	1911.22
1005.715	1887.49
1006.009	1900.6
1006.304	1872.13
1006.598	1871.45
1006.892	1857.21
1007.186	1838.91
1007.48	1827.16
1007.773	1853.14
1008.067	1819.02
1008.361	1804.11
1008.655	1782.64
1008.948	1790.55
1009.242	1779.92
1009.535	1765.69
1009.829	1765.69
1010.122	1740.83
1010.415	1727.95
1010.708	1743.77
1011.001	1717.33
1011.295	1682.75
1011.588	1697.89
1011.881	1680.27
1012.173	1676.42
1012.466	1661.96
1012.759	1648.18
1013.052	1635.07
1013.344	1626.26
1013.637	1642.75
1013.93	1598.69
1014.222	1601.4
1014.514	1591
1014.807	1567.5
1015.099	1612.7
1015.391	1571.57
1015.683	1550.1
1015.976	1555.98
1016.268	1555.3
1016.56	1505.81
1016.851	1529.31
1017.143	1487.73
1017.435	1495.19
1017.727	1508.75
1018.018	1500.38
1018.31	1494.28
1018.602	1450.89
1018.893	1461.52
1019.185	1458.58
1019.476	1440.27
1019.767	1444.11
1020.058	1431.91
1020.35	1381.52
1020.641	1382.65
1020.932	1358.92
1021.223	1398.47
1021.514	1384.91
1021.804	1361.86
1022.095	1353.04
1022.386	1347.17
1022.677	1339.71
1022.967	1323.89
1023.258	1337
1023.548	1296.1
1023.839	1289.77
1024.129	1286.15
1024.419	1265.59
1024.709	1265.14
1025	1279.15
1025.29	1236.21
1025.58	1254.74
1025.87	1245.48
1026.16	1280.28
1026.449	1246.15
1026.739	1214.52
1027.029	1231.69
1027.319	1211.58
1027.608	1207.96
1027.898	1191.47
1028.187	1187.17
1028.477	1204.8
1028.766	1170
1029.055	1170.68
1029.344	1151.01
1029.634	1162.31
1029.923	1155.08
1030.212	1131.58
1030.501	1145.14
1030.79	1109.43
1031.078	1118.47
1031.367	1084.58
1031.656	1107.4
1031.945	1087.51
1032.233	1070.57
1032.522	1095.42
1032.81	1046.84
1033.099	1076.89
1033.387	1034.86
1033.675	1052.94
1033.963	1037.12
1034.251	1038.25
1034.54	1037.35
1034.828	1029.66
1035.116	1007.74
1035.403	1003.67
1035.691	1008.87
1035.979	994.41
1036.267	972.49
1036.554	970.91
1036.842	982.66
1037.129	983.11
1037.417	973.17
1037.704	975.88
1037.992	953.05
1038.279	942.21
1038.566	917.57
1038.853	917.57
1039.14	917.57
