Data from hue_140_FLMS001491_00073.txt Node
Date: Tue Feb 07 16:56:23 GMT 2017
User: dcchb
Spectrometer: FLMS00149
Trigger mode: 0
Integration Time (sec): 2.000000E-2
Scans to average: 10
Electric dark correction enabled: true
Nonlinearity correction enabled: false
Boxcar width: 0
XAxis mode: Wavelengths
Number of Pixels in Spectrum: 2048
>>>>>Begin Spectral Data<<<<<
341.393	-6.95
341.776	-6.95
342.16	-6.95
342.543	-60.28
342.927	-77.46
343.31	-65.03
343.693	-70.22
344.077	-56.21
344.46	-64.8
344.843	-37.91
345.226	-43.11
345.61	-42.43
345.993	-19.83
346.376	-19.15
346.759	2.09
347.142	43.45
347.525	48.19
347.908	67.85
348.291	57.46
348.674	81.64
349.057	118.02
349.44	125.93
349.823	141.3
350.206	167.96
350.588	199.83
350.971	198.7
351.354	237.11
351.737	236.21
352.119	247.51
352.502	244.8
352.884	280.73
353.267	294.74
353.65	275.98
354.032	271.69
354.414	308.07
354.797	306.72
355.179	301.52
355.562	313.04
355.944	323.44
356.326	327.73
356.709	357.34
357.091	336.54
357.473	348.3
357.855	332.25
358.238	332.03
358.62	325.47
359.002	347.17
359.384	338.35
359.766	349.2
360.148	334.06
360.53	338.35
360.912	328.86
361.294	334.06
361.676	334.96
362.057	336.09
362.439	334.74
362.821	337.22
363.203	323.44
363.584	311.23
363.966	339.71
364.348	324.34
364.729	329.77
365.111	334.74
365.493	332.48
365.874	313.27
366.256	309.2
366.637	313.49
367.019	293.83
367.4	295.87
367.781	304
368.163	326.83
368.544	311.23
368.925	303.55
369.306	320.73
369.688	302.65
370.069	306.49
370.45	311.69
370.831	325.92
371.212	294.06
371.593	338.35
371.974	311.23
372.355	299.26
372.736	335.19
373.117	322.99
373.498	320.73
373.879	301.74
374.26	326.83
374.641	315.98
375.021	321.63
375.402	321.18
375.783	319.14
376.163	331.57
376.544	321.18
376.925	340.16
377.305	318.92
377.686	308.3
378.066	304.46
378.447	318.69
378.827	336.09
379.208	327.28
379.588	320.5
379.968	321.18
380.349	343.55
380.729	318.69
381.109	332.03
381.489	328.86
381.87	353.95
382.25	341.06
382.63	350.33
383.01	342.65
383.39	352.36
383.77	335.87
384.15	351.91
384.53	334.28
384.91	349.2
385.29	357.11
385.67	344.68
386.049	371.12
386.429	351.46
386.809	340.84
387.189	377.45
387.568	368.41
387.948	354.62
388.328	356.88
388.707	369.09
389.087	359.14
389.466	359.14
389.846	367.5
390.225	368.63
390.605	362.31
390.984	360.27
391.363	355.98
391.743	367.73
392.122	376.32
392.501	378.8
392.881	374.96
393.26	382.87
393.639	380.16
394.018	387.16
394.397	378.8
394.776	388.29
395.155	384.68
395.534	384
395.913	379.71
396.292	402.31
396.671	380.61
397.05	394.17
397.429	402.98
397.808	377.22
398.186	390.1
398.565	401.63
398.944	390.33
399.323	383.1
399.701	409.76
400.08	406.6
400.458	420.38
400.837	400.95
401.215	382.19
401.594	409.99
401.972	403.89
402.351	426.03
402.729	406.6
403.107	417.45
403.486	433.94
403.864	431.68
404.242	445.47
404.62	424.23
404.999	419.03
405.377	409.76
405.755	426.26
406.133	459.25
406.511	416.99
406.889	440.95
407.267	449.54
407.645	447.95
408.023	442.76
408.401	451.34
408.779	452.93
409.156	457.45
409.534	435.53
409.912	473.49
410.29	472.81
410.667	450.44
411.045	461.51
411.422	469.42
411.8	485.02
412.178	486.37
412.555	479.82
412.933	484.56
413.31	486.6
413.687	486.15
414.065	513.49
414.442	482.53
414.819	501.51
415.197	525.24
415.574	530.21
415.951	536.09
416.328	488.86
416.705	515.52
417.082	512.36
417.46	535.64
417.837	491.12
418.214	505.35
418.591	530.44
418.967	539.93
419.344	529.31
419.721	535.18
420.098	531.12
420.475	559.82
420.852	551.23
421.228	540.83
421.605	537.44
421.982	572.47
422.358	555.3
422.735	578.8
423.111	554.84
423.488	567.95
423.864	576.76
424.241	595.75
424.617	588.97
424.994	583.09
425.37	593.49
425.746	595.75
426.123	621.28
426.499	603.88
426.875	597.1
427.251	607.27
427.627	626.25
428.003	627.38
428.379	625.58
428.756	621.96
429.132	627.84
429.507	631.45
429.883	668.06
430.259	653.37
430.635	671.45
431.011	675.74
431.387	677.33
431.763	667.84
432.138	682.07
432.514	681.62
432.89	701.96
433.265	713.94
433.641	708.51
434.016	693.15
434.392	714.16
434.767	733.82
435.143	740.15
435.518	747.38
435.894	726.82
436.269	739.25
436.644	759.36
437.02	768.85
437.395	772.69
437.77	773.6
438.145	774.5
438.52	779.7
438.895	790.09
439.271	812.01
439.646	790.77
440.021	803.88
440.395	842.29
440.77	807.27
441.145	826.25
441.52	836.19
441.895	838.9
442.27	838.9
442.645	839.81
443.019	840.94
443.394	864.89
443.769	875.51
444.143	878.68
444.518	873.03
444.892	846.59
445.267	902.41
445.641	848.62
446.016	894.95
446.39	903.54
446.764	904.44
447.139	911.22
447.513	936.76
447.887	918
448.262	911.22
448.636	930.88
449.01	933.82
449.384	950.09
449.758	941.95
450.132	942.63
450.506	972.46
450.88	959.81
451.254	957.32
451.628	990.76
452.002	976.08
452.376	1014.27
452.75	1002.29
453.123	998.67
453.497	1016.98
453.871	1054.72
454.244	1057.43
454.618	1053.59
454.992	1078.45
455.365	1061.5
455.739	1111.89
456.112	1079.58
456.486	1090.88
456.859	1126.13
457.232	1169.07
457.606	1122.51
457.979	1166.58
458.352	1196.86
458.725	1187.37
459.099	1199.57
459.472	1231.21
459.845	1238.89
460.218	1241.83
460.591	1245
460.964	1271.89
461.337	1286.58
461.71	1310.08
462.083	1340.81
462.456	1380.59
462.829	1337.65
463.201	1388.04
463.574	1378.78
463.947	1405.9
464.32	1426.91
464.692	1455.16
465.065	1428.27
465.438	1472.33
465.81	1480.47
466.183	1504.2
466.555	1547.13
466.928	1561.15
467.3	1573.57
467.672	1581.26
468.045	1634.14
468.417	1632.1
468.789	1659.67
469.161	1692.44
469.534	1706
469.906	1792.78
470.278	1810.63
470.65	1814.47
471.022	1845.66
471.394	1907.8
471.766	1920.23
472.138	1931.98
472.51	2007.46
472.882	2058.99
473.253	2094.01
473.625	2112.54
473.997	2203.16
474.369	2195.93
474.74	2234.12
475.112	2291.97
475.484	2372.88
475.855	2383.72
476.227	2410.84
476.598	2528.35
476.97	2568.58
477.341	2622.13
477.713	2670.27
478.084	2731.28
478.455	2834.33
478.827	2886.08
479.198	2995.46
479.569	3058.28
479.94	3153.19
480.311	3204.72
480.682	3322.91
481.053	3435.67
481.424	3505.05
481.795	3599.06
482.166	3659.85
482.537	3718.38
482.908	3868.66
483.279	3949.78
483.65	4053.28
484.021	4162.43
484.391	4250.57
484.762	4357.23
485.133	4522.65
485.503	4632.25
485.874	4771.68
486.244	4822.75
486.615	4946.82
486.985	5058.45
487.356	5199.02
487.726	5318.79
488.097	5509.74
488.467	5530.53
488.837	5716.52
489.207	5871.31
489.578	5962.39
489.948	6076.51
490.318	6269.5
490.688	6346.78
491.058	6548.13
491.428	6683.27
491.798	6787
492.168	7017.05
492.538	7070.15
492.908	7212.52
493.278	7343.37
493.648	7502.68
494.017	7535.45
494.387	7743.36
494.757	7834.65
495.126	8063.57
495.496	8184.7
495.866	8247.75
496.235	8413.39
496.605	8521.87
496.974	8617.46
497.344	8815.87
497.713	8903.33
498.082	8981.06
498.452	9159.36
498.821	9221.51
499.19	9330.88
499.559	9493.14
499.928	9487.04
500.298	9670.31
500.667	9799.35
501.036	9789.63
501.405	9973.81
501.774	9966.12
502.143	10175.61
502.512	10239.11
502.88	10360.01
503.249	10403.4
503.618	10532.21
503.987	10575.37
504.356	10701.47
504.724	10767.91
505.093	10865.99
505.462	10925.87
505.83	10938.75
506.199	11085.87
506.567	11225.3
506.936	11144.4
507.304	11402.02
507.672	11421.23
508.041	11517.49
508.409	11624.84
508.777	11629.58
509.145	11735.79
509.514	11725.85
509.882	11878.84
510.25	11884.26
510.618	11969.23
510.986	12012.85
511.354	12128.78
511.722	12122.68
512.09	12254.2
512.458	12245.16
512.826	12284.93
513.193	12427.53
513.561	12451.71
513.929	12410.8
514.297	12592.72
514.664	12703
515.032	12698.71
515.4	12725.15
515.767	12791.58
516.135	12852.6
516.502	12736.22
516.869	12991.58
517.237	13025.93
517.604	12946.61
517.972	12990.45
518.339	13044.69
518.706	13084.01
519.073	13114.29
519.44	13104.12
519.808	13190.22
520.175	13106.83
520.542	13336.65
520.909	13378.91
521.276	13297.33
521.643	13478.35
522.009	13457.33
522.376	13488.06
522.743	13504.11
523.11	13548.4
523.477	13589.98
523.843	13711.56
524.21	13796.3
524.577	13740.26
524.943	13738.9
525.31	13839.69
525.676	13921.95
526.043	13936.41
526.409	13860.93
526.776	14110.65
527.142	13932.12
527.508	14000.59
527.874	14021.61
528.241	14102.28
528.607	14073.81
528.973	14129.4
529.339	14041.27
529.705	14124.88
530.071	14246.46
530.437	14163.53
530.803	14240.81
531.169	14189.06
531.535	14105
531.901	14182.96
532.267	14170.08
532.632	14252.34
532.998	14155.16
533.364	14225.9
533.73	14204.2
534.095	14189.29
534.461	14150.87
534.826	14097.76
535.192	14235.61
535.557	14297.31
535.923	14118.78
536.288	14177.76
536.653	14169.85
537.019	14114.94
537.384	13996.3
537.749	14017.99
538.114	14048.73
538.479	13997.88
538.845	14007.82
539.21	13868.39
539.575	13965.79
539.94	13812.35
540.305	13907.71
540.67	13824.1
541.034	13871.33
541.399	13769.19
541.764	13787.72
542.129	13781.39
542.494	13706.59
542.858	13712.69
543.223	13660.26
543.587	13714.27
543.952	13606.48
544.316	13571
544.681	13539.36
545.045	13606.48
545.41	13640.83
545.774	13575.52
546.138	13493.49
546.503	13549.53
546.867	13345.69
547.231	13497.78
547.595	13506.37
547.959	13397.22
548.324	13330.55
548.688	13320.84
549.052	13334.85
549.416	13301.85
549.779	13233.15
550.143	13221.63
550.507	13204.68
550.871	13248.3
551.235	13047.62
551.599	13131.69
551.962	13086.49
552.326	13035.65
552.689	13025.02
553.053	12971.69
553.417	12944.35
553.78	13086.94
554.143	12968.98
554.507	13026.83
554.87	12979.6
555.234	13116.55
555.597	12889.21
555.96	12925.14
556.323	13035.42
556.686	12985.03
557.05	13011.47
557.413	12927.17
557.776	12804.47
558.139	12952.94
558.502	12869.55
558.865	12903.67
559.228	12983.9
559.59	12915.88
559.953	12841.53
560.316	13018.92
560.679	13022.31
561.041	12896.21
561.404	12963.11
561.767	13053.95
562.129	12917.91
562.492	13042.88
562.854	12860.28
563.217	12932.15
563.579	12967.85
563.941	13018.47
564.304	12945.7
564.666	13144.8
565.028	12995.2
565.39	13063.22
565.753	13159.03
566.115	12975.08
566.477	13104.8
566.839	13088.53
567.201	13101.63
567.563	13102.08
567.925	13194.74
568.287	13175.76
568.648	13210.1
569.01	13215.75
569.372	13277.45
569.734	13231.12
570.095	13255.98
570.457	13289.65
570.819	13305.02
571.18	13277.45
571.542	13330.1
571.903	13312.47
572.265	13302.98
572.626	13388.18
572.987	13449.65
573.349	13343.66
573.71	13401.74
574.071	13455.52
574.432	13383.89
574.794	13486.03
575.155	13557.89
575.516	13393.38
575.877	13461.17
576.238	13451.23
576.599	13453.94
576.96	13460.04
577.32	13457.56
577.681	13488.97
578.042	13533.94
578.403	13547.95
578.763	13439.7
579.124	13509.31
579.485	13547.27
579.845	13641.28
580.206	13521.96
580.566	13499.81
580.927	13506.59
581.287	13552.47
581.648	13515.41
582.008	13597.67
582.368	13567.38
582.728	13563.54
583.089	13570.77
583.449	13449.42
583.809	13535.29
584.169	13516.31
584.529	13435.86
584.889	13527.84
585.249	13485.58
585.609	13451.91
585.969	13466.37
586.329	13465.24
586.688	13453.94
587.048	13524.22
587.408	13441.96
587.768	13437.22
588.127	13345.92
588.487	13412.36
588.846	13436.31
589.206	13342.08
589.565	13279.71
589.925	13392.7
590.284	13395.64
590.643	13346.15
591.003	13344.34
591.362	13416.43
591.721	13343.43
592.08	13424.34
592.44	13391.12
592.799	13312.7
593.158	13340.95
593.517	13322.19
593.876	13340.5
594.235	13314.28
594.593	13299.59
594.952	13338.69
595.311	13249.43
595.67	13323.77
596.029	13333.94
596.387	13385.02
596.746	13338.69
597.104	13304.11
597.463	13270.22
597.822	13320.84
598.18	13281.52
598.538	13180.05
598.897	13298.46
599.255	13230.22
599.613	13360.38
599.972	13308.86
600.33	13285.36
600.688	13246.94
601.046	13407.61
601.404	13287.39
601.762	13313.15
602.12	13335.98
602.478	13312.93
602.836	13391.57
603.194	13289.65
603.552	13258.92
603.91	13257.11
604.268	13328.29
604.625	13232.93
604.983	13342.3
605.341	13257.79
605.698	13358.8
606.056	13303.44
606.413	13286.03
606.771	13343.43
607.128	13341.63
607.485	13309.76
607.843	13322.87
608.2	13373.94
608.557	13505.01
608.914	13356.09
609.272	13396.31
609.629	13391.79
609.986	13520.15
610.343	13415.3
610.7	13399.93
611.057	13474.05
611.414	13424.79
611.771	13491.23
612.127	13555.41
612.484	13529.64
612.841	13531.9
613.198	13439.48
613.554	13515.18
613.911	13566.03
614.267	13589.76
614.624	13507.27
614.98	13502.98
615.337	13606.03
615.693	13551.34
616.05	13583.43
616.406	13631.56
616.762	13639.92
617.118	13529.64
617.475	13565.35
617.831	13630.66
618.187	13591.34
618.543	13707.94
618.899	13652.8
619.255	13701.62
619.611	13661.39
619.967	13732.8
620.323	13735.51
620.678	13683.99
621.034	13623.2
621.39	13629.3
621.746	13623.65
622.101	13809.86
622.457	13610.09
622.812	13695.97
623.168	13763.54
623.523	13690.54
623.879	13699.81
624.234	13679.7
624.589	13804.67
624.945	13657.32
625.3	13863.65
625.655	13755.63
626.01	13732.58
626.365	13672.92
626.72	13672.24
627.075	13692.58
627.43	13653.71
627.785	13634.27
628.14	13668.17
628.495	13760.37
628.85	13730.32
629.205	13709.3
629.559	13768.73
629.914	13555.63
630.269	13705.01
630.623	13727.38
630.978	13565.8
631.332	13679.47
631.687	13641.28
632.041	13584.33
632.396	13590.21
632.75	13542.53
633.104	13544.79
633.459	13503.43
633.813	13437.44
634.167	13502.3
634.521	13469.53
634.875	13480.83
635.229	13426.14
635.583	13377.11
635.937	13381.17
636.291	13418.69
636.645	13415.3
636.999	13255.98
637.352	13451.91
637.706	13238.58
638.06	13278.8
638.413	13272.93
638.767	13258.01
639.121	13292.81
639.474	13261.18
639.828	13302.53
640.181	13281.97
640.534	13203.33
640.888	13147.73
641.241	13167.85
641.594	13184.34
641.947	13181.86
642.301	13181.86
642.654	13138.92
643.007	13141.41
643.36	13122.88
643.713	13073.61
644.066	13145.02
644.419	13051.46
644.771	13030
645.124	12911.81
645.477	12934.63
645.83	12827.29
646.182	12658.93
646.535	12695.54
646.888	12699.16
647.24	12670.23
647.593	12788.42
647.945	12729.44
648.298	12660.29
648.65	12639.72
649.002	12585.49
649.355	12714.98
649.707	12701.64
650.059	12648.99
650.411	12921.3
650.763	12878.81
651.115	13055.53
651.467	12951.13
651.819	12970.79
652.171	12944.57
652.523	12854.86
652.875	13038.58
653.227	12884.24
653.578	12973.73
653.93	12955.65
654.282	12906.61
654.633	12922.2
654.985	12885.37
655.337	12907.74
655.688	12893.95
656.039	12962.65
656.391	12887.18
656.742	12846.72
657.094	12932.82
657.445	12968.08
657.796	12912.26
658.147	12902.77
658.498	12921.98
658.849	12894.18
659.2	12863.22
659.551	12928.53
659.902	12868.87
660.253	12944.12
660.604	12956.78
660.955	12967.4
661.306	12963.11
661.656	12917.23
662.007	13021.18
662.358	12948.64
662.708	13002.65
663.059	12982.77
663.409	12934.41
663.76	12994.74
664.11	13015.31
664.461	12929.89
664.811	13002.88
665.161	12978.47
665.511	12959.04
665.862	13023.89
666.212	13025.48
666.562	13041.75
666.912	12957
667.262	13008.08
667.612	13001.07
667.962	12955.42
668.312	12946.16
668.662	13003.78
669.011	12954.07
669.361	12885.59
669.711	12898.02
670.06	12935.08
670.41	12821.64
670.76	12909.32
671.109	12941.64
671.459	12858.48
671.808	12925.14
672.157	12882.2
672.507	12827.06
672.856	12817.8
673.205	12860.74
673.554	12922.65
673.904	12832.49
674.253	12848.31
674.602	12769.66
674.951	12634.3
675.3	12645.37
675.649	12775.77
675.998	12773.28
676.346	12753.85
676.695	12824.8
677.044	12683.79
677.393	12691.47
677.741	12799.04
678.09	12678.59
678.438	12664.81
678.787	12736.9
679.135	12727.86
679.484	12598.37
679.832	12722.89
680.181	12650.12
680.529	12598.14
680.877	12603.57
681.225	12573.74
681.573	12573.74
681.922	12448.54
682.27	12505.49
682.618	12475.21
682.966	12478.15
683.314	12527.64
683.661	12343.69
684.009	12324.93
684.357	12390.24
684.705	12253.52
685.053	12300.52
685.4	12275.21
685.748	12217.14
686.095	12127.87
686.443	12209
686.79	12186.63
687.138	12127.42
687.485	12128.78
687.832	12083.13
688.18	12132.62
688.527	11948.89
688.874	12053.75
689.221	11925.84
689.568	11929.91
689.915	11887.88
690.262	11876.58
690.609	11845.17
690.956	11871.61
691.303	11777.6
691.65	11711.16
691.997	11726.98
692.344	11696.47
692.69	11619.41
693.037	11620.99
693.383	11543.71
693.73	11515.01
694.077	11520.21
694.423	11489.92
694.769	11416.93
695.116	11423.94
695.462	11362.24
695.808	11308.69
696.155	11375.35
696.501	11262.36
696.847	11209.71
697.193	11108.69
697.539	11195.92
697.885	11037.28
698.231	11044.74
698.577	11072.08
698.923	11027.34
699.269	10960.67
699.614	10889.94
699.96	10835.93
700.306	10888.58
700.651	10832.77
700.997	10810.39
701.342	10720.9
701.688	10734.01
702.033	10716.84
702.379	10677.52
702.724	10567.69
703.069	10670.51
703.415	10474.36
703.76	10559.33
704.105	10533.79
704.45	10465.09
704.795	10405.88
705.14	10421.7
705.485	10303.06
705.83	10294.93
706.175	10270.29
706.52	10252.22
706.865	10205.21
707.209	10122.05
707.554	10124.08
707.899	10205.44
708.243	10039.57
708.588	10061.26
708.932	9961.6
709.277	10031.43
709.621	9961.6
709.966	9967.48
710.31	9961.6
710.654	9868.72
710.998	9906.69
711.342	9876.41
711.687	9922.51
712.031	9802.28
712.375	9801.83
712.719	9789.4
713.063	9829.85
713.407	9785.56
713.75	9656.98
714.094	9749.4
714.438	9631.89
714.782	9642.06
715.125	9585.79
715.469	9666.24
715.812	9554.61
716.156	9490.65
716.499	9631.89
716.843	9573.82
717.186	9532.01
717.53	9586.92
717.873	9581.73
718.216	9493.14
718.559	9485.91
718.902	9415.85
719.246	9412.46
719.589	9395.74
719.932	9414.72
720.275	9396.42
720.617	9363.65
720.96	9370.43
721.303	9375.86
721.646	9323.88
721.989	9284.11
722.331	9407.04
722.674	9246.59
723.016	9243.88
723.359	9260.38
723.701	9312.35
724.044	9301.28
724.386	9231
724.729	9268.51
725.071	9213.37
725.413	9196.2
725.755	9210.44
726.097	9200.72
726.439	9158.01
726.782	9160.95
727.124	9161.85
727.465	9168.63
727.807	9148.29
728.149	9146.71
728.491	9087.05
728.833	9113.04
729.175	9085.69
729.516	9129.53
729.858	9094.73
730.199	9087.05
730.541	9120.95
730.882	9067.39
731.224	9099.48
731.565	9044.11
731.906	9063.55
732.248	9101.51
732.589	9038.91
732.93	9026.49
733.271	9016.32
733.612	9120.49
733.953	9058.8
734.294	9031.68
734.635	8984
734.976	9030.33
735.317	8979.93
735.658	8969.31
735.999	9032.14
736.339	9052.25
736.68	9092.47
737.021	9077.56
737.361	9060.16
737.702	9117.78
738.042	9053.6
738.383	9046.6
738.723	9099.03
739.063	9123.21
739.404	9122.53
739.744	9105.81
740.084	9098.12
740.424	9120.04
740.764	9136.09
741.104	9166.37
741.444	9161.4
741.784	9162.53
742.124	9136.77
742.464	9191
742.804	9194.84
743.143	9121.62
743.483	9200.49
743.823	9216.31
744.162	9269.87
744.502	9353.93
744.841	9340.38
745.181	9335.18
745.52	9322.52
745.86	9422.86
746.199	9381.05
746.538	9405.68
746.877	9562.97
747.216	9580.14
747.556	9562.29
747.895	9639.13
748.234	9663.76
748.573	9732.91
748.911	9692.91
749.25	9808.16
749.589	9818.1
749.928	9880.47
750.267	10018.32
750.605	10048.61
750.944	10063.29
751.283	10164.76
751.621	10309.16
751.96	10355.49
752.298	10370.41
752.636	10558.87
752.975	10605.88
753.313	10682.71
753.651	10868.92
753.989	10847
754.327	11018.3
754.666	11030.27
755.004	11211.06
755.342	11339.87
755.679	11548.91
756.017	11535.57
756.355	11773.98
756.693	11837.49
757.031	11947.76
757.368	12098.04
757.706	12181.21
758.044	12372.39
758.381	12541.65
758.719	12639.05
759.056	12834.07
759.394	12946.16
759.731	13064.8
760.068	13207.84
760.405	13334.17
760.743	13426.82
761.08	13745.01
761.417	13803.08
761.754	13968.05
762.091	14142.28
762.428	14272.22
762.765	14391.99
763.102	14597.19
763.438	14715.83
763.775	14962.37
764.112	15109.26
764.449	15289.37
764.785	15378.41
765.122	15504.73
765.458	15562.13
765.795	15766.42
766.131	15991.27
766.467	16083.25
766.804	16149.46
767.14	16325.73
767.476	16483.92
767.812	16467.87
768.148	16739.73
768.485	16766.17
768.821	16972.72
769.157	17017.91
769.492	17095.88
769.828	17360.73
770.164	17269.43
770.5	17394.85
770.836	17616.32
771.171	17556.43
771.507	17697.9
771.842	17656.77
772.178	17843.2
772.513	17944.67
772.849	18141.5
773.184	18073.25
773.519	18182.18
773.855	18202.74
774.19	18306.02
774.525	18314.83
774.86	18503.52
775.195	18505.78
775.53	18559.79
775.865	18564.54
776.2	18534.48
776.535	18567.7
776.87	18562.73
777.205	18646.35
777.539	18658.55
777.874	18831.2
778.209	18736.74
778.543	18777.19
778.878	18769.28
779.212	18855.15
779.547	18791.43
779.881	18755.5
780.215	18800.47
780.55	18927.69
780.884	18759.34
781.218	18764.31
781.552	18976.51
781.886	18940.12
782.22	18749.85
782.554	18807.47
782.888	18793.91
783.222	18779.45
783.556	18694.71
783.889	18727.25
784.223	18637.98
784.557	18513.92
784.89	18750.52
785.224	18602.73
785.557	18571.55
785.891	18620.58
786.224	18600.47
786.558	18608.61
786.891	18562.73
787.224	18493.58
787.557	18569.29
787.891	18507.59
788.224	18440.7
788.557	18529.06
788.89	18505.11
789.223	18467.14
789.556	18334.72
789.888	18380.36
790.221	18362.51
790.554	18159.13
790.887	18273.02
791.219	18124.33
791.552	18220.82
791.884	18154.83
792.217	18111.67
792.549	18121.39
792.882	18025.35
793.214	17912.35
793.546	17996.19
793.879	17856.54
794.211	17726.37
794.543	18008.17
794.875	17844.79
795.207	17820.83
795.539	17770.21
795.871	17796.42
796.203	17601.85
796.535	17591.91
796.867	17485.47
797.198	17493.61
797.53	17528.18
797.862	17440.05
798.193	17460.84
798.525	17395.98
798.856	17328.87
799.188	17197.34
799.519	17118.02
799.85	17090
800.182	17099.27
800.513	17152.37
800.844	17034.41
801.175	17126.39
801.506	17078.03
801.837	16975.88
802.168	16849.1
802.499	16895.21
802.83	16798.26
803.161	16788.09
803.491	16773.4
803.822	16836.68
804.153	16616.79
804.483	16587.19
804.814	16573.86
805.145	16538.38
805.475	16527.08
805.805	16509
806.136	16494.76
806.466	16373.64
806.796	16489.79
807.126	16300.19
807.457	16277.82
807.787	16225.84
808.117	16242.57
808.447	16093.42
808.777	16180.87
809.107	16072.85
809.436	16072.85
809.766	16055.68
810.096	15982.24
810.426	15977.72
810.755	15924.61
811.085	15859.3
811.414	15910.82
811.744	15748.12
812.073	15702.69
812.403	15814.78
812.732	15744.5
813.061	15695.91
813.39	15690.94
813.719	15556.26
814.049	15752.41
814.378	15610.49
814.707	15564.17
815.036	15499.99
815.365	15451.4
815.693	15289.37
816.022	15323.04
816.351	15421.57
816.68	15212.31
817.008	15296.6
817.337	15238.07
817.665	15176.61
817.994	15256.83
818.322	15237.4
818.651	15087.34
818.979	15056.84
819.307	15125.53
819.636	15097.96
819.964	14988.36
820.292	15074.24
820.62	15038.53
820.948	14984.52
821.276	14955.82
821.604	15015.03
821.932	14992.2
822.259	14951.53
822.587	15018.19
822.915	14982.94
823.243	14958.76
823.57	14866.78
823.898	14919.89
824.225	14864.3
824.553	14929.61
824.88	14902.49
825.207	15011.41
825.535	14983.62
825.862	15024.75
826.189	15016.16
826.516	14928.93
826.843	15020.23
827.17	15045.54
827.497	14958.76
827.824	15064.52
828.151	15097.96
828.478	14947.69
828.805	15111.3
829.131	15041.24
829.458	14986.33
829.785	14909.27
830.111	14944.3
830.438	15004.18
830.764	15038.53
831.09	15097.06
831.417	14917.4
831.743	14977.97
832.069	14929.83
832.395	14984.52
832.722	15011.64
833.048	14928.03
833.374	14921.25
833.7	14853.68
834.026	14909.27
834.351	14910.62
834.677	14835.15
835.003	14885.77
835.329	14837.86
835.654	14785.66
835.98	14723.74
836.306	14828.59
836.631	14733.23
836.956	14746.11
837.282	14754.02
837.607	14631.99
837.932	14712.21
838.258	14624.08
838.583	14672.89
838.908	14614.59
839.233	14560.35
839.558	14584.08
839.883	14566.91
840.208	14435.16
840.533	14460.47
840.858	14436.29
841.182	14489.62
841.507	14511.77
841.832	14292.34
842.156	14352
842.481	14313.58
842.805	14306.12
843.13	14246.01
843.454	14350.87
843.778	14177.99
844.103	14217.54
844.427	14003.08
844.751	14105.67
845.075	14093.47
845.399	14064.32
845.723	13945
846.047	13946.58
846.371	13848.05
846.695	13841.95
847.019	13719.92
847.343	13626.59
847.666	13678.34
847.99	13619.81
848.313	13618.68
848.637	13517.44
848.96	13454.17
849.284	13422.98
849.607	13385.92
849.931	13286.03
850.254	13233.15
850.577	13248.07
850.9	13018.47
851.223	13053.95
851.546	12988.64
851.869	12860.96
852.192	12980.96
852.515	12896.44
852.838	12846.72
853.161	12743.9
853.483	12755.43
853.806	12663.9
854.129	12636.56
854.451	12640.85
854.774	12478.6
855.096	12579.61
855.419	12469.33
855.741	12443.8
856.063	12303.91
856.385	12371.93
856.708	12311.82
857.03	12265.27
857.352	12282.9
857.674	12261.65
857.996	12196.12
858.318	12087.87
858.64	12098.04
858.961	12073.41
859.283	12103.24
859.605	11957.93
859.926	12026.86
860.248	11945.51
860.57	11876.58
860.891	11988.44
861.212	11867.32
861.534	11850.59
861.855	11785.28
862.176	11789.35
862.498	11787.32
862.819	11756.36
863.14	11697.6
863.461	11726.3
863.782	11723.82
864.103	11694.66
864.424	11720.2
864.745	11681.78
865.065	11595.91
865.386	11594.33
865.707	11491.05
866.027	11489.47
866.348	11524.5
866.668	11436.82
866.989	11466.2
867.309	11381.23
867.63	11414.67
867.95	11377.61
868.27	11331.96
868.59	11328.12
868.91	11342.13
869.23	11300.1
869.55	11221.23
869.87	11319.31
870.19	11305.75
870.51	11195.47
870.83	11257.39
871.15	11239.08
871.469	11162.7
871.789	11193.66
872.109	11151.4
872.428	11134.23
872.748	11125.87
873.067	11125.19
873.386	11149.14
873.706	11054.91
874.025	11029.82
874.344	10937.85
874.663	11020.11
874.982	10998.41
875.301	10960.9
875.62	10950.73
875.939	11056.94
876.258	10923.61
876.577	10929.49
876.896	10923.16
877.214	10884.29
877.533	10810.85
877.852	10835.7
878.17	10819.66
878.489	10761.36
878.807	10831.64
879.125	10817.63
879.444	10760.23
879.762	10783.73
880.08	10703.73
880.398	10651.3
880.716	10712.32
881.034	10722.71
881.352	10663.73
881.67	10645.88
881.988	10592.77
882.306	10595.71
882.624	10573.79
882.941	10466.67
883.259	10522.72
883.577	10474.58
883.894	10423.06
884.212	10404.98
884.529	10415.6
884.846	10382.61
885.164	10389.16
885.481	10324.3
885.798	10328.15
886.115	10227.58
886.432	10229.84
886.75	10193.01
887.067	10197.98
887.383	10073.24
887.7	10209.73
888.017	10149.62
888.334	10145.33
888.651	10136.97
888.967	10058.1
889.284	9987.59
889.6	9981.26
889.917	9959.79
890.233	9979.91
890.55	9867.37
890.866	9833.92
891.182	9835.28
891.498	9839.35
891.815	9808.61
892.131	9749.18
892.447	9668.73
892.763	9730.42
893.079	9720.93
893.395	9658.33
893.71	9641.16
894.026	9606.58
894.342	9610.65
894.657	9494.72
894.973	9473.03
895.289	9525.68
895.604	9409.3
895.92	9389.19
896.235	9318.91
896.55	9346.25
896.865	9311.45
897.181	9240.27
897.496	9267.38
897.811	9263.54
898.126	9144.45
898.441	9206.82
898.756	9120.49
899.071	9064.68
899.386	9081.85
899.7	8980.39
900.015	8968.86
900.33	8923.89
900.644	8925.92
900.959	8914.4
901.273	8893.83
901.588	8762.54
901.902	8828.75
902.216	8785.14
902.531	8741.75
902.845	8748.3
903.159	8635.31
903.473	8586.95
903.787	8644.57
904.101	8506.73
904.415	8500.17
904.729	8487.74
905.042	8353.96
905.356	8509.89
905.67	8381.31
905.984	8362.77
906.297	8370.46
906.611	8325.04
906.924	8313.74
907.237	8226.28
907.551	8214.98
907.864	8221.31
908.177	8162.55
908.491	8118.71
908.804	8054.99
909.117	8057.7
909.43	7962.56
909.743	7968.89
910.056	7926.18
910.368	7865.61
910.681	7858.83
910.994	7883.24
911.307	7812.05
911.619	7763.24
911.932	7756.91
912.244	7708.78
912.557	7709.23
912.869	7645.96
913.181	7635.56
913.494	7607.09
913.806	7499.97
914.118	7523.7
914.43	7467.88
914.742	7442.12
915.054	7468.11
915.366	7409.35
915.678	7406.64
915.99	7315.8
916.302	7283.93
916.613	7265.4
916.925	7250.71
917.236	7202.58
917.548	7164.61
917.859	7168.46
918.171	7187.21
918.482	7106.31
918.794	7090.94
919.105	7045.75
919.416	7015.01
919.727	6919.65
920.038	6975.92
920.349	6933.89
920.66	6819.99
920.971	6903.38
921.282	6914
921.593	6832.65
921.903	6755.36
922.214	6737.51
922.525	6723.04
922.835	6743.16
923.146	6697.73
923.456	6722.14
923.767	6646.44
924.077	6588.13
924.387	6568.25
924.697	6567.79
925.008	6514.01
925.318	6485.99
925.628	6490.28
925.938	6410.06
926.248	6464.29
926.558	6386.1
926.867	6296.84
927.177	6371.41
927.487	6283.28
927.796	6253.45
928.106	6291.64
928.416	6253.68
928.725	6225.43
929.034	6189.72
929.344	6188.37
929.653	6208.93
929.962	6038.54
930.271	6082.83
930.581	6083.29
930.89	6023.4
931.199	5980.92
931.508	6011.88
931.817	5973.01
932.125	5959
932.434	5900.01
932.743	5892.56
933.051	5875.38
933.36	5832.67
933.669	5836.74
933.977	5763.97
934.286	5775.27
934.594	5761.03
934.902	5695.27
935.21	5671.77
935.519	5638.55
935.827	5639.68
936.135	5636.97
936.443	5535.73
936.751	5556.07
937.059	5554.26
937.367	5512
937.674	5525.33
937.982	5464.32
938.29	5437.88
938.597	5498.67
938.905	5379.35
939.213	5356.3
939.52	5382.74
939.827	5375.96
940.135	5314.94
940.442	5247.38
940.749	5268.17
941.056	5262.07
941.363	5161.95
941.67	5203.76
941.977	5215.51
942.284	5174.38
942.591	5147.72
942.898	5079.02
943.205	5128.51
943.511	5103.43
943.818	5084.89
944.125	5030.88
944.431	5006.25
944.738	4998.12
945.044	4989.08
945.35	4981.85
945.657	4895.97
945.963	4904.33
946.269	4862.3
946.575	4844.22
946.881	4811.68
947.187	4808.52
947.493	4813.94
947.799	4775.3
948.105	4771.68
948.41	4751.12
948.716	4760.84
949.022	4683.32
949.327	4694.85
949.633	4674.51
949.938	4618.24
950.244	4626.6
950.549	4573.72
950.854	4576.43
951.16	4574.17
951.465	4537.11
951.77	4531.46
952.075	4495.08
952.38	4491.92
952.685	4492.14
952.99	4439.26
953.294	4450.11
953.599	4393.84
953.904	4370.79
954.209	4377.12
954.513	4378.25
954.818	4320.85
955.122	4325.14
955.426	4311.58
955.731	4264.8
956.035	4251.7
956.339	4232.04
956.643	4231.13
956.948	4174.18
957.252	4160.63
957.556	4182.55
957.86	4154.75
958.163	4171.92
958.467	4107.97
958.771	4104.58
959.075	4058.93
959.378	4091.47
959.682	4053.28
959.985	3992.72
960.289	4011.7
960.592	3973.29
960.896	3981.87
961.199	3942.1
961.502	3949.33
961.805	3902.1
962.108	3887.41
962.411	3886.73
962.714	3853.97
963.017	3848.77
963.32	3841.76
963.623	3866.62
963.926	3830.69
964.228	3785.72
964.531	3717.25
964.833	3765.16
965.136	3756.57
965.438	3740.3
965.741	3701.88
966.043	3660.98
966.345	3662.79
966.648	3667.3
966.95	3618.94
967.252	3627.31
967.554	3622.33
967.856	3573.52
968.158	3570.81
968.46	3558.38
968.761	3527.42
969.063	3536.69
969.365	3514.09
969.666	3552.96
969.968	3487.87
970.269	3457.82
970.571	3470.93
970.872	3470.02
971.174	3428.21
971.475	3418.5
971.776	3398.39
972.077	3408.55
972.378	3361.1
972.679	3365.39
972.98	3373.98
973.281	3329.23
973.582	3368.78
973.883	3295.34
974.183	3303.02
974.484	3277.71
974.785	3273.87
975.085	3255.11
975.386	3271.16
975.686	3227.54
975.986	3202.91
976.287	3190.93
976.587	3155.45
976.887	3186.87
977.187	3153.42
977.487	3162.46
977.787	3134.89
978.087	3107.55
978.387	3058.51
978.687	3104.16
978.987	3055.12
979.286	3036.59
979.586	3065.29
979.885	3012.86
980.185	3019.19
980.484	2991.39
980.784	2965.63
981.083	2963.59
981.382	2957.72
981.682	2901.9
981.981	2941.9
982.28	2919.3
982.579	2936.93
982.878	2895.35
983.177	2883.6
983.475	2872.3
983.774	2840.89
984.073	2839.76
984.372	2799.76
984.67	2781.45
984.969	2802.92
985.267	2792.07
985.566	2777.16
985.864	2709.59
986.162	2742.36
986.461	2708.23
986.759	2684.73
987.057	2666.65
987.355	2682.47
987.653	2682.25
987.951	2688.8
988.249	2656.03
988.547	2627.11
988.844	2649.7
989.142	2621
989.44	2598.63
989.737	2564.28
990.035	2604.51
990.332	2599.31
990.63	2552.98
990.927	2530.61
991.224	2525.64
991.521	2547.33
991.819	2498.3
992.116	2476.83
992.413	2492.19
992.71	2441.8
993.006	2498.97
993.303	2457.17
993.6	2455.59
993.897	2437.28
994.193	2404.06
994.49	2408.35
994.787	2408.58
995.083	2407.9
995.379	2338.98
995.676	2367.9
995.972	2342.37
996.268	2356.83
996.565	2324.52
996.861	2321.35
997.157	2308.92
997.453	2280.22
997.749	2282.26
998.044	2264.86
998.34	2259.88
998.636	2265.53
998.932	2247.91
999.227	2217.63
999.523	2245.2
999.818	2208.81
1000.114	2207.46
1000.409	2200.68
1000.704	2167.23
1001	2120.23
1001.295	2130.62
1001.59	2158.64
1001.885	2156.84
1002.18	2135.82
1002.475	2092.43
1002.77	2085.88
1003.065	2078.42
1003.359	2033.9
1003.654	2068.93
1003.949	2035.03
1004.243	2019.44
1004.538	2018.08
1004.832	2012.43
1005.127	1993.45
1005.421	1962.94
1005.715	1974.69
1006.009	1978.08
1006.304	1938.54
1006.598	1944.41
1006.892	1915.94
1007.186	1919.33
1007.48	1899.89
1007.773	1924.75
1008.067	1883.62
1008.361	1895.37
1008.655	1863.96
1008.948	1862.15
1009.242	1864.19
1009.535	1841.14
1009.829	1834.58
1010.122	1838.2
1010.415	1799.11
1010.708	1782.38
1011.001	1777.18
1011.295	1778.77
1011.588	1779.44
1011.881	1749.84
1012.173	1735.15
1012.466	1735.38
1012.759	1757.98
1013.052	1722.72
1013.344	1670.52
1013.637	1675.04
1013.93	1668.71
1014.222	1657.87
1014.514	1649.5
1014.807	1650.41
1015.099	1640.69
1015.391	1651.09
1015.683	1649.96
1015.976	1614.48
1016.268	1618.32
1016.56	1564.76
1016.851	1614.7
1017.143	1572.44
1017.435	1563.18
1017.727	1527.47
1018.018	1542.61
1018.31	1542.61
1018.602	1525.89
1018.893	1511.88
1019.185	1508.04
1019.476	1491.09
1019.767	1510.98
1020.058	1465.33
1020.35	1482.05
1020.641	1457.42
1020.932	1426.46
1021.223	1446.8
1021.514	1413.13
1021.804	1419.68
1022.095	1406.35
1022.386	1404.54
1022.677	1405.22
1022.967	1374.94
1023.258	1362.73
1023.548	1368.61
1023.839	1336.52
1024.129	1337.2
1024.419	1334.03
1024.709	1341.04
1025	1288.61
1025.29	1306.01
1025.58	1301.72
1025.87	1291.1
1026.16	1275.28
1026.449	1291.77
1026.739	1252.23
1027.029	1281.83
1027.319	1253.13
1027.608	1249.06
1027.898	1229.18
1028.187	1238.67
1028.477	1236.63
1028.766	1194.38
1029.055	1231.89
1029.344	1195.51
1029.634	1188.27
1029.923	1186.24
1030.212	1168.16
1030.501	1164.77
1030.79	1136.75
1031.078	1169.07
1031.367	1162.51
1031.656	1132.91
1031.945	1127.48
1032.233	1110.08
1032.522	1122.51
1032.81	1113.47
1033.099	1114.38
1033.387	1074.38
1033.675	1102.85
1033.963	1070.54
1034.251	1080.25
1034.54	1076.86
1034.828	1054.94
1035.116	1040.26
1035.403	1053.36
1035.691	1058.33
1035.979	1039.13
1036.267	1029.41
1036.554	1013.82
1036.842	1006.81
1037.129	1007.04
1037.417	1010.43
1037.704	1006.81
1037.992	985.34
1038.279	1011.33
1038.566	974.72
1038.853	974.72
1039.14	974.72
