Data from hue_170_FLMS001491_00086.txt Node
Date: Tue Feb 07 16:49:19 GMT 2017
User: dcchb
Spectrometer: FLMS00149
Trigger mode: 0
Integration Time (sec): 2.000000E-2
Scans to average: 10
Electric dark correction enabled: true
Nonlinearity correction enabled: false
Boxcar width: 0
XAxis mode: Wavelengths
Number of Pixels in Spectrum: 2048
>>>>>Begin Spectral Data<<<<<
341.393	-23.81
341.776	-23.81
342.16	-23.81
342.543	-66.3
342.927	-51.83
343.31	-56.35
343.693	-68.11
344.077	-71.27
344.46	-68.78
344.843	-50.7
345.226	-55
345.61	-18.62
345.993	-24.49
346.376	16.19
346.759	10.54
347.142	29.52
347.525	43.53
347.908	51.89
348.291	74.94
348.674	75.85
349.057	110.87
349.44	143.87
349.823	130.31
350.206	189.97
350.588	204.66
350.971	221.83
351.354	227.48
351.737	250.76
352.119	260.7
352.502	279.68
352.884	289.85
353.267	279
353.65	285.56
354.032	293.69
354.414	287.82
354.797	307.48
355.179	316.52
355.562	325.56
355.944	335.95
356.326	330.53
356.709	362.62
357.091	332.79
357.473	337.76
357.855	339.12
358.238	350.87
358.62	337.08
359.002	335.05
359.384	353.58
359.766	342.96
360.148	361.04
360.53	345.22
360.912	332.79
361.294	341.38
361.676	321.94
362.057	338.89
362.439	352.67
362.821	328.27
363.203	324.65
363.584	317.42
363.966	319.68
364.348	324.43
364.729	315.39
365.111	332.56
365.493	332.11
365.874	330.75
366.256	301.38
366.637	314.48
367.019	326.01
367.4	325.78
367.781	313.58
368.163	298.21
368.544	327.82
368.925	322.39
369.306	317.42
369.688	312.45
370.069	310.19
370.45	314.71
370.831	334.37
371.212	315.84
371.593	315.16
371.974	310.87
372.355	314.48
372.736	307.93
373.117	341.83
373.498	332.34
373.879	307.7
374.26	326.23
374.641	310.42
375.021	331.66
375.402	341.83
375.783	310.42
376.163	333.47
376.544	340.02
376.925	342.28
377.305	334.14
377.686	335.05
378.066	325.78
378.447	332.11
378.827	324.43
379.208	338.66
379.588	303.86
379.968	352
380.349	333.01
380.729	354.26
381.109	357.87
381.489	337.31
381.87	333.69
382.25	338.66
382.63	338.21
383.01	333.24
383.39	353.8
383.77	345.44
384.15	361.94
384.53	360.13
384.91	348.38
385.29	357.19
385.67	339.57
386.049	369.17
386.429	365.33
386.809	359.45
387.189	373.46
387.568	355.84
387.948	353.13
388.328	361.49
388.707	367.14
389.087	354.03
389.466	355.61
389.846	383.41
390.225	366.69
390.605	402.39
390.984	383.18
391.363	374.59
391.743	379.79
392.122	389.96
392.501	387.02
392.881	388.61
393.26	381.15
393.639	394.71
394.018	403.29
394.397	382.73
394.776	398.1
395.155	403.97
395.534	399.68
395.913	403.07
396.292	398.1
396.671	404.2
397.05	399.45
397.429	401.26
397.808	383.18
398.186	394.48
398.565	416.18
398.944	399.68
399.323	407.36
399.701	396.51
400.08	422.95
400.458	422.95
400.837	391.54
401.215	421.83
401.594	438.1
401.972	416.63
402.351	427.7
402.729	413.69
403.107	435.38
403.486	436.29
403.864	433.12
404.242	458.21
404.62	427.93
404.999	439.68
405.377	444.2
405.755	433.8
406.133	464.76
406.511	464.08
406.889	458.21
407.267	490.52
407.645	467.02
408.023	447.14
408.401	462.5
408.779	474.25
409.156	480.35
409.534	481.94
409.912	494.14
410.29	492.78
410.667	505.21
411.045	516.96
411.422	530.75
411.8	534.59
412.178	512.9
412.555	526.23
412.933	548.38
413.31	530.3
413.687	546.34
414.065	535.04
414.442	547.47
414.819	562.61
415.197	568.04
415.574	561.26
415.951	599.45
416.328	567.81
416.705	595.15
417.082	575.72
417.46	587.7
417.837	595.61
418.214	602.39
418.591	614.36
418.967	601.71
419.344	620.24
419.721	608.26
420.098	638.09
420.475	620.46
420.852	633.12
421.228	652.33
421.605	663.63
421.982	659.11
422.358	671.76
422.735	681.93
423.111	672.44
423.488	682.84
423.864	684.87
424.241	698.88
424.617	728.71
424.994	728.48
425.37	711.99
425.746	743.85
426.123	751.99
426.499	755.15
426.875	747.92
427.251	755.38
427.627	754.02
428.003	772.55
428.379	787.92
428.756	789.72
429.132	815.26
429.507	829.5
429.883	810.06
430.259	796.05
430.635	799.89
431.011	828.59
431.387	850.29
431.763	843.96
432.138	856.16
432.514	873.34
432.89	867.92
433.265	902.72
433.641	911.53
434.016	925.31
434.392	922.83
434.767	945.2
435.143	955.82
435.518	956.5
435.894	972.77
436.269	1001.7
436.644	1002.83
437.02	1013.22
437.395	1028.81
437.77	1007.8
438.145	1034.46
438.52	1028.81
438.895	1072.66
439.271	1080.56
439.646	1114.46
440.021	1106.1
440.395	1104.52
440.77	1095.48
441.145	1124.41
441.52	1139.32
441.895	1167.57
442.27	1151.07
442.645	1175.7
443.019	1186.1
443.394	1175.25
443.769	1184.74
444.143	1179.09
444.518	1200.11
444.892	1231.3
445.267	1231.75
445.641	1236.94
446.016	1261.8
446.39	1265.87
446.764	1257.74
447.139	1276.49
447.513	1291.18
447.887	1277.4
448.262	1263.61
448.636	1275.36
449.01	1299.32
449.384	1322.14
449.758	1329.15
450.132	1368.24
450.506	1372.99
450.88	1370.05
451.254	1390.61
451.628	1401.69
452.002	1392.42
452.376	1417.51
452.75	1424.06
453.123	1446.2
453.497	1472.64
453.871	1474.9
454.244	1508.8
454.618	1490.27
454.992	1521.68
455.365	1521.01
455.739	1574.11
456.112	1604.17
456.486	1606.43
456.859	1608.01
457.232	1636.71
457.606	1637.16
457.979	1700.21
458.352	1717.16
458.725	1750.15
459.099	1766.42
459.472	1791.28
459.845	1816.59
460.218	1785.41
460.591	1812.52
460.964	1857.27
461.337	1906.76
461.71	1905.85
462.083	1947.66
462.456	1982.91
462.829	2004.38
463.201	2043.48
463.574	2008
463.947	2075.57
464.32	2115.79
464.692	2149.92
465.065	2149.01
465.438	2210.03
465.81	2229.91
466.183	2276.92
466.555	2272.85
466.928	2320.76
467.3	2339.97
467.672	2360.53
468.045	2428.78
468.417	2450.02
468.789	2484.82
469.161	2533.63
469.534	2575.44
469.906	2635.55
470.278	2668.77
470.65	2712.84
471.022	2751.03
471.394	2810.24
471.766	2866.51
472.138	2903.57
472.51	2977.92
472.882	3024.47
473.253	3118.7
473.625	3150.79
473.997	3234.63
474.369	3291.58
474.74	3286.16
475.112	3384.69
475.484	3496.09
475.855	3552.82
476.227	3555.08
476.598	3691.8
476.97	3758.01
477.341	3863.32
477.713	3907.38
478.084	3995.97
478.455	4084.78
478.827	4142.63
479.198	4315.96
479.569	4350.54
479.94	4504.2
480.311	4584.43
480.682	4743.75
481.053	4823.07
481.424	4889.73
481.795	5063.51
482.166	5139.22
482.537	5215.37
482.908	5358.64
483.279	5453.33
483.65	5611.75
484.021	5722.7
484.391	5797.73
484.762	5898.07
485.133	6020.55
485.503	6162.01
485.874	6328.34
486.244	6403.59
486.615	6587.31
486.985	6710.93
487.356	6828.66
487.726	6945.27
488.097	7138.71
488.467	7174.87
488.837	7344.81
489.207	7528.08
489.578	7598.59
489.948	7821.86
490.318	7956.99
490.688	7977.78
491.058	8169.19
491.428	8270.88
491.798	8442.18
492.168	8658.44
492.538	8667.71
492.908	8845.11
493.278	8989.96
493.648	9062.28
494.017	9140.92
494.387	9351.31
494.757	9393.57
495.126	9485.99
495.496	9601.7
495.866	9728.92
496.235	9894.57
496.605	9920.56
496.974	10090.05
497.344	10176.14
497.713	10258.4
498.082	10302.24
498.452	10466.53
498.821	10531.62
499.19	10603.7
499.559	10695.91
499.928	10746.53
500.298	10865.84
500.667	11011.15
501.036	11021.32
501.405	11136.12
501.774	11105.61
502.143	11248.66
502.512	11324.59
502.88	11418.82
503.249	11479.61
503.618	11558.48
503.987	11563.45
504.356	11684.58
504.724	11737.69
505.093	11729.78
505.462	11803.45
505.83	11866.04
506.199	11946.04
506.567	12072.59
506.936	12080.28
507.304	12206.15
507.672	12294.96
508.041	12267.39
508.409	12399.59
508.777	12487.04
509.145	12512.58
509.514	12494.95
509.882	12572.69
510.25	12579.47
510.618	12686.14
510.986	12752.57
511.354	12794.16
511.722	12848.16
512.09	12931.55
512.458	12857.66
512.826	13004.55
513.193	12971.33
513.561	12994.38
513.929	13091.1
514.297	13128.84
514.664	13191.21
515.032	13171.09
515.4	13267.14
515.767	13262.84
516.135	13349.17
516.502	13241.15
516.869	13461.71
517.237	13472.33
517.604	13345.1
517.972	13504.87
518.339	13482.5
518.706	13481.14
519.073	13548.94
519.44	13709.84
519.808	13593.46
520.175	13553.01
520.542	13747.12
520.909	13753.68
521.276	13739.22
521.643	13785.99
522.009	13867.8
522.376	13906.67
522.743	13847.01
523.11	14045.65
523.477	14034.35
523.843	14122.71
524.21	14114.8
524.577	14213.1
524.943	14145.53
525.31	14243.38
525.676	14273.89
526.043	14322.02
526.409	14228.47
526.776	14352.98
527.142	14361.8
527.508	14401.8
527.874	14329.71
528.241	14315.02
528.607	14445.86
528.973	14449.93
529.339	14351.63
529.705	14416.71
530.071	14437.73
530.437	14469.82
530.803	14484.51
531.169	14506.88
531.535	14482.02
531.901	14390.5
532.267	14442.47
532.632	14436.37
532.998	14352.31
533.364	14424.17
533.73	14356.37
534.095	14342.36
534.461	14469.14
534.826	14381.01
535.192	14302.36
535.557	14323.38
535.923	14370.38
536.288	14301.23
536.653	14357.28
537.019	14254.46
537.384	14246.77
537.749	14257.39
538.114	14146.44
538.479	14171.52
538.845	14196.6
539.21	14021.24
539.575	14151.41
539.94	13962.49
540.305	14063.5
540.67	13991.86
541.034	13907.57
541.399	14021.02
541.764	13827.35
542.129	13840
542.494	13806.33
542.858	13791.42
543.223	13641.82
543.587	13695.15
543.952	13707.8
544.316	13600.69
544.681	13560.69
545.045	13645.88
545.41	13583.96
545.774	13526.34
546.138	13484.76
546.503	13517.53
546.867	13397.3
547.231	13448.15
547.595	13410.41
547.959	13426.91
548.324	13330.86
548.688	13254.26
549.052	13209.74
549.416	13213.58
549.779	13214.03
550.143	13138.33
550.507	13152.11
550.871	13022.17
551.235	13064.66
551.599	13047.26
551.962	12958.22
552.326	12923.42
552.689	12891.1
553.053	12872.8
553.417	12801.39
553.78	12961.38
554.143	12824.66
554.507	12818.56
554.87	12788.05
555.234	12900.37
555.597	12753.48
555.96	12702.63
556.323	12709.41
556.686	12737.89
557.05	12661.5
557.413	12786.25
557.776	12670.32
558.139	12696.53
558.502	12691.11
558.865	12567.04
559.228	12684.33
559.59	12603.43
559.953	12627.15
560.316	12714.38
560.679	12655.63
561.041	12702.86
561.404	12739.47
561.767	12742.41
562.129	12678.23
562.492	12764.33
562.854	12691.33
563.217	12638
563.579	12716.87
563.941	12670.77
564.304	12702.63
564.666	12672.8
565.028	12661.73
565.39	12767.04
565.753	12731.11
566.115	12757.32
566.477	12792.12
566.839	12718.45
567.201	12800.93
567.563	12725.46
567.925	12874.6
568.287	12778.56
568.648	12866.7
569.01	12823.31
569.372	12916.86
569.734	12833.48
570.095	12901.5
570.457	12906.24
570.819	12874.6
571.18	12871.44
571.542	12951.44
571.903	12918.67
572.265	13016.52
572.626	12950.76
572.987	12950.99
573.349	13003.19
573.71	12995.73
574.071	12885.23
574.432	13055.62
574.794	13068.5
575.155	13095.84
575.516	13026.24
575.877	13048.84
576.238	12980.59
576.599	13075.05
576.96	13001.83
577.32	13025.56
577.681	13097.2
578.042	13070.31
578.403	13025.34
578.763	13085.22
579.124	13052.45
579.485	13006.13
579.845	13101.72
580.206	13102.4
580.566	13037.99
580.927	13006.35
581.287	13103.07
581.648	13010.42
582.008	13069.63
582.368	12954.15
582.728	12965.45
583.089	12971.33
583.449	13021.95
583.809	13047.03
584.169	13056.75
584.529	13037.31
584.889	13070.31
585.249	12891.1
585.609	13002.51
585.969	12995.96
586.329	12927.26
586.688	12953.47
587.048	12954.83
587.408	12878.45
587.768	12896.53
588.127	12852.68
588.487	12921.38
588.846	12852.91
589.206	12858.56
589.565	12903.08
589.925	12870.99
590.284	12869.41
590.643	12924.55
591.003	12910.99
591.362	12875.51
591.721	12875.28
592.08	12833.93
592.44	12822.63
592.799	12833.7
593.158	12790.31
593.517	12772.01
593.876	12835.06
594.235	12759.81
594.593	12773.59
594.952	12737.21
595.311	12700.6
595.67	12765.23
596.029	12739.92
596.387	12833.93
596.746	12801.61
597.104	12732.24
597.463	12685.01
597.822	12713.71
598.18	12672.12
598.538	12692.69
598.897	12740.6
599.255	12643.88
599.613	12890.88
599.972	12682.75
600.33	12767.94
600.688	12745.79
601.046	12778.11
601.404	12785.57
601.762	12706.02
602.12	12783.08
602.478	12795.74
602.836	12752.8
603.194	12693.82
603.552	12728.85
603.91	12592.13
604.268	12718.22
604.625	12745.57
604.983	12777.43
605.341	12744.21
605.698	12787.6
606.056	12766.13
606.413	12763.42
606.771	12753.25
607.128	12818.34
607.485	12720.71
607.843	12741.73
608.2	12746.92
608.557	12772.91
608.914	12813.14
609.272	12852.91
609.629	12854.27
609.986	12872.35
610.343	12774.04
610.7	12856.3
611.057	12948.05
611.414	12864.21
611.771	12859.46
612.127	12946.47
612.484	12893.14
612.841	12917.99
613.198	12846.36
613.554	12861.5
613.911	12915.73
614.267	12966.58
614.624	12897.2
614.98	12933.13
615.337	12944.43
615.693	12937.2
616.05	12963.64
616.406	12966.58
616.762	13010.19
617.118	12919.58
617.475	12956.86
617.831	13045
618.187	13019.46
618.543	13079.57
618.899	12988.73
619.255	13021.27
619.611	13030.08
619.967	13132.9
620.323	13116.41
620.678	13052.45
621.034	13016.75
621.39	13073.47
621.746	13025.11
622.101	13226.23
622.457	13057.2
622.812	13142.39
623.168	13112.79
623.523	13068.27
623.879	13144.2
624.234	13049.52
624.589	13070.53
624.945	13112.11
625.3	13062.4
625.655	13132.68
626.01	13035.5
626.365	13059.23
626.72	13033.02
627.075	13031.44
627.43	12978.78
627.785	12990.76
628.14	12982.4
628.495	13004.09
628.85	12974.04
629.205	12935.62
629.559	13056.97
629.914	12944.89
630.269	12921.61
630.623	12932.68
630.978	12893.59
631.332	12920.48
631.687	12948.28
632.041	12866.47
632.396	12908.95
632.75	12908.5
633.104	12910.54
633.459	12832.8
633.813	12889.75
634.167	12816.3
634.521	12775.4
634.875	12837.09
635.229	12762.97
635.583	12725.68
635.937	12742.41
636.291	12739.47
636.645	12779.24
636.999	12715.74
637.352	12779.69
637.706	12661.05
638.06	12732.24
638.413	12674.38
638.767	12578.34
639.121	12614.05
639.474	12576.53
639.828	12547.38
640.181	12567.49
640.534	12636.87
640.888	12579.25
641.241	12509.64
641.594	12533.15
641.947	12537.21
642.301	12537.89
642.654	12533.15
643.007	12477.33
643.36	12533.82
643.713	12426.03
644.066	12477.78
644.419	12463.99
644.771	12356.2
645.124	12252.7
645.477	12296.77
645.83	12158.92
646.182	12113.95
646.535	12062.87
646.888	12115.08
647.24	12057.23
647.593	12028.3
647.945	12075.53
648.298	12012.03
648.65	11999.83
649.002	12058.81
649.355	12003.89
649.707	12024.01
650.059	12052.25
650.411	12229.65
650.763	12209.09
651.115	12297.45
651.467	12265.81
651.819	12290.67
652.171	12242.53
652.523	12291.8
652.875	12206.15
653.227	12161.4
653.578	12270.55
653.93	12262.19
654.282	12218.13
654.633	12180.84
654.985	12299.48
655.337	12258.8
655.688	12297.22
656.039	12336.31
656.391	12209.76
656.742	12245.02
657.094	12251.8
657.445	12329.76
657.796	12294.96
658.147	12271.01
658.498	12317.11
658.849	12313.04
659.2	12275.3
659.551	12250.67
659.902	12264.23
660.253	12351.91
660.604	12310.1
660.955	12301.74
661.306	12336.31
661.656	12256.32
662.007	12280.95
662.358	12338.35
662.708	12402.98
663.059	12384.22
663.409	12264.23
663.76	12336.54
664.11	12404.33
664.461	12402.53
664.811	12323.21
665.161	12408.4
665.511	12341.06
665.862	12327.5
666.212	12379.25
666.562	12386.03
666.912	12438.68
667.262	12352.13
667.612	12341.74
667.962	12348.29
668.312	12341.51
668.662	12456.54
669.011	12316.65
669.361	12375.64
669.711	12344.9
670.06	12320.72
670.41	12305.35
670.76	12295.41
671.109	12331.34
671.459	12253.15
671.808	12267.39
672.157	12362.53
672.507	12233.04
672.856	12278.91
673.205	12289.76
673.554	12270.1
673.904	12230.78
674.253	12294.06
674.602	12244.11
674.951	12047.96
675.3	11928.19
675.649	12211.57
675.998	12206.37
676.346	12181.29
676.695	12248.18
677.044	12030.11
677.393	12195.3
677.741	12118.01
678.09	12083.44
678.438	12046.38
678.787	12105.13
679.135	11982.65
679.484	11954.4
679.832	11995.08
680.181	12000.28
680.529	12011.58
680.877	11920.05
681.225	11938.58
681.573	11977.68
681.922	11918.47
682.27	11831.24
682.618	11874.18
682.966	11792.37
683.314	11820.62
683.661	11798.7
684.009	11821.07
684.357	11748.76
684.705	11671.02
685.053	11706.73
685.4	11640.74
685.748	11644.35
686.095	11603.9
686.443	11516.67
686.79	11560.29
687.138	11552.38
687.485	11573.62
687.832	11475.77
688.18	11471.03
688.527	11464.47
688.874	11428.99
689.221	11341.09
689.568	11366.17
689.915	11353.97
690.262	11334.76
690.609	11256.12
690.956	11192.62
691.303	11182.45
691.65	11138.83
691.997	11156.68
692.344	11044.82
692.69	11065.39
693.037	11017.93
693.383	10904.49
693.73	10960.76
694.077	10883.02
694.423	10896.35
694.769	10814.55
695.116	10798.73
695.462	10787.88
695.808	10767.09
696.155	10760.99
696.501	10686.41
696.847	10655.68
697.193	10603.25
697.539	10577.72
697.885	10501.33
698.231	10473.54
698.577	10463.37
698.923	10451.62
699.269	10325.29
699.614	10307.21
699.96	10226.76
700.306	10290.04
700.651	10245.97
700.997	10187.9
701.342	10116.49
701.688	10188.35
702.033	10096.37
702.379	10020.67
702.724	9973.66
703.069	10058.86
703.415	9901.12
703.76	9848.47
704.105	9852.54
704.45	9880.56
704.795	9809.83
705.14	9763.5
705.485	9801.01
705.83	9667.01
706.175	9685.54
706.52	9690.96
706.865	9696.38
707.209	9625.2
707.554	9585.43
707.899	9601.02
708.243	9584.52
708.588	9506.56
708.932	9502.04
709.277	9436.28
709.621	9482.83
709.966	9423.85
710.31	9458.2
710.654	9314.92
710.998	9327.35
711.342	9330.29
711.687	9348.14
712.031	9294.81
712.375	9245.55
712.719	9239.9
713.063	9180.69
713.407	9201.48
713.75	9189.05
714.094	9180.01
714.438	9123.29
714.782	9137.53
715.125	9071.54
715.469	9071.32
715.812	9022.05
716.156	9060.24
716.499	8990.41
716.843	9087.13
717.186	8955.84
717.53	8964.65
717.873	8996.51
718.216	9005.1
718.559	8968.49
718.902	8950.19
719.246	8928.72
719.589	8890.98
719.932	8896.63
720.275	8820.7
720.617	8860.02
720.96	8863.64
721.303	8840.59
721.646	8822.06
721.989	8740.02
722.331	8790.64
722.674	8760.81
723.016	8797.42
723.359	8785.9
723.701	8752.68
724.044	8716.07
724.386	8693.47
724.729	8788.84
725.071	8739.57
725.413	8662.96
725.755	8643.3
726.097	8690.53
726.439	8651.67
726.782	8660.03
727.124	8686.47
727.465	8577.99
727.807	8620.71
728.149	8601.05
728.491	8574.61
728.833	8633.36
729.175	8605.79
729.516	8554.49
729.858	8596.98
730.199	8525.11
730.541	8621.16
730.882	8548.17
731.224	8617.54
731.565	8589.07
731.906	8556.3
732.248	8593.59
732.589	8517.21
732.93	8538.22
733.271	8512.23
733.612	8607.82
733.953	8561.95
734.294	8584.55
734.635	8514.04
734.976	8507.26
735.317	8511.78
735.658	8490.09
735.999	8581.16
736.339	8554.72
736.68	8577.54
737.021	8545
737.361	8552.23
737.702	8545.91
738.042	8604.21
738.383	8553.36
738.723	8577.54
739.063	8566.02
739.404	8611.21
739.744	8604.89
740.084	8568.73
740.424	8674.94
740.764	8615.28
741.104	8662.96
741.444	8698.67
741.784	8644.21
742.124	8709.97
742.464	8685.79
742.804	8724.21
743.143	8739.12
743.483	8781.83
743.823	8807.82
744.162	8739.35
744.502	8830.42
744.841	8804.43
745.181	8895.5
745.52	8862.51
745.86	9023.18
746.199	8995.84
746.538	9045.33
746.877	9065.44
747.216	9148.83
747.556	9127.81
747.895	9243.06
748.234	9171.2
748.573	9249.16
748.911	9288.03
749.25	9437.86
749.589	9490.29
749.928	9531.64
750.267	9615.93
750.605	9678.08
750.944	9751.3
751.283	9713.56
751.621	9933.89
751.96	9932.99
752.298	10045.53
752.636	10147.22
752.975	10256.37
753.313	10341.79
753.651	10414.56
753.989	10517.38
754.327	10662.91
754.666	10694.55
755.004	10916.46
755.342	11057.7
755.679	11169.11
756.017	11289.79
756.355	11351.71
756.693	11568.42
757.031	11648.2
757.368	11750.11
757.706	11915.53
758.044	12075.3
758.381	12214.28
758.719	12481.85
759.056	12576.76
759.394	12702.86
759.731	12851.33
760.068	12996.64
760.405	13155.05
760.743	13303.75
761.08	13546
761.417	13644.08
761.754	13771.98
762.091	13997.51
762.428	14124.29
762.765	14270.95
763.102	14470.95
763.438	14499.42
763.775	14726.99
764.112	14891.95
764.449	15066.19
764.785	15183.02
765.122	15401.09
765.458	15468.44
765.795	15591.82
766.131	15789.78
766.467	15931.02
766.804	16155.87
767.14	16308.41
767.476	16418.01
767.812	16519.48
768.148	16755.18
768.485	16708.85
768.821	16901.62
769.157	17015.06
769.492	17166.02
769.828	17252.12
770.164	17395.16
770.5	17442.39
770.836	17624.31
771.171	17571.88
771.507	17750.63
771.842	17828.15
772.178	17933.91
772.513	17976.62
772.849	18085.32
773.184	18130.29
773.519	18264.75
773.855	18302.94
774.19	18280.11
774.525	18406.44
774.86	18438.07
775.195	18489.15
775.53	18619.76
775.865	18657.73
776.2	18552.87
776.535	18535.47
776.87	18741.34
777.205	18587.22
777.539	18753.77
777.874	18926.2
778.209	18832.64
778.543	18880.32
778.878	18926.88
779.212	18911.96
779.547	18916.48
779.881	18970.72
780.215	18934.56
780.55	19099.75
780.884	19022.92
781.218	19118.73
781.552	19092.97
781.886	19015.23
782.22	19052.07
782.554	19062.69
782.888	18943.15
783.222	18994.67
783.556	18833.32
783.889	18942.92
784.223	18818.86
784.557	18917.84
784.89	18965.74
785.224	18894.33
785.557	18855.46
785.891	18839.65
786.224	18946.99
786.558	18830.83
786.891	18800.32
787.224	18753.77
787.557	18685.98
787.891	18767.56
788.224	18831.28
788.557	18787.9
788.89	18756.48
789.223	18773.66
789.556	18608.47
789.888	18633.55
790.221	18646.43
790.554	18353.78
790.887	18462.93
791.219	18349.04
791.552	18476.72
791.884	18384.97
792.217	18407.34
792.549	18270.62
792.882	18330.73
793.214	18233.56
793.546	18262.26
793.879	18242.37
794.211	18059.1
794.543	18098.65
794.875	18047.12
795.207	18152.88
795.539	17987.46
795.871	18092.77
796.203	17844.64
796.535	17762.84
796.867	17783.85
797.198	17751.76
797.53	17779.56
797.862	17707.7
798.193	17742.05
798.525	17566.01
798.856	17581.37
799.188	17412.11
799.519	17349.06
799.85	17397.88
800.182	17394.71
800.513	17459.12
800.844	17204.21
801.175	17404.43
801.506	17227.48
801.837	17210.31
802.168	17213.47
802.499	17248.05
802.83	17014.16
803.161	17064.78
803.491	17091.44
803.822	16998.79
804.153	16991.78
804.483	16861.17
804.814	16777.78
805.145	16800.15
805.475	16708.4
805.805	16792.02
806.136	16735.07
806.466	16799.47
806.796	16640.83
807.126	16624.11
807.457	16513.61
807.787	16596.32
808.117	16483.78
808.447	16480.16
808.777	16442.19
809.107	16463.44
809.436	16430.44
809.766	16368.52
810.096	16314.97
810.426	16229.09
810.755	16222.54
811.085	16209.66
811.414	16247.85
811.744	16042.21
812.073	16057.35
812.403	16055.99
812.732	16005.37
813.061	16015.09
813.39	15898.71
813.719	15874.98
814.049	15975.31
814.378	15882.66
814.707	15875.43
815.036	15818.03
815.365	15783.68
815.693	15666.4
816.022	15632.5
816.351	15571.94
816.68	15577.81
817.008	15685.38
817.337	15473.18
817.665	15481.32
817.994	15561.09
818.322	15497.36
818.651	15387.76
818.979	15313.86
819.307	15404.26
819.636	15420.75
819.964	15288.78
820.292	15307.31
820.62	15308.89
820.948	15273.86
821.276	15395.67
821.604	15187.99
821.932	15323.35
822.259	15337.37
822.587	15232.06
822.915	15219.18
823.243	15304.6
823.57	15264.37
823.898	15307.54
824.225	15226.18
824.553	15152.29
824.88	15245.84
825.207	15274.54
825.535	15262.11
825.862	15311.15
826.189	15293.07
826.516	15290.81
826.843	15249.23
827.17	15231.38
827.497	15284.71
827.824	15317.7
828.151	15308.89
828.478	15293.3
828.805	15363.81
829.131	15247.2
829.458	15265.5
829.785	15193.41
830.111	15305.05
830.438	15366.52
830.764	15297.82
831.09	15337.59
831.417	15226.41
831.743	15324.71
832.069	15272.06
832.395	15301.66
832.722	15222.57
833.048	15097.15
833.374	15273.64
833.7	15101.21
834.026	15107.77
834.351	15193.87
834.677	15161.32
835.003	15126.98
835.329	15245.39
835.654	15082
835.98	15060.31
836.306	15091.72
836.631	15054.66
836.956	15028.22
837.282	15049.92
837.607	15079.07
837.932	14996.58
838.258	14873.2
838.583	14978.05
838.908	14876.13
839.233	14884.04
839.558	14900.99
839.883	14831.62
840.208	14741.67
840.533	14751.17
840.858	14808.34
841.182	14672.75
841.507	14738.74
841.832	14636.37
842.156	14715.69
842.481	14614.22
842.805	14599.08
843.13	14600.44
843.454	14507.56
843.778	14509.59
844.103	14445.19
844.427	14475.69
844.751	14444.28
845.075	14337.17
845.399	14324.51
845.723	14178.75
846.047	14308.47
846.371	14161.35
846.695	14067.57
847.019	14030.96
847.343	14018.08
847.666	13944.18
847.99	13862.38
848.313	13856.05
848.637	13795.48
848.96	13707.35
849.284	13702.61
849.607	13646.34
849.931	13597.98
850.254	13448.6
850.577	13415.16
850.9	13318.89
851.223	13369.73
851.546	13267.14
851.869	13203.86
852.192	13319.34
852.515	13154.15
852.838	13054.71
853.161	13134.26
853.483	12972.23
853.806	12848.39
854.129	12978.56
854.451	12857.88
854.774	12865.57
855.096	12778.79
855.419	12707.6
855.741	12687.04
856.063	12635.06
856.385	12620.83
856.708	12613.37
857.03	12490.89
857.352	12555.52
857.674	12472.58
857.996	12421.06
858.318	12438.23
858.64	12385.8
858.961	12336.09
859.283	12283.66
859.605	12274.39
859.926	12298.8
860.248	12219.93
860.57	12167.5
860.891	12144.91
861.212	12147.62
861.534	12099.03
861.855	12047.96
862.176	12080.5
862.498	11979.94
862.819	11972.48
863.14	11943.1
863.461	11886.61
863.782	11878.47
864.103	11907.85
864.424	11864.69
864.745	11908.53
865.065	11767.97
865.386	11715.99
865.707	11708.99
866.027	11748.31
866.348	11713.96
866.668	11665.37
866.989	11704.69
867.309	11550.35
867.63	11665.82
867.95	11631.02
868.27	11565.26
868.59	11588.54
868.91	11592.6
869.23	11560.52
869.55	11461.08
869.87	11589.22
870.19	11507.41
870.51	11546.5
870.83	11493.85
871.15	11454.98
871.469	11428.54
871.789	11470.57
872.109	11490.91
872.428	11255.21
872.748	11298.83
873.067	11387.41
873.386	11340.86
873.706	11270.81
874.025	11263.57
874.344	11255.21
874.663	11318.04
874.982	11117.82
875.301	11239.39
875.62	11202.33
875.939	11221.32
876.258	11198.94
876.577	11064.03
876.896	11107.65
877.214	11085.95
877.533	11151.71
877.852	11119.62
878.17	11084.37
878.489	11083.92
878.807	11021.77
879.125	11027.65
879.444	11034.88
879.762	10986.75
880.08	10955.56
880.398	10874.43
880.716	10915.79
881.034	10884.15
881.352	10898.39
881.67	10773.19
881.988	10816.13
882.306	10710.59
882.624	10786.52
882.941	10665.4
883.259	10667.43
883.577	10679.41
883.894	10638.96
884.212	10629.24
884.529	10661.78
884.846	10613.2
885.164	10608.22
885.481	10551.5
885.798	10560.77
886.115	10436.48
886.432	10432.86
886.75	10412.52
887.067	10391.28
887.383	10347.21
887.7	10414.1
888.017	10367.55
888.334	10374.33
888.651	10287.78
888.967	10275.58
889.284	10244.84
889.6	10165.75
889.917	10169.37
890.233	10154
890.55	10122.13
890.866	10082.14
891.182	9995.36
891.498	10047.11
891.815	10007.34
892.131	9979.99
892.447	9926.89
892.763	9934.12
893.079	9892.08
893.395	9879.2
893.71	9770.96
894.026	9789.94
894.342	9807.79
894.657	9722.37
894.973	9701.13
895.289	9614.13
895.604	9653.67
895.92	9612.54
896.235	9561.47
896.55	9489.84
896.865	9565.31
897.181	9508.82
897.496	9496.39
897.811	9406.22
898.126	9324.87
898.441	9323.51
898.756	9321.03
899.071	9277.41
899.386	9211.42
899.7	9166.68
900.015	9158.77
900.33	9045.78
900.644	9139.11
900.959	9130.52
901.273	9089.39
901.588	9033.58
901.902	9014.14
902.216	8978.89
902.531	8925.78
902.845	8900.02
903.159	8856.86
903.473	8823.41
903.787	8704.55
904.101	8714.94
904.415	8731.21
904.729	8616.64
905.042	8611.67
905.356	8614.6
905.67	8591.1
905.984	8560.14
906.297	8548.39
906.611	8427.04
906.924	8416.64
907.237	8479.01
907.551	8367.15
907.864	8359.24
908.177	8297.32
908.491	8343.42
908.804	8287.83
909.117	8223.2
909.43	8157.67
909.743	8055.07
910.056	8137.1
910.368	8043.32
910.681	8072.25
910.994	7959.48
911.307	7938.69
911.619	7939.82
911.932	7922.64
912.244	7796.77
912.557	7844
912.869	7800.39
913.181	7749.99
913.494	7785.02
913.806	7687.62
914.118	7705.7
914.43	7609.43
914.742	7617.34
915.054	7592.03
915.366	7529.89
915.678	7495.76
915.99	7449.21
916.302	7418.48
916.613	7404.01
916.925	7436.78
917.236	7376.9
917.548	7394.52
917.859	7305.03
918.171	7265.94
918.482	7248.09
918.794	7180.07
919.105	7240.4
919.416	7146.85
919.727	7092.84
920.038	7114.53
920.349	7062.1
920.66	7067.53
920.971	7038.83
921.282	7005.15
921.593	6978.49
921.903	6932.84
922.214	6905.04
922.525	6875.21
922.835	6823.69
923.146	6764.26
923.456	6830.02
923.767	6765.61
924.077	6771.26
924.387	6674.99
924.697	6623.7
925.008	6635.45
925.318	6577.37
925.628	6624.15
925.938	6595.22
926.248	6511.38
926.558	6473.42
926.867	6512.06
927.177	6478.61
927.487	6459.86
927.796	6393.65
928.106	6419.63
928.416	6324.72
928.725	6338.51
929.034	6261.67
929.344	6310.48
929.653	6254.89
929.962	6197.49
930.271	6186.42
930.581	6159.98
930.89	6177.15
931.199	6130.83
931.508	6057.61
931.817	6115.23
932.125	6048.57
932.434	6068.91
932.743	6011.06
933.051	5931.06
933.36	5928.57
933.669	5867.78
933.977	5898.29
934.286	5903.94
934.594	5857.84
934.902	5826.88
935.21	5780.1
935.519	5812.64
935.827	5774.9
936.135	5710.27
936.443	5699.65
936.751	5676.15
937.059	5639.77
937.367	5653.1
937.674	5592.99
937.982	5594.8
938.29	5567
938.597	5576.72
938.905	5542.37
939.213	5543.27
939.52	5483.84
939.827	5468.25
940.135	5407.91
940.442	5404.07
940.749	5358.19
941.056	5327.46
941.363	5320.45
941.67	5310.51
941.977	5322.26
942.284	5249.49
942.591	5232.32
942.898	5218.08
943.205	5185.77
943.511	5124.53
943.818	5169.95
944.125	5155.03
944.431	5098.09
944.738	5109.61
945.044	5054.47
945.35	5034.36
945.657	5002.72
945.963	4964.08
946.269	4978.54
946.575	4976.06
946.881	4931.54
947.187	4927.92
947.493	4908.49
947.799	4871.2
948.105	4888.37
948.41	4804.53
948.716	4876.85
949.022	4774.48
949.327	4754.59
949.633	4738.1
949.938	4728.38
950.244	4727.7
950.549	4687.48
950.854	4628.04
951.16	4673.92
951.465	4629.62
951.77	4596.63
952.075	4609.51
952.38	4584.43
952.685	4552.56
952.99	4480.48
953.294	4481.15
953.599	4482.96
953.904	4451.78
954.209	4434.37
954.513	4441.15
954.818	4424.88
955.122	4427.37
955.426	4400.03
955.731	4337.88
956.035	4324.1
956.339	4339.24
956.643	4346.92
956.948	4260.37
957.252	4272.8
957.556	4252.91
957.86	4203.19
958.163	4197.77
958.467	4213.36
958.771	4189.41
959.075	4182.4
959.378	4144.67
959.682	4152.35
959.985	4112.58
960.289	4089.75
960.592	4070.99
960.896	4052.92
961.199	4038
961.502	4033.93
961.805	3997.32
962.108	3987.61
962.411	3978.79
962.714	3975.63
963.017	3947.16
963.32	3928.4
963.623	3901.73
963.926	3874.16
964.228	3903.54
964.531	3834.62
964.833	3862.41
965.136	3790.78
965.438	3807.5
965.741	3767.95
966.043	3759.82
966.345	3743.09
966.648	3706.71
966.95	3754.17
967.252	3715.07
967.554	3679.37
967.856	3671.91
968.158	3611.12
968.46	3619.26
968.761	3628.52
969.063	3593.95
969.365	3613.83
969.666	3606.37
969.968	3600.5
970.269	3544.91
970.571	3569.31
970.872	3499.03
971.174	3464.46
971.475	3486.83
971.776	3448.64
972.077	3471.91
972.378	3438.92
972.679	3401.18
972.98	3402.99
973.281	3408.41
973.582	3377.23
973.883	3368.87
974.183	3335.65
974.484	3361.63
974.785	3351.69
975.085	3283.44
975.386	3318.25
975.686	3276.21
975.986	3279.83
976.287	3297
976.587	3215.88
976.887	3211.36
977.187	3229.21
977.487	3216.78
977.787	3174.07
978.087	3182.88
978.387	3144.92
978.687	3164.35
978.987	3111.25
979.286	3117.57
979.586	3154.86
979.885	3088.42
980.185	3065.6
980.484	3046.84
980.784	3031.25
981.083	3025.15
981.382	2996.45
981.682	2989.89
981.981	2959.84
982.28	2963
982.579	2972.04
982.878	2911.03
983.177	2883.68
983.475	2911.25
983.774	2900.63
984.073	2870.35
984.372	2869.67
984.67	2848.88
984.969	2899.73
985.267	2843
985.566	2825.83
985.864	2800.97
986.162	2851.37
986.461	2780.18
986.759	2752.84
987.057	2747.41
987.355	2719.17
987.653	2725.49
987.951	2746.74
988.249	2690.24
988.547	2737.7
988.844	2696.79
989.142	2700.64
989.44	2648.89
989.737	2657.7
990.035	2648.21
990.332	2641.65
990.63	2588.55
990.927	2588.77
991.224	2603.01
991.521	2581.54
991.819	2555.33
992.116	2572.95
992.413	2548.77
992.71	2512.17
993.006	2534.54
993.303	2488.66
993.6	2487.99
993.897	2495.22
994.193	2476.91
994.49	2463.35
994.787	2454.54
995.083	2454.54
995.379	2420.42
995.676	2388.55
995.972	2392.85
996.268	2408.21
996.565	2347.42
996.861	2349.68
997.157	2357.82
997.453	2340.42
997.749	2317.37
998.044	2358.5
998.34	2301.78
998.636	2292.51
998.932	2281.21
999.227	2297.93
999.523	2258.84
999.818	2243.47
1000.114	2226.07
1000.409	2210.93
1000.704	2203.7
1001	2226.07
1001.295	2175.68
1001.59	2189.01
1001.885	2159.41
1002.18	2168.9
1002.475	2133.42
1002.77	2125.51
1003.065	2125.06
1003.359	2093.65
1003.654	2097.26
1003.949	2074.66
1004.243	2070.14
1004.538	2054.32
1004.832	2040.77
1005.127	2040.54
1005.421	2025.17
1005.715	1998.28
1006.009	1959.41
1006.304	1964.38
1006.598	1967.77
1006.892	1965.06
1007.186	1922.58
1007.48	1978.62
1007.773	1966.87
1008.067	1907.89
1008.361	1888.45
1008.655	1876.48
1008.948	1904.5
1009.242	1863.37
1009.535	1864.72
1009.829	1827.66
1010.122	1838.28
1010.415	1846.42
1010.708	1787.89
1011.001	1783.82
1011.295	1781.11
1011.588	1784.95
1011.881	1764.61
1012.173	1786.99
1012.466	1737.04
1012.759	1763.26
1013.052	1732.53
1013.344	1744.28
1013.637	1702.7
1013.93	1740.43
1014.222	1722.36
1014.514	1719.87
1014.807	1662.47
1015.099	1700.66
1015.391	1665.18
1015.683	1648.01
1015.976	1625.64
1016.268	1620.66
1016.56	1615.01
1016.851	1608.69
1017.143	1572.3
1017.435	1559.87
1017.727	1585.64
1018.018	1613.66
1018.31	1551.74
1018.602	1556.48
1018.893	1537.5
1019.185	1544.28
1019.476	1504.73
1019.767	1519.88
1020.058	1497.73
1020.35	1475.36
1020.641	1472.64
1020.932	1439.88
1021.223	1472.19
1021.514	1437.62
1021.804	1457.5
1022.095	1429.48
1022.386	1429.93
1022.677	1422.48
1022.967	1388.35
1023.258	1379.99
1023.548	1368.92
1023.839	1388.81
1024.129	1385.64
1024.419	1356.94
1024.709	1337.28
1025	1347.45
1025.29	1352.87
1025.58	1329.37
1025.87	1317.62
1026.16	1295.25
1026.449	1307.45
1026.739	1270.39
1027.029	1291.86
1027.319	1264.06
1027.608	1259.54
1027.898	1254.8
1028.187	1257.74
1028.477	1269.26
1028.766	1244.18
1029.055	1218.19
1029.344	1244.18
1029.634	1201.01
1029.923	1219.54
1030.212	1210.28
1030.501	1205.08
1030.79	1149.94
1031.078	1195.36
1031.367	1151.3
1031.656	1181.81
1031.945	1151.75
1032.233	1132.99
1032.522	1158.08
1032.81	1167.12
1033.099	1109.72
1033.387	1120.11
1033.675	1131.18
1033.963	1089.15
1034.251	1112.2
1034.54	1083.28
1034.828	1075.37
1035.116	1036.5
1035.403	1073.56
1035.691	1062.71
1035.979	1058.19
1036.267	1032.2
1036.554	1034.92
1036.842	1034.46
1037.129	1045.31
1037.417	1024.52
1037.704	1020.45
1037.992	997.18
1038.279	1008.02
1038.566	962.38
1038.853	962.38
1039.14	962.38
