Data from hue_280_FLMS001491_00009.txt Node
Date: Tue Feb 07 15:54:44 GMT 2017
User: dcchb
Spectrometer: FLMS00149
Trigger mode: 0
Integration Time (sec): 2.000000E-2
Scans to average: 10
Electric dark correction enabled: true
Nonlinearity correction enabled: false
Boxcar width: 0
XAxis mode: Wavelengths
Number of Pixels in Spectrum: 2048
>>>>>Begin Spectral Data<<<<<
341.393	-6.68
341.776	-6.68
342.16	-6.68
342.543	-74.25
342.927	-67.7
343.31	-76.96
343.693	-76.06
344.077	-82.61
344.46	-71.54
344.843	-59.79
345.226	-42.16
345.61	-21.6
345.993	-30.86
346.376	7.56
346.759	25.18
347.142	21.79
347.525	62.24
347.908	50.04
348.291	88.46
348.674	97.72
349.057	108.57
349.44	117.84
349.823	163.03
350.206	153.99
350.588	181.56
350.971	215.23
351.354	217.04
351.737	233.09
352.119	235.8
352.502	256.59
352.884	266.98
353.267	280.09
353.65	288
354.032	290.71
354.414	309.02
354.797	290.94
355.179	325.06
355.562	334.1
355.944	315.8
356.326	323.03
356.709	353.99
357.091	336.36
357.473	335.01
357.855	346.98
358.238	351.73
358.62	349.92
359.002	318.51
359.384	338.17
359.766	333.2
360.148	327.55
360.53	330.94
360.912	341.78
361.294	314.89
361.676	340.65
362.057	338.62
362.439	319.19
362.821	307.66
363.203	291.16
363.584	309.02
363.966	312.86
364.348	300.88
364.729	321.9
365.111	329.36
365.493	311.5
365.874	327.77
366.256	321.9
366.637	303.59
367.019	299.53
367.4	324.38
367.781	324.38
368.163	305.85
368.544	305.4
368.925	288.68
369.306	310.37
369.688	304.95
370.069	313.76
370.45	304.05
370.831	318.28
371.212	318.51
371.593	319.41
371.974	299.75
372.355	304.27
372.736	306.08
373.117	319.19
373.498	332.29
373.879	327.77
374.26	332.07
374.641	295.68
375.021	300.2
375.402	325.97
375.783	326.42
376.163	318.51
376.544	339.3
376.925	336.14
377.305	326.64
377.686	323.48
378.066	313.54
378.447	327.77
378.827	333.88
379.208	320.09
379.588	327.32
379.968	339.3
380.349	340.65
380.729	320.99
381.109	343.14
381.489	332.97
381.87	329.81
382.25	342.91
382.63	347.21
383.01	336.59
383.39	338.4
383.77	336.81
384.15	343.37
384.53	348.56
384.91	379.3
385.29	359.41
385.67	341.11
386.049	339.3
386.429	326.64
386.809	353.99
387.189	341.56
387.568	353.54
387.948	374.55
388.328	361.9
388.707	385.17
389.087	346.53
389.466	378.85
389.846	354.21
390.225	383.82
390.605	403.25
390.984	382.01
391.363	370.03
391.743	385.4
392.122	366.42
392.501	380.43
392.881	380.2
393.26	393.08
393.639	379.3
394.018	381.11
394.397	401.44
394.776	374.33
395.155	408.68
395.534	405.74
395.913	391.95
396.292	397.83
396.671	402.57
397.05	410.26
397.429	404.38
397.808	420.88
398.186	409.13
398.565	424.49
398.944	426.08
399.323	416.36
399.701	413.65
400.08	388.34
400.458	420.88
400.837	431.05
401.215	423.14
401.594	421.1
401.972	435.79
402.351	431.05
402.729	431.27
403.107	452.74
403.486	441.44
403.864	454.32
404.242	436.47
404.62	473.98
404.999	455
405.377	479.63
405.755	441.22
406.133	472.4
406.511	493.19
406.889	487.32
407.267	477.37
407.645	485.28
408.023	494.32
408.401	494.55
408.779	503.81
409.156	518.5
409.534	507.43
409.912	507.66
410.29	525.73
410.667	548.79
411.045	544.27
411.422	537.49
411.8	541.33
412.178	539.97
412.555	560.31
412.933	558.5
413.31	594.43
413.687	615.68
414.065	590.37
414.442	593.53
414.819	585.62
415.197	608.67
415.574	596.02
415.951	625.17
416.328	659.06
416.705	638.05
417.082	673.75
417.46	661.78
417.837	681.66
418.214	680.31
418.591	662.45
418.967	694.32
419.344	695.9
419.721	705.84
420.098	716.01
420.475	711.94
420.852	714.2
421.228	736.12
421.605	751.72
421.982	749.01
422.358	784.26
422.735	773.19
423.111	782.9
423.488	772.51
423.864	790.59
424.241	807.31
424.617	835.33
424.994	824.71
425.37	835.33
425.746	866.74
426.123	884.14
426.499	871.94
426.875	870.58
427.251	870.36
427.627	918.94
428.003	920.07
428.379	920.07
428.756	935.22
429.132	936.57
429.507	970.92
429.883	941.77
430.259	977.93
430.635	1017.47
431.011	993.52
431.387	967.08
431.763	1029
432.138	1051.37
432.514	1056.12
432.89	1051.14
433.265	1102.44
433.641	1106.74
434.016	1118.71
434.392	1125.04
434.767	1146.96
435.143	1140.86
435.518	1165.72
435.894	1179.05
436.269	1183.8
436.644	1181.76
437.02	1218.37
437.395	1205.49
437.77	1256.11
438.145	1267.86
438.52	1272.83
438.895	1289.33
439.271	1269.22
439.646	1316.9
440.021	1316.22
440.395	1356.67
440.77	1344.92
441.145	1352.15
441.52	1395.99
441.895	1373.85
442.27	1420.63
442.645	1401.42
443.019	1436.22
443.394	1415.88
443.769	1428.99
444.143	1428.54
444.518	1472.83
444.892	1472.6
445.267	1475.09
445.641	1490.46
446.016	1483
446.39	1472.6
446.764	1506.73
447.139	1519.61
447.513	1525.71
447.887	1521.41
448.262	1513.28
448.636	1548.08
449.01	1537.01
449.384	1545.82
449.758	1539.72
450.132	1600.28
450.506	1602.77
450.88	1612.94
451.254	1598.93
451.628	1647.51
452.002	1626.95
452.376	1652.71
452.75	1659.94
453.123	1654.74
453.497	1682.99
453.871	1658.13
454.244	1671.69
454.618	1726.16
454.992	1741.75
455.365	1765.25
455.739	1783.55
456.112	1830.56
456.486	1795.08
456.859	1830.56
457.232	1862.2
457.606	1834.85
457.979	1863.1
458.352	1899.94
458.725	1895.87
459.099	1896.77
459.472	1959.6
459.845	1941.52
460.218	1972.25
460.591	1956.43
460.964	1976.54
461.337	2033.94
461.71	2044.11
462.083	2061.74
462.456	2080.5
462.829	2092.25
463.201	2124.11
463.574	2113.72
463.947	2105.58
464.32	2184
464.692	2177.44
465.065	2178.8
465.438	2187.84
465.81	2262.86
466.183	2248.85
466.555	2277.55
466.928	2282.75
467.3	2288.85
467.672	2311.68
468.045	2416.08
468.417	2390.77
468.789	2376.76
469.161	2422.63
469.534	2455.18
469.906	2506.93
470.278	2523.87
470.65	2536.76
471.022	2588.96
471.394	2590.54
471.766	2611.1
472.138	2653.59
472.51	2675.73
472.882	2714.38
473.253	2719.8
473.625	2778.33
473.997	2808.84
474.369	2814.26
474.74	2847.48
475.112	2864.88
475.484	2926.12
475.855	2953.24
476.227	2976.52
476.598	3048.61
476.97	3047.48
477.341	3120.02
477.713	3142.16
478.084	3183.97
478.455	3205.21
478.827	3247.02
479.198	3322.5
479.569	3293.57
479.94	3411.08
480.311	3418.99
480.682	3467.13
481.053	3495.6
481.424	3554.36
481.795	3593.9
482.166	3636.84
482.537	3638.65
482.908	3715.03
483.279	3751.19
483.65	3826.44
484.021	3872.77
484.391	3878.64
484.762	3902.14
485.133	3908.7
485.503	3990.5
485.874	4047.68
486.244	4046.32
486.615	4143.27
486.985	4171.06
487.356	4262.59
487.726	4262.13
488.097	4323.38
488.467	4316.82
488.837	4392.98
489.207	4441.79
489.578	4484.05
489.948	4526.53
490.318	4595.23
490.688	4584.39
491.058	4635.23
491.428	4694.44
491.798	4734.44
492.168	4823.25
492.538	4825.51
492.908	4865.96
493.278	4919.29
493.648	4851.95
494.017	4945.73
494.387	4968.56
494.757	4980.53
495.126	5029.8
495.496	5026.86
495.866	5066.41
496.235	5098.04
496.605	5122
496.974	5156.12
497.344	5194.31
497.713	5220.98
498.082	5244.71
498.452	5293.07
498.821	5311.37
499.19	5324.25
499.559	5355.44
499.928	5378.71
500.298	5410.35
500.667	5446.51
501.036	5399.05
501.405	5526.28
501.774	5515.89
502.143	5553.85
502.512	5498.03
502.88	5597.24
503.249	5578.48
503.618	5590.23
503.987	5622.78
504.356	5665.26
504.724	5672.72
505.093	5693.51
505.462	5702.77
505.83	5753.85
506.199	5724.02
506.567	5765.37
506.936	5788.65
507.304	5866.84
507.672	5862.32
508.041	5890.34
508.409	5938.02
508.777	5904.58
509.145	5910.23
509.514	5964.69
509.882	5983.22
510.25	5954.74
510.618	5992.26
510.986	6011.47
511.354	6039.71
511.722	6052.6
512.09	6106.15
512.458	6131.24
512.826	6135.53
513.193	6159.48
513.561	6146.15
513.929	6206.49
514.297	6236.32
514.664	6205.59
515.032	6255.53
515.4	6311.12
515.767	6281.06
516.135	6274.06
516.502	6281.52
516.869	6348.86
517.237	6366.26
517.604	6297.11
517.972	6348.63
518.339	6381.4
518.706	6440.38
519.073	6402.19
519.44	6453.94
519.808	6441.06
520.175	6468.63
520.542	6585.24
520.909	6636.76
521.276	6546.59
521.643	6580.94
522.009	6623.88
522.376	6610.77
522.743	6639.02
523.11	6726.25
523.477	6725.35
523.843	6786.14
524.21	6813.71
524.577	6789.52
524.943	6886.02
525.31	6860.71
525.676	6887.6
526.043	6914.72
526.409	6993.36
526.776	7028.84
527.142	7041.72
527.508	7060.25
527.874	7074.26
528.241	7102.06
528.607	7101.38
528.973	7117.88
529.339	7159.68
529.705	7197.65
530.071	7214.82
530.437	7204.2
530.803	7270.87
531.169	7340.02
531.535	7293.01
531.901	7313.8
532.267	7349.96
532.632	7361.04
532.998	7436.06
533.364	7389.96
533.73	7482.61
534.095	7497.75
534.461	7536.62
534.826	7550.18
535.192	7540.01
535.557	7671.54
535.923	7589.5
536.288	7556.96
536.653	7642.16
537.019	7631.99
537.384	7616.62
537.749	7622.72
538.114	7633.34
538.479	7705.66
538.845	7719.9
539.21	7718.09
539.575	7727.81
539.94	7711.76
540.305	7806.22
540.67	7767.13
541.034	7766.67
541.399	7821.36
541.764	7823.85
542.129	7834.92
542.494	7948.36
542.858	7899.55
543.223	7914.02
543.587	7935.26
543.952	7889.38
544.316	7923.51
544.681	7975.71
545.045	7958.08
545.41	8024.97
545.774	7964.41
546.138	8075.14
546.503	8035.82
546.867	8090.06
547.231	8076.72
547.595	8063.84
547.959	8118.08
548.324	8135.25
548.688	8103.61
549.052	8147.68
549.416	8178.41
549.779	8176.61
550.143	8154.23
550.507	8190.39
550.871	8262.48
551.235	8173.67
551.599	8282.59
551.962	8248.92
552.326	8284.4
552.689	8309.03
553.053	8245.98
553.417	8261.58
553.78	8367.11
554.143	8377.05
554.507	8441.23
554.87	8404.62
555.234	8440.1
555.597	8416.83
555.96	8438.52
556.323	8500.21
556.686	8476.94
557.05	8528.69
557.413	8558.07
557.776	8550.38
558.139	8548.12
558.502	8612.75
558.865	8576.82
559.228	8632.41
559.59	8650.04
559.953	8678.97
560.316	8767.55
560.679	8733.88
561.041	8816.14
561.404	8808.45
561.767	8902.92
562.129	8867.89
562.492	8905.18
562.854	8949.69
563.217	8932.75
563.579	8927.55
563.941	8958.28
564.304	9050.93
564.666	9022.91
565.028	9109.92
565.39	9083.48
565.753	9142.91
566.115	9210.93
566.477	9221.78
566.839	9223.81
567.201	9246.41
567.563	9289.35
567.925	9392.17
568.287	9406.63
568.648	9372.96
569.01	9403.24
569.372	9451.15
569.734	9388.1
570.095	9479.17
570.457	9517.36
570.819	9559.17
571.18	9587.64
571.542	9615.67
571.903	9639.39
572.265	9727.3
572.626	9702.22
572.987	9760.29
573.349	9713.97
573.71	9785.15
574.071	9837.13
574.432	9891.59
574.794	9941.76
575.155	9965.03
575.516	9986.28
575.877	10034.64
576.238	10101.53
576.599	10106.73
576.96	10149.89
577.32	10187.85
577.681	10277.34
578.042	10251.35
578.403	10247.97
578.763	10315.31
579.124	10432.59
579.485	10413.84
579.845	10436.43
580.206	10519.37
580.566	10506.49
580.927	10631.23
581.287	10629.42
581.648	10578.8
582.008	10769.76
582.368	10745.81
582.728	10845.92
583.089	10894.95
583.449	10906.93
583.809	10949.87
584.169	11080.71
584.529	11062.86
584.889	11173.82
585.249	11167.94
585.609	11181.27
585.969	11308.73
586.329	11405.67
586.688	11435.05
587.048	11465.79
587.408	11449.06
587.768	11584.65
588.127	11629.85
588.487	11775.38
588.846	11837.3
589.206	11798.66
589.565	11946.23
589.925	11974.93
590.284	12055.38
590.643	12139.67
591.003	12227.35
591.362	12274.58
591.721	12344.86
592.08	12388.7
592.44	12479.54
592.799	12558.41
593.158	12571.29
593.517	12632.31
593.876	12786.2
594.235	12785.53
594.593	12732.42
594.952	12939.87
595.311	12866.43
595.67	12966.31
596.029	13124.05
596.387	13141.67
596.746	13255.57
597.104	13286.08
597.463	13308
597.822	13356.13
598.18	13422.34
598.538	13531.72
598.897	13529.69
599.255	13461.67
599.613	13758.61
599.972	13647.88
600.33	13741.21
600.688	13827.53
601.046	13858.94
601.404	13978.71
601.762	13963.8
602.12	14020.75
602.478	14106.39
602.836	14128.31
603.194	14187.52
603.552	14228.43
603.91	14179.61
604.268	14254.41
604.625	14284.7
604.983	14326.95
605.341	14320.85
605.698	14488.76
606.056	14528.08
606.413	14484.92
606.771	14565.37
607.128	14574.86
607.485	14570.79
607.843	14617.57
608.2	14732.37
608.557	14771.24
608.914	14742.99
609.272	14809.65
609.629	14881.52
609.986	14986.6
610.343	14838.13
610.7	14968.07
611.057	15013.26
611.414	15032.7
611.771	15060.95
612.127	15172.81
612.484	15118.8
612.841	15240.6
613.198	15150.66
613.554	15268.4
613.911	15295.74
614.267	15259.13
614.624	15287.83
614.98	15344.33
615.337	15438.56
615.693	15449.18
616.05	15423.42
616.406	15530.54
616.762	15438.34
617.118	15513.14
617.475	15520.82
617.831	15592.68
618.187	15575.96
618.543	15581.61
618.899	15582.29
619.255	15619.58
619.611	15590.2
619.967	15773.92
620.323	15748.39
620.678	15681.49
621.034	15723.75
621.39	15727.82
621.746	15706.58
622.101	15884.65
622.457	15684.88
622.812	15821.15
623.168	15904.54
623.523	15857.99
623.879	15896.4
624.234	15813.92
624.589	15837.2
624.945	15924.65
625.3	15897.99
625.655	15887.59
626.01	15875.16
626.365	15911.09
626.72	15933.92
627.075	15908.83
627.43	15966.91
627.785	15794.71
628.14	15939.79
628.495	15934.82
628.85	15838.1
629.205	15823.41
629.559	15987.02
629.914	15866.57
630.269	15875.16
630.623	15821.6
630.978	15827.71
631.332	15825.45
631.687	15924.2
632.041	15855.5
632.396	15801.49
632.75	15798.1
633.104	15856.18
633.459	15690.99
633.813	15703.64
634.167	15806.46
634.521	15733.02
634.875	15748.39
635.229	15775.05
635.583	15659.12
635.937	15632.23
636.291	15647.82
636.645	15724.21
636.999	15686.92
637.352	15654.38
637.706	15478.79
638.06	15634.04
638.413	15599.91
638.767	15613.47
639.121	15571.44
639.474	15501.39
639.828	15539.13
640.181	15486.92
640.534	15525.79
640.888	15482.18
641.241	15380.94
641.594	15514.04
641.947	15485.12
642.301	15519.01
642.654	15444.89
643.007	15443.76
643.36	15395.4
643.713	15405.12
644.066	15480.82
644.419	15330.09
644.771	15264.1
645.124	15115.63
645.477	15138.01
645.83	15012.36
646.182	15044.22
646.535	14863.21
646.888	14915.41
647.24	14861.85
647.593	14884.68
647.945	14928.29
648.298	14807.17
648.65	14859.14
649.002	14839.48
649.355	14864.11
649.707	14893.27
650.059	14883.32
650.411	15159.7
650.763	15139.59
651.115	15342.52
651.467	15268.17
651.819	15189.98
652.171	15243.99
652.523	15175.07
652.875	15235.18
653.227	15219.36
653.578	15292.13
653.93	15297.1
654.282	15126.71
654.633	15180.72
654.985	15266.14
655.337	15283.31
655.688	15216.42
656.039	15321.5
656.391	15156.31
656.742	15273.37
657.094	15185.91
657.445	15335.29
657.796	15246.93
658.147	15219.81
658.498	15222.07
658.849	15241.05
659.2	15278.57
659.551	15292.8
659.902	15203.54
660.253	15211.22
660.604	15312.46
660.955	15227.72
661.306	15303.43
661.656	15334.16
662.007	15326.93
662.358	15301.84
662.708	15343.88
663.059	15232.24
663.409	15253.71
663.76	15370.54
664.11	15377.1
664.461	15359.47
664.811	15347.72
665.161	15303.88
665.511	15314.05
665.862	15376.64
666.212	15441.5
666.562	15354.95
666.912	15418.68
667.262	15291
667.612	15308.85
667.962	15458.9
668.312	15334.84
668.662	15401.73
669.011	15282.18
669.361	15279.92
669.711	15269.75
670.06	15252.58
670.41	15261.17
670.76	15258.91
671.109	15265.23
671.459	15216.2
671.808	15205.12
672.157	15218.46
672.507	15164.9
672.856	15172.36
673.205	15243.54
673.554	15195.86
673.904	15107.5
674.253	15239.02
674.602	15216.2
674.951	15008.29
675.3	14884.91
675.649	15191.34
675.998	15107.27
676.346	15081.74
676.695	15155.18
677.044	15043.32
677.393	15140.27
677.741	15084
678.09	15026.14
678.438	15058.01
678.787	15045.35
679.135	14997.67
679.484	14913.38
679.832	14962.42
680.181	14862.53
680.529	14897.79
680.877	14980.5
681.225	14888.29
681.573	15060.49
681.922	14777.34
682.27	14755.64
682.618	14617.57
682.966	14767.62
683.314	14767.39
683.661	14653.5
684.009	14591.81
684.357	14572.15
684.705	14602.65
685.053	14522.2
685.4	14566.95
685.748	14562.65
686.095	14388.2
686.443	14388.42
686.79	14355.2
687.138	14432.04
687.485	14425.48
687.832	14325.82
688.18	14316.11
688.527	14242.66
688.874	14179.84
689.221	14225.04
689.568	14123.57
689.915	14051.71
690.262	14120.63
690.609	14005.15
690.956	13926.29
691.303	13905.72
691.65	13906.4
691.997	13860.75
692.344	13795.44
692.69	13699.85
693.037	13711.83
693.383	13541.89
693.73	13643.13
694.077	13576.01
694.423	13534.88
694.769	13463.93
695.116	13400.2
695.462	13465.28
695.808	13415.79
696.155	13393.19
696.501	13294.44
696.847	13289.69
697.193	13154.56
697.539	13189.81
697.885	13029.59
698.231	13039.08
698.577	12989.14
698.923	13032.07
699.269	12934.9
699.614	12895.8
699.96	12853.32
700.306	12814.45
700.651	12790.27
700.997	12643.16
701.342	12617.62
701.688	12701.23
702.033	12601.35
702.379	12620.78
702.724	12476.38
703.069	12510.28
703.415	12452.65
703.76	12429.6
704.105	12385.54
704.45	12363.39
704.795	12281.58
705.14	12246.1
705.485	12177.86
705.83	12186.9
706.175	12115.26
706.52	12166.56
706.865	12070.29
707.209	12045.43
707.554	11913.91
707.899	11957.75
708.243	11949.62
708.588	11931.31
708.932	11780.58
709.277	11812.9
709.621	11812.22
709.966	11723.86
710.31	11682.96
710.654	11604.31
710.998	11573.81
711.342	11675.72
711.687	11637.98
712.031	11550.08
712.375	11535.61
712.719	11534.71
713.063	11491.77
713.407	11480.47
713.75	11432.11
714.094	11420.59
714.438	11374.49
714.782	11362.51
715.125	11339.69
715.469	11269.63
715.812	11216.75
716.156	11292.46
716.499	11229.86
716.843	11273.93
717.186	11163.2
717.53	11207.94
717.873	11246.81
718.216	11208.17
718.559	11155.29
718.902	11043.2
719.246	11101.28
719.589	11114.38
719.932	11089.3
720.275	11012.69
720.617	10980.38
720.96	11014.27
721.303	11018.79
721.646	11015.85
721.989	11010.88
722.331	10970.43
722.674	10999.81
723.016	10991.22
723.359	10885.24
723.701	10925.91
724.044	10846.14
724.386	10861.28
724.729	10871
725.071	10887.5
725.413	10798.68
725.755	10794.39
726.097	10776.31
726.439	10764.56
726.782	10736.09
727.124	10812.47
727.465	10762.98
727.807	10810.89
728.149	10759.14
728.491	10709.2
728.833	10795.3
729.175	10767.73
729.516	10756.88
729.858	10733.15
730.199	10796.2
730.541	10705.81
730.882	10730.21
731.224	10698.57
731.565	10680.27
731.906	10668.07
732.248	10694.05
732.589	10665.58
732.93	10563.44
733.271	10658.35
733.612	10724.56
733.953	10660.61
734.294	10677.56
734.635	10570.44
734.976	10673.72
735.317	10689.54
735.658	10682.98
735.999	10626.03
736.339	10679.59
736.68	10682.98
737.021	10696.31
737.361	10577.45
737.702	10683.89
738.042	10673.94
738.383	10644.79
738.723	10750.32
739.063	10707.16
739.404	10719.82
739.744	10670.78
740.084	10690.44
740.424	10659.25
740.764	10699.7
741.104	10841.85
741.444	10733.15
741.784	10746.03
742.124	10748.06
742.464	10803.66
742.804	10811.11
743.143	10826.71
743.483	10887.5
743.823	10866.93
744.162	10868.74
744.502	10896.08
744.841	10933.82
745.181	10969.98
745.52	10950.32
745.86	11043.65
746.199	11063.08
746.538	11097.66
746.877	11143.99
747.216	11274.15
747.556	11231.67
747.895	11270.09
748.234	11367.26
748.573	11334.72
748.911	11416.3
749.25	11557.31
749.589	11527.93
749.928	11553.92
750.267	11693.12
750.605	11725.67
750.944	11853.35
751.283	11880.92
751.621	12090.85
751.96	12070.52
752.298	12202.49
752.636	12294.69
752.975	12324.52
753.313	12391.86
753.651	12554.12
753.989	12629.15
754.327	12795.02
754.666	12865.07
755.004	13022.13
755.342	13110.04
755.679	13284.95
756.017	13345.51
756.355	13454.21
756.693	13570.82
757.031	13717.25
757.368	13863.69
757.706	14027.75
758.044	14205.83
758.381	14384.81
758.719	14404.24
759.056	14582.99
759.394	14624.8
759.731	14733.27
760.068	14964
760.405	15104.11
760.743	15264.56
761.08	15381.62
761.417	15540.26
761.754	15627.94
762.091	15751.32
762.428	15903.41
762.765	15993.12
763.102	16186.11
763.438	16386.56
763.775	16438.08
764.112	16663.16
764.449	16790.62
764.785	16897.06
765.122	16989.71
765.458	17139.31
765.795	17161.91
766.131	17357.16
766.467	17475.8
766.804	17565.06
767.14	17628.79
767.476	17880.08
767.812	17905.16
768.148	17978.38
768.485	17973.19
768.821	18099.74
769.157	18204.59
769.492	18278.26
769.828	18445.72
770.164	18443.23
770.5	18478.03
770.836	18628.54
771.171	18693.39
771.507	18694.3
771.842	18709.89
772.178	18965.02
772.513	18884.57
772.849	18957.34
773.184	18935.87
773.519	19015.42
773.855	18963.22
774.19	19008.19
774.525	19058.81
774.86	19199.14
775.195	19188.29
775.53	19238.92
775.865	19163.21
776.2	19240.27
776.535	19104.23
776.87	19247.73
777.205	19193.27
777.539	19235.07
777.874	19338.12
778.209	19214.96
778.543	19228.97
778.878	19187.84
779.212	19276.2
779.547	19202.98
779.881	19361.17
780.215	19243.43
780.55	19352.36
780.884	19276.43
781.218	19225.58
781.552	19345.35
781.886	19208.41
782.22	19182.65
782.554	19222.19
782.888	19036.43
783.222	19134.06
783.556	19090.9
783.889	19103.55
784.223	18933.61
784.557	19017.23
784.89	19046.38
785.224	18979.26
785.557	18931.35
785.891	18874.63
786.224	18917.57
786.558	18891.35
786.891	18807.29
787.224	18752.6
787.557	18626.05
787.891	18727.29
788.224	18651.81
788.557	18691.13
788.89	18641.87
789.223	18632.38
789.556	18476.22
789.888	18433.06
790.221	18380.63
790.554	18337.7
790.887	18359.39
791.219	18283.46
791.552	18224.7
791.884	18141.77
792.217	18201.65
792.549	18205.04
792.882	17951.04
793.214	17988.1
793.546	18022.68
793.879	17919.18
794.211	17824.04
794.543	17883.7
794.875	17864.26
795.207	17895
795.539	17708.33
795.871	17736.81
796.203	17616.58
796.535	17495.91
796.867	17530.03
797.198	17512.18
797.53	17577.72
797.862	17423.37
798.193	17519.86
798.525	17345.41
798.856	17435.8
799.188	17157.61
799.519	17104.96
799.85	17108.35
800.182	17220.66
800.513	17068.58
800.844	16923.04
801.175	17060.44
801.506	17071.51
801.837	16933.89
802.168	16904.06
802.499	16856.38
802.83	16742.48
803.161	16737.96
803.491	16766.44
803.822	16779.09
804.153	16675.82
804.483	16543.17
804.814	16595.14
805.145	16477.63
805.475	16522.83
805.805	16333.91
806.136	16460.68
806.466	16414.58
806.796	16257.52
807.126	16262.72
807.457	16187.7
807.787	16156.06
808.117	16105.21
808.447	16012.33
808.777	16126.23
809.107	15928.04
809.436	16049.17
809.766	15979.11
810.096	15921.94
810.426	15881.72
810.755	15898.66
811.085	15818.21
811.414	15849.63
811.744	15731.44
812.073	15695.28
812.403	15740.25
812.732	15587.71
813.061	15705.67
813.39	15592.01
813.719	15523.76
814.049	15572.8
814.378	15524.89
814.707	15485.57
815.036	15410.77
815.365	15422.07
815.693	15272.24
816.022	15252.35
816.351	15287.15
816.68	15115.18
817.008	15201.51
817.337	15073.6
817.665	15003.55
817.994	15117.67
818.322	15131.9
818.651	14961.29
818.979	14974.39
819.307	15107.27
819.636	14996.54
819.964	14851.46
820.292	14869.54
820.62	14833.83
820.948	14802.42
821.276	14875.87
821.604	14803.33
821.932	14842.19
822.259	14801.07
822.587	14730.56
822.915	14825.7
823.243	14924
823.57	14787.05
823.898	14889.2
824.225	14801.07
824.553	14750.45
824.88	14767.85
825.207	14905.92
825.535	14775.98
825.862	14778.47
826.189	14819.82
826.516	14869.31
826.843	14866.37
827.17	14890.33
827.497	14823.89
827.824	14881.29
828.151	14854.4
828.478	14852.82
828.805	14986.37
829.131	14746.15
829.458	14712.03
829.785	14690.56
830.111	14810.56
830.438	14887.17
830.764	14827.05
831.09	14857.56
831.417	14659.37
831.743	14820.73
832.069	14818.69
832.395	14759.26
832.722	14813.27
833.048	14649.66
833.374	14784.79
833.7	14710.67
834.026	14691.69
834.351	14724.91
834.677	14654.18
835.003	14766.94
835.329	14679.49
835.654	14672.03
835.98	14506.38
836.306	14623.9
836.631	14601.75
836.956	14604.01
837.282	14574.18
837.607	14523.56
837.932	14578.02
838.258	14449.21
838.583	14465.48
838.908	14404.47
839.233	14361.08
839.558	14373.28
839.883	14312.04
840.208	14322.21
840.533	14347.74
840.858	14283.34
841.182	14313.17
841.507	14274.53
841.832	14254.41
842.156	14186.84
842.481	14155.21
842.805	14130.35
843.13	14090.12
843.454	14100.75
843.778	14009.67
844.103	13983.69
844.427	13942.56
844.751	13933.07
845.075	13861.88
845.399	13861.43
845.723	13685.61
846.047	13893.74
846.371	13690.81
846.695	13646.52
847.019	13599.29
847.343	13514.09
847.666	13465.96
847.99	13402.68
848.313	13366.75
848.637	13294.89
848.96	13260.54
849.284	13220.99
849.607	13115.91
849.931	13124.73
850.254	13054.9
850.577	12909.14
850.9	12950.49
851.223	12912.3
851.546	12842.02
851.869	12787.56
852.192	12872.53
852.515	12672.31
852.838	12643.38
853.161	12588.69
853.483	12538.07
853.806	12529.49
854.129	12562.48
854.451	12437.06
854.774	12466.66
855.096	12375.59
855.419	12385.08
855.741	12401.13
856.063	12251.53
856.385	12270.06
856.708	12122.94
857.03	12143.96
857.352	12181.02
857.674	12025.09
857.996	12011.08
858.318	11971.31
858.64	11910.29
858.961	11855.61
859.283	11844.53
859.605	11845.66
859.926	11876.62
860.248	11818.77
860.57	11767.7
860.891	11744.2
861.212	11737.42
861.534	11600.25
861.855	11645.67
862.176	11652.22
862.498	11679.57
862.819	11659.23
863.14	11617.87
863.461	11528.38
863.782	11509.4
864.103	11533.58
864.424	11484.77
864.745	11555.5
865.065	11416.97
865.386	11439.12
865.707	11371.33
866.027	11469.85
866.348	11339.91
866.668	11415.17
866.989	11276.64
867.309	11297.65
867.63	11263.98
867.95	11270.54
868.27	11140.82
868.59	11249.07
868.91	11143.99
869.23	11162.29
869.55	11136.98
869.87	11139.92
870.19	11096.08
870.51	11099.92
870.83	11135.17
871.15	11042.52
871.469	10989.64
871.789	11120.94
872.109	11021.5
872.428	10951.45
872.748	10967.04
873.067	10961.84
873.386	10966.59
873.706	10957.32
874.025	10855.41
874.344	10882.07
874.663	10903.32
874.982	10879.81
875.301	10837.1
875.62	10790.55
875.939	10783.32
876.258	10790.32
876.577	10793.26
876.896	10771.57
877.214	10760.04
877.533	10631.46
877.852	10680.95
878.17	10671.46
878.489	10610.22
878.807	10649.31
879.125	10651.12
879.444	10592.81
879.762	10554.85
880.08	10581.74
880.398	10573.38
880.716	10567.5
881.034	10520.5
881.352	10480.05
881.67	10487.96
881.988	10428.07
882.306	10418.36
882.624	10331.13
882.941	10310.79
883.259	10297.68
883.577	10273.05
883.894	10303.78
884.212	10310.11
884.529	10279.83
884.846	10215.42
885.164	10098.59
885.481	10115.31
885.798	10158.25
886.115	10097.23
886.432	10134.52
886.75	10118.48
887.067	10100.17
887.383	10023.11
887.7	10034.41
888.017	9953.74
888.334	9899.5
888.651	9944.02
888.967	9912.61
889.284	9860.63
889.6	9834.64
889.917	9791.03
890.233	9806.62
890.55	9719.17
890.866	9823.12
891.182	9643.24
891.498	9604.59
891.815	9642.33
892.131	9633.97
892.447	9561.66
892.763	9541.99
893.079	9565.27
893.395	9470.58
893.71	9555.33
894.026	9514.88
894.342	9434.43
894.657	9340.64
894.973	9381.77
895.289	9353.53
895.604	9390.81
895.92	9304.94
896.235	9191.04
896.55	9180.2
896.865	9221.33
897.181	9170.03
897.496	9162.8
897.811	9059.07
898.126	9084.15
898.441	9017.71
898.756	8900.43
899.071	8925.51
899.386	8964.61
899.7	8877.38
900.015	8825.86
900.33	8834.22
900.644	8764.61
900.959	8766.87
901.273	8716.03
901.588	8624.73
901.902	8640.78
902.216	8628.35
902.531	8624.28
902.845	8565.07
903.159	8514.23
903.473	8499.54
903.787	8455.7
904.101	8388.58
904.415	8405.75
904.729	8390.16
905.042	8250.96
905.356	8258.19
905.67	8302.48
905.984	8245.98
906.297	8208.7
906.611	8170.05
906.924	8114.69
907.237	8123.73
907.551	8067.68
907.864	8092.99
908.177	8003.96
908.491	7997.63
908.804	7932.32
909.117	7954.01
909.43	7912.43
909.743	7834.47
910.056	7861.14
910.368	7782.27
910.681	7726.68
910.994	7738.43
911.307	7729.16
911.619	7663.85
911.932	7696.62
912.244	7654.13
912.557	7655.26
912.869	7559.45
913.181	7479.22
913.494	7514.7
913.806	7462.95
914.118	7469.51
914.43	7393.35
914.742	7351.54
915.054	7285.56
915.366	7311.32
915.678	7315.61
915.99	7271.77
916.302	7164.66
916.613	7156.97
916.925	7146.13
917.236	7113.36
917.548	7134.37
917.859	7055.73
918.171	7055.28
918.482	6961.05
918.794	6970.31
919.105	6921.72
919.416	6894.61
919.727	6911.56
920.038	6852.12
920.349	6831.33
920.66	6818
920.971	6812.12
921.282	6751.11
921.593	6691.9
921.903	6674.5
922.214	6628.63
922.525	6674.27
922.835	6597.89
923.146	6597.89
923.456	6542.07
923.767	6526.71
924.077	6572.58
924.387	6469.76
924.697	6439.03
925.008	6428.4
925.318	6371
925.628	6349.54
925.938	6333.04
926.248	6293.49
926.558	6280.84
926.867	6295.75
927.177	6239.71
927.487	6175.53
927.796	6176.66
928.106	6182.99
928.416	6127.17
928.725	6124.23
929.034	6084.23
929.344	6116.77
929.653	6064.12
929.962	6012.82
930.271	5985.93
930.581	5952.48
930.89	5890.79
931.199	5922.88
931.508	5859.61
931.817	5878.14
932.125	5858.93
932.434	5823.9
932.743	5790
933.051	5694.41
933.36	5710.46
933.669	5694.41
933.977	5615.54
934.286	5639.05
934.594	5629.78
934.902	5622.1
935.21	5591.59
935.519	5632.27
935.827	5551.59
936.135	5504.36
936.443	5446.51
936.751	5472.27
937.059	5468.43
937.367	5457.81
937.674	5455.55
937.982	5410.58
938.29	5338.72
938.597	5368.32
938.905	5292.16
939.213	5220.53
939.52	5307.76
939.827	5306.85
940.135	5243.12
940.442	5200.41
940.749	5226.18
941.056	5236.35
941.363	5170.36
941.67	5079.29
941.977	5124.71
942.284	5076.12
942.591	5064.6
942.898	5042.9
943.205	5046.07
943.511	5008.78
943.818	4990.7
944.125	4933.98
944.431	4946.18
944.738	4907.31
945.044	4896.69
945.35	4834.1
945.657	4822.8
945.963	4813.53
946.269	4762.69
946.575	4782.35
946.881	4769.46
947.187	4752.97
947.493	4684.27
947.799	4637.94
948.105	4676.59
948.41	4694.44
948.716	4656.93
949.022	4615.12
949.327	4638.17
949.633	4559.3
949.938	4569.02
950.244	4602.46
950.549	4520.66
950.854	4509.58
951.16	4471.39
951.465	4472.75
951.77	4442.92
952.075	4378.51
952.38	4373.09
952.685	4343.71
952.99	4321.57
953.294	4301.91
953.599	4331.74
953.904	4282.47
954.209	4273.21
954.513	4273.66
954.818	4240.21
955.122	4234.11
955.426	4220.33
955.731	4195.92
956.035	4178.07
956.339	4131.29
956.643	4155.24
956.948	4075.25
957.252	4074.12
957.556	4068.69
957.86	4022.82
958.163	4059.88
958.467	4059.2
958.771	4014
959.075	4012.65
959.378	3957.96
959.682	3968.58
959.985	3971.97
960.289	3885.19
960.592	3924.97
960.896	3878.41
961.199	3888.81
961.502	3882.03
961.805	3837.29
962.108	3832.09
962.411	3847.46
962.714	3809.49
963.017	3766.55
963.32	3778.3
963.623	3762.26
963.926	3705.76
964.228	3742.83
964.531	3704.18
964.833	3657.86
965.136	3596.16
965.438	3625.31
965.741	3585.54
966.043	3584.86
966.345	3576.95
966.648	3541.47
966.95	3562.72
967.252	3527.24
967.554	3515.71
967.856	3518.42
968.158	3497.63
968.46	3516.16
968.761	3478.88
969.063	3446.34
969.365	3449.05
969.666	3433
969.968	3350.75
970.269	3382.16
970.571	3363.63
970.872	3334.25
971.174	3348.26
971.475	3362.04
971.776	3324.76
972.077	3312.55
972.378	3306.9
972.679	3273.01
972.98	3273.01
973.281	3270.97
973.582	3262.16
973.883	3221.94
974.183	3193.01
974.484	3190.3
974.785	3142.62
975.085	3169.06
975.386	3170.19
975.686	3190.52
975.986	3140.36
976.287	3141.71
976.587	3071.66
976.887	3104.42
977.187	3088.38
977.487	3054.48
977.787	3037.99
978.087	3016.97
978.387	3003.18
978.687	3037.99
978.987	2983.3
979.286	2971.32
979.586	2972.22
979.885	2924.32
980.185	2968.83
980.484	2944.88
980.784	2903.98
981.083	2910.08
981.382	2884.99
981.682	2845.45
981.981	2872.79
982.28	2872.11
982.579	2802.74
982.878	2837.31
983.177	2833.7
983.475	2805
983.774	2767.26
984.073	2774.49
984.372	2762.74
984.67	2731.1
984.969	2758.9
985.267	2720.25
985.566	2742.17
985.864	2710.54
986.162	2680.71
986.461	2682.51
986.759	2642.29
987.057	2629.18
987.355	2628.05
987.653	2622.63
987.951	2605.68
988.249	2615.62
988.547	2615.62
988.844	2582.63
989.142	2533.82
989.44	2598.45
989.737	2534.04
990.035	2528.17
990.332	2510.99
990.63	2502.41
990.927	2485.01
991.224	2477.1
991.521	2469.19
991.819	2478.9
992.116	2468.28
992.413	2438.23
992.71	2406.36
993.006	2425.57
993.303	2415.18
993.6	2373.14
993.897	2382.86
994.193	2390.09
994.49	2328.85
994.787	2344.44
995.083	2370.21
995.379	2344.67
995.676	2316.2
995.972	2303.09
996.268	2267.61
996.565	2267.16
996.861	2272.13
997.157	2217.22
997.453	2255.86
997.749	2245.24
998.044	2246.37
998.34	2192.58
998.636	2191.68
998.932	2200.72
999.227	2145.58
999.523	2136.09
999.818	2115.52
1000.114	2134.28
1000.409	2131.57
1000.704	2098.12
1001	2082.53
1001.295	2104.68
1001.59	2085.69
1001.885	2073.49
1002.18	2055.19
1002.475	2068.29
1002.77	2050.67
1003.065	2041.63
1003.359	2025.81
1003.654	2007.28
1003.949	1974.96
1004.243	1986.94
1004.538	1957.56
1004.832	1932.03
1005.127	1949.88
1005.421	1936.55
1005.715	1907.62
1006.009	1939.71
1006.304	1925.92
1006.598	1903.1
1006.892	1914.85
1007.186	1868.07
1007.48	1863.55
1007.773	1883.89
1008.067	1831.92
1008.361	1807.28
1008.655	1792.14
1008.948	1800.28
1009.242	1779.94
1009.535	1795.53
1009.829	1791.46
1010.122	1785.59
1010.415	1755.08
1010.708	1753.95
1011.001	1743.56
1011.295	1748.08
1011.588	1709.66
1011.881	1703.1
1012.173	1670.34
1012.466	1716.66
1012.759	1706.27
1013.052	1670.79
1013.344	1665.37
1013.637	1643.67
1013.93	1641.64
1014.222	1628.53
1014.514	1635.08
1014.807	1600.96
1015.099	1586.72
1015.391	1620.17
1015.683	1590.11
1015.976	1559.83
1016.268	1572.94
1016.56	1534.52
1016.851	1508.31
1017.143	1494.07
1017.435	1568.65
1017.727	1522.77
1018.018	1542.88
1018.31	1491.13
1018.602	1499.04
1018.893	1483.9
1019.185	1479.61
1019.476	1440.74
1019.767	1448.65
1020.058	1425.15
1020.35	1432.38
1020.641	1439.16
1020.932	1427.18
1021.223	1392.38
1021.514	1395.77
1021.804	1355.32
1022.095	1379.27
1022.386	1359.16
1022.677	1365.94
1022.967	1343.57
1023.258	1330.91
1023.548	1327.97
1023.839	1325.71
1024.129	1306.51
1024.419	1324.13
1024.709	1290.01
1025	1280.07
1025.29	1271.93
1025.58	1266.05
1025.87	1264.02
1026.16	1247.3
1026.449	1251.14
1026.739	1242.55
1027.029	1221.99
1027.319	1192.38
1027.608	1223.12
1027.898	1217.92
1028.187	1195.32
1028.477	1195.77
1028.766	1190.35
1029.055	1156.68
1029.344	1180.41
1029.634	1169.33
1029.923	1155.1
1030.212	1132.27
1030.501	1141.54
1030.79	1143.57
1031.078	1130.24
1031.367	1121.88
1031.656	1135.44
1031.945	1109.45
1032.233	1109.67
1032.522	1083.46
1032.81	1088.21
1033.099	1082.56
1033.387	1072.39
1033.675	1069.68
1033.963	1068.77
1034.251	1073.74
1034.54	1033.29
1034.828	1035.55
1035.116	1023.57
1035.403	1017.47
1035.691	1003.69
1035.979	985.38
1036.267	990.36
1036.554	991.71
1036.842	995.78
1037.129	983.58
1037.417	976.8
1037.704	975.89
1037.992	984.25
1038.279	959.85
1038.566	949.45
1038.853	949.45
1039.14	949.45
