Data from hue_150_FLMS001491_00045.txt Node
Date: Tue Feb 07 16:54:06 GMT 2017
User: dcchb
Spectrometer: FLMS00149
Trigger mode: 0
Integration Time (sec): 2.000000E-2
Scans to average: 10
Electric dark correction enabled: true
Nonlinearity correction enabled: false
Boxcar width: 0
XAxis mode: Wavelengths
Number of Pixels in Spectrum: 2048
>>>>>Begin Spectral Data<<<<<
341.393	-28.83
341.776	-28.83
342.16	-28.83
342.543	-68.6
342.927	-62.95
343.31	-75.83
343.693	-67.92
344.077	-58.2
344.46	-69.05
344.843	-59.56
345.226	-30.86
345.61	-37.64
345.993	-9.17
346.376	-27.7
346.759	31.28
347.142	15.69
347.525	39.87
347.908	60.89
348.291	85.97
348.674	93.2
349.057	109.02
349.44	109.7
349.823	142.69
350.206	161.68
350.588	184.95
350.971	195.57
351.354	222.01
351.737	230.38
352.119	245.06
352.502	249.58
352.884	241.67
353.267	274.89
353.65	272.18
354.032	281.22
354.414	296.14
354.797	298.62
355.179	320.09
355.562	304.05
355.944	313.31
356.326	331.39
356.709	317.38
357.091	322.12
357.473	335.46
357.855	305.63
358.238	334.55
358.62	321.45
359.002	330.03
359.384	325.74
359.766	328.23
360.148	328.68
360.53	316.47
360.912	321.22
361.294	321.67
361.676	329.81
362.057	298.62
362.439	327.77
362.821	328
363.203	318.73
363.584	295.91
363.966	329.58
364.348	310.15
364.729	332.07
365.111	316.47
365.493	324.61
365.874	315.34
366.256	305.4
366.637	297.49
367.019	303.59
367.4	310.37
367.781	319.64
368.163	320.32
368.544	328.9
368.925	294.33
369.306	324.61
369.688	302.01
370.069	302.46
370.45	306.31
370.831	301.11
371.212	293.65
371.593	294.33
371.974	300.66
372.355	286.65
372.736	305.4
373.117	317.15
373.498	291.84
373.879	306.31
374.26	319.86
374.641	326.87
375.021	298.17
375.402	326.19
375.783	298.17
376.163	318.51
376.544	320.32
376.925	302.69
377.305	313.99
377.686	300.66
378.066	317.83
378.447	324.84
378.827	346.76
379.208	334.33
379.588	348.11
379.968	321.9
380.349	344.72
380.729	327.32
381.109	325.97
381.489	328.68
381.87	308.34
382.25	315.8
382.63	332.52
383.01	329.13
383.39	315.8
383.77	321.67
384.15	332.75
384.53	343.37
384.91	355.57
385.29	334.78
385.67	341.56
386.049	341.33
386.429	337.27
386.809	350.6
387.189	352.86
387.568	344.04
387.948	346.76
388.328	351.05
388.707	342.46
389.087	358.28
389.466	337.49
389.846	381.11
390.225	369.13
390.605	359.86
390.984	366.19
391.363	371.39
391.743	375.91
392.122	360.09
392.501	373.65
392.881	381.78
393.26	365.96
393.639	372.07
394.018	370.94
394.397	359.41
394.776	366.64
395.155	377.72
395.534	385.17
395.913	374.1
396.292	390.15
396.671	387.66
397.05	399.18
397.429	378.39
397.808	400.31
398.186	370.71
398.565	400.31
398.944	376.13
399.323	396.25
399.701	396.7
400.08	385.63
400.458	396.92
400.837	381.33
401.215	382.24
401.594	386.3
401.972	415.91
402.351	412.07
402.729	389.69
403.107	406.19
403.486	400.31
403.864	420.2
404.242	424.95
404.62	431.73
404.999	417.26
405.377	422.69
405.755	405.29
406.133	416.13
406.511	419.75
406.889	412.29
407.267	431.27
407.645	419.07
408.023	436.02
408.401	442.8
408.779	425.4
409.156	444.61
409.534	430.82
409.912	468.34
410.29	476.92
410.667	452.74
411.045	485.06
411.422	465.62
411.8	467.21
412.178	463.82
412.555	474.66
412.933	459.75
413.31	483.25
413.687	482.12
414.065	514.44
414.442	499.52
414.819	488.22
415.197	502.23
415.574	517.15
415.951	480.99
416.328	509.01
416.705	510.37
417.082	506.53
417.46	505.17
417.837	523.02
418.214	527.32
418.591	528.45
418.967	525.28
419.344	546.75
419.721	530.48
420.098	533.64
420.475	558.05
420.852	568.45
421.228	528.45
421.605	553.08
421.982	527.99
422.358	540.88
422.735	545.85
423.111	571.84
423.488	563.93
423.864	551.27
424.241	579.74
424.617	577.03
424.994	578.39
425.37	589.46
425.746	585.39
426.123	604.15
426.499	596.92
426.875	598.05
427.251	626.3
427.627	597.82
428.003	608.44
428.379	624.26
428.756	620.87
429.132	646.18
429.507	642.34
429.883	615.45
430.259	660.42
430.635	646.41
431.011	663.36
431.387	682.34
431.763	662
432.138	665.17
432.514	670.82
432.89	690.93
433.265	676.01
433.641	681.21
434.016	691.61
434.392	737.48
434.767	714.2
435.143	726.18
435.518	732.51
435.894	724.37
436.269	736.58
436.644	757.59
437.02	747.42
437.395	769.8
437.77	756.92
438.145	783.58
438.52	763.92
438.895	793.52
439.271	771.38
439.646	807.76
440.021	785.16
440.395	800.76
440.77	833.98
441.145	827.42
441.52	831.49
441.895	847.31
442.27	855.67
442.645	855.9
443.019	871.71
443.394	870.13
443.769	864.48
444.143	880.08
444.518	859.06
444.892	859.74
445.267	889.79
445.641	892.73
446.016	908.55
446.39	874.43
446.764	909.68
447.139	925.95
447.513	925.5
447.887	919.62
448.262	923.01
448.636	926.4
449.01	941.32
449.384	933.41
449.758	967.08
450.132	951.94
450.506	966.85
450.88	989.23
451.254	976.57
451.628	995.1
452.002	1007.3
452.376	1014.31
452.75	1025.61
453.123	1011.15
453.497	1026.96
453.871	1024.7
454.244	1053.86
454.618	1060.18
454.992	1090.24
455.365	1078.04
455.739	1125.27
456.112	1113.52
456.486	1148.09
456.859	1135.21
457.232	1171.82
457.606	1155.55
457.979	1189.9
458.352	1197.81
458.725	1207.98
459.099	1227.41
459.472	1238.48
459.845	1254.3
460.218	1250.01
460.591	1268.31
460.964	1303.57
461.337	1308.99
461.71	1346.73
462.083	1340.85
462.456	1362.77
462.829	1411.14
463.201	1361.64
463.574	1395.77
463.947	1446.61
464.32	1457.69
464.692	1479.61
465.065	1473.28
465.438	1520.74
465.81	1499.72
466.183	1543.34
466.555	1572.49
466.928	1594.86
467.3	1598.47
467.672	1626.95
468.045	1671.92
468.417	1660.39
468.789	1693.84
469.161	1687.51
469.534	1737.91
469.906	1810.22
470.278	1849.54
470.65	1843.44
471.022	1901.97
471.394	1928.86
471.766	1920.73
472.138	1993.72
472.51	2052.02
472.882	2072.36
473.253	2133.15
473.625	2160.04
473.997	2223.32
474.369	2224
474.74	2299.7
475.112	2339.47
475.484	2428.74
475.855	2465.12
476.227	2505.8
476.598	2589.64
476.97	2608.62
477.341	2699.69
477.713	2762.51
478.084	2824.88
478.455	2906.69
478.827	2955.95
479.198	3087.7
479.569	3098.32
479.94	3221.48
480.311	3273.46
480.682	3369.05
481.053	3478.88
481.424	3546.22
481.795	3668.03
482.166	3716.39
482.537	3804.52
482.908	3910.73
483.279	4002.03
483.65	4133.55
484.021	4262.81
484.391	4349.59
484.762	4461.22
485.133	4490.38
485.503	4637.94
485.874	4763.82
486.244	4847.43
486.615	5027.09
486.985	5126.97
487.356	5244.71
487.726	5413.52
488.097	5511.82
488.467	5558.14
488.837	5715.88
489.207	5907.29
489.578	6025.7
489.948	6076.78
490.318	6262.08
490.688	6382.3
491.058	6500.49
491.428	6680.83
491.798	6831.33
492.168	6967.83
492.538	7104.77
492.908	7186.12
493.278	7349.51
493.648	7408.94
494.017	7565.1
494.387	7687.81
494.757	7840.12
495.126	7971.87
495.496	8023.62
495.866	8130.73
496.235	8290.5
496.605	8453.21
496.974	8522.59
497.344	8616.6
497.713	8768.23
498.082	8897.94
498.452	8956.02
498.821	9041.9
499.19	9135.68
499.559	9291.15
499.928	9359.4
500.298	9478.95
500.667	9623.12
501.036	9632.61
501.405	9763.46
501.774	9769.11
502.143	9914.87
502.512	9996.22
502.88	10059.27
503.249	10121.64
503.618	10220.17
503.987	10295.65
504.356	10369.77
504.724	10514.62
505.093	10504
505.462	10577.45
505.83	10642.3
506.199	10801.17
506.567	10897.67
506.936	10942.18
507.304	11035.06
507.672	11073.25
508.041	11122.07
508.409	11211.1
508.777	11306.47
509.145	11340.37
509.514	11387.82
509.882	11531.32
510.25	11494.49
510.618	11615.39
510.986	11524.99
511.354	11724.08
511.722	11808.6
512.09	11851.76
512.458	11846.79
512.826	11973.57
513.193	12051.53
513.561	11919.33
513.929	12106
514.297	12148.03
514.664	12159.78
515.032	12125.88
515.4	12275.03
515.767	12342.83
516.135	12410.39
516.502	12334.69
516.869	12474.12
517.237	12430.73
517.604	12449.72
517.972	12554.35
518.339	12591.63
518.706	12591.86
519.073	12540.11
519.44	12701.46
519.808	12689.48
520.175	12718.18
520.542	12818.29
520.909	12781.01
521.276	12833.89
521.643	12912.75
522.009	12950.04
522.376	13031.62
522.743	13061.22
523.11	13074.78
523.477	13148.45
523.843	13268.22
524.21	13289.24
524.577	13249.69
524.943	13367.88
525.31	13375.34
525.676	13435.23
526.043	13436.58
526.409	13437.26
526.776	13420.76
527.142	13467.77
527.508	13471.61
527.874	13529.01
528.241	13585.96
528.607	13454.66
528.973	13627.76
529.339	13550.25
529.705	13709.34
530.071	13741.43
530.437	13614.66
530.803	13773.3
531.169	13697.59
531.535	13619.63
531.901	13712.05
532.267	13666.18
532.632	13590.02
532.998	13722.68
533.364	13659.4
533.73	13681.55
534.095	13725.61
534.461	13650.59
534.826	13670.93
535.192	13646.07
535.557	13731.04
535.923	13619.18
536.288	13591.61
536.653	13683.35
537.019	13570.36
537.384	13533.08
537.749	13585.73
538.114	13481.78
538.479	13466.41
538.845	13532.85
539.21	13431.84
539.575	13378.96
539.94	13357.04
540.305	13458.73
540.67	13319.52
541.034	13288.79
541.399	13364.49
541.764	13297.83
542.129	13358.39
542.494	13208.34
542.858	13177.15
543.223	13173.76
543.587	13098.29
543.952	13133.31
544.316	13176.25
544.681	13100.32
545.045	13051.28
545.41	13106.19
545.774	13043.6
546.138	12988.91
546.503	13003.6
546.867	12982.58
547.231	12901.45
547.595	12900.1
547.959	12850.61
548.324	12844.96
548.688	12911.4
549.052	12812.19
549.416	12799.76
549.779	12714.57
550.143	12650.39
550.507	12706.66
550.871	12738.97
551.235	12593.21
551.599	12665.08
551.962	12667.56
552.326	12654.23
552.689	12657.39
553.053	12496.49
553.417	12487.68
553.78	12594.57
554.143	12425.76
554.507	12516.61
554.87	12536.49
555.234	12570.62
555.597	12455.59
555.96	12426.21
556.323	12476.83
556.686	12468.25
557.05	12492.2
557.413	12456.95
557.776	12394.35
558.139	12392.77
558.502	12428.02
558.865	12399.09
559.228	12416.5
559.59	12500.34
559.953	12480.45
560.316	12474.57
560.679	12432.09
561.041	12417.4
561.404	12441.81
561.767	12536.04
562.129	12432.31
562.492	12489.49
562.854	12578.75
563.217	12452.65
563.579	12400.45
563.941	12429.38
564.304	12514.12
564.666	12557.28
565.028	12553.67
565.39	12456.95
565.753	12528.58
566.115	12537.4
566.477	12562.25
566.839	12621.69
567.201	12593.21
567.563	12540.56
567.925	12635.92
568.287	12589.15
568.648	12609.26
569.01	12667.34
569.372	12748.24
569.734	12657.17
570.095	12671.18
570.457	12690.39
570.819	12701.23
571.18	12773.77
571.542	12717.28
571.903	12715.24
572.265	12841.12
572.626	12830.72
572.987	12856.03
573.349	12814.68
573.71	12806.99
574.071	12841.57
574.432	12877.27
574.794	12899.42
575.155	12843.6
575.516	12766.09
575.877	12897.84
576.238	13008.34
576.599	12892.19
576.96	12918.63
577.32	12881.79
577.681	12988.01
578.042	13001.34
578.403	12926.54
578.763	12928.12
579.124	12856.03
579.485	12894.22
579.845	12917.95
580.206	12922.47
580.566	12951.4
580.927	12943.04
581.287	12956.14
581.648	12907.33
582.008	13035.46
582.368	12991.85
582.728	13057.83
583.089	12923.15
583.449	13022.36
583.809	12934.9
584.169	12975.58
584.529	12962.7
584.889	12998.4
585.249	12879.53
585.609	12862.36
585.969	12871.4
586.329	12872.3
586.688	12877.05
587.048	12878.86
587.408	12858.52
587.768	12821.91
588.127	12819.42
588.487	12789.82
588.846	12915.47
589.206	12754.57
589.565	12821
589.925	12858.07
590.284	12869.59
590.643	12888.57
591.003	12848.12
591.362	12833.21
591.721	12840.67
592.08	12802.7
592.44	12846.09
592.799	12833.66
593.158	12874.34
593.517	12753.44
593.876	12860.55
594.235	12740.78
594.593	12751.85
594.952	12745.07
595.311	12736.04
595.67	12627.79
596.029	12739.2
596.387	12827.56
596.746	12670.27
597.104	12718.41
597.463	12662.59
597.822	12718.18
598.18	12655.59
598.538	12665.98
598.897	12779.2
599.255	12641.57
599.613	12744.85
599.972	12734.23
600.33	12764.06
600.688	12587.79
601.046	12720.22
601.404	12673.44
601.762	12749.14
602.12	12769.93
602.478	12763.15
602.836	12813.77
603.194	12736.49
603.552	12771.74
603.91	12733.55
604.268	12733.78
604.625	12719.09
604.983	12755.7
605.341	12724.51
605.698	12753.44
606.056	12767.9
606.413	12708.47
606.771	12781.91
607.128	12711.4
607.485	12681.35
607.843	12711.18
608.2	12767.9
608.557	12781.23
608.914	12701.46
609.272	12784.4
609.629	12832.53
609.986	12894.9
610.343	12815.58
610.7	12879.99
611.057	12875.01
611.414	12840.21
611.771	12862.13
612.127	12930.61
612.484	12894.22
612.841	12944.17
613.198	12932.64
613.554	12918.4
613.911	12904.39
614.267	12955.69
614.624	12988.46
614.98	12961.34
615.337	12964.05
615.693	13009.02
616.05	13002.02
616.406	12983.94
616.762	12909.59
617.118	12848.12
617.475	12948.91
617.831	13013.77
618.187	13043.6
618.543	13020.1
618.899	13137.61
619.255	13025.75
619.611	13075.91
619.967	13069.36
620.323	13132.41
620.678	13179.87
621.034	13074.11
621.39	13111.17
621.746	13079.75
622.101	13144.39
622.457	13081.56
622.812	13141.22
623.168	13123.82
623.523	13122.47
623.879	13245.17
624.234	13077.5
624.589	13114.56
624.945	13172.18
625.3	13166.76
625.655	13141
626.01	13122.47
626.365	13097.61
626.72	13105.07
627.075	13116.59
627.43	13042.92
627.785	12982.13
628.14	13096.93
628.495	13185.06
628.85	13036.14
629.205	13048.57
629.559	13114.78
629.914	13058.74
630.269	13090.83
630.623	12957.72
630.978	12967.44
631.332	13070.49
631.687	13014.22
632.041	12976.03
632.396	12999.53
632.75	12896.03
633.104	12973.77
633.459	12948.46
633.813	12933.32
634.167	12928.35
634.521	12829.59
634.875	12873.21
635.229	12902.13
635.583	12809.48
635.937	12855.35
636.291	12750.95
636.645	12851.29
636.999	12744.4
637.352	12848.57
637.706	12764.28
638.06	12773.55
638.413	12731.06
638.767	12647.22
639.121	12652.2
639.474	12626.43
639.828	12623.72
640.181	12693.78
640.534	12693.55
640.888	12618.3
641.241	12561.8
641.594	12598.19
641.947	12613.55
642.301	12552.31
642.654	12613.78
643.007	12598.86
643.36	12612.65
643.713	12550.73
644.066	12647.45
644.419	12491.97
644.771	12457.17
645.124	12293.79
645.477	12352.77
645.83	12228.48
646.182	12178.99
646.535	12150.97
646.888	12181.02
647.24	12059.44
647.593	12212.43
647.945	12167.24
648.298	12044.08
648.65	12037.07
649.002	12045.21
649.355	12183.51
649.707	12042.72
650.059	12213.79
650.411	12374.01
650.763	12326.55
651.115	12470.73
651.467	12428.25
651.819	12443.61
652.171	12379.21
652.523	12418.53
652.875	12362.26
653.227	12300.57
653.578	12481.35
653.93	12374.69
654.282	12340.11
654.633	12328.14
654.985	12366.33
655.337	12377.4
655.688	12292.66
656.039	12437.06
656.391	12279.32
656.742	12313.22
657.094	12416.95
657.445	12322.03
657.796	12357.51
658.147	12294.01
658.498	12263.51
658.849	12389.83
659.2	12293.33
659.551	12266.22
659.902	12374.46
660.253	12298.53
660.604	12363.84
660.955	12327.68
661.306	12440.68
661.656	12378.53
662.007	12397.96
662.358	12367.91
662.708	12356.38
663.059	12369.94
663.409	12356.38
663.76	12433.22
664.11	12441.58
664.461	12413.33
664.811	12345.99
665.161	12378.08
665.511	12419.89
665.862	12475.03
666.212	12437.29
666.562	12415.59
666.912	12434.57
667.262	12368.81
667.612	12386.44
667.962	12353.22
668.312	12357.97
668.662	12362.26
669.011	12441.35
669.361	12291.3
669.711	12392.54
670.06	12304.18
670.41	12310.06
670.76	12254.92
671.109	12283.17
671.459	12352.09
671.808	12307.12
672.157	12272.54
672.507	12225.54
672.856	12214.47
673.205	12277.74
673.554	12351.86
673.904	12264.86
674.253	12311.64
674.602	12265.09
674.951	12152.1
675.3	12030.07
675.649	12220.57
675.998	12192.55
676.346	12236.16
676.695	12311.41
677.044	12183.73
677.393	12178.54
677.741	12209.5
678.09	12102.38
678.438	12185.54
678.787	12216.27
679.135	12136.05
679.484	12072.1
679.832	12085.66
680.181	12022.16
680.529	12052.89
680.877	11974.93
681.225	12018.31
681.573	12044.98
681.922	11947.58
682.27	11868.49
682.618	11892.67
682.966	11856.28
683.314	11831.65
683.661	11795.95
684.009	11759.11
684.357	11750.52
684.705	11655.84
685.053	11767.02
685.4	11596.63
685.748	11612.22
686.095	11536.97
686.443	11614.03
686.79	11579
687.138	11602.28
687.485	11660.58
687.832	11528.61
688.18	11604.31
688.527	11418.33
688.874	11501.27
689.221	11373.36
689.568	11376.52
689.915	11351.21
690.262	11340.59
690.609	11337.43
690.956	11296.07
691.303	11252.91
691.65	11238
691.997	11170.88
692.344	11138.56
692.69	11133.82
693.037	11078.23
693.383	10975.63
693.73	11031.45
694.077	10937.21
694.423	10934.05
694.769	11016.31
695.116	10908.06
695.462	10842.3
695.808	10781.28
696.155	10846.14
696.501	10721.62
696.847	10720.04
697.193	10677.33
697.539	10674.85
697.885	10673.26
698.231	10509.2
698.577	10469.2
698.923	10500.39
699.269	10438.92
699.614	10372.93
699.96	10351.24
700.306	10294.97
700.651	10357.11
700.997	10297.68
701.342	10194.63
701.688	10190.34
702.033	10199.83
702.379	10158.48
702.724	10105.14
703.069	10073.73
703.415	9991.47
703.76	9964.36
704.105	10016.33
704.45	9986.28
704.795	9886.39
705.14	9872.83
705.485	9801.42
705.83	9800.75
706.175	9720.75
706.52	9761.2
706.865	9697.92
707.209	9713.06
707.554	9635.78
707.899	9666.29
708.243	9632.61
708.588	9631.03
708.932	9519.62
709.277	9497.93
709.621	9561.43
709.966	9483.92
710.31	9524.37
710.654	9414.77
710.998	9398.72
711.342	9462
711.687	9430.59
712.031	9338.61
712.375	9299.29
712.719	9355.79
713.063	9300.87
713.407	9357.14
713.75	9285.28
714.094	9321.21
714.438	9134.32
714.782	9218.61
715.125	9151.04
715.469	9211.38
715.812	9144.49
716.156	9086.41
716.499	9080.54
716.843	9072.63
717.186	9088.45
717.53	9096.13
717.873	9057.04
718.216	9068.79
718.559	9049.8
718.902	8973.65
719.246	8984.5
719.589	8993.53
719.932	8949.69
720.275	8930.03
720.617	8925.06
720.96	8833.54
721.303	8899.53
721.646	8873.76
721.989	8850.26
722.331	8867.21
722.674	8838.74
723.016	8851.39
723.359	8836.7
723.701	8830.38
724.044	8821.56
724.386	8765.74
724.729	8797.61
725.071	8793.54
725.413	8785.86
725.755	8763.71
726.097	8753.32
726.439	8721.23
726.782	8705.86
727.124	8745.63
727.465	8797.83
727.807	8714.9
728.149	8671.96
728.491	8738.63
728.833	8697.27
729.175	8690.04
729.516	8691.17
729.858	8699.53
730.199	8715.35
730.541	8669.7
730.882	8650.72
731.224	8688.23
731.565	8635.13
731.906	8646.88
732.248	8686.88
732.589	8669.48
732.93	8620.44
733.271	8624.28
733.612	8661.79
733.953	8657.72
734.294	8606.2
734.635	8625.18
734.976	8638.97
735.317	8647.33
735.658	8630.61
735.999	8576.37
736.339	8631.06
736.68	8623.83
737.021	8609.82
737.361	8585.86
737.702	8624.73
738.042	8594.22
738.383	8645.07
738.723	8698.4
739.063	8641.23
739.404	8665.18
739.744	8702.02
740.084	8627.89
740.424	8676.03
740.764	8617.73
741.104	8758.96
741.444	8734.33
741.784	8722.36
742.124	8737.72
742.464	8727.55
742.804	8816.36
743.143	8789.25
743.483	8848.23
743.823	8779.3
744.162	8844.39
744.502	8922.58
744.841	8936.59
745.181	8923.03
745.52	8939.07
745.86	8936.14
746.199	8975
746.538	9023.36
746.877	9123.02
747.216	9089.35
747.556	9244.15
747.895	9234.43
748.234	9217.48
748.573	9264.71
748.911	9283.24
749.25	9353.98
749.589	9397.59
749.928	9475.78
750.267	9533.63
750.605	9563.46
750.944	9614.99
751.283	9718.94
751.621	9793.51
751.96	9793.29
752.298	9958.48
752.636	10018.14
752.975	10067.18
753.313	10123.9
753.651	10347.17
753.989	10307.17
754.327	10438.24
754.666	10546.94
755.004	10769.08
755.342	10839.59
755.679	10876.2
756.017	11003.2
756.355	11189.64
756.693	11295.85
757.031	11468.5
757.368	11518.67
757.706	11585.33
758.044	11763.63
758.381	11939.45
758.719	12084.98
759.056	12208.37
759.394	12367.68
759.731	12456.04
760.068	12738.07
760.405	12771.97
760.743	12945.97
761.08	13111.39
761.417	13127.21
761.754	13419.41
762.091	13557.93
762.428	13783.47
762.765	13821.88
763.102	14020.07
763.438	14048.32
763.775	14194.53
764.112	14445.82
764.449	14577.34
764.785	14692.82
765.122	14879.71
765.458	14890.78
765.795	15073.83
766.131	15239.47
766.467	15333.71
766.804	15474.49
767.14	15519.46
767.476	15818.67
767.812	15756.52
768.148	16050.98
768.485	16005.78
768.821	16173.46
769.157	16281.7
769.492	16358.31
769.828	16511.53
770.164	16570.96
770.5	16616.61
770.836	16833.78
771.171	16822.71
771.507	16934.12
771.842	16997.17
772.178	17102.02
772.513	17164.62
772.849	17302.69
773.184	17246.88
773.519	17429.02
773.855	17461.11
774.19	17465.4
774.525	17540.88
774.86	17672.63
775.195	17824.04
775.53	17760.76
775.865	17678.05
776.2	17741.55
776.535	17758.73
776.87	17785.17
777.205	17879.63
777.539	17814.55
777.874	18028.55
778.209	17910.36
778.543	17883.7
778.878	17899.29
779.212	17947.65
779.547	17981.32
779.881	18079.4
780.215	17993.52
780.55	18119.85
780.884	18032.39
781.218	18086.4
781.552	18095.44
781.886	18099.96
782.22	18073.97
782.554	18074.2
782.888	17982.45
783.222	17928.44
783.556	17819.74
783.889	17899.29
784.223	17847.09
784.557	17863.13
784.89	18014.99
785.224	17896.58
785.557	17888.22
785.891	17796.02
786.224	17862.91
786.558	17917.37
786.891	17753.08
787.224	17711.72
787.557	17812.96
787.891	17859.52
788.224	17735.45
788.557	17790.37
788.89	17667.2
789.223	17798.5
789.556	17652.06
789.888	17537.04
790.221	17551.95
790.554	17496.36
790.887	17495.46
791.219	17431.73
791.552	17487.32
791.884	17453.43
792.217	17386.08
792.549	17393.09
792.882	17247.55
793.214	17160.78
793.546	17215.01
793.879	17293.2
794.211	17080.55
794.543	17163.04
794.875	17079.65
795.207	17087.56
795.539	17071.29
795.871	17118.52
796.203	16975.47
796.535	16819.09
796.867	16799.88
797.198	16841.92
797.53	16814.57
797.862	16737.74
798.193	16812.99
798.525	16710.85
798.856	16789.04
799.188	16501.59
799.519	16410.74
799.85	16443.51
800.182	16404.19
800.513	16444.41
800.844	16319.9
801.175	16352.44
801.506	16307.47
801.837	16259.33
802.168	16260.01
802.499	16243.29
802.83	16215.94
803.161	16142.73
803.491	16081.71
803.822	16156.74
804.153	15987.7
804.483	15881.26
804.814	15893.24
805.145	15951.77
805.475	15940.24
805.805	15957.65
806.136	15778.22
806.466	15758.55
806.796	15753.13
807.126	15699.57
807.457	15620.03
807.787	15674.71
808.117	15586.58
808.447	15568.5
808.777	15533.93
809.107	15476.08
809.436	15469.97
809.766	15386.13
810.096	15366.7
810.426	15331.67
810.755	15304.56
811.085	15377.1
811.414	15286.25
811.744	15154.95
812.073	15190.43
812.403	15171.23
812.732	15004.45
813.061	15043.77
813.39	14970.33
813.719	14969.87
814.049	14973.26
814.378	14957.22
814.707	14940.72
815.036	14885.13
815.365	14896.66
815.693	14698.24
816.022	14771.24
816.351	14706.6
816.68	14689.2
817.008	14760.16
817.337	14625.03
817.665	14601.07
817.994	14599.04
818.322	14600.17
818.651	14511.81
818.979	14480.85
819.307	14537.8
819.636	14520.85
819.964	14499.38
820.292	14490.57
820.62	14452.6
820.948	14368.99
821.276	14398.59
821.604	14338.48
821.932	14420.51
822.259	14426.61
822.587	14374.18
822.915	14320.17
823.243	14484.01
823.57	14345.03
823.898	14339.38
824.225	14375.77
824.553	14399.27
824.88	14432.04
825.207	14439.95
825.535	14425.71
825.862	14416.44
826.189	14470.23
826.516	14455.54
826.843	14414.86
827.17	14481.3
827.497	14425.93
827.824	14394.97
828.151	14514.07
828.478	14390.68
828.805	14429.55
829.131	14380.51
829.458	14407.18
829.785	14385.48
830.111	14385.48
830.438	14463.22
830.764	14389.78
831.09	14363.56
831.417	14403.34
831.743	14411.7
832.069	14328.08
832.395	14281.98
832.722	14334.19
833.048	14332.38
833.374	14277.92
833.7	14217.35
834.026	14303
834.351	14303.9
834.677	14260.97
835.003	14315.88
835.329	14264.13
835.654	14287.86
835.98	14171.93
836.306	14227.97
836.631	14166.05
836.956	14171.93
837.282	14281.53
837.607	14069.11
837.932	14123.57
838.258	14077.92
838.583	14060.29
838.908	13964.48
839.233	14006.96
839.558	13965.83
839.883	13922.44
840.208	13966.29
840.533	13925.83
840.858	13908.43
841.182	13935.33
841.507	13899.39
841.832	13826.63
842.156	13850.13
842.481	13751.38
842.805	13724.94
843.13	13763.8
843.454	13703.02
843.778	13611.04
844.103	13546.18
844.427	13504.83
844.751	13553.19
845.075	13573.75
845.399	13510.25
845.723	13370.59
846.047	13364.04
846.371	13327.43
846.695	13258.73
847.019	13208.11
847.343	13181.9
847.666	13097.61
847.99	13068.91
848.313	13029.81
848.637	12931.28
848.96	12945.07
849.284	12877.5
849.607	12828.69
849.931	12809.48
850.254	12725.41
850.577	12658.52
850.9	12601.58
851.223	12592.76
851.546	12485.65
851.869	12351.19
852.192	12472.77
852.515	12295.59
852.838	12256.27
853.161	12306.89
853.483	12220.79
853.806	12118.2
854.129	12208.37
854.451	12094.92
854.774	12079.78
855.096	12058.76
855.419	12040.46
855.741	11969.28
856.063	11893.35
856.385	11848.6
856.708	11818.77
857.03	11842.73
857.352	11802.27
857.674	11770.64
857.996	11693.12
858.318	11618.32
858.64	11662.17
858.961	11700.81
859.283	11591.66
859.605	11486.35
859.926	11552.11
860.248	11517.76
860.57	11452
860.891	11474.6
861.212	11396.18
861.534	11301.95
861.855	11312.12
862.176	11387.6
862.498	11329.52
862.819	11339.01
863.14	11296.3
863.461	11317.32
863.782	11154.38
864.103	11215.85
864.424	11225.11
864.745	11193.48
865.065	11178.34
865.386	11090.2
865.707	11058.57
866.027	11120.94
866.348	11066.7
866.668	11036.87
866.989	11059.47
867.309	10970.66
867.63	10943.31
867.95	10938.12
868.27	10855.18
868.59	10922.07
868.91	10915.07
869.23	10896.31
869.55	10833.03
869.87	10857.67
870.19	10842.98
870.51	10877.33
870.83	10924.56
871.15	10772.47
871.469	10776.54
871.789	10854.5
872.109	10753.49
872.428	10691.8
872.748	10763.66
873.067	10721.85
873.386	10690.67
873.706	10699.7
874.025	10563.66
874.344	10544.91
874.663	10620.16
874.982	10633.94
875.301	10599.59
875.62	10556.43
875.939	10508.98
876.258	10554.17
876.577	10429.43
876.896	10498.58
877.214	10400.96
877.533	10440.73
877.852	10394.63
878.17	10449.32
878.489	10402.76
878.807	10437.11
879.125	10423.55
879.444	10348.3
879.762	10297.91
880.08	10302.88
880.398	10324.35
880.716	10326.61
881.034	10225.59
881.352	10252.03
881.67	10260.85
881.988	10193.73
882.306	10129.78
882.624	10111.25
882.941	10045.94
883.259	10089.78
883.577	10061.98
883.894	10057.46
884.212	10021.3
884.529	9977.46
884.846	9940.4
885.164	9936.79
885.481	9928.65
885.798	9942.21
886.115	9890.23
886.432	9831.7
886.75	9801.65
887.067	9871.7
887.383	9792.16
887.7	9762.55
888.017	9783.57
888.334	9665.61
888.651	9725.94
888.967	9676.68
889.284	9565.95
889.6	9620.41
889.917	9524.59
890.233	9516.23
890.55	9503.35
890.866	9539.74
891.182	9487.76
891.498	9453.18
891.815	9402.56
892.131	9347.42
892.447	9340.64
892.763	9381.32
893.079	9304.04
893.395	9305.62
893.71	9248.44
894.026	9259.74
894.342	9197.6
894.657	9130.25
894.973	9179.29
895.289	9165.28
895.604	9144.94
895.92	9068.79
896.235	8998.28
896.55	8963.48
896.865	8983.82
897.181	8998.51
897.496	8934.78
897.811	8897.49
898.126	8884.61
898.441	8819.98
898.756	8789.02
899.071	8675.13
899.386	8747.21
899.7	8660.44
900.015	8616.6
900.33	8599.19
900.644	8558.74
900.959	8612.98
901.273	8563.26
901.588	8494.79
901.902	8407.34
902.216	8479.42
902.531	8478.52
902.845	8348.81
903.159	8312.2
903.473	8302.25
903.787	8298.86
904.101	8217.28
904.415	8185.65
904.729	8202.14
905.042	8089.6
905.356	8103.16
905.67	8104.97
905.984	8091.64
906.297	8081.92
906.611	8054.12
906.924	7948.36
907.237	7933
907.551	7903.85
907.864	7859.1
908.177	7830.85
908.491	7813.68
908.804	7763.74
909.117	7691.2
909.43	7765.54
909.743	7690.29
910.056	7666.11
910.368	7582.5
910.681	7588.15
910.994	7551.31
911.307	7548.15
911.619	7421.6
911.932	7471.54
912.244	7384.76
912.557	7372.33
912.869	7326.01
913.181	7316.74
913.494	7270.42
913.806	7223.64
914.118	7225.22
914.43	7222.51
914.742	7135.28
915.054	7128.72
915.366	7183.64
915.678	7014.83
915.99	7108.84
916.302	7005.56
916.613	6944.55
916.925	6953.14
917.236	6919.46
917.548	6921.72
917.859	6937.54
918.171	6933.02
918.482	6859.58
918.794	6809.41
919.105	6775.51
919.416	6726.93
919.727	6727.83
920.038	6712.69
920.349	6672.92
920.66	6640.38
920.971	6594.28
921.282	6588.63
921.593	6568.51
921.903	6531.9
922.214	6492.36
922.525	6514.28
922.835	6491.45
923.146	6396.09
923.456	6408.97
923.767	6396.31
924.077	6376.43
924.387	6320.84
924.697	6319.93
925.008	6284.91
925.318	6256.21
925.628	6229.09
925.938	6174.4
926.248	6106.15
926.558	6151.8
926.867	6145.25
927.177	6164
927.487	6088.07
927.796	6030.9
928.106	6050.11
928.416	5971.24
928.725	6000.17
929.034	5943.22
929.344	5982.99
929.653	5931.24
929.962	5851.02
930.271	5855.54
930.581	5840.85
930.89	5789.78
931.199	5768.76
931.508	5734.86
931.817	5754.98
932.125	5722.66
932.434	5731.25
932.743	5647.41
933.051	5665.71
933.36	5647.18
933.669	5586.39
933.977	5582.1
934.286	5585.71
934.594	5567.64
934.902	5554.98
935.21	5461.65
935.519	5470.92
935.827	5454.42
936.135	5419.84
936.443	5340.52
936.751	5385.95
937.059	5349.34
937.367	5315.89
937.674	5323.8
937.982	5285.61
938.29	5243.8
938.597	5239.06
938.905	5164.48
939.213	5177.59
939.52	5128.33
939.827	5131.49
940.135	5103.47
940.442	5041.1
940.749	5040.64
941.056	5055.56
941.363	5035.45
941.67	5009.01
941.977	5003.81
942.284	4930.82
942.591	4978.95
942.898	4948.67
943.205	4971.72
943.511	4869.12
943.818	4863.93
944.125	4873.19
944.431	4843.36
944.738	4785.74
945.044	4793.19
945.35	4772.4
945.657	4738.73
945.963	4707.77
946.269	4721.1
946.575	4690.82
946.881	4646.08
947.187	4640.65
947.493	4585.97
947.799	4608.11
948.105	4625.51
948.41	4541.22
948.716	4549.13
949.022	4486.31
949.327	4515.23
949.633	4487.89
949.938	4484.95
950.244	4479.76
950.549	4391.4
950.854	4382.58
951.16	4382.13
951.465	4322.47
951.77	4357.27
952.075	4334.67
952.38	4309.36
952.685	4338.29
952.99	4319.08
953.294	4274.56
953.599	4228.69
953.904	4213.1
954.209	4215.36
954.513	4180.1
954.818	4164.96
955.122	4164.28
955.426	4163.61
955.731	4117.73
956.035	4056.94
956.339	4100.78
956.643	4090.16
956.948	4041.12
957.252	4013.1
957.556	3993.21
957.86	3975.81
958.163	3963.38
958.467	3929.26
958.771	3931.97
959.075	3924.74
959.378	3951.86
959.682	3908.24
959.985	3893.56
960.289	3837.74
960.592	3857.17
960.896	3866.89
961.199	3822.37
961.502	3840
961.805	3802.26
962.108	3758.19
962.411	3795.71
962.714	3726.55
963.017	3693.79
963.32	3709.15
963.623	3674.8
963.926	3706.44
964.228	3646.1
964.531	3615.37
964.833	3648.14
965.136	3609.04
965.438	3589.38
965.741	3567.46
966.043	3573.11
966.345	3541.7
966.648	3522.94
966.95	3511.42
967.252	3533.79
967.554	3479.1
967.856	3470.52
968.158	3445.21
968.46	3416.73
968.761	3436.17
969.063	3413.12
969.365	3406.11
969.666	3353.68
969.968	3338.32
970.269	3294.48
970.571	3323.63
970.872	3308.49
971.174	3273.69
971.475	3291.99
971.776	3258.54
972.077	3244.76
972.378	3265.1
972.679	3242.05
972.98	3209.96
973.281	3203.18
973.582	3184.2
973.883	3214.48
974.183	3158.66
974.484	3202.27
974.785	3122.95
975.085	3105.78
975.386	3162.73
975.686	3121.15
975.986	3100.13
976.287	3106.01
976.587	3054.03
976.887	3029.85
977.187	3066.68
977.487	3023.07
977.787	3005.9
978.087	2986.01
978.387	2969.06
978.687	2969.29
978.987	2957.76
979.286	2914.82
979.586	2948.5
979.885	2897.88
980.185	2919.12
980.484	2891.55
980.784	2870.53
981.083	2867.59
981.382	2850.65
981.682	2828.27
981.981	2801.83
982.28	2791.21
982.579	2802.29
982.878	2818.56
983.177	2774.26
983.475	2750.31
983.774	2741.04
984.073	2725.9
984.372	2703.98
984.67	2720.03
984.969	2706.92
985.267	2692.68
985.566	2691.1
985.864	2665.57
986.162	2614.95
986.461	2606.58
986.759	2637.77
987.057	2592.35
987.355	2597.09
987.653	2585.57
987.951	2560.03
988.249	2563.65
988.547	2568.62
988.844	2555.51
989.142	2536.53
989.44	2504.67
989.737	2504.89
990.035	2513.71
990.332	2480.94
990.63	2479.36
990.927	2474.16
991.224	2444.78
991.521	2435.97
991.819	2409.75
992.116	2458.11
992.413	2394.61
992.71	2379.47
993.006	2354.61
993.303	2382.41
993.6	2343.77
993.897	2377.66
994.193	2326.82
994.49	2340.38
994.787	2354.61
995.083	2296.99
995.379	2316.2
995.676	2261.06
995.972	2274.84
996.268	2291.79
996.565	2266.25
996.861	2226.03
997.157	2238.68
997.453	2204.33
997.749	2195.52
998.044	2222.19
998.34	2166.82
998.636	2186.71
998.932	2141.51
999.227	2164.79
999.523	2143.55
999.818	2121.4
1000.114	2092.93
1000.409	2088.41
1000.704	2089.76
1001	2078.69
1001.295	2086.15
1001.59	2068.07
1001.885	2034.85
1002.18	2054.06
1002.475	2039.59
1002.77	2012.93
1003.065	2005.92
1003.359	2016.09
1003.654	1990.56
1003.949	1973.15
1004.243	1962.53
1004.538	1951.69
1004.832	1968.63
1005.127	1946.71
1005.421	1950.78
1005.715	1897.9
1006.009	1906.94
1006.304	1914.17
1006.598	1871.01
1006.892	1877.79
1007.186	1875.53
1007.48	1880.73
1007.773	1819.03
1008.067	1832.14
1008.361	1810.45
1008.655	1793.27
1008.948	1796.44
1009.242	1777.68
1009.535	1780.84
1009.829	1759.37
1010.122	1763.67
1010.415	1753.73
1010.708	1719.38
1011.001	1723.67
1011.295	1700.62
1011.588	1709.66
1011.881	1694.29
1012.173	1665.14
1012.466	1671.69
1012.759	1673.95
1013.052	1684.12
1013.344	1633.95
1013.637	1643.45
1013.93	1648.87
1014.222	1641.41
1014.514	1587.18
1014.807	1582.43
1015.099	1576.33
1015.391	1567.74
1015.683	1576.1
1015.976	1590.57
1016.268	1572.71
1016.56	1538.82
1016.851	1535.2
1017.143	1528.19
1017.435	1504.69
1017.727	1511.47
1018.018	1499.27
1018.31	1508.08
1018.602	1498.36
1018.893	1495.43
1019.185	1466.95
1019.476	1454.75
1019.767	1441.42
1020.058	1436.9
1020.35	1425.82
1020.641	1413.85
1020.932	1389.89
1021.223	1381.53
1021.514	1382.89
1021.804	1365.71
1022.095	1386.96
1022.386	1354.19
1022.677	1343.57
1022.967	1372.27
1023.258	1334.75
1023.548	1319.84
1023.839	1317.58
1024.129	1294.98
1024.419	1317.8
1024.709	1274.64
1025	1308.77
1025.29	1257.92
1025.58	1255.89
1025.87	1265.15
1026.16	1245.72
1026.449	1269.67
1026.739	1251.82
1027.029	1242.78
1027.319	1209.33
1027.608	1215.21
1027.898	1207.75
1028.187	1179.73
1028.477	1226.06
1028.766	1153.51
1029.055	1172.27
1029.344	1152.61
1029.634	1187.64
1029.923	1153.51
1030.212	1132.05
1030.501	1117.58
1030.79	1151.26
1031.078	1107.64
1031.367	1099.28
1031.656	1082.56
1031.945	1076.68
1032.233	1061.31
1032.522	1075.55
1032.81	1061.31
1033.099	1074.87
1033.387	1078.04
1033.675	1054.08
1033.963	1063.8
1034.251	1045.04
1034.54	1063.57
1034.828	1041.65
1035.116	1014.08
1035.403	1011.6
1035.691	1030.13
1035.979	1018.83
1036.267	1009.34
1036.554	1000.3
1036.842	977.47
1037.129	967.98
1037.417	981.54
1037.704	971.82
1037.992	967.53
1038.279	924.37
1038.566	950.36
1038.853	950.36
1039.14	950.36
