Data from hue_90_FLMS001491_17.txt Node
Date: Mon Feb 06 15:24:45 GMT 2017
User: dcchb
Spectrometer: FLMS00149
Trigger mode: 0
Integration Time (sec): 2.000000E-2
Scans to average: 10
Electric dark correction enabled: true
Nonlinearity correction enabled: false
Boxcar width: 0
XAxis mode: Wavelengths
Number of Pixels in Spectrum: 2048
>>>>>Begin Spectral Data<<<<<
341.393	-4.53
341.776	-4.53
342.16	-4.53
342.543	-68.94
342.927	-66.45
343.31	-68.26
343.693	-72.33
344.077	-68.03
344.46	-53.35
344.843	-25.78
345.226	-34.14
345.61	-39.56
345.993	-8.38
346.376	-3.18
346.759	-0.92
347.142	22.13
347.525	30.72
347.908	63.71
348.291	75.69
348.674	91.28
349.057	90.38
349.44	107.78
349.823	148
350.206	169.02
350.588	187.55
350.971	217.61
351.354	225.52
351.737	241.11
352.119	242.92
352.502	270.04
352.884	252.18
353.267	268
353.65	272.97
354.032	298.51
354.414	300.32
354.797	318.85
355.179	328.34
355.562	326.08
355.944	336.7
356.326	341.67
356.709	334.21
357.091	333.54
357.473	307.32
357.855	338.06
358.238	347.77
358.62	333.08
359.002	324.72
359.384	328.56
359.766	348
360.148	331.95
360.53	341.22
360.912	340.99
361.294	322.46
361.676	328.34
362.057	347.77
362.439	334.67
362.821	331.5
363.203	323.82
363.584	333.99
363.966	331.28
364.348	321.11
364.729	312.97
365.111	307.32
365.493	321.79
365.874	323.14
366.256	329.69
366.637	304.84
367.019	319.53
367.4	319.75
367.781	301.67
368.163	320.88
368.544	291.96
368.925	296.02
369.306	333.31
369.688	293.31
370.069	299.41
370.45	310.49
370.831	290.6
371.212	302.8
371.593	310.49
371.974	302.58
372.355	330.6
372.736	321.33
373.117	304.84
373.498	309.13
373.879	322.46
374.26	288.11
374.641	288.11
375.021	308
375.402	318.17
375.783	327.21
376.163	302.35
376.544	333.99
376.925	325.18
377.305	319.3
377.686	337.38
378.066	337.6
378.447	338.73
378.827	328.34
379.208	348
379.588	319.3
379.968	323.14
380.349	320.2
380.729	338.73
381.109	322.69
381.489	338.51
381.87	336.93
382.25	339.19
382.63	322.24
383.01	326.08
383.39	348
383.77	333.31
384.15	328.34
384.53	334.21
384.91	354.33
385.29	342.35
385.67	346.87
386.049	352.74
386.429	367.66
386.809	348.45
387.189	347.55
387.568	358.85
387.948	368.34
388.328	352.74
388.707	368.56
389.087	348.9
389.466	359.75
389.846	346.87
390.225	366.53
390.605	370.82
390.984	370.6
391.363	349.81
391.743	352.29
392.122	369.92
392.501	361.11
392.881	373.08
393.26	361.78
393.639	366.08
394.018	366.98
394.397	373.54
394.776	381.9
395.155	394.33
395.534	389.35
395.913	367.66
396.292	399.07
396.671	374.89
397.05	362.69
397.429	386.42
397.808	382.12
398.186	398.17
398.565	367.43
398.944	388.9
399.323	392.97
399.701	395.46
400.08	406.75
400.458	400.65
400.837	419.41
401.215	403.59
401.594	384.61
401.972	407.66
402.351	382.12
402.729	395.91
403.107	394.1
403.486	392.52
403.864	381.9
404.242	388.45
404.62	421.9
404.999	418.05
405.377	407.66
405.755	438.84
406.133	421.22
406.511	411.5
406.889	427.09
407.267	415.79
407.645	418.73
408.023	412.63
408.401	406.08
408.779	418.05
409.156	424.83
409.534	452.86
409.912	443.14
410.29	442.46
410.667	454.89
411.045	439.75
411.422	465.96
411.8	460.99
412.178	459.63
412.555	455.34
412.933	463.25
413.31	461.44
413.687	464.38
414.065	458.5
414.442	475
414.819	464.38
415.197	450.14
415.574	478.17
415.951	491.72
416.328	477.71
416.705	498.28
417.082	468
417.46	484.04
417.837	499.63
418.214	513.64
418.591	490.37
418.967	509.58
419.344	525.4
419.721	511.61
420.098	505.96
420.475	504.38
420.852	503.25
421.228	518.39
421.605	519.29
421.982	503.93
422.358	506.87
422.735	503.48
423.111	515.68
423.488	557.49
423.864	523.36
424.241	528.11
424.617	555.9
424.994	565.17
425.37	563.36
425.746	558.62
426.123	577.6
426.499	585.28
426.875	575.34
427.251	590.7
427.627	576.69
428.003	598.84
428.379	587.99
428.756	606.3
429.132	592.29
429.507	599.97
429.883	614.66
430.259	576.92
430.635	623.47
431.011	612.4
431.387	604.26
431.763	607.88
432.138	634.55
432.514	635.22
432.89	642
433.265	641.55
433.641	670.7
434.016	651.72
434.392	652.4
434.767	668.22
435.143	694.66
435.518	686.52
435.894	687.88
436.269	685.62
436.644	712.28
437.02	676.8
437.395	699.85
437.77	692.17
438.145	714.77
438.52	725.84
438.895	735.79
439.271	731.72
439.646	733.75
440.021	756.35
440.395	752.06
440.77	733.75
441.145	763.13
441.52	756.8
441.895	759.51
442.27	759.97
442.645	773.3
443.019	755.9
443.394	766.97
443.769	783.02
444.143	770.81
444.518	811.26
444.892	803.58
445.267	798.38
445.641	818.27
446.016	829.57
446.39	818.95
446.764	834.54
447.139	819.17
447.513	829.12
447.887	819.17
448.262	853.52
448.636	826.63
449.01	842.9
449.384	871.83
449.758	843.13
450.132	868.21
450.506	850.58
450.88	891.49
451.254	903.01
451.628	891.49
452.002	889.23
452.376	900.75
452.75	893.97
453.123	916.35
453.497	901.66
453.871	936.68
454.244	933.52
454.618	953.86
454.992	970.81
455.365	988.89
455.739	999.51
456.112	989.79
456.486	993.41
456.859	1023.46
457.232	1020.3
457.606	1044.25
457.979	1051.03
458.352	1048.09
458.725	1081.54
459.099	1080.64
459.472	1110.01
459.845	1126.96
460.218	1136.68
460.591	1105.04
460.964	1109.34
461.337	1161.09
461.71	1175.55
462.083	1191.59
462.456	1197.69
462.829	1186.62
463.201	1220.07
463.574	1200.63
463.947	1233.85
464.32	1261.42
464.692	1240.18
465.065	1305.26
465.438	1325.83
465.81	1331.25
466.183	1335.54
466.555	1358.82
466.928	1368.76
467.3	1400.4
467.672	1429.1
468.045	1453.73
468.417	1482.88
468.789	1465.26
469.161	1510
469.534	1512.26
469.906	1558.81
470.278	1583.67
470.65	1606.72
471.022	1655.31
471.394	1679.49
471.766	1700.51
472.138	1736.66
472.51	1770.56
472.882	1805.36
473.253	1860.73
473.625	1884.46
473.997	1912.48
474.369	1944.34
474.74	1954.28
475.112	2024.34
475.484	2067.95
475.855	2106.37
476.227	2120.16
476.598	2176.43
476.97	2278.34
477.341	2322.41
477.713	2360.6
478.084	2401.73
478.455	2535.51
478.827	2561.73
479.198	2626.58
479.569	2694.15
479.94	2752.23
480.311	2800.36
480.682	2872
481.053	2991.09
481.424	3055.5
481.795	3109.06
482.166	3207.59
482.537	3321.48
482.908	3387.24
483.279	3451.87
483.65	3581.59
484.021	3647.57
484.391	3724.18
484.762	3844.4
485.133	3909.26
485.503	4037.62
485.874	4108.13
486.244	4218.63
486.615	4328.69
486.985	4412.53
487.356	4557.83
487.726	4669.24
488.097	4781.1
488.467	4829.46
488.837	5004.37
489.207	5101.09
489.578	5198.72
489.948	5360.07
490.318	5481.42
490.688	5527.75
491.058	5701.76
491.428	5859.49
491.798	5923.67
492.168	6107.4
492.538	6125.7
492.908	6340.84
493.278	6473.94
493.648	6461.51
494.017	6641.85
494.387	6728.17
494.757	6866.25
495.126	6997.99
495.496	7081.61
495.866	7120.48
496.235	7388.49
496.605	7422.62
496.974	7520.01
497.344	7661.71
497.713	7759.78
498.082	7835.71
498.452	7986.89
498.821	8024.18
499.19	8138.53
499.559	8305.98
499.928	8370.39
500.298	8449.71
500.667	8592.3
501.036	8584.17
501.405	8690.38
501.774	8823.26
502.143	8902.8
502.512	8865.06
502.88	9042.23
503.249	9110.71
503.618	9173.08
503.987	9296.24
504.356	9337.59
504.724	9364.49
505.093	9436.12
505.462	9499.62
505.83	9537.81
506.199	9638.83
506.567	9820.52
506.936	9798.6
507.304	9935.09
507.672	9960.4
508.041	10125.37
508.409	10096.67
508.777	10188.42
509.145	10313.39
509.514	10294.63
509.882	10295.31
510.25	10338.7
510.618	10479.48
510.986	10461.41
511.354	10604
511.722	10651.23
512.09	10717.9
512.458	10752.25
512.826	10822.53
513.193	10838.8
513.561	10841.96
513.929	10926.03
514.297	11026.36
514.664	11124.21
515.032	11073.14
515.4	11170.09
515.767	11149.3
516.135	11286.92
516.502	11219.8
516.869	11370.76
517.237	11341.61
517.604	11289.63
517.972	11409.18
518.339	11506.12
518.706	11505.67
519.073	11444.43
519.44	11574.82
519.808	11575.27
520.175	11575.05
520.542	11627.25
520.909	11740.69
521.276	11693.92
521.643	11801.94
522.009	11745.67
522.376	11830.18
522.743	11850.3
523.11	11978.65
523.477	11965.77
523.843	12020.23
524.21	12037.64
524.577	12161.02
524.943	12211.64
525.31	12170.51
525.676	12310.85
526.043	12250.06
526.409	12250.06
526.776	12333.22
527.142	12332.77
527.508	12382.03
527.874	12336.38
528.241	12390.17
528.607	12357.63
528.973	12396.04
529.339	12399.21
529.705	12451.41
530.071	12547.45
530.437	12558.07
530.803	12486.44
531.169	12513.33
531.535	12516.27
531.901	12562.37
532.267	12503.84
532.632	12473.33
532.998	12553.55
533.364	12526.21
533.73	12495.25
534.095	12602.14
534.461	12532.54
534.826	12531.41
535.192	12542.93
535.557	12514.91
535.923	12533.44
536.288	12533.89
536.653	12532.99
537.019	12368.02
537.384	12575.47
537.749	12468.58
538.114	12393.33
538.479	12415.7
538.845	12474.01
539.21	12357.85
539.575	12316.72
539.94	12333.22
540.305	12337.74
540.67	12274.47
541.034	12266.56
541.399	12282.83
541.764	12253.45
542.129	12146.79
542.494	12229.72
542.858	12308.36
543.223	12137.97
543.587	12111.31
543.952	12114.7
544.316	12081.48
544.681	12108.14
545.045	11995.15
545.41	12038.99
545.774	12042.83
546.138	11985.66
546.503	11954.7
546.867	11895.72
547.231	11948.37
547.595	11937.3
547.959	11823.18
548.324	11847.13
548.688	11807.81
549.052	11779.34
549.416	11773.01
549.779	11726.01
550.143	11696.4
550.507	11776.17
550.871	11752.22
551.235	11635.61
551.599	11701.37
551.962	11645.1
552.326	11657.98
552.689	11663.41
553.053	11607.14
553.417	11617.76
553.78	11743.18
554.143	11539.57
554.507	11476.07
554.87	11514.03
555.234	11650.08
555.597	11498.21
555.96	11445.79
556.323	11489.85
556.686	11528.04
557.05	11532.34
557.413	11494.37
557.776	11544.99
558.139	11524.88
558.502	11531.43
558.865	11487.59
559.228	11509.51
559.59	11474.26
559.953	11458.22
560.316	11568.27
560.679	11503.41
561.041	11478.55
561.404	11521.94
561.767	11588.61
562.129	11508.61
562.492	11621.15
562.854	11554.03
563.217	11556.97
563.579	11555.84
563.941	11556.29
564.304	11603.07
564.666	11665.22
565.028	11637.87
565.39	11653.92
565.753	11638.32
566.115	11652.79
566.477	11739.79
566.839	11709.96
567.201	11693.24
567.563	11697.53
567.925	11711.77
568.287	11755.61
568.648	11731.88
569.01	11740.24
569.372	11909.5
569.734	11695.72
570.095	11811.43
570.457	11836.28
570.819	11804.2
571.18	11803.52
571.542	11800.58
571.903	11861.82
572.265	11860.92
572.626	11927.81
572.987	11819.56
573.349	11957.41
573.71	11977.75
574.071	12038.09
574.432	11910.63
574.794	11967.81
575.155	11982.72
575.516	11921.71
575.877	12012.78
576.238	11993.34
576.599	12046.22
576.96	12030.4
577.32	12046.9
577.681	12011.87
578.042	12033.34
578.403	12017.3
578.763	12036.28
579.124	12028.37
579.485	12090.52
579.845	12146.33
580.206	12029.95
580.566	12023.85
580.927	12001.7
581.287	12105.2
581.648	12004.42
582.008	12054.58
582.368	12011.2
582.728	12006
583.089	12003.96
583.449	12004.87
583.809	11968.26
584.169	12022.95
584.529	11998.54
584.889	12075.6
585.249	11966
585.609	11987.02
585.969	12008.48
586.329	11989.5
586.688	11938.2
587.048	11951.76
587.408	11972.55
587.768	11909.5
588.127	11971.87
588.487	11902.27
588.846	11991.08
589.206	11872.44
589.565	11867.7
589.925	11963.06
590.284	11843.29
590.643	11857.53
591.003	11938.2
591.362	11970.74
591.721	11817.75
592.08	11888.03
592.44	11923.74
592.799	11938.43
593.158	11867.7
593.517	11844.42
593.876	11865.21
594.235	11900.69
594.593	11842.84
594.952	11859.79
595.311	11880.58
595.67	11839
596.029	11907.7
596.387	11946.56
596.746	11960.12
597.104	11860.46
597.463	11850.75
597.822	11843.74
598.18	11779.79
598.538	11814.14
598.897	11799.9
599.255	11712.67
599.613	11871.76
599.972	11795.38
600.33	11831.54
600.688	11797.64
601.046	11817.08
601.404	11900.92
601.762	11855.04
602.12	11876.28
602.478	11832.67
602.836	11893.01
603.194	11814.59
603.552	11835.83
603.91	11835.15
604.268	11847.81
604.625	11820.69
604.983	11838.09
605.341	11758.77
605.698	11772.56
606.056	11904.53
606.413	11787.7
606.771	11849.17
607.128	11850.75
607.485	11859.34
607.843	11779.11
608.2	11903.4
608.557	11857.75
608.914	11807.13
609.272	11920.8
609.629	11869.5
609.986	11977.52
610.343	11970.29
610.7	12022.72
611.057	11922.16
611.414	11944.53
611.771	11954.47
612.127	12054.13
612.484	11985.89
612.841	11992.66
613.198	11969.39
613.554	12008.94
613.911	12026.34
614.267	12015.94
614.624	12001.25
614.98	12046.22
615.337	12143.17
615.693	12046.67
616.05	12064.08
616.406	12129.61
616.762	12090.97
617.118	12074.02
617.475	12085.09
617.831	12123.06
618.187	12018.88
618.543	12111.31
618.899	12223.17
619.255	12133.45
619.611	12149.27
619.967	12210.29
620.323	12169.84
620.678	12173.45
621.034	12073.57
621.39	12092.32
621.746	12130.51
622.101	12175.94
622.457	12133
622.812	12189.95
623.168	12201.92
623.523	12246.22
623.879	12242.6
624.234	12109.05
624.589	12170.97
624.945	12220.68
625.3	12223.17
625.655	12244.64
626.01	12130.29
626.365	12231.08
626.72	12194.69
627.075	12141.36
627.43	12105.43
627.785	12195.15
628.14	12237.18
628.495	12145.43
628.85	12131.87
629.205	12107.01
629.559	12152.89
629.914	12085.77
630.269	12100.01
630.623	12063.62
630.978	12116.96
631.332	12098.88
631.687	12051.87
632.041	12088.48
632.396	12068.14
632.75	12027.47
633.104	12010.29
633.459	11995.15
633.813	11984.3
634.167	11969.16
634.521	11932.1
634.875	11974.13
635.229	11902.95
635.583	11864.53
635.937	11945.89
636.291	11860.69
636.645	11944.98
636.999	11815.72
637.352	11931.65
637.706	11804.42
638.06	11837.19
638.413	11801.94
638.767	11842.39
639.121	11794.7
639.474	11745.67
639.828	11749.28
640.181	11756.51
640.534	11768.72
640.888	11776.4
641.241	11690.3
641.594	11778.43
641.947	11776.85
642.301	11714.25
642.654	11750.86
643.007	11693.92
643.36	11646.46
643.713	11642.39
644.066	11703.86
644.419	11614.6
644.771	11613.24
645.124	11448.27
645.477	11398.1
645.83	11334.6
646.182	11262.06
646.535	11228.17
646.888	11318.56
647.24	11210.31
647.593	11262.06
647.945	11248.73
648.298	11211.44
648.65	11191.56
649.002	11253.25
649.355	11225.23
649.707	11248.96
650.059	11292.8
650.411	11427.48
650.763	11329.18
651.115	11587.48
651.467	11496.63
651.819	11572.56
652.171	11515.84
652.523	11564.2
652.875	11458.89
653.227	11432.45
653.578	11481.49
653.93	11526.01
654.282	11526.01
654.633	11425.9
654.985	11475.16
655.337	11516.97
655.688	11456.18
656.039	11478.78
656.391	11393.58
656.742	11457.31
657.094	11391.55
657.445	11472.23
657.796	11482.85
658.147	11452.11
658.498	11394.71
658.849	11500.25
659.2	11408.95
659.551	11490.53
659.902	11475.62
660.253	11489.18
660.604	11501.38
660.955	11447.14
661.306	11497.99
661.656	11464.32
662.007	11495.73
662.358	11527.82
662.708	11435.39
663.059	11459.12
663.409	11404.43
663.76	11525.56
664.11	11530.08
664.461	11476.07
664.811	11550.87
665.161	11502.96
665.511	11477.88
665.862	11510.19
666.212	11556.07
666.562	11575.95
666.912	11496.86
667.262	11487.14
667.612	11517.2
667.962	11543.86
668.312	11487.14
668.662	11586.57
669.011	11553.81
669.361	11429.29
669.711	11444.88
670.06	11475.39
670.41	11408.05
670.76	11391.78
671.109	11477.65
671.459	11416.86
671.808	11334.38
672.157	11473.81
672.507	11350.65
672.856	11394.94
673.205	11371.44
673.554	11472.23
673.904	11383.42
674.253	11419.8
674.602	11439.91
674.951	11269.52
675.3	11143.2
675.649	11287.37
675.998	11328.05
676.346	11348.61
676.695	11426.13
677.044	11282.4
677.393	11260.93
677.741	11264.55
678.09	11243.53
678.438	11257.77
678.787	11207.83
679.135	11285.34
679.484	11183.42
679.832	11252.8
680.181	11182.29
680.529	11167.15
680.877	11136.64
681.225	11177.55
681.573	11189.52
681.922	11042.86
682.27	11132.57
682.618	11035.63
682.966	11065.46
683.314	11010.09
683.661	10937.33
684.009	10974.39
684.357	10897.33
684.705	10904.56
685.053	10840.83
685.4	10888.97
685.748	10839.02
686.095	10885.12
686.443	10823.88
686.79	10777.78
687.138	10758.35
687.485	10783.21
687.832	10799.25
688.18	10722.87
688.527	10679.93
688.874	10724.45
689.221	10617.33
689.568	10611.01
689.915	10522.87
690.262	10548.64
690.609	10495.98
690.956	10478.35
691.303	10415.76
691.65	10400.84
691.997	10457.79
692.344	10298.25
692.69	10285.14
693.037	10371.92
693.383	10228.42
693.73	10244.69
694.077	10250.11
694.423	10166.27
694.769	10072.72
695.116	10124.92
695.462	10063.68
695.808	10013.96
696.155	10065.94
696.501	9985.03
696.847	9945.26
697.193	9831.82
697.539	9940.97
697.885	9855.09
698.231	9797.92
698.577	9819.61
698.923	9780.07
699.269	9695.32
699.614	9675.44
699.96	9587.08
700.306	9575.33
700.651	9559.06
700.997	9553.86
701.342	9469.34
701.688	9479.74
702.033	9432.28
702.379	9408.78
702.724	9370.13
703.069	9408.1
703.415	9245.84
703.76	9286.3
704.105	9245.84
704.45	9146.86
704.795	9239.52
705.14	9195.9
705.485	9160.65
705.83	9167.2
706.175	9101.89
706.52	9059.63
706.865	9042.01
707.209	9001.33
707.554	8929.02
707.899	9011.95
708.243	8932.86
708.588	8926.08
708.932	8855.57
709.277	8827.1
709.621	8839.98
709.966	8764.5
710.31	8842.47
710.654	8745.29
710.998	8750.72
711.342	8749.36
711.687	8738.74
712.031	8666.88
712.375	8680.21
712.719	8644.05
713.063	8646.76
713.407	8628.01
713.75	8684.05
714.094	8593.88
714.438	8554.34
714.782	8588.46
715.125	8499.2
715.469	8507.11
715.812	8506.2
716.156	8402.7
716.499	8486.54
716.843	8510.5
717.186	8433.44
717.53	8445.19
717.873	8481.12
718.216	8429.82
718.559	8458.75
718.902	8327.9
719.246	8390.5
719.589	8297.39
719.932	8321.12
720.275	8336.26
720.617	8273.44
720.96	8297.39
721.303	8349.82
721.646	8231.18
721.989	8236.15
722.331	8271.63
722.674	8232.31
723.016	8257.62
723.359	8280.45
723.701	8238.19
724.044	8186.21
724.386	8175.36
724.729	8150.28
725.071	8202.48
725.413	8186.44
725.755	8152.99
726.097	8074.8
726.439	8064.86
726.782	8124.52
727.124	8114.12
727.465	8081.13
727.807	8038.64
728.149	8108.7
728.491	8022.15
728.833	8120
729.175	8067.34
729.516	8078.19
729.858	8048.59
730.199	8097.63
730.541	8067.34
730.882	8013.11
731.224	8055.37
731.565	8045.42
731.906	8029.83
732.248	8027.12
732.589	8032.32
732.93	7967.01
733.271	7973.56
733.612	8049.27
733.953	8068.47
734.294	8051.75
734.635	8011.98
734.976	8072.09
735.317	8016.5
735.658	7986.22
735.999	8024.41
736.339	7985.76
736.68	8084.07
737.021	8018.76
737.361	8034.12
737.702	8136.27
738.042	8002.04
738.383	8029.38
738.723	8110.28
739.063	8139.66
739.404	8072.99
739.744	8096.27
740.084	8021.92
740.424	8105.54
740.764	8100.34
741.104	8164.06
741.444	8107.57
741.784	8081.58
742.124	8142.82
742.464	8155.25
742.804	8134.46
743.143	8149.83
743.483	8199.32
743.823	8198.19
744.162	8178.08
744.502	8238.19
744.841	8271.41
745.181	8318.64
745.52	8268.7
745.86	8359.77
746.199	8303.72
746.538	8379.2
746.877	8420.33
747.216	8455.36
747.556	8469.14
747.895	8558.86
748.234	8559.76
748.573	8598.4
748.911	8591.62
749.25	8715.46
749.589	8723.37
749.928	8793.2
750.267	8832.75
750.605	8922.46
750.944	9009.24
751.283	9008.11
751.621	9143.47
751.96	9118.84
752.298	9207.88
752.636	9327.2
752.975	9432.28
753.313	9436.8
753.651	9597.93
753.989	9637.47
754.327	9718.6
754.666	9772.61
755.004	9917.47
755.342	10083.11
755.679	10133.5
756.017	10251.92
756.355	10326.72
756.693	10407.17
757.031	10546.83
757.368	10641.51
757.706	10806.26
758.044	10912.92
758.381	11056.87
758.719	11178.45
759.056	11267.03
759.394	11411.89
759.731	11435.62
760.068	11616.18
760.405	11778.89
760.743	11913.57
761.08	12103.62
761.417	12172.77
761.754	12322.6
762.091	12424.29
762.428	12621.8
762.765	12672.87
763.102	12811.63
763.438	12937.95
763.775	12995.35
764.112	13188.11
764.449	13315.12
764.785	13465.17
765.122	13511.5
765.458	13567.09
765.795	13722.56
766.131	13830.81
766.467	13956.46
766.804	14068.54
767.14	14171.36
767.476	14307.63
767.812	14369.78
768.148	14467.18
768.485	14545.37
768.821	14609.55
769.157	14788.3
769.492	14839.6
769.828	14940.84
770.164	15024.68
770.5	15035.97
770.836	15263.09
771.171	15173.6
771.507	15299.47
771.842	15308.28
772.178	15393.71
772.513	15525.68
772.849	15583.53
773.184	15564.55
773.519	15640.03
773.855	15726.8
774.19	15823.52
774.525	15680.7
774.86	15825.11
775.195	15899
775.53	15914.37
775.865	15868.95
776.2	15934.71
776.535	15914.37
776.87	16044.31
777.205	15929.51
777.539	15990.07
777.874	16016.06
778.209	16055.61
778.543	16063.07
778.878	16028.04
779.212	16125.21
779.547	16075.04
779.881	16064.42
780.215	16153.69
780.55	16113.46
780.884	16052.9
781.218	16062.84
781.552	16114.36
781.886	16129.73
782.22	16040.92
782.554	15994.14
782.888	15916.4
783.222	15997.31
783.556	15906.46
783.889	15920.92
784.223	15854.48
784.557	15893.58
784.89	15973.58
785.224	15967.25
785.557	15855.84
785.891	15814.03
786.224	15805.9
786.558	15875.27
786.891	15739.01
787.224	15790.08
787.557	15710.31
787.891	15732
788.224	15729.06
788.557	15764.54
788.89	15652.46
789.223	15699.01
789.556	15564.55
789.888	15620.82
790.221	15557.99
790.554	15448.85
790.887	15423.31
791.219	15402.97
791.552	15420.6
791.884	15483.19
792.217	15367.94
792.549	15362.97
792.882	15204.78
793.214	15220.83
793.546	15238.91
793.879	15109.65
794.211	15106.48
794.543	15130.44
794.875	15120.04
795.207	15120.72
795.539	15066.26
795.871	15061.74
796.203	14979.93
796.535	14916.43
796.867	14884.79
797.198	14814.51
797.53	14882.76
797.862	14772.93
798.193	14853.38
798.525	14714.18
798.856	14708.53
799.188	14667.4
799.519	14578.36
799.85	14625.82
800.182	14568.64
800.513	14574.74
800.844	14365.03
801.175	14530.9
801.506	14486.38
801.837	14345.37
802.168	14410.45
802.499	14311.25
802.83	14290.23
803.161	14259.05
803.491	14258.82
803.822	14277.35
804.153	14195.54
804.483	14006.85
804.814	14006.17
805.145	13976.34
805.475	14017.7
805.805	13947.19
806.136	13972.27
806.466	13940.18
806.796	13941.99
807.126	13800.75
807.457	13720.53
807.787	13797.59
808.117	13645.28
808.447	13789.68
808.777	13703.81
809.107	13739.51
809.436	13686.63
809.766	13574.09
810.096	13643.02
810.426	13522.79
810.755	13480.76
811.085	13549.69
811.414	13495.45
811.744	13377.94
812.073	13410.25
812.403	13371.39
812.732	13280.09
813.061	13269.92
813.39	13210.94
813.719	13198.96
814.049	13274.44
814.378	13204.84
814.707	13168.45
815.036	13223.82
815.365	13061.34
815.693	13026.99
816.022	13030.38
816.351	12978.4
816.68	12888.23
817.008	12983.15
817.337	12831.96
817.665	12834.68
817.994	12827.45
818.322	12908.35
818.651	12787.22
818.979	12771.4
819.307	12851.4
819.636	12749.71
819.964	12639.43
820.292	12819.31
820.62	12763.49
820.948	12705.87
821.276	12690.27
821.604	12580.67
821.932	12679.2
822.259	12678.52
822.587	12663.38
822.915	12617.96
823.243	12679.88
823.57	12694.57
823.898	12629.71
824.225	12574.34
824.553	12597.17
824.88	12626.32
825.207	12610.05
825.535	12577.73
825.862	12658.18
826.189	12587.23
826.516	12715.13
826.843	12619.77
827.17	12641.91
827.497	12705.19
827.824	12701.8
828.151	12731.85
828.478	12673.32
828.805	12714.45
829.131	12584.51
829.458	12695.7
829.785	12604.85
830.111	12638.98
830.438	12694.34
830.764	12649.6
831.09	12702.02
831.417	12629.48
831.743	12641.69
832.069	12709.03
832.395	12625.64
832.722	12625.19
833.048	12583.84
833.374	12656.6
833.7	12633.78
834.026	12583.61
834.351	12617.06
834.677	12555.14
835.003	12507.91
835.329	12524.4
835.654	12440.56
835.98	12402.82
836.306	12508.58
836.631	12402.6
836.956	12476.27
837.282	12501.13
837.607	12368.47
837.932	12326.89
838.258	12362.82
838.583	12394.91
838.908	12309.04
839.233	12342.94
839.558	12323.05
839.883	12262.04
840.208	12263.62
840.533	12266.1
840.858	12232.43
841.182	12274.69
841.507	12187.46
841.832	12137.97
842.156	12132.32
842.481	12081.48
842.805	12050.52
843.13	11987.69
843.454	12038.09
843.778	12091.42
844.103	11891.88
844.427	11937.53
844.751	11895.49
845.075	11955.6
845.399	11891.65
845.723	11747.7
846.047	11836.74
846.371	11688.27
846.695	11754.71
847.019	11595.61
847.343	11638.78
847.666	11507.03
847.99	11464.77
848.313	11508.16
848.637	11417.54
848.96	11361.5
849.284	11359.24
849.607	11287.15
849.931	11318.78
850.254	11163.53
850.577	11138.68
850.9	11088.28
851.223	11046.02
851.546	11042.63
851.869	10931.45
852.192	10955.63
852.515	10928.29
852.838	10828.63
853.161	10812.81
853.483	10777.56
853.806	10721.29
854.129	10725.81
854.451	10681.51
854.774	10621.18
855.096	10568.07
855.419	10507.73
855.741	10467.51
856.063	10470.9
856.385	10431.58
856.708	10420.73
857.03	10330.79
857.352	10364.46
857.674	10347.06
857.996	10286.27
858.318	10171.47
858.64	10309.55
858.961	10185.03
859.283	10168.76
859.605	10138.48
859.926	10109.32
860.248	10110.91
860.57	10095.77
860.891	10072.72
861.212	10065.03
861.534	10014.41
861.855	9959.27
862.176	9956.79
862.498	9979.16
862.819	9941.42
863.14	9955.43
863.461	9928.09
863.782	9869.78
864.103	9859.16
864.424	9848.09
864.745	9841.08
865.065	9798.37
865.386	9782.78
865.707	9737.13
866.027	9741.2
866.348	9689.22
866.668	9654.2
866.989	9690.35
867.309	9630.92
867.63	9691.26
867.95	9633.63
868.27	9604.03
868.59	9605.61
868.91	9552.28
869.23	9553.41
869.55	9507.98
869.87	9585.5
870.19	9529.68
870.51	9480.41
870.83	9442.22
871.15	9422.56
871.469	9453.75
871.789	9490.58
872.109	9476.12
872.428	9411.49
872.748	9431.6
873.067	9416.46
873.386	9427.53
873.706	9401.55
874.025	9357.25
874.344	9372.39
874.663	9390.47
874.982	9273.19
875.301	9262.79
875.62	9249.23
875.939	9230.03
876.258	9278.39
876.577	9201.1
876.896	9231.61
877.214	9217.14
877.533	9240.42
877.852	9163.13
878.17	9197.94
878.489	9147.32
878.807	9143.25
879.125	9120.88
879.444	9103.7
879.762	9103.25
880.08	9032.06
880.398	9071.16
880.716	9052.18
881.034	9089.01
881.352	8959.75
881.67	9021.9
881.988	8954.33
882.306	9049.92
882.624	8923.82
882.941	8989.35
883.259	8837.95
883.577	8811.28
883.894	8805.86
884.212	8758.4
884.529	8805.63
884.846	8800.43
885.164	8708.68
885.481	8749.59
885.798	8698.97
886.115	8659.87
886.432	8721.34
886.75	8644.96
887.067	8637.72
887.383	8614.9
887.7	8588.69
888.017	8593.21
888.334	8608.8
888.651	8581.46
888.967	8490.16
889.284	8518.41
889.6	8425.98
889.917	8412.65
890.233	8363.16
890.55	8403.83
890.866	8377.17
891.182	8346.89
891.498	8306.89
891.815	8300.33
892.131	8224.85
892.447	8190.96
892.763	8208.36
893.079	8211.3
893.395	8188.92
893.71	8176.72
894.026	8121.35
894.342	8098.08
894.657	8023.5
894.973	8066.89
895.289	8071.41
895.604	8003.84
895.92	7950.96
896.235	7907.57
896.55	7922.49
896.865	7926.78
897.181	7900.57
897.496	7852.89
897.811	7815.15
898.126	7807.24
898.441	7718.43
898.756	7786
899.071	7681.14
899.386	7727.47
899.7	7647.02
900.015	7612.89
900.33	7558.43
900.644	7558.21
900.959	7586.68
901.273	7512.56
901.588	7485.44
901.902	7444.08
902.216	7392.33
902.531	7400.24
902.845	7375.39
903.159	7299
903.473	7323.64
903.787	7277.31
904.101	7223.07
904.415	7223.75
904.729	7223.3
905.042	7163.41
905.356	7072.12
905.67	7119.57
905.984	7150.08
906.297	7114.83
906.611	7004.32
906.924	6979.24
907.237	6979.24
907.551	6898.11
907.864	6953.48
908.177	6895.4
908.491	6905.12
908.804	6866.47
909.117	6774.5
909.43	6776.53
909.743	6720.71
910.056	6763.88
910.368	6721.39
910.681	6701.28
910.994	6621.28
911.307	6630.32
911.619	6549.64
911.932	6552.13
912.244	6569.53
912.557	6529.31
912.869	6482.3
913.181	6418.12
913.494	6443.21
913.806	6430.1
914.118	6423.77
914.43	6354.62
914.742	6353.27
915.054	6324.57
915.366	6324.57
915.678	6262.19
915.99	6228.75
916.302	6204.34
916.613	6192.59
916.925	6152.37
917.236	6150.78
917.548	6100.16
917.859	6071.46
918.171	6011.81
918.482	6043.89
918.794	6040.96
919.105	6027.62
919.416	5965.48
919.727	5942.65
920.038	5920.28
920.349	5887.06
920.66	5897.91
920.971	5876.67
921.282	5810.91
921.593	5796.44
921.903	5779.04
922.214	5732.94
922.525	5768.2
922.835	5699.72
923.146	5665.83
923.456	5663.57
923.767	5634.19
924.077	5665.15
924.387	5641.65
924.697	5606.62
925.008	5563.91
925.318	5535.89
925.628	5518.26
925.938	5523.46
926.248	5450.92
926.558	5447.75
926.867	5429.67
927.177	5427.41
927.487	5343.12
927.796	5288.66
928.106	5325.27
928.416	5286.85
928.725	5290.24
929.034	5238.49
929.344	5284.14
929.653	5232.16
929.962	5206.85
930.271	5195.1
930.581	5182.67
930.89	5160.75
931.199	5102.9
931.508	5080.98
931.817	5065.62
932.125	5066.97
932.434	5039.63
932.743	4994.88
933.051	5010.48
933.36	4952.17
933.669	4936.58
933.977	4905.17
934.286	4956.47
934.594	4885.28
934.902	4828.79
935.21	4853.42
935.519	4829.46
935.827	4852.74
936.135	4800.31
936.443	4734.55
936.751	4722.57
937.059	4762.35
937.367	4675.34
937.674	4705.4
937.982	4662.46
938.29	4659.75
938.597	4665.4
938.905	4556.02
939.213	4585.4
939.52	4580.88
939.827	4588.34
940.135	4498.62
940.442	4521
940.749	4464.5
941.056	4443.48
941.363	4451.17
941.67	4412.98
941.977	4436.93
942.284	4424.05
942.591	4403.49
942.898	4306.54
943.205	4366.42
943.511	4356.48
943.818	4327.56
944.125	4276.03
944.431	4255.24
944.738	4236.71
945.044	4232.42
945.35	4207.56
945.657	4190.84
945.963	4156.03
946.269	4173.89
946.575	4156.03
946.881	4137.73
947.187	4129.82
947.493	4045.08
947.799	4077.17
948.105	4104.96
948.41	4073.55
948.716	4017.28
949.022	4068.13
949.327	3985.87
949.633	3965.76
949.938	3954.01
950.244	3959.66
950.549	3916.04
950.854	3887.34
951.16	3918.07
951.465	3892.31
951.77	3819.32
952.075	3831.07
952.38	3820.22
952.685	3834.46
952.99	3757.4
953.294	3776.61
953.599	3789.04
953.904	3751.07
954.209	3696.84
954.513	3740.45
954.818	3720.57
955.122	3696.61
955.426	3702.71
955.731	3673.79
956.035	3633.34
956.339	3612.09
956.643	3622.72
956.948	3576.39
957.252	3565.54
957.556	3587.91
957.86	3570.06
958.163	3539.55
958.467	3557.18
958.771	3488.93
959.075	3525.54
959.378	3498.88
959.682	3447.13
959.985	3434.7
960.289	3408.94
960.592	3421.36
960.896	3394.02
961.199	3357.86
961.502	3395.38
961.805	3377.75
962.108	3357.86
962.411	3351.99
962.714	3363.97
963.017	3319.45
963.32	3330.97
963.623	3275.38
963.926	3263.18
964.228	3214.82
964.531	3237.87
964.833	3239
965.136	3194.93
965.438	3182.5
965.741	3189.05
966.043	3180.47
966.345	3168.94
966.648	3131.2
966.95	3189.05
967.252	3140.24
967.554	3095.95
967.856	3068.83
968.158	3064.54
968.46	3069.28
968.761	3060.24
969.063	3040.36
969.365	3004.43
969.666	3017.31
969.968	3022.96
970.269	3020.02
970.571	2990.87
970.872	2976.18
971.174	2959.91
971.475	2941.6
971.776	2921.94
972.077	2913.13
972.378	2917.65
972.679	2879.01
972.98	2895.73
973.281	2893.47
973.582	2846.92
973.883	2836.75
974.183	2813.92
974.484	2815.73
974.785	2819.57
975.085	2813.47
975.386	2804.43
975.686	2751.33
975.986	2735.06
976.287	2719.91
976.587	2716.98
976.887	2712.46
977.187	2691.67
977.487	2683.08
977.787	2701.38
978.087	2656.19
978.387	2653.02
978.687	2618.45
978.987	2608.73
979.286	2634.04
979.586	2612.12
979.885	2595.4
980.185	2580.26
980.484	2551.56
980.784	2553.59
981.083	2558.11
981.382	2556.75
981.682	2557.66
981.981	2524.21
982.28	2532.35
982.579	2485.57
982.878	2485.8
983.177	2446.93
983.475	2473.14
983.774	2445.35
984.073	2419.36
984.372	2467.49
984.67	2450.32
984.969	2442.63
985.267	2394.27
985.566	2362.86
985.864	2403.09
986.162	2361.05
986.461	2361.73
986.759	2306.82
987.057	2348.4
987.355	2313.37
987.653	2304.56
987.951	2344.56
988.249	2310.43
988.547	2256.2
988.844	2267.5
989.142	2305.69
989.44	2242.64
989.737	2231.34
990.035	2245.12
990.332	2236.54
990.63	2259.36
990.927	2209.42
991.224	2161.74
991.521	2180.49
991.819	2173.94
992.116	2181.4
992.413	2169.19
992.71	2129.42
993.006	2123.55
993.303	2125.13
993.6	2120.61
993.897	2129.65
994.193	2069.99
994.49	2095.52
994.787	2104.56
995.083	2074.06
995.379	2037.22
995.676	2034.06
995.972	2035.19
996.268	2035.64
996.565	2013.04
996.861	2016.88
997.157	1980.95
997.453	2012.14
997.749	1979.82
998.044	1982.08
998.34	1925.58
998.636	1963.55
998.932	1932.59
999.227	1943.66
999.523	1903.66
999.818	1889.43
1000.114	1936.43
1000.409	1854.63
1000.704	1886.94
1001	1865.47
1001.295	1852.82
1001.59	1877.9
1001.885	1870.67
1002.18	1838.58
1002.475	1821.86
1002.77	1836.1
1003.065	1809.43
1003.359	1808.98
1003.654	1778.47
1003.949	1763.1
1004.243	1789.32
1004.538	1742.54
1004.832	1734.86
1005.127	1742.31
1005.421	1763.78
1005.715	1703.9
1006.009	1690.11
1006.304	1706.83
1006.598	1696.66
1006.892	1688.3
1007.186	1678.36
1007.48	1644.24
1007.773	1660.51
1008.067	1650.11
1008.361	1622.77
1008.655	1638.59
1008.948	1596.78
1009.242	1617.34
1009.535	1603.33
1009.829	1597.91
1010.122	1587.51
1010.415	1588.42
1010.708	1559.04
1011.001	1554.52
1011.295	1550.45
1011.588	1517.23
1011.881	1543.9
1012.173	1514.75
1012.466	1531.47
1012.759	1500.96
1013.052	1477.91
1013.344	1503.68
1013.637	1468.87
1013.93	1446.28
1014.222	1483.11
1014.514	1445.6
1014.807	1444.24
1015.099	1435.2
1015.391	1422.77
1015.683	1420.06
1015.976	1437.24
1016.268	1406.28
1016.56	1397.01
1016.851	1368.54
1017.143	1381.19
1017.435	1367.63
1017.727	1357.69
1018.018	1362.44
1018.31	1347.52
1018.602	1325.6
1018.893	1315.88
1019.185	1294.87
1019.476	1333.96
1019.767	1310.01
1020.058	1303.45
1020.35	1279.05
1020.641	1297.8
1020.932	1288.31
1021.223	1240.86
1021.514	1278.6
1021.804	1233.17
1022.095	1252.61
1022.386	1232.27
1022.677	1225.04
1022.967	1224.36
1023.258	1216.23
1023.548	1187.98
1023.839	1180.52
1024.129	1213.97
1024.419	1168.54
1024.709	1190.69
1025	1152.05
1025.29	1156.57
1025.58	1168.54
1025.87	1136
1026.16	1157.92
1026.449	1144.81
1026.739	1103.91
1027.029	1128.09
1027.319	1117.02
1027.608	1113.85
1027.898	1081.77
1028.187	1106.4
1028.477	1084.7
1028.766	1056.91
1029.055	1056.23
1029.344	1062.33
1029.634	1048.77
1029.923	1046.29
1030.212	1081.09
1030.501	1041.77
1030.79	1015.55
1031.078	1020.3
1031.367	1009.68
1031.656	998.15
1031.945	992.95
1032.233	1005.38
1032.522	998.38
1032.81	976.91
1033.099	1015.1
1033.387	976.68
1033.675	960.64
1033.963	975.78
1034.251	956.12
1034.54	964.71
1034.828	966.97
1035.116	926.06
1035.403	940.53
1035.691	929.9
1035.979	920.19
1036.267	934.65
1036.554	918.61
1036.842	899.17
1037.129	913.41
1037.417	895.1
1037.704	891.71
1037.992	853.97
1038.279	861.21
1038.566	884.71
1038.853	884.71
1039.14	884.71
