Data from hue_130_FLMS001491_00046.txt Node
Date: Tue Feb 07 16:57:40 GMT 2017
User: dcchb
Spectrometer: FLMS00149
Trigger mode: 0
Integration Time (sec): 2.000000E-2
Scans to average: 10
Electric dark correction enabled: true
Nonlinearity correction enabled: false
Boxcar width: 0
XAxis mode: Wavelengths
Number of Pixels in Spectrum: 2048
>>>>>Begin Spectral Data<<<<<
341.393	-7.06
341.776	-7.06
342.16	-7.06
342.543	-77.34
342.927	-57.46
343.31	-80.73
343.693	-83.22
344.077	-62.2
344.46	-65.59
344.843	-66.72
345.226	-52.03
345.61	-46.38
345.993	8.53
346.376	-6.61
346.759	6.72
347.142	31.58
347.525	45.37
347.908	83.56
348.291	89.21
348.674	93.05
349.057	105.48
349.44	116.55
349.823	149.54
350.206	170.79
350.588	215.08
350.971	195.19
351.354	242.2
351.737	241.52
352.119	249.65
352.502	270.22
352.884	267.96
353.267	284.23
353.65	292.37
354.032	302.31
354.414	323.1
354.797	308.18
355.179	313.61
355.562	317.9
355.944	336.43
356.326	324.68
356.709	327.17
357.091	322.65
357.473	338.47
357.855	339.37
358.238	340.5
358.62	352.93
359.002	345.02
359.384	319.26
359.766	342.31
360.148	357
360.53	338.92
360.912	334.62
361.294	342.99
361.676	331.69
362.057	325.13
362.439	333.27
362.821	321.97
363.203	320.61
363.584	326.49
363.966	323.55
364.348	314.96
364.729	312.7
365.111	336.66
365.493	316.77
365.874	333.04
366.256	312.93
366.637	324.45
367.019	339.6
367.4	321.29
367.781	334.17
368.163	304.12
368.544	342.08
368.925	295.08
369.306	328.75
369.688	317.9
370.069	330.1
370.45	324.68
370.831	320.84
371.212	310.9
371.593	317
371.974	323.78
372.355	318.13
372.736	329.88
373.117	327.62
373.498	321.97
373.879	331.01
374.26	310.22
374.641	319.48
375.021	326.49
375.402	333.04
375.783	339.37
376.163	319.48
376.544	326.26
376.925	331.91
377.305	333.95
377.686	337.11
378.066	328.97
378.447	325.36
378.827	321.97
379.208	329.88
379.588	312.25
379.968	339.6
380.349	342.99
380.729	340.95
381.109	345.7
381.489	332.14
381.87	335.75
382.25	340.27
382.63	333.95
383.01	343.89
383.39	348.63
383.77	348.86
384.15	343.21
384.53	342.08
384.91	348.63
385.29	341.18
385.67	357.67
386.049	355.87
386.429	372.36
386.809	346.83
387.189	345.25
387.568	356.77
387.948	345.92
388.328	386.15
388.707	358.13
389.087	362.42
389.466	371.01
389.846	370.78
390.225	374.62
390.605	379.37
390.984	392.02
391.363	371.23
391.743	382.31
392.122	382.53
392.501	371.46
392.881	372.82
393.26	390.44
393.639	403.1
394.018	394.96
394.397	391.57
394.776	394.74
395.155	382.53
395.534	394.06
395.913	365.13
396.292	394.74
396.671	404
397.05	406.94
397.429	375.07
397.808	375.07
398.186	389.76
398.565	390.67
398.944	403.1
399.323	376.2
399.701	388.18
400.08	391.8
400.458	412.81
400.837	397.22
401.215	404.68
401.594	403.1
401.972	397
402.351	414.62
402.729	406.71
403.107	432.93
403.486	422.08
403.864	426.15
404.242	413.94
404.62	427.28
404.999	434.96
405.377	422.98
405.755	418.46
406.133	422.76
406.511	426.82
406.889	425.24
407.267	459.37
407.645	447.16
408.023	445.13
408.401	464.34
408.779	454.39
409.156	453.49
409.534	443.32
409.912	454.17
410.29	455.52
410.667	430.89
411.045	458.01
411.422	456.88
411.8	484.9
412.178	490.55
412.555	500.04
412.933	477.22
413.31	487.16
413.687	500.5
414.065	488.52
414.442	475.64
414.819	499.82
415.197	504.11
415.574	503.21
415.951	499.14
416.328	495.07
416.705	510.89
417.082	514.51
417.46	511.12
417.837	514.73
418.214	543.21
418.591	545.01
418.967	546.82
419.344	531
419.721	542.98
420.098	520.16
420.475	577.33
420.852	508.86
421.228	542.98
421.605	555.41
421.982	563.77
422.358	554.28
422.735	551.34
423.111	568.97
423.488	567.61
423.864	576.43
424.241	579.82
424.617	587.72
424.994	561.51
425.37	587.72
425.746	613.26
426.123	571.23
426.499	617.33
426.875	602.64
427.251	604.45
427.627	601.74
428.003	607.84
428.379	608.06
428.756	612.81
429.132	643.99
429.507	630.44
429.883	627.27
430.259	653.49
430.635	642.41
431.011	652.36
431.387	665.24
431.763	659.36
432.138	655.75
432.514	682.64
432.89	681.96
433.265	699.36
433.641	698.68
434.016	707.27
434.392	690.55
434.767	714.95
435.143	714.95
435.518	700.04
435.894	734.39
436.269	733.03
436.644	745.46
437.02	754.27
437.395	765.35
437.77	732.13
438.145	770.32
438.52	754.95
438.895	779.58
439.271	768.28
439.646	794.72
440.021	790.88
440.395	767.83
440.77	807.61
441.145	807.83
441.52	811.22
441.895	818.45
442.27	819.13
442.645	808.96
443.019	844.89
443.394	837.66
443.769	856.19
444.143	839.92
444.518	862.52
444.892	846.93
445.267	869.75
445.641	876.76
446.016	857.32
446.39	893.03
446.764	914.5
447.139	873.82
447.513	894.84
447.887	891.45
448.262	906.36
448.636	903.65
449.01	915.63
449.384	933.7
449.758	929.86
450.132	944.33
450.506	910.88
450.88	950.2
451.254	946.36
451.628	946.13
452.002	964.89
452.376	974.16
452.75	1004.44
453.123	1018.67
453.497	1023.87
453.871	1001.05
454.244	1048.73
454.618	1028.62
454.992	1041.72
455.365	1040.37
455.739	1058.67
456.112	1059.12
456.486	1091.21
456.859	1127.15
457.232	1128.05
457.606	1090.08
457.979	1137.77
458.352	1151.1
458.725	1168.27
459.099	1150.87
459.472	1178.22
459.845	1206.47
460.218	1198.1
460.591	1196.75
460.964	1231.32
461.337	1261.61
461.71	1295.95
462.083	1292.56
462.456	1291.66
462.829	1336.41
463.201	1346.12
463.574	1355.84
463.947	1360.36
464.32	1415.05
464.692	1420.02
465.065	1413.24
465.438	1443.52
465.81	1458.44
466.183	1451.66
466.555	1503.41
466.928	1527.81
467.3	1539.56
467.672	1545.89
468.045	1609.84
468.417	1599.9
468.789	1618.21
469.161	1630.41
469.534	1688.49
469.906	1706.11
470.278	1728.26
470.65	1744.53
471.022	1803.74
471.394	1818.65
471.766	1886.67
472.138	1874.92
472.51	1903.17
472.882	1965.32
473.253	1992.89
473.625	2031.75
473.997	2123.96
474.369	2132.54
474.74	2171.19
475.112	2233.11
475.484	2299.09
475.855	2311.07
476.227	2365.08
476.598	2447.79
476.97	2486.88
477.341	2558.07
477.713	2582.7
478.084	2635.35
478.455	2744.73
478.827	2803.26
479.198	2891.84
479.569	2947.44
479.94	3065.17
480.311	3099.97
480.682	3266.98
481.053	3360.08
481.424	3369.12
481.795	3511.72
482.166	3575.67
482.537	3656.57
482.908	3792.39
483.279	3823.12
483.65	3970.46
484.021	4087.07
484.391	4205.71
484.762	4280.73
485.133	4433.5
485.503	4477.34
485.874	4642.08
486.244	4715.75
486.615	4885.46
486.985	4947.38
487.356	5097.21
487.726	5185.34
488.097	5385.11
488.467	5480.93
488.837	5615.84
489.207	5774.71
489.578	5909.39
489.948	6018.77
490.318	6177.18
490.688	6236.39
491.058	6453.79
491.428	6480.68
491.798	6671.86
492.168	6871.85
492.538	6960.21
492.908	7070.94
493.278	7241.79
493.648	7417.83
494.017	7501.67
494.387	7634.55
494.757	7758.16
495.126	7900.3
495.496	8026.17
495.866	8142.55
496.235	8327.41
496.605	8451.02
496.974	8538.02
497.344	8709.09
497.713	8777.34
498.082	8893.27
498.452	9008.52
498.821	9161.28
499.19	9233.15
499.559	9320.38
499.928	9442.41
500.298	9557.88
500.667	9700.71
501.036	9685.79
501.405	9857.76
501.774	9967.59
502.143	10069.06
502.512	10088.94
502.88	10217.3
503.249	10341.59
503.618	10386.11
503.987	10475.6
504.356	10582.04
504.724	10679.21
505.093	10720.79
505.462	10787.46
505.83	10939.99
506.199	11041.24
506.567	11161.68
506.936	11112.87
507.304	11328.23
507.672	11384.73
508.041	11412.3
508.409	11534.56
508.777	11607.32
509.145	11646.19
509.514	11669.24
509.882	11759.18
510.25	11787.43
510.618	11953.08
510.986	11937.71
511.354	12100.19
511.722	12093.18
512.09	12138.38
512.458	12125.05
512.826	12306.51
513.193	12347.64
513.561	12426.74
513.929	12469.9
514.297	12557.13
514.664	12531.82
515.032	12678.03
515.4	12685.49
515.767	12711.47
516.135	12793.28
516.502	12734.52
516.869	12863.79
517.237	12945.14
517.604	12907.85
517.972	12936.33
518.339	13087.06
518.706	13005.93
519.073	13139.26
519.44	13105.81
519.808	13203.89
520.175	13111.69
520.542	13393.72
520.909	13279.82
521.276	13294.28
521.643	13452.25
522.009	13473.94
522.376	13529.53
522.743	13451.79
523.11	13544.45
523.477	13646.36
523.843	13642.97
524.21	13719.13
524.577	13789.41
524.943	13797.77
525.31	13886.36
525.676	13957.09
526.043	14001.84
526.409	13957.32
526.776	13936.07
527.142	14054.04
527.508	13973.81
527.874	14097.88
528.241	14045.9
528.607	14060.82
528.973	14110.98
529.339	13995.28
529.705	14122.51
530.071	14190.3
530.437	14177.65
530.803	14257.42
531.169	14219.46
531.535	14205.22
531.901	14190.53
532.267	14211.55
532.632	14195.28
532.998	14183.98
533.364	14099.69
533.73	14231.66
534.095	14208.84
534.461	14149.4
534.826	14216.07
535.192	14161.83
535.557	14161.83
535.923	14157.99
536.288	14059.01
536.653	14084.54
537.019	14097.43
537.384	14119.12
537.749	14097.65
538.114	14071.89
538.479	14075.51
538.845	14061.95
539.21	13977.88
539.575	14005.68
539.94	13961.38
540.305	14043.87
540.67	13848.39
541.034	13847.26
541.399	13898.79
541.764	13763.65
542.129	13801.84
542.494	13794.16
542.858	13813.82
543.223	13734.5
543.587	13758.23
543.952	13708.96
544.316	13661.51
544.681	13641.84
545.045	13702.86
545.41	13635.52
545.774	13573.15
546.138	13542.64
546.503	13600.94
546.867	13553.71
547.231	13500.38
547.595	13449.99
547.959	13428.74
548.324	13402.3
548.688	13347.62
549.052	13294.06
549.416	13302.42
549.779	13280.05
550.143	13192.82
550.507	13297.67
550.871	13226.04
551.235	13175.42
551.599	13238.01
551.962	13145.59
552.326	13097.45
552.689	13249.76
553.053	13097.45
553.417	12996.66
553.78	13205.7
554.143	12952.37
554.507	13053.16
554.87	12991.92
555.234	13021.07
555.597	13001.86
555.96	13003.44
556.323	13023.1
556.686	12986.72
557.05	12981.98
557.413	13016.78
557.776	12924.35
558.139	13009.54
558.502	12993.95
558.865	12931.13
559.228	12996.66
559.59	12955.76
559.953	12925.03
560.316	13068.98
560.679	12982.43
561.041	13032.37
561.404	13054.74
561.767	13108.3
562.129	13022.65
562.492	13084.57
562.854	13024.46
563.217	12996.89
563.579	13050.9
563.941	13082.99
564.304	13078.47
564.666	13055.42
565.028	13120.05
565.39	13118.47
565.753	13210.67
566.115	13078.24
566.477	13205.02
566.839	13146.04
567.201	13254.74
567.563	13223.1
567.925	13304.45
568.287	13207.96
568.648	13207.96
569.01	13291.35
569.372	13369.99
569.734	13203.66
570.095	13300.84
570.457	13317.79
570.819	13360.5
571.18	13323.21
571.542	13412.47
571.903	13361.85
572.265	13381.29
572.626	13418.57
572.987	13386.94
573.349	13480.72
573.71	13445.01
574.071	13511.9
574.432	13506.03
574.794	13560.04
575.155	13465.8
575.516	13376.54
575.877	13547.61
576.238	13548.51
576.599	13614.5
576.96	13571.34
577.32	13524.56
577.681	13634.39
578.042	13547.38
578.403	13537.67
578.763	13516.65
579.124	13595.52
579.485	13653.82
579.845	13600.26
580.206	13586.03
580.566	13621.73
580.927	13545.35
581.287	13625.57
581.648	13580.6
582.008	13628.51
582.368	13627.38
582.728	13690.88
583.089	13620.15
583.449	13610.89
583.809	13666.02
584.169	13607.04
584.529	13515.52
584.889	13708.51
585.249	13455.63
585.609	13479.59
585.969	13521.62
586.329	13513.94
586.688	13559.36
587.048	13419.25
587.408	13498.12
587.768	13462.87
588.127	13540.6
588.487	13452.47
588.846	13577.89
589.206	13464
589.565	13414.96
589.925	13450.66
590.284	13411.34
590.643	13353.49
591.003	13463.09
591.362	13458.12
591.721	13384.22
592.08	13298.35
592.44	13397.33
592.799	13506.26
593.158	13356.2
593.517	13396.2
593.876	13387.61
594.235	13318.24
594.593	13370.89
594.952	13420.16
595.311	13330.44
595.67	13357.78
596.029	13391.23
596.387	13393.26
596.746	13346.03
597.104	13298.12
597.463	13312.36
597.822	13331.12
598.18	13337.9
598.538	13340.38
598.897	13356.88
599.255	13246.6
599.613	13419.48
599.972	13214.96
600.33	13400.27
600.688	13293.83
601.046	13352.59
601.404	13388.52
601.762	13357.78
602.12	13466.93
602.478	13356.2
602.836	13417.67
603.194	13377.9
603.552	13298.8
603.91	13272.59
604.268	13369.76
604.625	13259.93
604.983	13371.57
605.341	13283.44
605.698	13344.45
606.056	13353.94
606.413	13319.59
606.771	13423.55
607.128	13436.2
607.485	13426.26
607.843	13338.12
608.2	13397.78
608.557	13502.19
608.914	13435.52
609.272	13445.69
609.629	13455.41
609.986	13592.58
610.343	13516.88
610.7	13524.56
611.057	13475.52
611.414	13493.15
611.771	13477.78
612.127	13539.25
612.484	13658.57
612.841	13535.18
613.198	13501.74
613.554	13484.56
613.911	13562.75
614.267	13543.77
614.624	13597.55
614.98	13635.07
615.337	13660.38
615.693	13618.79
616.05	13591.68
616.406	13714.16
616.762	13632.58
617.118	13622.41
617.475	13673.26
617.831	13672.8
618.187	13733.82
618.543	13740.37
618.899	13729.98
619.255	13768.17
619.611	13690.43
619.967	13754.38
620.323	13764.78
620.678	13725.46
621.034	13672.58
621.39	13760.71
621.746	13700.6
622.101	13767.04
622.457	13668.96
622.812	13720.94
623.168	13766.59
623.523	13762.97
623.879	13797.32
624.234	13767.04
624.589	13787.6
624.945	13846.59
625.3	13814.72
625.655	13785.12
626.01	13741.5
626.365	13773.59
626.72	13703.99
627.075	13748.51
627.43	13703.54
627.785	13700.6
628.14	13706.25
628.495	13750.09
628.85	13753.03
629.205	13758.9
629.559	13745.8
629.914	13689.3
630.269	13721.39
630.623	13707.83
630.978	13597.55
631.332	13719.13
631.687	13739.92
632.041	13607.95
632.396	13743.31
632.75	13616.53
633.104	13627.16
633.459	13544.9
633.813	13583.77
634.167	13560.04
634.521	13543.54
634.875	13472.13
635.229	13509.87
635.583	13496.09
635.937	13453.6
636.291	13470.55
636.645	13492.7
636.999	13385.81
637.352	13419.7
637.706	13351.23
638.06	13407.27
638.413	13409.08
638.767	13313.27
639.121	13398.24
639.474	13211.57
639.828	13337.22
640.181	13299.48
640.534	13346.71
640.888	13241.63
641.241	13152.82
641.594	13297.67
641.947	13291.35
642.301	13201.18
642.654	13208.86
643.007	13194.85
643.36	13221.06
643.713	13244.57
644.066	13222.42
644.419	13138.13
644.771	13024.46
645.124	13062.65
645.477	12995.53
645.83	12835.76
646.182	12720.06
646.535	12759.16
646.888	12796.67
647.24	12758.7
647.593	12891.58
647.945	12809.55
648.298	12673.73
648.65	12671.7
649.002	12622.44
649.355	12684.81
649.707	12708.54
650.059	12816.56
650.411	12934.29
650.763	12908.98
651.115	13115.76
651.467	13043.44
651.819	13012.71
652.171	13027.4
652.523	13057.45
652.875	12993.5
653.227	12910.79
653.578	13090.22
653.93	13042.09
654.282	12894.29
654.633	12936.55
654.985	12945.59
655.337	12998.25
655.688	12976.78
656.039	13024.46
656.391	12872.37
656.742	12897.46
657.094	12997.57
657.445	13040.05
657.796	12891.36
658.147	12972.48
658.498	12964.57
658.849	13057.91
659.2	13007.96
659.551	12996.21
659.902	12937.46
660.253	13059.71
660.604	12984.91
660.955	12975.2
661.306	13020.62
661.656	13072.59
662.007	13057.23
662.358	13038.02
662.708	13051.8
663.059	13062.88
663.409	12984.69
663.76	13101.07
664.11	13054.97
664.461	13118.24
664.811	13029.21
665.161	13047.51
665.511	13037.79
665.862	13059.94
666.212	13057.91
666.562	13060.84
666.912	13069.43
667.262	13052.48
667.612	13092.48
667.962	13053.16
668.312	13094.97
668.662	13095.19
669.011	13012.93
669.361	13028.08
669.711	13075.76
670.06	12982.65
670.41	12963.9
670.76	12987.17
671.109	12972.94
671.459	13039.83
671.808	12956.89
672.157	12998.02
672.507	12995.99
672.856	12937
673.205	12916.89
673.554	12973.84
673.904	12894.29
674.253	12892.03
674.602	12931.81
674.951	12668.31
675.3	12605.49
675.649	12869.89
675.998	12848.65
676.346	12802.54
676.695	12834.18
677.044	12798.48
677.393	12834.63
677.741	12815.2
678.09	12738.37
678.438	12699.95
678.787	12758.93
679.135	12729.33
679.484	12702.21
679.832	12719.61
680.181	12708.08
680.529	12586.96
680.877	12613.85
681.225	12633.06
681.573	12663.11
681.922	12546.73
682.27	12602.78
682.618	12588.31
682.966	12555.32
683.314	12573.4
683.661	12540.86
684.009	12553.96
684.357	12450.01
684.705	12363.69
685.053	12448.66
685.4	12398.94
685.748	12323.46
686.095	12309.9
686.443	12240.07
686.79	12247.53
687.138	12234.42
687.485	12244.37
687.832	12236.23
688.18	12219.51
688.527	12081.21
688.874	12177.93
689.221	12029.01
689.568	11993.75
689.915	11967.31
690.262	11989.68
690.609	11965.96
690.956	11881.44
691.303	11830.37
691.65	11770.71
691.997	11784.72
692.344	11739.97
692.69	11680.77
693.037	11725.51
693.383	11551.05
693.73	11582.24
694.077	11491.62
694.423	11545.63
694.769	11500.88
695.116	11443.71
695.462	11402.36
695.808	11343.6
696.155	11426.76
696.501	11301.57
696.847	11260.66
697.193	11199.65
697.539	11239.2
697.885	11088.24
698.231	11163.94
698.577	11044.4
698.923	11050.05
699.269	10977.51
699.614	10968.02
699.96	10947.68
700.306	10888.92
700.651	10888.47
700.997	10815.7
701.342	10831.52
701.688	10758.98
702.033	10663.84
702.379	10670.62
702.724	10636.73
703.069	10711.3
703.415	10530.51
703.76	10518.54
704.105	10543.62
704.45	10511.76
704.795	10425.88
705.14	10423.4
705.485	10392.89
705.83	10388.14
706.175	10381.82
706.52	10269.5
706.865	10259.56
707.209	10202.84
707.554	10180.92
707.899	10257.07
708.243	10151.77
708.588	10087.59
708.932	10050.07
709.277	10075.61
709.621	9978.21
709.966	10013.47
710.31	10042.62
710.654	9888.72
710.998	9886.92
711.342	9969.4
711.687	9891.89
712.031	9806.24
712.375	9746.81
712.719	9812.34
713.063	9823.19
713.407	9775.96
713.75	9723.3
714.094	9782.96
714.438	9761.04
714.782	9758.11
715.125	9632.46
715.469	9736.64
715.812	9654.15
716.156	9589.75
716.499	9609.41
716.843	9663.87
717.186	9585
717.53	9646.02
717.873	9605.79
718.216	9604.89
718.559	9496.42
718.902	9444.89
719.246	9492.35
719.589	9453.71
719.932	9450.09
720.275	9506.36
720.617	9442.41
720.96	9347.95
721.303	9429.07
721.646	9394.27
721.989	9368.51
722.331	9413.26
722.674	9354.95
723.016	9310.66
723.359	9348.17
723.701	9339.81
724.044	9314.5
724.386	9256.2
724.729	9352.92
725.071	9281.28
725.413	9232.24
725.755	9277.21
726.097	9208.51
726.439	9127.61
726.782	9159.7
727.124	9280.6
727.465	9181.17
727.807	9243.77
728.149	9185.46
728.491	9167.39
728.833	9174.17
729.175	9098.46
729.516	9075.41
729.858	9116.31
730.199	9172.36
730.541	9175.97
730.882	9142.98
731.224	9184.33
731.565	9140.49
731.906	9130.55
732.248	9104.11
732.589	9140.04
732.93	9109.08
733.271	9037.45
733.612	9104.56
733.953	9132.81
734.294	9113.6
734.635	9107.5
734.976	9142.75
735.317	9073.38
735.658	9055.07
735.999	9074.96
736.339	9105.92
736.68	9078.12
737.021	9070.89
737.361	9121.29
737.702	9135.52
738.042	9143.66
738.383	9133.04
738.723	9164.45
739.063	9104.79
739.404	9163.54
739.744	9129.65
740.084	9067.5
740.424	9192.92
740.764	9179.36
741.104	9198.35
741.444	9144.56
741.784	9212.81
742.124	9215.07
742.464	9207.61
742.804	9174.17
743.143	9288.51
743.483	9289.87
743.823	9236.54
744.162	9343.65
744.502	9339.58
744.841	9279.02
745.181	9428.62
745.52	9388.85
745.86	9444.44
746.199	9486.93
746.538	9484.21
746.877	9545.46
747.216	9643.76
747.556	9602.4
747.895	9696.64
748.234	9737.31
748.573	9803.08
748.911	9812.34
749.25	9953.35
749.589	9932.11
749.928	10028.61
750.267	10141.15
750.605	10126.23
750.944	10250.3
751.283	10239.9
751.621	10386.79
751.96	10417.97
752.298	10516.5
752.636	10587.46
752.975	10693.67
753.313	10668.82
753.651	10885.76
753.989	10932.31
754.327	11102.93
754.666	11167.79
755.004	11276.03
755.342	11496.59
755.679	11574.55
756.017	11588.57
756.355	11786.53
756.693	11921.66
757.031	12017.25
757.368	12062
757.706	12288.89
758.044	12416.79
758.381	12619.27
758.719	12649.55
759.056	12955.08
759.394	12991.92
759.731	13078.7
760.068	13265.81
760.405	13395.07
760.743	13560.49
761.08	13749.86
761.417	13854.27
761.754	14037.99
762.091	14235.73
762.428	14315.95
762.765	14444.08
763.102	14680.46
763.438	14815.37
763.775	14853.79
764.112	15130.17
764.449	15223.5
764.785	15364.51
765.122	15461.68
765.458	15606.09
765.795	15809.02
766.131	16052.63
766.467	16123.59
766.804	16167.65
767.14	16302.79
767.476	16506.63
767.812	16555.21
768.148	16698.94
768.485	16798.37
768.821	16808.77
769.157	17011.02
769.492	17031.13
769.828	17221.64
770.164	17245.14
770.5	17373.27
770.836	17528.3
771.171	17489.2
771.507	17658.01
771.842	17642.64
772.178	17861.85
772.513	18011.22
772.849	18034.27
773.184	18055.06
773.519	18176.64
773.855	18217.09
774.19	18254.38
774.525	18337.09
774.86	18443.3
775.195	18574.37
775.53	18475.84
775.865	18486.69
776.2	18519.46
776.535	18464.54
776.87	18547.93
777.205	18600.13
777.539	18625.22
777.874	18673.58
778.209	18657.98
778.543	18699.79
778.878	18783.4
779.212	18786.12
779.547	18769.62
779.881	18836.06
780.215	18789.51
780.55	18836.96
780.884	18849.39
781.218	18795.38
781.552	18881.48
781.886	18818.21
782.22	18767.36
782.554	18719.23
782.888	18603.97
783.222	18676.29
783.556	18633.13
783.889	18723.29
784.223	18552.68
784.557	18544.09
784.89	18658.89
785.224	18503.19
785.557	18505.45
785.891	18529.85
786.224	18571.88
786.558	18570.3
786.891	18440.14
787.224	18445.11
787.557	18276.07
787.891	18461.15
788.224	18404.43
788.557	18325.56
788.89	18388.16
789.223	18361.72
789.556	18268.16
789.888	18216.64
790.221	18248.28
790.554	18093.48
790.887	18146.36
791.219	18070.2
791.552	18120.15
791.884	18043.99
792.217	18102.52
792.549	17977.32
792.882	17913.6
793.214	17905.01
793.546	17898.46
793.879	17825.01
794.211	17702.98
794.543	17806.93
794.875	17735.3
795.207	17729.65
795.539	17615.07
795.871	17750.44
796.203	17562.42
796.535	17514.96
796.867	17473.16
797.198	17360.84
797.53	17443.78
797.862	17330.56
798.193	17444.46
798.525	17177.12
798.856	17305.03
799.188	17089.66
799.519	17123.56
799.85	17026.61
800.182	17091.92
800.513	17032.49
800.844	16936
801.175	16940.29
801.506	17039.27
801.837	16912.95
802.168	16856
802.499	16882.44
802.83	16703.23
803.161	16832.5
803.491	16722.89
803.822	16724.02
804.153	16583.91
804.483	16440.42
804.814	16483.13
805.145	16554.54
805.475	16438.61
805.805	16402
806.136	16413.52
806.466	16404.71
806.796	16352.96
807.126	16274.54
807.457	16281.78
807.787	16163.59
808.117	16206.52
808.447	16107.09
808.777	16104.6
809.107	15996.59
809.436	16036.13
809.766	16004.72
810.096	15912.52
810.426	15909.36
810.755	15861
811.085	15872.29
811.414	15866.42
811.744	15702.36
812.073	15770.15
812.403	15695.58
812.732	15607.44
813.061	15607.67
813.39	15559.08
813.719	15583.94
814.049	15527.67
814.378	15495.58
814.707	15489.48
815.036	15431.63
815.365	15438.63
815.693	15285.42
816.022	15301.24
816.351	15269.15
816.68	15192.54
817.008	15308.69
817.337	15155.48
817.665	15053.11
817.994	15146.44
818.322	15060.11
818.651	14966.1
818.979	14964.75
819.307	15039.77
819.636	14958.87
819.964	14863.96
820.292	15010.62
820.62	14961.13
820.948	14899.66
821.276	14973.34
821.604	14866.9
821.932	14958.42
822.259	14871.42
822.587	14976.5
822.915	14810.4
823.243	14922.04
823.57	14814.7
823.898	14847.91
824.225	14828.48
824.553	14833.9
824.88	14934.24
825.207	14921.36
825.535	14872.09
825.862	14973.11
826.189	14896.95
826.516	14876.61
826.843	14916.84
827.17	14960.23
827.497	14866.45
827.824	14846.33
828.151	14971.53
828.478	14923.39
828.805	15014.69
829.131	14925.43
829.458	14844.3
829.785	14849.27
830.111	14961.81
830.438	14920
830.764	14945.31
831.09	14848.14
831.417	14894.69
831.743	15006.1
832.069	14957.97
832.395	14823.96
832.722	14866.9
833.048	14873.9
833.374	14911.42
833.7	14722.04
834.026	14861.02
834.351	14871.64
834.677	14850.63
835.003	14788.03
835.329	14741.02
835.654	14770.4
835.98	14759.78
836.306	14717.07
836.631	14567.02
836.956	14792.55
837.282	14776.96
837.607	14643.63
837.932	14535.61
838.258	14650.86
838.583	14573.35
838.908	14457.42
839.233	14511.43
839.558	14511.2
839.883	14473.01
840.208	14378.1
840.533	14368.38
840.858	14416.74
841.182	14338.55
841.507	14473.46
841.832	14256.74
842.156	14216.07
842.481	14271.43
842.805	14221.94
843.13	14245.9
843.454	14155.28
843.778	14121.38
844.103	14061.04
844.427	14110.31
844.751	14051.55
845.075	14058.78
845.399	14011.55
845.723	13862.63
846.047	13851.56
846.371	13856.75
846.695	13849.52
847.019	13787.15
847.343	13649.98
847.666	13554.16
847.99	13524.11
848.313	13581.96
848.637	13433.71
848.96	13487.27
849.284	13444.34
849.607	13329.54
849.931	13270.78
850.254	13203.89
850.577	13102.65
850.9	13053.61
851.223	13066.04
851.546	12995.76
851.869	12865.14
852.192	12979.72
852.515	12814.97
852.838	12711.25
853.161	12666.73
853.483	12650.91
853.806	12713.06
854.129	12650.91
854.451	12540.18
854.774	12448.43
855.096	12501.99
855.419	12423.12
855.741	12381.09
856.063	12316.91
856.385	12292.05
856.708	12307.87
857.03	12210.47
857.352	12238.04
857.674	12241.2
857.996	12044.37
858.318	12020.64
858.64	12075.11
858.961	12063.58
859.283	11979.06
859.605	11864.72
859.926	11954.88
860.248	11868.11
860.57	11937.93
860.891	11876.92
861.212	11692.52
861.534	11741.78
861.855	11713.08
862.176	11750.14
862.498	11671.73
862.819	11758.5
863.14	11638.96
863.461	11659.52
863.782	11552.86
864.103	11618.62
864.424	11528.23
864.745	11545.4
865.065	11482.58
865.386	11500.43
865.707	11506.53
866.027	11403.94
866.348	11410.94
866.668	11426.54
866.989	11360.55
867.309	11259.31
867.63	11382.02
867.95	11332.98
868.27	11293.21
868.59	11293.43
868.91	11223.6
869.23	11187.9
869.55	11135.7
869.87	11219.54
870.19	11120.78
870.51	11176.82
870.83	11214.34
871.15	11167.33
871.469	11128.24
871.789	11201
872.109	11115.36
872.428	11110.16
872.748	11110.84
873.067	11023.61
873.386	11042.14
873.706	11052.53
874.025	10992.87
874.344	11029.71
874.663	10973.21
874.982	10920.56
875.301	10994.23
875.62	10862.26
875.939	10907
876.258	10920.56
876.577	10922.37
876.896	10838.3
877.214	10803.73
877.533	10851.41
877.852	10820.45
878.17	10830.62
878.489	10776.16
878.807	10749.49
879.125	10747.46
879.444	10725.76
879.762	10678.53
880.08	10683.28
880.398	10686.22
880.716	10663.39
881.034	10673.79
881.352	10603.05
881.67	10578.2
881.988	10578.42
882.306	10489.16
882.624	10436.28
882.941	10384.08
883.259	10450.06
883.577	10409.84
883.894	10389.95
884.212	10331.42
884.529	10327.13
884.846	10347.69
885.164	10300.24
885.481	10281.71
885.798	10324.42
886.115	10116.51
886.432	10164.2
886.75	10165.33
887.067	10203.29
887.383	10102.73
887.7	10076.97
888.017	10064.09
888.334	10101.6
888.651	10046.23
888.967	9997.19
889.284	9998.1
889.6	9945.67
889.917	9933.92
890.233	9887.59
890.55	9771.44
890.866	9852.11
891.182	9790.42
891.498	9753.13
891.815	9739.35
892.131	9747.71
892.447	9648.5
892.763	9666.58
893.079	9646.7
893.395	9599.01
893.71	9647.83
894.026	9574.61
894.342	9536.64
894.657	9492.58
894.973	9450.77
895.289	9451.45
895.604	9398.79
895.92	9341.84
896.235	9382.97
896.55	9249.87
896.865	9282.19
897.181	9206.48
897.496	9227.72
897.811	9126.26
898.126	9190.44
898.441	9130.55
898.756	9071.8
899.071	9033.83
899.386	9015.75
899.7	8959.93
900.015	8861.18
900.33	8902.31
900.644	8864.8
900.959	8856.21
901.273	8802.2
901.588	8746.83
901.902	8711.8
902.216	8702.99
902.531	8696.21
902.845	8661.18
903.159	8659.6
903.473	8608.53
903.787	8547.29
904.101	8497.35
904.415	8470.46
904.729	8433.39
905.042	8331.48
905.356	8397.69
905.67	8380.74
905.984	8333.74
906.297	8318.59
906.611	8289.44
906.924	8358.37
907.237	8217.81
907.551	8203.57
907.864	8138.71
908.177	8069.34
908.491	8069.11
908.804	8066.17
909.117	7951.37
909.43	7967.87
909.743	7935.78
910.056	7965.61
910.368	7840.42
910.681	7805.16
910.994	7834.09
911.307	7757.93
911.619	7723.36
911.932	7743.24
912.244	7687.2
912.557	7624.6
912.869	7608.56
913.181	7567.43
913.494	7499.63
913.806	7478.62
914.118	7483.81
914.43	7481.55
914.742	7456.7
915.054	7390.94
915.366	7356.13
915.678	7353.42
915.99	7289.92
916.302	7253.76
916.613	7187.1
916.925	7254.89
917.236	7227.55
917.548	7138.06
917.859	7166.99
918.171	7119.3
918.482	7098.29
918.794	7073.43
919.105	6991.4
919.416	7005.86
919.727	6933.77
920.038	6945.07
920.349	6872.53
920.66	6968.8
920.971	6884.06
921.282	6820.78
921.593	6821.01
921.903	6780.33
922.214	6786.66
922.525	6696.26
922.835	6698.52
923.146	6633.89
923.456	6672.08
923.767	6545.76
924.077	6563.61
924.387	6522.71
924.697	6553.44
925.008	6508.7
925.318	6475.93
925.628	6477.29
925.938	6438.42
926.248	6368.59
926.558	6381.47
926.867	6361.81
927.177	6294.69
927.487	6336.5
927.796	6239.55
928.106	6225.77
928.416	6196.16
928.725	6195.03
929.034	6157.52
929.344	6147.35
929.653	6106.68
929.962	6111.2
930.271	6047.69
930.581	6024.42
930.89	6007.92
931.199	5969.05
931.508	5964.76
931.817	5930.18
932.125	5921.14
932.434	5895.83
932.743	5873.24
933.051	5803.63
933.36	5794.37
933.669	5778.32
933.977	5766.57
934.286	5715.95
934.594	5744.43
934.902	5649.51
935.21	5667.14
935.519	5644.09
935.827	5636.63
936.135	5567.48
936.443	5515.73
936.751	5525.67
937.059	5581.72
937.367	5495.62
937.674	5524.32
937.982	5420.59
938.29	5413.36
938.597	5436.86
938.905	5377.2
939.213	5342.18
939.52	5320.26
939.827	5349.63
940.135	5318.22
940.442	5279.13
940.749	5225.34
941.056	5296.08
941.363	5183.76
941.67	5187.38
941.977	5145.8
942.284	5147.6
942.591	5117.1
942.898	5086.36
943.205	5114.16
943.511	5076.42
943.818	5064.67
944.125	5022.64
944.431	4977.21
944.738	4926.82
945.044	4915.75
945.35	4935.86
945.657	4899.93
945.963	4880.72
946.269	4844.34
946.575	4809.99
946.881	4831.68
947.187	4793.72
947.493	4760.27
947.799	4752.13
948.105	4697.45
948.41	4697.9
948.716	4704
949.022	4672.59
949.327	4618.13
949.633	4642.99
949.938	4632.36
950.244	4557.34
950.549	4580.39
950.854	4568.86
951.16	4564.34
951.465	4505.36
951.77	4553.5
952.075	4469.43
952.38	4461.75
952.685	4402.09
952.99	4422.88
953.294	4424.01
953.599	4383.11
953.904	4390.56
954.209	4360.73
954.513	4317.34
954.818	4325.93
955.122	4289.32
955.426	4283.67
955.731	4254.07
956.035	4268.76
956.339	4185.82
956.643	4191.25
956.948	4194.64
957.252	4159.83
957.556	4144.47
957.86	4164.35
958.163	4097.69
958.467	4110.8
958.771	4068.76
959.075	4050.91
959.378	4024.92
959.682	4059.72
959.985	3987.64
960.289	3997.35
960.592	3927.52
960.896	3972.04
961.199	3960.97
961.502	3883.91
961.805	3882.55
962.108	3863.34
962.411	3919.16
962.714	3842.55
963.017	3843.46
963.32	3840.07
963.623	3796.68
963.926	3818.15
964.228	3778.83
964.531	3773.63
964.833	3776.12
965.136	3731.37
965.438	3713.29
965.741	3661.77
966.043	3683.24
966.345	3677.36
966.648	3654.31
966.95	3633.97
967.252	3616.12
967.554	3595.78
967.856	3559.62
968.158	3560.98
968.46	3573.86
968.761	3551.26
969.063	3506.97
969.365	3504.03
969.666	3479.4
969.968	3468.1
970.269	3464.71
970.571	3436.92
970.872	3415.9
971.174	3394.43
971.475	3411.15
971.776	3369.57
972.077	3313.75
972.378	3337.48
972.679	3348.1
972.98	3311.95
973.281	3300.65
973.582	3323.47
973.883	3286.18
974.183	3263.13
974.484	3227.43
974.785	3215
975.085	3192.63
975.386	3259.07
975.686	3200.31
975.986	3174.1
976.287	3193.76
976.587	3166.64
976.887	3114.66
977.187	3135.91
977.487	3155.57
977.787	3076.92
978.087	3064.04
978.387	3045.74
978.687	3065.63
978.987	3025.17
979.286	3045.74
979.586	3028.79
979.885	3012.29
980.185	3009.58
980.484	2971.84
980.784	2964.16
981.083	2972.97
981.382	2921.9
981.682	2944.72
981.981	2910.83
982.28	2892.52
982.579	2879.64
982.878	2875.35
983.177	2877.61
983.475	2900.21
983.774	2814.56
984.073	2813.43
984.372	2805.29
984.67	2781.57
984.969	2794.67
985.267	2803.71
985.566	2754
985.864	2748.12
986.162	2741.11
986.461	2736.59
986.759	2730.49
987.057	2666.77
987.355	2676.48
987.653	2663.6
987.951	2637.61
988.249	2635.58
988.547	2616.82
988.844	2606.65
989.142	2628.8
989.44	2580.67
989.737	2570.05
990.035	2553.55
990.332	2557.62
990.63	2552.42
990.927	2565.98
991.224	2536.6
991.521	2557.62
991.819	2517.84
992.116	2488.69
992.413	2497.28
992.71	2469.48
993.006	2466.77
993.303	2461.12
993.6	2427
993.897	2433.55
994.193	2412.31
994.49	2397.17
994.787	2372.31
995.083	2373.21
995.379	2351.97
995.676	2344.06
995.972	2344.51
996.268	2345.42
996.565	2334.8
996.861	2283.05
997.157	2295.7
997.453	2292.76
997.749	2303.16
998.044	2256.61
998.34	2225.87
998.636	2238.75
998.932	2263.39
999.227	2198.98
999.523	2226.33
999.818	2218.87
1000.114	2175.48
1000.409	2159.89
1000.704	2161.47
1001	2142.94
1001.295	2134.12
1001.59	2131.86
1001.885	2139.32
1002.18	2102.94
1002.475	2095.71
1002.77	2088.48
1003.065	2068.59
1003.359	2048.48
1003.654	2044.86
1003.949	2037.18
1004.243	2000.79
1004.538	2032.43
1004.832	1978.87
1005.127	2004.41
1005.421	1991.53
1005.715	1982.72
1006.009	1953.79
1006.304	1952.43
1006.598	1960.8
1006.892	1950.85
1007.186	1954.47
1007.48	1893.91
1007.773	1902.04
1008.067	1890.06
1008.361	1874.47
1008.655	1861.36
1008.948	1856.84
1009.242	1827.24
1009.535	1838.31
1009.829	1817.3
1010.122	1838.99
1010.415	1824.53
1010.708	1788.82
1011.001	1811.87
1011.295	1754.7
1011.588	1799.9
1011.881	1745.89
1012.173	1726.45
1012.466	1731.65
1012.759	1719.22
1013.052	1666.34
1013.344	1693.01
1013.637	1684.87
1013.93	1662.5
1014.222	1654.82
1014.514	1660.46
1014.807	1638.54
1015.099	1650.3
1015.391	1636.51
1015.683	1614.36
1015.976	1630.86
1016.268	1594.03
1016.56	1573.46
1016.851	1566.91
1017.143	1575.72
1017.435	1530.98
1017.727	1546.12
1018.018	1562.84
1018.31	1540.92
1018.602	1519
1018.893	1526.46
1019.185	1516.06
1019.476	1481.26
1019.767	1498.66
1020.058	1464.99
1020.35	1483.29
1020.641	1470.64
1020.932	1469.51
1021.223	1444.2
1021.514	1390.87
1021.804	1430.19
1022.095	1416.4
1022.386	1380.92
1022.677	1379.12
1022.967	1362.62
1023.258	1353.13
1023.548	1382.05
1023.839	1337.54
1024.129	1333.47
1024.419	1337.31
1024.709	1328.95
1025	1326.24
1025.29	1312
1025.58	1293.24
1025.87	1288.5
1026.16	1272.68
1026.449	1264.77
1026.739	1284.88
1027.029	1259.8
1027.319	1243.07
1027.608	1224.32
1027.898	1241.94
1028.187	1205.11
1028.477	1240.14
1028.766	1209.63
1029.055	1194.26
1029.344	1200.14
1029.634	1166.01
1029.923	1185.45
1030.212	1187.26
1030.501	1173.25
1030.79	1193.81
1031.078	1151.33
1031.367	1137.77
1031.656	1131.44
1031.945	1142.29
1032.233	1130.31
1032.522	1105.68
1032.81	1101.61
1033.099	1095.28
1033.387	1103.64
1033.675	1104.32
1033.963	1063.64
1034.251	1068.84
1034.54	1066.81
1034.828	1075.4
1035.116	1030.42
1035.403	1036.98
1035.691	1051.22
1035.979	1033.14
1036.267	1022.74
1036.554	1037.2
1036.842	999.92
1037.129	996.53
1037.417	972.57
1037.704	988.84
1037.992	1007.6
1038.279	992.69
1038.566	972.12
1038.853	972.12
1039.14	972.12
