Data from hue_270_FLMS001491_00062.txt Node
Date: Tue Feb 07 15:57:32 GMT 2017
User: dcchb
Spectrometer: FLMS00149
Trigger mode: 0
Integration Time (sec): 2.000000E-2
Scans to average: 10
Electric dark correction enabled: true
Nonlinearity correction enabled: false
Boxcar width: 0
XAxis mode: Wavelengths
Number of Pixels in Spectrum: 2048
>>>>>Begin Spectral Data<<<<<
341.393	-12.5
341.776	-12.5
342.16	-12.5
342.543	-66.28
342.927	-59.96
343.31	-58.15
343.693	-56.79
344.077	-68.32
344.46	-52.72
344.843	-71.26
345.226	-40.52
345.61	-35.1
345.993	-25.15
346.376	-1.65
346.759	-2.56
347.142	38.8
347.525	35.18
347.908	64.11
348.291	81.28
348.674	107.95
349.057	84.9
349.44	125.12
349.823	134.62
350.206	159.02
350.588	180.94
350.971	174.84
351.354	218.45
351.737	227.95
352.119	229.08
352.502	259.13
352.884	262.52
353.267	272.01
353.65	290.32
354.032	293.26
354.414	295.51
354.797	291
355.179	314.05
355.562	308.85
355.944	323.31
356.326	311.56
356.709	311.33
357.091	324.89
357.473	319.47
357.855	319.02
358.238	323.08
358.62	319.02
359.002	343.2
359.384	350.2
359.766	333.25
360.148	323.99
360.53	338.9
360.912	324.89
361.294	317.89
361.676	321.73
362.057	321.28
362.439	313.14
362.821	329.86
363.203	317.89
363.584	323.99
363.966	321.95
364.348	308.85
364.729	327.38
365.111	291.67
365.493	302.07
365.874	295.74
366.256	320.82
366.637	327.6
367.019	304.55
367.4	309.3
367.781	297.32
368.163	287.15
368.544	307.94
368.925	288.74
369.306	299.81
369.688	313.37
370.069	323.99
370.45	300.03
370.831	299.81
371.212	312.24
371.593	289.87
371.974	295.51
372.355	309.75
372.736	303.2
373.117	318.79
373.498	291.9
373.879	310.43
374.26	313.14
374.641	313.37
375.021	308.85
375.402	303.42
375.783	316.98
376.163	332.58
376.544	309.75
376.925	334.38
377.305	302.75
377.686	313.59
378.066	322.63
378.447	305.01
378.827	310.66
379.208	335.29
379.588	319.92
379.968	321.95
380.349	344.1
380.729	327.38
381.109	326.47
381.489	320.15
381.87	330.54
382.25	329.41
382.63	336.87
383.01	327.83
383.39	319.69
383.77	369.86
384.15	341.62
384.53	330.99
384.91	352.46
385.29	342.75
385.67	338.45
386.049	321.05
386.429	333.93
386.809	361.05
387.189	338.68
387.568	338.9
387.948	326.7
388.328	314.95
388.707	360.37
389.087	329.19
389.466	358.34
389.846	368.73
390.225	371.45
390.605	359.92
390.984	373.25
391.363	356.98
391.743	346.81
392.122	361.05
392.501	370.77
392.881	370.09
393.26	359.47
393.639	368.51
394.018	376.64
394.397	378
394.776	379.81
395.155	388.62
395.534	382.74
395.913	388.62
396.292	374.16
396.671	389.75
397.05	383.87
397.429	385.68
397.808	365.12
398.186	382.07
398.565	402.4
398.944	388.39
399.323	386.81
399.701	389.52
400.08	395.85
400.458	405.34
400.837	407.83
401.215	392.46
401.594	421.39
401.972	409.86
402.351	420.48
402.729	411.22
403.107	419.81
403.486	420.03
403.864	424.55
404.242	422.74
404.62	427.94
404.999	442.63
405.377	428.17
405.755	436.3
406.133	444.89
406.511	436.08
406.889	467.26
407.267	447.6
407.645	469.3
408.023	496.87
408.401	462.52
408.779	477.66
409.156	478.33
409.534	500.48
409.912	492.8
410.29	499.13
410.667	490.31
411.045	511.78
411.422	512.46
411.8	511.1
412.178	551.55
412.555	547.49
412.933	550.65
413.31	547.71
413.687	547.71
414.065	586.35
414.442	549.97
414.819	571.89
415.197	613.92
415.574	596.52
415.951	595.39
416.328	611.21
416.705	606.02
417.082	606.24
417.46	638.1
417.837	614.6
418.214	625.68
418.591	647.14
418.967	633.36
419.344	651.66
419.721	651.44
420.098	659.35
420.475	682.85
420.852	677.65
421.228	674.49
421.605	690.31
421.982	687.59
422.358	737.99
422.735	709.06
423.111	725.11
423.488	746.58
423.864	749.74
424.241	766.46
424.617	763.75
424.994	794.03
425.37	789.51
425.746	786.58
426.123	806.69
426.499	818.89
426.875	795.39
427.251	839
427.627	855.73
428.003	863.86
428.379	890.53
428.756	858.66
429.132	901.6
429.507	891.43
429.883	875.61
430.259	918.32
430.635	904.09
431.011	933.01
431.387	964.88
431.763	959.45
432.138	968.94
432.514	971.43
432.89	1006.46
433.265	1053.01
433.641	1030.41
434.016	1046
434.392	1045.78
434.767	1076.51
435.143	1089.84
435.518	1092.1
435.894	1117.87
436.269	1138.2
436.644	1140.24
437.02	1177.53
437.395	1181.14
437.77	1204.42
438.145	1227.69
438.52	1229.73
438.895	1252.33
439.271	1247.81
439.646	1275.38
440.021	1251.65
440.395	1291.42
440.77	1304.98
441.145	1306.56
441.52	1358.09
441.895	1370.97
442.27	1359.67
442.645	1359.44
443.019	1387.46
443.394	1381.14
443.769	1422.49
444.143	1398.54
444.518	1407.8
444.892	1427.01
445.267	1422.72
445.641	1448.48
446.016	1447.12
446.39	1457.52
446.764	1482.6
447.139	1466.56
447.513	1492.55
447.887	1528.48
448.262	1510.17
448.636	1524.64
449.01	1520.57
449.384	1531.41
449.758	1573.45
450.132	1593.56
450.506	1561.24
450.88	1598.08
451.254	1591.53
451.628	1607.34
452.002	1602.83
452.376	1627.23
452.75	1643.73
453.123	1661.35
453.497	1695.48
453.871	1694.35
454.244	1697.74
454.618	1735.93
454.992	1742.48
455.365	1727.79
455.739	1778.64
456.112	1795.81
456.486	1801.69
456.859	1836.72
457.232	1852.31
457.606	1838.98
457.979	1872.87
458.352	1884.85
458.725	1919.88
459.099	1926.88
459.472	1942.7
459.845	1959.65
460.218	1982.93
460.591	1973.66
460.964	1986.09
461.337	2047.11
461.71	2066.77
462.083	2079.42
462.456	2093.66
462.829	2077.84
463.201	2131.62
463.574	2133.43
463.947	2174.11
464.32	2209.14
464.692	2213.88
465.065	2171.85
465.438	2237.61
465.81	2273.09
466.183	2258.85
466.555	2300.89
466.928	2329.36
467.3	2324.61
467.672	2341.11
468.045	2410.26
468.417	2376.36
468.789	2466.53
469.161	2439.41
469.534	2519.64
469.906	2514.21
470.278	2559.64
470.65	2563.48
471.022	2581.33
471.394	2649.13
471.766	2682.34
472.138	2662.91
472.51	2730.93
472.882	2737.94
473.253	2792.17
473.625	2798.5
473.997	2868.55
474.369	2899.06
474.74	2934.09
475.112	2964.6
475.484	2998.04
475.855	3021.77
476.227	3038.04
476.598	3134.08
476.97	3152.61
477.341	3195.55
477.713	3191.71
478.084	3210.92
478.455	3255.89
478.827	3297.02
479.198	3388.54
479.569	3425.83
479.94	3453.85
480.311	3516.45
480.682	3539.72
481.053	3661.3
481.424	3671.7
481.795	3713.05
482.166	3724.58
482.537	3742.88
482.908	3833.95
483.279	3849.09
483.65	3905.36
484.021	3997.11
484.391	4014.51
484.762	4042.31
485.133	4057
485.503	4115.3
485.874	4232.36
486.244	4228.97
486.615	4254.96
486.985	4336.54
487.356	4359.59
487.726	4398.91
488.097	4460.83
488.467	4515.97
488.837	4538.12
489.207	4555.29
489.578	4633.71
489.948	4639.58
490.318	4706.7
490.688	4696.08
491.058	4780.14
491.428	4823.98
491.798	4820.82
492.168	4929.52
492.538	4916.86
492.908	4948.95
493.278	4988.95
493.648	5045.67
494.017	5113.24
494.387	5122.28
494.757	5170.87
495.126	5253.35
495.496	5212.9
495.866	5253.35
496.235	5259.45
496.605	5291.54
496.974	5342.16
497.344	5376.51
497.713	5408.37
498.082	5376.74
498.452	5459.67
498.821	5438.43
499.19	5500.8
499.559	5527.24
499.928	5558.65
500.298	5590.97
500.667	5576.05
501.036	5569.73
501.405	5557.52
501.774	5649.95
502.143	5711.19
502.512	5673.45
502.88	5713.23
503.249	5687.46
503.618	5710.74
503.987	5774.92
504.356	5838.19
504.724	5823.05
505.093	5865.31
505.462	5833.9
505.83	5851.3
506.199	5887.91
506.567	5971.3
506.936	5876.61
507.304	5971.52
507.672	5988.25
508.041	5998.87
508.409	6013.56
508.777	6007.46
509.145	6050.62
509.514	6051.75
509.882	6129.71
510.25	6092.88
510.618	6082.26
510.986	6108.24
511.354	6193.44
511.722	6170.39
512.09	6256.26
512.458	6233.21
512.826	6236.38
513.193	6270.95
513.561	6280.22
513.929	6269.82
514.297	6311.18
514.664	6351.85
515.032	6348.69
515.4	6391.63
515.767	6343.49
516.135	6399.54
516.502	6368.58
516.869	6421.23
517.237	6456.93
517.604	6416.26
517.972	6498.97
518.339	6497.16
518.706	6432.98
519.073	6482.7
519.44	6526.09
519.808	6557.5
520.175	6508.01
520.542	6587.33
520.909	6549.81
521.276	6546.42
521.643	6631.62
522.009	6618.06
522.376	6678.17
522.743	6662.58
523.11	6661.68
523.477	6778.51
523.843	6734.44
524.21	6807.66
524.577	6812.41
524.943	6844.04
525.31	6830.03
525.676	6890.82
526.043	6907.32
526.409	6889.24
526.776	6993.19
527.142	6924.95
527.508	6974.66
527.874	6987.54
528.241	6970.14
528.607	6987.99
528.973	7013.98
529.339	7100.76
529.705	7074.55
530.071	7166.29
530.437	7154.77
530.803	7143.02
531.169	7242.9
531.535	7160.42
531.901	7214.65
532.267	7204.71
532.632	7233.64
532.998	7301.21
533.364	7242.9
533.73	7286.74
534.095	7292.39
534.461	7271.15
534.826	7324.71
535.192	7415.33
535.557	7348.89
535.923	7349.57
536.288	7360.64
536.653	7425.95
537.019	7380.3
537.384	7384.59
537.749	7416.01
538.114	7432.05
538.479	7427.76
538.845	7468.89
539.21	7394.76
539.575	7435.44
539.94	7432.28
540.305	7437.7
540.67	7499.85
541.034	7477.47
541.399	7519.05
541.764	7500.07
542.129	7528.09
542.494	7503.69
542.858	7533.29
543.223	7527.42
543.587	7536.91
543.952	7504.82
544.316	7559.96
544.681	7511.82
545.045	7620.97
545.41	7627.75
545.774	7602.44
546.138	7585.49
546.503	7623.01
546.867	7565.83
547.231	7580.97
547.595	7663.46
547.959	7599.73
548.324	7620.52
548.688	7620.75
549.052	7709.11
549.416	7628.66
549.779	7630.24
550.143	7742.55
550.507	7723.12
550.871	7746.39
551.235	7717.01
551.599	7754.08
551.962	7740.74
552.326	7705.94
552.689	7811.02
553.053	7752.04
553.417	7777.8
553.78	7770.35
554.143	7842.21
554.507	7826.39
554.87	7849.67
555.234	7900.29
555.597	7825.94
555.96	7815.77
556.323	7906.39
556.686	7869.33
557.05	7953.17
557.413	7934.64
557.776	7913.85
558.139	7964.47
558.502	7950.91
558.865	8016.44
559.228	8084.91
559.59	8046.95
559.953	8069.55
560.316	8126.95
560.679	8114.52
561.041	8155.65
561.404	8194.97
561.767	8205.82
562.129	8182.09
562.492	8298.24
562.854	8270.67
563.217	8306.83
563.579	8337.79
563.941	8390.67
564.304	8354.74
564.666	8429.99
565.028	8444
565.39	8413.04
565.753	8489.88
566.115	8434.06
566.477	8534.39
566.839	8552.02
567.201	8573.49
567.563	8629.98
567.925	8634.5
568.287	8650.55
568.648	8618.69
569.01	8774.16
569.372	8821.17
569.734	8768.06
570.095	8817.1
570.457	8850.09
570.819	8901.62
571.18	8932.12
571.542	8882.18
571.903	8938.68
572.265	8976.42
572.626	8997.21
572.987	9005.79
573.349	9069.07
573.71	9078.79
574.071	9053.25
574.432	9208.95
574.794	9201.27
575.155	9213.47
575.516	9167.82
575.877	9258.67
576.238	9277.2
576.599	9297.31
576.96	9428.38
577.32	9323.3
577.681	9356.75
578.042	9456.86
578.403	9379.57
578.763	9505.89
579.124	9439
579.485	9493.01
579.845	9506.12
580.206	9573.01
580.566	9584.54
580.927	9635.61
581.287	9655.27
581.648	9750.86
582.008	9716.28
582.368	9741.82
582.728	9763.74
583.089	9752.67
583.449	9845.55
583.809	9838.31
584.169	9888.48
584.529	9884.64
584.889	9972.77
585.249	9921.48
585.609	9947.01
585.969	10016.39
586.329	9993.11
586.688	10051.64
587.048	9957.86
587.408	10121.7
587.768	10017.52
588.127	10141.81
588.487	10163.5
588.846	10211.86
589.206	10136.16
589.565	10208.93
589.925	10321.69
590.284	10241.69
590.643	10290.96
591.003	10287.79
591.362	10332.54
591.721	10406.89
592.08	10382.26
592.44	10441.91
592.799	10455.02
593.158	10400.56
593.517	10494.57
593.876	10521.91
594.235	10506.55
594.593	10535.02
594.952	10595.58
595.311	10613.21
595.67	10591.06
596.029	10702.92
596.387	10666.09
596.746	10621.12
597.104	10665.19
597.463	10675.58
597.822	10735.01
598.18	10677.39
598.538	10685.52
598.897	10849.36
599.255	10688.46
599.613	10887.55
599.972	10778.4
600.33	10853.88
600.688	10772.75
601.046	10911.96
601.404	10925.52
601.762	10907.21
602.12	10993.76
602.478	10868.57
602.836	10960.09
603.194	10896.82
603.552	10997.61
603.91	10919.19
604.268	10932.07
604.625	11004.61
604.983	10985.63
605.341	10944.73
605.698	11065.4
606.056	11023.37
606.413	11012.52
606.771	11101.56
607.128	11020.88
607.485	11048.23
607.843	10981.79
608.2	11062.69
608.557	11078.06
608.914	11080.54
609.272	11154.21
609.629	11207.09
609.986	11206.87
610.343	11153.53
610.7	11257.94
611.057	11230.14
611.414	11189.47
611.771	11232.85
612.127	11255.23
612.484	11243.25
612.841	11313.08
613.198	11261.55
613.554	11285.28
613.911	11352.63
614.267	11262.46
614.624	11344.72
614.98	11338.16
615.337	11352.85
615.693	11419.29
616.05	11375.68
616.406	11398.95
616.762	11377.94
617.118	11363.02
617.475	11376.58
617.831	11431.72
618.187	11475.56
618.543	11472.85
618.899	11540.19
619.255	11502.68
619.611	11411.83
619.967	11469.23
620.323	11530.47
620.678	11503.58
621.034	11411.15
621.39	11511.94
621.746	11529.34
622.101	11571.6
622.457	11468.33
622.812	11554.43
623.168	11549.46
623.523	11488.89
623.879	11535.9
624.234	11482.11
624.589	11581.32
624.945	11613.64
625.3	11561.43
625.655	11479.4
626.01	11530.47
626.365	11561.21
626.72	11523.24
627.075	11543.58
627.43	11489.8
627.785	11443.24
628.14	11544.71
628.495	11514.2
628.85	11497.25
629.205	11435.56
629.559	11477.14
629.914	11423.36
630.269	11484.15
630.623	11466.52
630.978	11405.73
631.332	11473.3
631.687	11562.11
632.041	11440.98
632.396	11461.55
632.75	11342.91
633.104	11377.03
633.459	11323.7
633.813	11418.39
634.167	11364.38
634.521	11324.38
634.875	11306.3
635.229	11391.72
635.583	11274.21
635.937	11234.66
636.291	11237.6
636.645	11245.96
636.999	11281.67
637.352	11209.13
637.706	11141.56
638.06	11205.28
638.413	11225.17
638.767	11182.46
639.121	11215.91
639.474	11057.04
639.828	11115.12
640.181	11146.3
640.534	11186.53
640.888	11087.32
641.241	11070.37
641.594	11026.98
641.947	11107.43
642.301	11098.62
642.654	11133.65
643.007	11104.5
643.36	11092.52
643.713	11023.59
644.066	11091.62
644.419	11032.63
644.771	10956.48
645.124	10812.3
645.477	10883.26
645.83	10783.83
646.182	10695.02
646.535	10698.18
646.888	10675.13
647.24	10666.77
647.593	10666.77
647.945	10642.81
648.298	10647.11
648.65	10595.58
649.002	10581.8
649.355	10643.27
649.707	10596.03
650.059	10681.46
650.411	10831.28
650.763	10756.03
651.115	10946.76
651.467	10846.42
651.819	10846.88
652.171	10857.72
652.523	10840.55
652.875	10801.91
653.227	10795.8
653.578	10891.85
653.93	10917.38
654.282	10787.22
654.633	10797.16
654.985	10822.02
655.337	10900.66
655.688	10801.68
656.039	10828.35
656.391	10823.83
656.742	10778.4
657.094	10829.25
657.445	10904.95
657.796	10908.8
658.147	10823.6
658.498	10827.67
658.849	10809.14
659.2	10852.3
659.551	10749.93
659.902	10867.89
660.253	10811.85
660.604	10897.04
660.955	10779.31
661.306	10844.62
661.656	10836.03
662.007	10824.96
662.358	10826.54
662.708	10901.79
663.059	10873.77
663.409	10773.88
663.76	10833.09
664.11	10899.98
664.461	10842.36
664.811	10860.66
665.161	10828.35
665.511	10816.14
665.862	10789.48
666.212	10901.34
666.562	10855.46
666.912	10840.55
667.262	10853.43
667.612	10860.21
667.962	10893.43
668.312	10821.57
668.662	10876.03
669.011	10824.28
669.361	10879.64
669.711	10770.27
670.06	10841.23
670.41	10794.9
670.76	10750.83
671.109	10781.34
671.459	10771.17
671.808	10758.06
672.157	10791.74
672.507	10745.41
672.856	10701.79
673.205	10720.55
673.554	10737.5
673.904	10738.86
674.253	10804.17
674.602	10732.3
674.951	10558.75
675.3	10493.44
675.649	10692.53
675.998	10608.24
676.346	10716.94
676.695	10661.8
677.044	10644.85
677.393	10698.41
677.741	10695.47
678.09	10621.35
678.438	10557.84
678.787	10626.77
679.135	10624.96
679.484	10502.7
679.832	10574.57
680.181	10467.9
680.529	10437.4
680.877	10456.38
681.225	10438.75
681.573	10571.4
681.922	10413.21
682.27	10378.19
682.618	10414.8
682.966	10371.41
683.314	10376.15
683.661	10349.71
684.009	10314.01
684.357	10253.67
684.705	10338.64
685.053	10252.32
685.4	10230.85
685.748	10205.31
686.095	10228.36
686.443	10156.95
686.79	10164.63
687.138	10179.1
687.485	10192.88
687.832	10151.3
688.18	10102.04
688.527	10060
688.874	10041.47
689.221	9982.27
689.568	10010.29
689.915	9982.04
690.262	9909.95
690.609	9873.79
690.956	9858.43
691.303	9900.69
691.65	9711.76
691.997	9757.41
692.344	9756.28
692.69	9691.65
693.037	9735.49
693.383	9535.05
693.73	9717.64
694.077	9621.15
694.423	9605.55
694.769	9577.08
695.116	9519
695.462	9491.88
695.808	9454.82
696.155	9479
696.501	9445.1
696.847	9366.46
697.193	9360.59
697.539	9385.67
697.885	9187.03
698.231	9276.97
698.577	9276.3
698.923	9182.74
699.269	9195.39
699.614	9079.24
699.96	9123.08
700.306	9104.55
700.651	9033.14
700.997	9051.22
701.342	9020.48
701.688	9042.86
702.033	8891.45
702.379	8942.52
702.724	8882.41
703.069	8879.02
703.415	8840.6
703.76	8763.77
704.105	8750.66
704.45	8780.94
704.795	8712.02
705.14	8671.57
705.485	8648.74
705.83	8682.64
706.175	8665.92
706.52	8569.42
706.865	8533.26
707.209	8582.75
707.554	8560.16
707.899	8478.8
708.243	8477.9
708.588	8416.88
708.932	8392.93
709.277	8371.01
709.621	8350.67
709.966	8330.33
710.31	8294.4
710.654	8225.93
710.998	8262.99
711.342	8300.95
711.687	8258.7
712.031	8208.08
712.375	8243.55
712.719	8184.57
713.063	8200.17
713.407	8155.2
713.75	8137.34
714.094	8134.63
714.438	8073.16
714.782	8078.81
715.125	8054.18
715.469	8100.28
715.812	8077.46
716.156	8025.03
716.499	8027.29
716.843	8079.49
717.186	7944.35
717.53	8013.05
717.873	8025.26
718.216	7935.09
718.559	7993.84
718.902	7874.75
719.246	7882.43
719.589	7888.31
719.932	7903.9
720.275	7955.88
720.617	7868.42
720.96	7797.46
721.303	7906.84
721.646	7863.23
721.989	7762.21
722.331	7843.56
722.674	7888.99
723.016	7793.17
723.359	7864.13
723.701	7830.46
724.044	7753.17
724.386	7727.41
724.729	7778.03
725.071	7778.03
725.413	7759.73
725.755	7773.96
726.097	7738.71
726.439	7677.92
726.782	7732.83
727.124	7727.86
727.465	7696.22
727.807	7724.25
728.149	7679.73
728.491	7648.77
728.833	7677.24
729.175	7682.21
729.516	7646.73
729.858	7672.04
730.199	7704.59
730.541	7695.32
730.882	7608.09
731.224	7660.97
731.565	7615.77
731.906	7670.01
732.248	7606.96
732.589	7617.81
732.93	7548.43
733.271	7611.48
733.612	7649.9
733.953	7605.15
734.294	7568.54
734.635	7607.41
734.976	7606.28
735.317	7607.86
735.658	7594.98
735.999	7641.31
736.339	7555.44
736.68	7673.63
737.021	7613.06
737.361	7581.88
737.702	7623.91
738.042	7572.39
738.383	7625.72
738.723	7595.89
739.063	7655.77
739.404	7641.31
739.744	7681.31
740.084	7682.67
740.424	7667.07
740.764	7666.17
741.104	7717.69
741.444	7695.77
741.784	7611.93
742.124	7647.64
742.464	7692.61
742.804	7687.86
743.143	7732.38
743.483	7747.75
743.823	7716.79
744.162	7712.27
744.502	7782.55
744.841	7757.24
745.181	7780.52
745.52	7806.28
745.86	7856.45
746.199	7901.19
746.538	7940.29
746.877	7937.57
747.216	8008.31
747.556	8007.63
747.895	8046.27
748.234	8046.95
748.573	8059.6
748.911	8150.9
749.25	8245.14
749.589	8157
749.928	8285.81
750.267	8397.45
750.605	8406.26
750.944	8489.65
751.283	8483.32
751.621	8630.44
751.96	8633.37
752.298	8754.28
752.636	8840.83
752.975	8811.68
753.313	8880.37
753.651	9040.6
753.989	9139.8
754.327	9264.54
754.666	9311.77
755.004	9440.13
755.342	9563.75
755.679	9666.79
756.017	9715.83
756.355	9881.93
756.693	9998.99
757.031	10173
757.368	10163.05
757.706	10336.83
758.044	10435.14
758.381	10641.01
758.719	10690.27
759.056	10890.94
759.394	11009.81
759.731	11080.99
760.068	11187.21
760.405	11393.3
760.743	11524.15
761.08	11702.22
761.417	11808.43
761.754	11992.83
762.091	12174.52
762.428	12270.12
762.765	12403.67
763.102	12675.08
763.438	12809.54
763.775	12896.31
764.112	13078.46
764.449	13221.5
764.785	13340.6
765.122	13432.57
765.458	13525
765.795	13812.22
766.131	13930.41
766.467	13983.97
766.804	14174.47
767.14	14302.15
767.476	14440.91
767.812	14494.24
768.148	14674.57
768.485	14762.71
768.821	14794.79
769.157	15023.72
769.492	15169.7
769.828	15284.73
770.164	15368.11
770.5	15414.44
770.836	15649.46
771.171	15713.87
771.507	15747.54
771.842	15816.69
772.178	15939.85
772.513	15978.49
772.849	16192.72
773.184	16190.01
773.519	16364.92
773.855	16449.44
774.19	16482.43
774.525	16445.82
774.86	16591.58
775.195	16760.39
775.53	16744.8
775.865	16703.22
776.2	16814.4
776.535	16731.01
776.87	16874.29
777.205	16978.01
777.539	16943.66
777.874	17046.49
778.209	16952.25
778.543	17090.55
778.878	17164.68
779.212	17144.79
779.547	17202.19
779.881	17282.64
780.215	17206.71
780.55	17246.71
780.884	17209.87
781.218	17297.1
781.552	17332.81
781.886	17247.39
782.22	17328.06
782.554	17296.2
782.888	17228.63
783.222	17161.96
783.556	17314.05
783.889	17158.57
784.223	17259.36
784.557	17215.75
784.89	17260.27
785.224	17203.09
785.557	17180.95
785.891	17155.64
786.224	17168.97
786.558	17137.56
786.891	17147.5
787.224	17124.9
787.557	17105.47
787.891	17048.75
788.224	17142.08
788.557	17143.43
788.89	17083.55
789.223	17131.68
789.556	17012.59
789.888	17031.8
790.221	16945.7
790.554	16905.93
790.887	16926.26
791.219	16907.06
791.552	16865.25
791.884	16844.01
792.217	16823.44
792.549	16741.41
792.882	16673.39
793.214	16634.29
793.546	16745.48
793.879	16664.8
794.211	16575.31
794.543	16706.16
794.875	16541.42
795.207	16669.1
795.539	16623.67
795.871	16515.2
796.203	16449.21
796.535	16408.99
796.867	16357.69
797.198	16406.96
797.53	16364.47
797.862	16203.8
798.193	16266.85
798.525	16142.1
798.856	16251.25
799.188	16044.25
799.519	16030.69
799.85	15973.75
800.182	16081.09
800.513	16096
800.844	15864.37
801.175	15956.57
801.506	15947.76
801.837	15871.15
802.168	15784.83
802.499	15815.33
802.83	15766.52
803.161	15745.5
803.491	15690.59
803.822	15704.83
804.153	15596.13
804.483	15574.44
804.814	15487.21
805.145	15480.88
805.475	15515.91
805.805	15432.29
806.136	15460.31
806.466	15447.88
806.796	15371.05
807.126	15331.96
807.457	15226.42
807.787	15267.1
808.117	15123.15
808.447	15202.02
808.777	15215.8
809.107	15138.51
809.436	15076.6
809.766	15144.39
810.096	14971.06
810.426	14898.97
810.755	15063.04
811.085	14929.03
811.414	14853.1
811.744	14844.74
812.073	14832.76
812.403	14832.08
812.732	14737.39
813.061	14796.15
813.39	14663.27
813.719	14769.94
814.049	14683.61
814.378	14638.64
814.707	14604.29
815.036	14604.29
815.365	14640.45
815.693	14420.34
816.022	14462.15
816.351	14404.97
816.68	14438.19
817.008	14401.81
817.337	14292.21
817.665	14245.88
817.994	14292.43
818.322	14271.19
818.651	14228.48
818.979	14192.1
819.307	14226.9
819.636	14347.35
819.964	14139.9
820.292	14174.92
820.62	14209.05
820.948	14113
821.276	14184.42
821.604	14106
821.932	14119.56
822.259	14083.4
822.587	14046.57
822.915	14202.49
823.243	14061.25
823.57	14036.62
823.898	14103.29
824.225	14031.88
824.553	14065.77
824.88	14157.98
825.207	14142.38
825.535	14115.94
825.862	14116.85
826.189	14147.35
826.516	14113.46
826.843	14189.39
827.17	14120.46
827.497	14213.34
827.824	14176.28
828.151	14160.69
828.478	14152.78
828.805	14275.26
829.131	14224.87
829.458	14196.39
829.785	14091.99
830.111	14067.58
830.438	14229.61
830.764	14195.26
831.09	14190.97
831.417	14099.9
831.743	14195.04
832.069	14156.39
832.395	14043.18
832.722	14142.38
833.048	14153.23
833.374	14135.6
833.7	13975.38
834.026	14064.42
834.351	14084.76
834.677	14077.3
835.003	14061.48
835.329	14136.96
835.654	14098.54
835.98	13843.18
836.306	14022.16
836.631	13949.62
836.956	14030.97
837.282	13988.71
837.607	13854.71
837.932	13830.75
838.258	13871.66
838.583	13849.06
838.908	13791.88
839.233	13823.52
839.558	13833.01
839.883	13715.05
840.208	13668.27
840.533	13689.29
840.858	13614.71
841.182	13692.45
841.507	13681.6
841.832	13509.86
842.156	13568.61
842.481	13493.13
842.805	13581.49
843.13	13485.22
843.454	13459.46
843.778	13375.62
844.103	13413.14
844.427	13261.95
844.751	13440.93
845.075	13253.37
845.399	13250.2
845.723	13163.2
846.047	13261.5
846.371	13076.42
846.695	13068.74
847.019	13043.2
847.343	12942.19
847.666	12868.29
847.99	12849.31
848.313	12831.91
848.637	12729.54
848.96	12771.57
849.284	12728.63
849.607	12565.93
849.931	12623.55
850.254	12523.22
850.577	12492.93
850.9	12348.76
851.223	12340.62
851.546	12250
851.869	12253.84
852.192	12308.08
852.515	12116.22
852.838	12107.86
853.161	12155.09
853.483	12103.34
853.806	11954.42
854.129	12044.81
854.451	12032.61
854.774	11921.65
855.096	11805.27
855.419	11856.34
855.741	11777.7
856.063	11797.59
856.385	11638.27
856.708	11673.75
857.03	11629.68
857.352	11663.58
857.674	11530.25
857.996	11551.26
858.318	11427.88
858.64	11450.7
858.961	11460.42
859.283	11437.82
859.605	11394.88
859.926	11440.53
860.248	11311.5
860.57	11286.19
860.891	11329.12
861.212	11148.56
861.534	11198.5
861.855	11189.01
862.176	11179.75
862.498	11090.26
862.819	11166.87
863.14	11085.74
863.461	11065.63
863.782	11059.98
864.103	11086.42
864.424	10986.76
864.745	11069.24
865.065	10952.64
865.386	10885.29
865.707	10944.73
866.027	10958.29
866.348	10851.62
866.668	10886.2
866.989	10816.37
867.309	10709.03
867.63	10801.68
867.95	10756.03
868.27	10663.83
868.59	10792.41
868.91	10711.51
869.23	10725.52
869.55	10642.14
869.87	10744.51
870.19	10594.91
870.51	10674.68
870.83	10661.12
871.15	10599.65
871.469	10675.58
871.789	10620.44
872.109	10596.71
872.428	10554.91
872.748	10568.47
873.067	10562.59
873.386	10540.44
873.706	10492.53
874.025	10431.75
874.344	10403.05
874.663	10401.46
874.982	10462.25
875.301	10368.47
875.62	10379.54
875.939	10365.98
876.258	10304.07
876.577	10328.92
876.896	10364.4
877.214	10327.34
877.533	10236.5
877.852	10217.29
878.17	10271.52
878.489	10225.65
878.807	10203.95
879.125	10220.9
879.444	10185.88
879.762	10179.1
880.08	10125.09
880.398	10104.07
880.716	10128.02
881.034	10075.37
881.352	10072.88
881.67	10024.75
881.988	10043.73
882.306	9954.24
882.624	9989.95
882.941	9921.93
883.259	9900.01
883.577	9857.75
883.894	9948.82
884.212	9880.12
884.529	9897.75
884.846	9844.87
885.164	9783.4
885.481	9803.97
885.798	9790.18
886.115	9730.3
886.432	9694.59
886.75	9701.82
887.067	9639.9
887.383	9663.4
887.7	9603.29
888.017	9530.07
888.334	9614.14
888.651	9551.09
888.967	9533.24
889.284	9456.18
889.6	9433.81
889.917	9416.4
890.233	9421.6
890.55	9403.3
890.866	9318.33
891.182	9380.47
891.498	9305.67
891.815	9235.39
892.131	9199.69
892.447	9161.95
892.763	9212.79
893.079	9241.95
893.395	9136.41
893.71	9084.21
894.026	9098.45
894.342	9135.51
894.657	8964.67
894.973	8933.93
895.289	8934.84
895.604	9039.92
895.92	8918.56
896.235	8818.91
896.55	8788.62
896.865	8832.92
897.181	8764.22
897.496	8766.93
897.811	8695.29
898.126	8678.57
898.441	8698.01
898.756	8608.29
899.071	8533.49
899.386	8599.03
899.7	8496.43
900.015	8551.34
900.33	8386.38
900.644	8460.95
900.959	8418.47
901.273	8413.27
901.588	8360.16
901.902	8289.88
902.216	8321.52
902.531	8198.81
902.845	8278.13
903.159	8225.02
903.473	8154.74
903.787	8029.77
904.101	8087.4
904.415	8025.03
904.729	8014.41
905.042	8009.44
905.356	7995.88
905.67	7886.5
905.984	7918.82
906.297	7884.92
906.611	7845.82
906.924	7826.39
907.237	7811.93
907.551	7768.09
907.864	7711.37
908.177	7696.22
908.491	7710.01
908.804	7668.2
909.117	7602.44
909.43	7626.4
909.743	7569
910.056	7431.82
910.368	7515.89
910.681	7379.85
910.994	7374.42
911.307	7358.83
911.619	7321.32
911.932	7353.63
912.244	7257.82
912.557	7281.09
912.869	7229.34
913.181	7194.09
913.494	7171.72
913.806	7139.4
914.118	7115.45
914.43	7055.11
914.742	7062.12
915.054	7044.72
915.366	6953.64
915.678	6957.26
915.99	6919.75
916.302	6873.87
916.613	6868.68
916.925	6846.53
917.236	6779.19
917.548	6808.11
917.859	6744.16
918.171	6721.79
918.482	6733.54
918.794	6672.75
919.105	6674.78
919.416	6620.77
919.727	6627.1
920.038	6556.59
920.349	6551.62
920.66	6570.6
920.971	6530.83
921.282	6533.09
921.593	6430.95
921.903	6465.07
922.214	6456.03
922.525	6340.55
922.835	6333.1
923.146	6290.61
923.456	6297.16
923.767	6254.68
924.077	6255.81
924.387	6212.2
924.697	6201.57
925.008	6176.49
925.318	6136.27
925.628	6142.14
925.938	6058.53
926.248	6027.12
926.558	6008.81
926.867	6018.53
927.177	5984.4
927.487	5930.62
927.796	5932.88
928.106	5945.08
928.416	5860.57
928.725	5832.32
929.034	5838.65
929.344	5848.36
929.653	5842.04
929.962	5770.17
930.271	5748.03
930.581	5715.26
930.89	5687.01
931.199	5640.01
931.508	5668.25
931.817	5626.22
932.125	5609.27
932.434	5571.08
932.743	5554.13
933.051	5523.63
933.36	5511.2
933.669	5499.22
933.977	5483.4
934.286	5459.67
934.594	5435.94
934.902	5390.07
935.21	5362.05
935.519	5359.56
935.827	5318.89
936.135	5309.17
936.443	5299.9
936.751	5270.07
937.059	5282.05
937.367	5204.09
937.674	5249.51
937.982	5207.02
938.29	5173.13
938.597	5135.84
938.905	5104.43
939.213	5105.33
939.52	5043.19
939.827	5106.91
940.135	5002.96
940.442	4994.83
940.749	4967.93
941.056	4990.98
941.363	4954.83
941.67	4968.16
941.977	4868.5
942.284	4858.56
942.591	4858.33
942.898	4842.74
943.205	4823.31
943.511	4810.2
943.818	4766.81
944.125	4758.22
944.431	4743.53
944.738	4703.53
945.044	4704.66
945.35	4638.23
945.657	4686.36
945.963	4636.64
946.269	4637.55
946.575	4612.01
946.881	4602.52
947.187	4564.78
947.493	4542.86
947.799	4514.39
948.105	4491.79
948.41	4492.24
948.716	4478.46
949.022	4446.82
949.327	4450.43
949.633	4380.83
949.938	4349.65
950.244	4429.42
950.549	4321.17
950.854	4360.49
951.16	4362.98
951.465	4319.36
951.77	4295.18
952.075	4227.61
952.38	4225.81
952.685	4260.38
952.99	4182.19
953.294	4204.79
953.599	4198.46
953.904	4116.88
954.209	4116.43
954.513	4099.71
954.818	4085.02
955.122	4078.01
955.426	4056.55
955.731	4049.31
956.035	4041.63
956.339	3983.55
956.643	3917.57
956.948	3953.05
957.252	3951.01
957.556	3929.32
957.86	3954.63
958.163	3908.98
958.467	3930.9
958.771	3907.85
959.075	3843.44
959.378	3836.21
959.682	3782.65
959.985	3844.57
960.289	3796.89
960.592	3787.17
960.896	3753.28
961.199	3739.72
961.502	3723.9
961.805	3690.23
962.108	3704.01
962.411	3694.75
962.714	3634.86
963.017	3658.36
963.32	3640.74
963.623	3650.91
963.926	3666.73
964.228	3619.27
964.531	3592.83
964.833	3609.33
965.136	3520.06
965.438	3548.54
965.741	3493.17
966.043	3473.96
966.345	3467.41
966.648	3470.8
966.95	3499.05
967.252	3469.22
967.554	3413.62
967.856	3425.15
968.158	3414.08
968.46	3352.38
968.761	3329.56
969.063	3353.74
969.365	3335.66
969.666	3302.44
969.968	3299.5
970.269	3265.61
970.571	3290.46
970.872	3273.74
971.174	3279.62
971.475	3211.14
971.776	3163.91
972.077	3212.5
972.378	3193.07
972.679	3166.4
972.98	3158.94
973.281	3135.44
973.582	3135.89
973.883	3173.63
974.183	3139.96
974.484	3081.66
974.785	3043.92
975.085	3060.87
975.386	3092.5
975.686	3063.13
975.986	3040.75
976.287	2986.07
976.587	2965.28
976.887	3004.14
977.187	3000.3
977.487	2996.91
977.787	2950.81
978.087	2950.13
978.387	2930.02
978.687	2907.2
978.987	2906.52
979.286	2860.65
979.586	2881.44
979.885	2876.46
980.185	2842.11
980.484	2810.02
980.784	2800.31
981.083	2833.3
981.382	2786.75
981.682	2803.47
981.981	2775
982.28	2761.21
982.579	2724.6
982.878	2742.23
983.177	2739.07
983.475	2715.79
983.774	2706.52
984.073	2654.77
984.372	2666.53
984.67	2662.01
984.969	2674.21
985.267	2665.85
985.566	2636.02
985.864	2593.99
986.162	2597.83
986.461	2585.4
986.759	2557.6
987.057	2567.55
987.355	2533.42
987.653	2538.85
987.951	2547.43
988.249	2494.33
988.547	2504.27
988.844	2480.99
989.142	2482.35
989.44	2425.4
989.737	2443.25
990.035	2459.75
990.332	2470.82
990.63	2418.62
990.927	2406.19
991.224	2428.11
991.521	2370.94
991.819	2382.47
992.116	2349.92
992.413	2370.26
992.71	2322.35
993.006	2342.47
993.303	2303.82
993.6	2334.78
993.897	2321.68
994.193	2270.38
994.49	2284.39
994.787	2288.46
995.083	2247.78
995.379	2241.23
995.676	2236.03
995.972	2192.64
996.268	2214.79
996.565	2204.17
996.861	2206.65
997.157	2184.96
997.453	2133.88
997.749	2122.59
998.044	2133.88
998.34	2118.97
998.636	2105.18
998.932	2115.81
999.227	2115.13
999.523	2111.29
999.818	2070.84
1000.114	2059.76
1000.409	2032.42
1000.704	2069.48
1001	2035.81
1001.295	2020.89
1001.59	2040.1
1001.885	2030.38
1002.18	2011.18
1002.475	1997.62
1002.77	1968.47
1003.065	1949.48
1003.359	1982.25
1003.654	1899.09
1003.949	1917.39
1004.243	1922.14
1004.538	1903.16
1004.832	1906.32
1005.127	1881.69
1005.421	1862.03
1005.715	1876.72
1006.009	1833.78
1006.304	1887.56
1006.598	1831.97
1006.892	1813.89
1007.186	1812.31
1007.48	1782.03
1007.773	1781.8
1008.067	1753.56
1008.361	1751.75
1008.655	1768.24
1008.948	1791.07
1009.242	1755.82
1009.535	1737.51
1009.829	1702.03
1010.122	1702.26
1010.415	1741.35
1010.708	1690.73
1011.001	1672.65
1011.295	1684.18
1011.588	1657.06
1011.881	1635.59
1012.173	1649.83
1012.466	1633.33
1012.759	1606.89
1013.052	1641.02
1013.344	1600.34
1013.637	1580.68
1013.93	1574.8
1014.222	1584.97
1014.514	1566.89
1014.807	1570.96
1015.099	1598.08
1015.391	1516.27
1015.683	1548.82
1015.976	1561.02
1016.268	1490.51
1016.56	1525.99
1016.851	1491.64
1017.143	1489.16
1017.435	1476.27
1017.727	1441.93
1018.018	1471.76
1018.31	1457.52
1018.602	1444.86
1018.893	1431.53
1019.185	1435.15
1019.476	1410.29
1019.767	1415.94
1020.058	1383.4
1020.35	1401.7
1020.641	1382.49
1020.932	1347.92
1021.223	1337.52
1021.514	1359.44
1021.804	1335.94
1022.095	1345.88
1022.386	1317.41
1022.677	1311.08
1022.967	1326.22
1023.258	1295.49
1023.548	1297.52
1023.839	1269.05
1024.129	1267.69
1024.419	1261.14
1024.709	1245.77
1025	1250.74
1025.29	1282.61
1025.58	1245.32
1025.87	1228.6
1026.16	1224.53
1026.449	1213.23
1026.739	1208.49
1027.029	1203.06
1027.319	1177.07
1027.608	1179.11
1027.898	1169.16
1028.187	1155.38
1028.477	1156.28
1028.766	1166
1029.055	1152.44
1029.344	1106.11
1029.634	1121.48
1029.923	1117.19
1030.212	1136.4
1030.501	1087.58
1030.79	1097.98
1031.078	1088.04
1031.367	1078.55
1031.656	1073.57
1031.945	1073.8
1032.233	1069.73
1032.522	1060.92
1032.81	1056.17
1033.099	1031.09
1033.387	1016.63
1033.675	1017.3
1033.963	1006.46
1034.251	1037.64
1034.54	1023.63
1034.828	1015.27
1035.116	984.76
1035.403	1016.63
1035.691	1000.58
1035.979	967.81
1036.267	989.28
1036.554	989.73
1036.842	971.2
1037.129	970.07
1037.417	959.9
1037.704	932.33
1037.992	946.8
1038.279	910.87
1038.566	918.55
1038.853	918.55
1039.14	918.55
