Data from hue_200_FLMS001491_00012.txt Node
Date: Tue Feb 07 16:42:52 GMT 2017
User: dcchb
Spectrometer: FLMS00149
Trigger mode: 0
Integration Time (sec): 2.000000E-2
Scans to average: 10
Electric dark correction enabled: true
Nonlinearity correction enabled: false
Boxcar width: 0
XAxis mode: Wavelengths
Number of Pixels in Spectrum: 2048
>>>>>Begin Spectral Data<<<<<
341.393	-26.78
341.776	-26.78
342.16	-26.78
342.543	-43.5
342.927	-65.87
343.31	-83.73
343.693	-68.59
344.077	-67
344.46	-50.51
344.843	-59.77
345.226	-51.64
345.61	-14.8
345.993	-14.35
346.376	0.34
346.759	5.76
347.142	28.13
347.525	39.89
347.908	66.78
348.291	78.98
348.674	95.25
349.057	95.25
349.44	117.85
349.823	159.66
350.206	151.52
350.588	198.07
350.971	196.72
351.354	229.49
351.737	228.58
352.119	243.04
352.502	264.29
352.884	258.86
353.267	271.07
353.65	306.09
354.032	313.78
354.414	312.2
354.797	308.81
355.179	317.17
355.562	314.23
355.944	330.27
356.326	301.12
356.709	316.71
357.091	337.51
357.473	333.66
357.855	337.28
358.238	330.73
358.62	363.27
359.002	328.01
359.384	356.71
359.766	323.04
360.148	342.48
360.53	342.48
360.912	331.86
361.294	333.21
361.676	333.21
362.057	318.97
362.439	325.3
362.821	320.56
363.203	311.97
363.584	332.53
363.966	303.61
364.348	323.04
364.729	303.61
365.111	323.95
365.493	317.84
365.874	321.01
366.256	302.7
366.637	321.01
367.019	331.63
367.4	311.74
367.781	292.76
368.163	295.25
368.544	295.7
368.925	282.82
369.306	314.46
369.688	313.1
370.069	305.87
370.45	300.44
370.831	304.96
371.212	325.08
371.593	298.64
371.974	314.68
372.355	295.02
372.736	318.52
373.117	312.42
373.498	297.05
373.879	306.77
374.26	328.92
374.641	298.86
375.021	301.57
375.402	320.78
375.783	325.53
376.163	332.99
376.544	317.62
376.925	314
377.305	309.71
377.686	329.37
378.066	316.71
378.447	307
378.827	318.75
379.208	292.53
379.588	318.52
379.968	312.42
380.349	348.8
380.729	310.84
381.109	323.72
381.489	321.46
381.87	324.85
382.25	336.38
382.63	328.92
383.01	335.02
383.39	337.05
383.77	345.87
384.15	344.96
384.53	343.83
384.91	350.39
385.29	356.04
385.67	347.9
386.049	357.17
386.429	349.93
386.809	353.1
387.189	366.43
387.568	336.6
387.948	330.73
388.328	355.81
388.707	373.66
389.087	355.36
389.466	354
389.846	364.62
390.225	374.34
390.605	366.66
390.984	369.59
391.363	395.81
391.743	370.95
392.122	361.01
392.501	386.54
392.881	391.06
393.26	361.23
393.639	382.7
394.018	383.83
394.397	406.43
394.776	377.28
395.155	383.61
395.534	369.14
395.913	385.87
396.292	385.41
396.671	407.11
397.05	384.74
397.429	394.45
397.808	382.48
398.186	408.69
398.565	387.9
398.944	401.46
399.323	418.63
399.701	407.11
400.08	403.49
400.458	385.64
400.837	427.45
401.215	419.31
401.594	409.37
401.972	418.86
402.351	432.64
402.729	414.57
403.107	450.27
403.486	419.31
403.864	457.73
404.242	435.36
404.62	438.52
404.999	449.37
405.377	450.5
405.755	453.43
406.133	457.28
406.511	463.83
406.889	477.16
407.267	498.18
407.645	466.09
408.023	479.87
408.401	500.66
408.779	477.39
409.156	512.64
409.534	509.48
409.912	526.88
410.29	530.72
410.667	511.51
411.045	548.57
411.422	549.03
411.8	560.78
412.178	566.65
412.555	592.19
412.933	585.18
413.31	590.61
413.687	600.1
414.065	600.78
414.442	631.28
414.819	622.7
415.197	630.83
415.574	649.81
415.951	658.63
416.328	651.85
416.705	680.55
417.082	660.89
417.46	693.2
417.837	718.96
418.214	717.16
418.591	726.87
418.967	735.69
419.344	731.39
419.721	733.43
420.098	759.87
420.475	760.32
420.852	795.35
421.228	802.35
421.605	817.27
421.982	838.28
422.358	849.58
422.735	858.85
423.111	845.74
423.488	890.71
423.864	892.74
424.241	903.82
424.617	937.26
424.994	934.78
425.37	946.53
425.746	966.64
426.123	974.55
426.499	993.76
426.875	992.86
427.251	1028.33
427.627	1051.16
428.003	1062.01
428.379	1076.47
428.756	1082.12
429.132	1111.04
429.507	1106.52
429.883	1107.43
430.259	1141.33
430.635	1127.99
431.011	1171.61
431.387	1199.86
431.763	1201.44
432.138	1216.35
432.514	1237.82
432.89	1243.02
433.265	1281.44
433.641	1306.97
434.016	1336.12
434.392	1351.94
434.767	1403.24
435.143	1416.12
435.518	1446.4
435.894	1451.37
436.269	1501.09
436.644	1501.32
437.02	1525.27
437.395	1546.51
437.77	1562.33
438.145	1603.69
438.52	1652.5
438.895	1657.7
439.271	1720.75
439.646	1697.92
440.021	1743.12
440.395	1770.01
440.77	1723.91
441.145	1793.51
441.52	1849.1
441.895	1841.42
442.27	1896.56
442.645	1885.71
443.019	1952.15
443.394	1925.03
443.769	1958.48
444.143	1960.51
444.518	1993.73
444.892	2007.07
445.267	2007.52
445.641	2046.39
446.016	2048.87
446.39	2092.04
446.764	2103.33
447.139	2083.22
447.513	2158.7
447.887	2103.33
448.262	2152.37
448.636	2169.1
449.01	2195.08
449.384	2229.43
449.758	2215.65
450.132	2242.31
450.506	2279.38
450.88	2265.36
451.254	2299.71
451.628	2295.65
452.002	2324.57
452.376	2359.15
452.75	2398.24
453.123	2440.05
453.497	2437.11
453.871	2455.87
454.244	2509.2
454.618	2535.64
454.992	2565.92
455.365	2539.71
455.739	2615.86
456.112	2658.12
456.486	2666.26
456.859	2703.32
457.232	2797.33
457.606	2773.6
457.979	2801.4
458.352	2840.49
458.725	2873.03
459.099	2878.68
459.472	2947.38
459.845	2962.75
460.218	3008.4
460.591	3037.55
460.964	3042.29
461.337	3108.96
461.71	3159.58
462.083	3172.23
462.456	3201.84
462.829	3218.11
463.201	3309.18
463.574	3291.1
463.947	3350.31
464.32	3411.55
464.692	3422.4
465.065	3472.79
465.438	3468.04
465.81	3546.01
466.183	3597.76
466.555	3664.42
466.928	3678.21
467.3	3712.11
467.672	3720.92
468.045	3823.97
468.417	3863.97
468.789	3887.24
469.161	3908.71
469.534	3987.13
469.906	4007.24
470.278	4071.64
470.65	4112.77
471.022	4251.98
471.394	4305.99
471.766	4311.64
472.138	4341.92
472.51	4412.88
472.882	4483.84
473.253	4571.74
473.625	4560.9
473.997	4707.56
474.369	4662.36
474.74	4750.95
475.112	4836.82
475.484	4933.32
475.855	5025.07
476.227	5007.21
476.598	5179.64
476.97	5177.38
477.341	5299.18
477.713	5373.76
478.084	5394.1
478.455	5531.94
478.827	5568.78
479.198	5762
479.569	5691.04
479.94	5830.47
480.311	5942.1
480.682	6081.08
481.053	6166.73
481.424	6285.82
481.795	6297.12
482.166	6361.53
482.537	6407.85
482.908	6598.58
483.279	6579.83
483.65	6689.43
484.021	6903.66
484.391	6893.04
484.762	6962.64
485.133	7021.85
485.503	7096.42
485.874	7191.11
486.244	7266.59
486.615	7385.68
486.985	7484.89
487.356	7592.68
487.726	7653.25
488.097	7767.59
488.467	7794.48
488.837	8003.52
489.207	8032.44
489.578	8125.32
489.948	8166.68
490.318	8255.72
490.688	8313.11
491.058	8408.48
491.428	8506.1
491.798	8619.1
492.168	8749.26
492.538	8745.19
492.908	8800.56
493.278	8938.41
493.648	8918.3
494.017	9015.7
494.387	9089.37
494.757	9095.02
495.126	9221.11
495.496	9225.41
495.866	9311.05
496.235	9405.29
496.605	9445.06
496.974	9466.53
497.344	9490.48
497.713	9557.38
498.082	9625.17
498.452	9676.24
498.821	9767.77
499.19	9796.92
499.559	9805.5
499.928	9842.57
500.298	9841.21
500.667	9965.05
501.036	9944.94
501.405	10029.45
501.774	10002.56
502.143	10045.05
502.512	10128.66
502.88	10144.48
503.249	10143.8
503.618	10180.18
503.987	10211.82
504.356	10246.85
504.724	10276.9
505.093	10299.05
505.462	10347.19
505.83	10321.42
506.199	10411.14
506.567	10511.48
506.936	10476
507.304	10520.97
507.672	10538.59
508.041	10583.11
508.409	10617.69
508.777	10694.52
509.145	10755.76
509.514	10603.45
509.882	10731.58
510.25	10683
510.618	10634.64
510.986	10701.3
511.354	10760.73
511.722	10854.06
512.09	10904.23
512.458	10846.83
512.826	10905.14
513.193	10937.68
513.561	10893.84
513.929	11044.57
514.297	10995.08
514.664	11090.22
515.032	11165.92
515.4	11146.94
515.767	11131.57
516.135	11216.99
516.502	11048.86
516.869	11225.58
517.237	11202.53
517.604	11127.73
517.972	11155.53
518.339	11190.33
518.706	11190.78
519.073	11214.28
519.44	11156.43
519.808	11327.5
520.175	11278.46
520.542	11301.28
520.909	11317.33
521.276	11242.3
521.643	11346.26
522.009	11398.01
522.376	11450.21
522.743	11322.98
523.11	11477.55
523.477	11426.25
523.843	11413.37
524.21	11583.09
524.577	11490.43
524.943	11448.85
525.31	11438.91
525.676	11588.73
526.043	11623.76
526.409	11580.37
526.776	11601.84
527.142	11631.45
527.508	11551.9
527.874	11633.93
528.241	11598.9
528.607	11508.28
528.973	11578.79
529.339	11532.47
529.705	11591.45
530.071	11567.49
530.437	11573.59
530.803	11499.7
531.169	11569.98
531.535	11448.4
531.901	11463.77
532.267	11464.9
532.632	11480.94
532.998	11502.86
533.364	11421.73
533.73	11440.04
534.095	11387.38
534.461	11395.52
534.826	11397.33
535.192	11352.13
535.557	11390.55
535.923	11342.64
536.288	11315.52
536.653	11295.86
537.019	11118.46
537.384	11188.97
537.749	11191.68
538.114	11141.51
538.479	11081.4
538.845	11001.41
539.21	11016.55
539.575	10961.18
539.94	10960.05
540.305	10922.99
540.67	10847.29
541.034	10810.45
541.399	10779.72
541.764	10738.14
542.129	10709.66
542.494	10673.28
542.858	10639.16
543.223	10639.83
543.587	10609.55
543.952	10520.97
544.316	10497.46
544.681	10403.68
545.045	10419.27
545.41	10512.38
545.774	10327.3
546.138	10318.94
546.503	10269.22
546.867	10238.49
547.231	10219.73
547.595	10179.28
547.959	10107.19
548.324	10172.95
548.688	10026.52
549.052	9987.2
549.416	9985.84
549.779	9968.44
550.143	9895.45
550.507	9879.4
550.871	9838.95
551.235	9765.96
551.599	9870.14
551.962	9795.79
552.326	9698.39
552.689	9725.28
553.053	9587.21
553.417	9638.73
553.78	9630.14
554.143	9631.05
554.507	9583.14
554.87	9515.12
555.234	9578.39
555.597	9452.97
555.96	9448.23
556.323	9402.58
556.686	9358.51
557.05	9458.17
557.413	9342.69
557.776	9334.78
558.139	9365.29
558.502	9300.43
558.865	9284.16
559.228	9298.17
559.59	9283.71
559.953	9250.72
560.316	9286.42
560.679	9240.77
561.041	9321.68
561.404	9203.49
561.767	9200.1
562.129	9175.92
562.492	9254.56
562.854	9141.79
563.217	9173.43
563.579	9185.41
563.941	9165.52
564.304	9198.52
564.666	9215.69
565.028	9179.53
565.39	9140.44
565.753	9180.21
566.115	9149.93
566.477	9184.73
566.839	9161.45
567.201	9162.58
567.563	9177.27
567.925	9152.41
568.287	9159.65
568.648	9214.79
569.01	9170.95
569.372	9198.29
569.734	9175.46
570.095	9183.83
570.457	9179.08
570.819	9105.41
571.18	9119.65
571.542	9170.95
571.903	9173.88
572.265	9210.94
572.626	9245.97
572.987	9170.95
573.349	9242.13
573.71	9216.37
574.071	9302.24
574.432	9241.45
574.794	9266.54
575.155	9227.44
575.516	9250.72
575.877	9248.68
576.238	9210.04
576.599	9209.81
576.96	9249.14
577.32	9217.72
577.681	9203.94
578.042	9290.94
578.403	9214.11
578.763	9280.77
579.124	9192.64
579.485	9223.37
579.845	9283.26
580.206	9304.73
580.566	9217.95
580.927	9229.93
581.287	9293.88
581.648	9224.5
582.008	9269.7
582.368	9213.2
582.728	9248.23
583.089	9245.75
583.449	9140.44
583.809	9251.62
584.169	9233.09
584.529	9177.05
584.889	9210.72
585.249	9154.67
585.609	9126.2
585.969	9196.03
586.329	9136.14
586.688	9186.76
587.048	9127.78
587.408	9120.55
587.768	9102.02
588.127	9137.95
588.487	9090.04
588.846	9176.37
589.206	9087.78
589.565	9144.51
589.925	9128.01
590.284	9098.86
590.643	9102.02
591.003	9057.95
591.362	9126.65
591.721	9115.58
592.08	9110.83
592.44	9072.42
592.799	9167.1
593.158	9078.52
593.517	9022.47
593.876	9074
594.235	8993.32
594.593	9038.07
594.952	9019.99
595.311	9072.64
595.67	9090.27
596.029	9008.01
596.387	9038.75
596.746	9051.85
597.104	8991.97
597.463	8986.32
597.822	9048.91
598.18	9065.86
598.538	8988.8
598.897	9037.62
599.255	8946.09
599.613	9099.99
599.972	9007.33
600.33	9085.98
600.688	8981.57
601.046	9048.69
601.404	9030.16
601.762	8982.48
602.12	9033.32
602.478	9025.64
602.836	9026.54
603.194	9027.45
603.552	8944.28
603.91	8894.57
604.268	8996.94
604.625	8965.75
604.983	8982.7
605.341	8962.14
605.698	8984.96
606.056	8981.8
606.413	8973.66
606.771	9024.96
607.128	9006.88
607.485	8943.61
607.843	8934.12
608.2	9024.73
608.557	9023.15
608.914	9010.27
609.272	9050.95
609.629	9011.85
609.986	9055.24
610.343	9024.51
610.7	9069.93
611.057	9036.26
611.414	9048.91
611.771	9054.34
612.127	8995.81
612.484	9068.12
612.841	9103.15
613.198	9011.4
613.554	9078.07
613.911	9132.08
614.267	9175.24
614.624	9077.16
614.98	9082.59
615.337	9102.47
615.693	9080.1
616.05	9078.07
616.406	9138.86
616.762	9155.8
617.118	9087.33
617.475	9097.73
617.831	9176.14
618.187	9127.33
618.543	9122.81
618.899	9249.59
619.255	9149.25
619.611	9201.9
619.967	9230.38
620.323	9187.89
620.678	9126.65
621.034	9147.22
621.39	9071.51
621.746	9174.56
622.101	9179.76
622.457	9127.56
622.812	9136.37
623.168	9126.2
623.523	9171.17
623.879	9216.14
624.234	9166.2
624.589	9184.73
624.945	9124.17
625.3	9188.12
625.655	9150.15
626.01	9203.26
626.365	9166.2
626.72	9146.31
627.075	9113.77
627.43	9179.98
627.785	9172.98
628.14	9109.7
628.495	9131.85
628.85	9047.11
629.205	9043.72
629.559	9149.25
629.914	9064.73
630.269	9028.58
630.623	9048.24
630.978	9053.66
631.332	9081.23
631.687	9047.78
632.041	9052.3
632.396	9015.92
632.75	9008.92
633.104	8962.82
633.459	8975.02
633.813	8961.23
634.167	8912.2
634.521	8940.22
634.875	8896.15
635.229	8994.45
635.583	8912.42
635.937	8862.7
636.291	8928.47
636.645	8864.29
636.999	8835.59
637.352	8857.06
637.706	8859.99
638.06	8880.56
638.413	8838.07
638.767	8825.87
639.121	8783.84
639.474	8759.66
639.828	8779.54
640.181	8819.54
640.534	8728.47
640.888	8725.31
641.241	8731.41
641.594	8714.23
641.947	8766.89
642.301	8717.17
642.654	8724.86
643.007	8676.5
643.36	8729.15
643.713	8732.09
644.066	8730.73
644.419	8684.4
644.771	8650.73
645.124	8566.22
645.477	8552.88
645.83	8539.78
646.182	8450.51
646.535	8415.03
646.888	8469.95
647.24	8351.76
647.593	8420.91
647.945	8435.6
648.298	8372.32
648.65	8339.33
649.002	8373.23
649.355	8413.23
649.707	8433.79
650.059	8366.22
650.411	8553.79
650.763	8571.64
651.115	8608.93
651.467	8573.9
651.819	8606.44
652.171	8658.87
652.523	8632.2
652.875	8587.01
653.227	8522.83
653.578	8594.01
653.93	8569.38
654.282	8612.77
654.633	8576.38
654.985	8608.93
655.337	8609.15
655.688	8626.78
656.039	8678.98
656.391	8604.86
656.742	8563.05
657.094	8537.06
657.445	8634.01
657.796	8608.02
658.147	8593.33
658.498	8604.63
658.849	8575.71
659.2	8620.68
659.551	8630.85
659.902	8686.21
660.253	8626.78
660.604	8657.06
660.955	8620.9
661.306	8612.54
661.656	8643.05
662.007	8634.01
662.358	8589.72
662.708	8633.33
663.059	8620.9
663.409	8617.06
663.76	8699.55
664.11	8685.31
664.461	8667.91
664.811	8734.8
665.161	8697.96
665.511	8617.06
665.862	8656.38
666.212	8645.31
666.562	8711.07
666.912	8651.86
667.262	8669.72
667.612	8693.9
667.962	8683.95
668.312	8642.15
668.662	8748.13
669.011	8698.42
669.361	8658.87
669.711	8646.21
670.06	8702.03
670.41	8686.21
670.76	8643.5
671.109	8664.97
671.459	8617.51
671.808	8628.36
672.157	8672.65
672.507	8680.56
672.856	8607.34
673.205	8669.49
673.554	8587.68
673.904	8618.87
674.253	8619.1
674.602	8582.03
674.951	8407.12
675.3	8432.89
675.649	8602.82
675.998	8532.77
676.346	8533.67
676.695	8583.39
677.044	8440.57
677.393	8486.44
677.741	8485.77
678.09	8503.62
678.438	8423.85
678.787	8500.23
679.135	8545.43
679.484	8452.09
679.832	8467.69
680.181	8412.77
680.529	8371.64
680.877	8409.84
681.225	8348.14
681.573	8408.25
681.922	8381.59
682.27	8330.52
682.618	8352.21
682.966	8293.68
683.314	8328.93
683.661	8243.51
684.009	8231.76
684.357	8224.98
684.705	8206
685.053	8231.53
685.4	8171.2
685.748	8167.81
686.095	8197.64
686.443	8125.1
686.79	8023.18
687.138	8107.24
687.485	8090.75
687.832	8062.5
688.18	8058.21
688.527	8032.9
688.874	7984.08
689.221	7930.75
689.568	7963.97
689.915	7921.26
690.262	7901.37
690.609	7946.34
690.956	7890.75
691.303	7838.78
691.65	7805.56
691.997	7782.51
692.344	7760.36
692.69	7713.58
693.037	7740.47
693.383	7644.43
693.73	7707.48
694.077	7599.91
694.423	7600.82
694.769	7566.02
695.116	7555.62
695.462	7531.67
695.808	7502.06
696.155	7503.19
696.501	7503.87
696.847	7418.67
697.193	7340.71
697.539	7387.49
697.885	7296.64
698.231	7258.23
698.577	7274.27
698.923	7256.65
699.269	7256.19
699.614	7212.8
699.96	7153.6
700.306	7159.47
700.651	7064.33
700.997	7124.67
701.342	7083.54
701.688	7063.88
702.033	7022.08
702.379	7002.87
702.724	7032.24
703.069	6980.72
703.415	6840.39
703.76	6900.27
704.105	6919.48
704.45	6851.68
704.795	6808.75
705.14	6780.27
705.485	6768.75
705.83	6699.37
706.175	6730.56
706.52	6746.38
706.865	6721.52
707.209	6720.39
707.554	6673.84
707.899	6640.39
708.243	6643.33
708.588	6661.63
708.932	6558.13
709.277	6542.77
709.621	6551.81
709.966	6530.79
710.31	6523.33
710.654	6517.68
710.998	6465.71
711.342	6424.8
711.687	6451.69
712.031	6437.91
712.375	6412.83
712.719	6431.13
713.063	6357.69
713.407	6349.32
713.75	6363.34
714.094	6327.86
714.438	6318.14
714.782	6284.02
715.125	6299.83
715.469	6298.93
715.812	6264.58
716.156	6266.16
716.499	6281.08
716.843	6244.24
717.186	6205.15
717.53	6227.52
717.873	6225.49
718.216	6221.19
718.559	6182.55
718.902	6147.3
719.246	6158.14
719.589	6190.91
719.932	6163.34
720.275	6143
720.617	6128.09
720.96	6139.39
721.303	6145.94
721.646	6143.68
721.989	6115.66
722.331	6165.6
722.674	6088.54
723.016	6112.72
723.359	6074.98
723.701	6086.05
724.044	6067.98
724.386	6075.43
724.729	6065.04
725.071	6073.85
725.413	6059.39
725.755	6089.22
726.097	6020.52
726.439	6037.92
726.782	6066.17
727.124	6037.24
727.465	6000.18
727.807	6077.02
728.149	6076.79
728.491	5929.9
728.833	6009.67
729.175	6014.64
729.516	6007.86
729.858	6006.51
730.199	6033.85
730.541	6011.93
730.882	6022.33
731.224	5987.07
731.565	6011.71
731.906	6002.67
732.248	5994.31
732.589	5980.07
732.93	5945.49
733.271	5992.95
733.612	5981.88
733.953	6049.9
734.294	5958.83
734.635	5959.73
734.976	6045.83
735.317	5985.04
735.658	5952.27
735.999	6024.59
736.339	6012.61
736.68	6015.1
737.021	6012.84
737.361	6027.07
737.702	6030.01
738.042	6030.69
738.383	6004.93
738.723	6039.95
739.063	6050.8
739.404	6053.97
739.744	6070.91
740.084	6155.88
740.424	6063.91
740.764	6080.41
741.104	6143.23
741.444	6151.36
741.784	6149.78
742.124	6161.31
742.464	6183.91
742.804	6150.01
743.143	6165.15
743.483	6232.72
743.823	6219.61
744.162	6276.11
744.502	6285.15
744.841	6307.74
745.181	6334.86
745.52	6383.9
745.86	6428.42
746.199	6466.38
746.538	6489.66
746.877	6534.86
747.216	6604.46
747.556	6610.33
747.895	6681.97
748.234	6710.9
748.573	6781.4
748.911	6764.91
749.25	6881.51
749.589	6902.08
749.928	7008.29
750.267	7106.14
750.605	7107.95
750.944	7194.5
751.283	7240.6
751.621	7348.39
751.96	7420.93
752.298	7499.58
752.636	7593.13
752.975	7649.86
753.313	7713.36
753.651	7872.9
753.989	7923.97
754.327	8048.49
754.666	8163.29
755.004	8309.05
755.342	8436.73
755.679	8553.33
756.017	8641.02
756.355	8832.65
756.693	8923.04
757.031	9105.86
757.368	9156.71
757.706	9386.53
758.044	9473.99
758.381	9641.44
758.719	9832.4
759.056	9993.07
759.394	10119.62
759.731	10272.39
760.068	10390.12
760.405	10599.83
760.743	10741.07
761.08	10859.49
761.417	11004.8
761.754	11210.89
762.091	11386.25
762.428	11561.84
762.765	11706.02
763.102	11884.55
763.438	12058.78
763.775	12241.6
764.112	12362.27
764.449	12673.45
764.785	12748.25
765.122	12877.29
765.458	13057.17
765.795	13190.5
766.131	13340.55
766.467	13557.95
766.804	13598.4
767.14	13834.1
767.476	13856.25
767.812	14047.43
768.148	14257.82
768.485	14286.52
768.821	14511.37
769.157	14650.35
769.492	14705.04
769.828	14912.49
770.164	14862.32
770.5	14911.13
770.836	15195.87
771.171	15255.31
771.507	15359.26
771.842	15458.69
772.178	15582.53
772.513	15727.84
772.849	15808.51
773.184	15737.33
773.519	15966.7
773.855	16006.92
774.19	16025.68
774.525	16199.46
774.86	16112.68
775.195	16296.86
775.53	16377.76
775.865	16445.33
776.2	16364.65
776.535	16386.35
776.87	16429.96
777.205	16612.78
777.539	16606.23
777.874	16604.87
778.209	16613.91
778.543	16662.05
778.878	16668.83
779.212	16816.17
779.547	16765.32
779.881	16906.56
780.215	16753.12
780.55	16991.53
780.884	16916.05
781.218	17003.96
781.552	16974.13
781.886	16992.21
782.22	16930.74
782.554	17061.81
782.888	16848.26
783.222	16812.78
783.556	16921.7
783.889	16881.03
784.223	16890.97
784.557	16845.77
784.89	16963.96
785.224	16881.48
785.557	16773.23
785.891	16829.73
786.224	16885.77
786.558	16836.51
786.891	16753.34
787.224	16758.99
787.557	16704.98
787.891	16839.67
788.224	16808.26
788.557	16750.86
788.89	16836.05
789.223	16822.5
789.556	16708.83
789.888	16713.8
790.221	16694.14
790.554	16583.18
790.887	16550.19
791.219	16620.01
791.552	16616.17
791.884	16478.32
792.217	16585.21
792.549	16504.99
792.882	16414.37
793.214	16448.49
793.546	16477.65
793.879	16332.34
794.211	16353.13
794.543	16342.51
794.875	16310.64
795.207	16366.69
795.539	16314.26
795.871	16307.25
796.203	16131.67
796.535	16137.32
796.867	16094.61
797.198	16154.49
797.53	16128.5
797.862	15999.24
798.193	16029.97
798.525	15907.04
798.856	15950.88
799.188	15851
799.519	15783.65
799.85	15690.1
800.182	15750.43
800.513	15688.51
800.844	15702.07
801.175	15625.24
801.506	15621.4
801.837	15640.83
802.168	15574.84
802.499	15544.56
802.83	15403.78
803.161	15412.82
803.491	15403.1
803.822	15429.99
804.153	15411.91
804.483	15292.59
804.814	15271.8
805.145	15156.78
805.475	15241.52
805.805	15144.12
806.136	15236.32
806.466	15138.7
806.796	15145.03
807.126	15067.74
807.457	15015.54
807.787	15004.24
808.117	14973.05
808.447	14956.1
808.777	14917.01
809.107	14889.89
809.436	14822.1
809.766	14919.49
810.096	14738.93
810.426	14741.65
810.755	14745.04
811.085	14691.7
811.414	14720.18
811.744	14601.09
812.073	14590.46
812.403	14619.16
812.732	14467.53
813.061	14420.3
813.39	14458.94
813.719	14471.37
814.049	14470.69
814.378	14451.71
814.707	14451.94
815.036	14330.81
815.365	14356.57
815.693	14206.52
816.022	14210.81
816.351	14165.62
816.68	14116.58
817.008	14128.78
817.337	14079.74
817.665	13992.51
817.994	14134.43
818.322	14050.59
818.651	14028.44
818.979	13919.52
819.307	14112.28
819.636	14052.85
819.964	13825.06
820.292	13988.67
820.62	13946.64
820.948	13947.99
821.276	13929.46
821.604	13915.68
821.932	13966.75
822.259	13895.11
822.587	13818.73
822.915	13857.83
823.243	14007.65
823.57	13857.6
823.898	13938.28
824.225	13849.01
824.553	13903.93
824.88	13849.47
825.207	13969.24
825.535	13943.48
825.862	13905.06
826.189	13822.8
826.516	14009.46
826.843	14016.47
827.17	13996.13
827.497	13907.32
827.824	13893.98
828.151	13973.53
828.478	13945.96
828.805	13982.34
829.131	13914.55
829.458	13968.56
829.785	13802.91
830.111	13917.04
830.438	14020.54
830.764	13936.47
831.09	13971.27
831.417	13910.26
831.743	13968.33
832.069	13882.01
832.395	13879.52
832.722	13965.17
833.048	13851.95
833.374	13859.18
833.7	13833.87
834.026	13846.75
834.351	13827.77
834.677	13889.01
835.003	13804.04
835.329	13917.04
835.654	13789.35
835.98	13759.98
836.306	13779.86
836.631	13701.9
836.956	13756.14
837.282	13705.29
837.607	13611.51
837.932	13637.04
838.258	13632.75
838.583	13677.95
838.908	13571.51
839.233	13609.92
839.558	13621.45
839.883	13467.78
840.208	13545.29
840.533	13611.51
840.858	13509.59
841.182	13521.79
841.507	13514.11
841.832	13325.86
842.156	13443.15
842.481	13413.32
842.805	13332.87
843.13	13338.29
843.454	13320.21
843.778	13200.44
844.103	13254.68
844.427	13150.5
844.751	13187.56
845.075	13126.77
845.399	13087
845.723	13046.55
846.047	13068.7
846.371	12865.09
846.695	12913.22
847.019	12838.42
847.343	12767.23
847.666	12665.99
847.99	12710.97
848.313	12718.42
848.637	12525.66
848.96	12576.73
849.284	12489.28
849.607	12442.27
849.931	12386.45
850.254	12334.25
850.577	12238.89
850.9	12194.14
851.223	12266.91
851.546	12104.43
851.869	12028.5
852.192	12085.22
852.515	11919.57
852.838	11942.85
853.161	11961.15
853.483	11844.32
853.806	11847.49
854.129	11783.53
854.451	11751.44
854.774	11634.16
855.096	11678
855.419	11663.54
855.741	11624.89
856.063	11563.65
856.385	11489.53
856.708	11476.2
857.03	11436.2
857.352	11457.44
857.674	11382.86
857.996	11372.24
858.318	11307.84
858.64	11330.21
858.961	11314.39
859.283	11268.07
859.605	11149.65
859.926	11196.43
860.248	11233.49
860.57	11082.53
860.891	11113.49
861.212	11075.98
861.534	10982.65
861.855	11084.12
862.176	11078.92
862.498	11038.24
862.819	10950.56
863.14	10886.61
863.461	10968.41
863.782	10876.21
864.103	10919.6
864.424	10839.15
864.745	10892.71
865.065	10827.62
865.386	10792.6
865.707	10727.29
866.027	10746.95
866.348	10668.76
866.668	10728.64
866.989	10683.22
867.309	10629.21
867.63	10674.86
867.95	10688.42
868.27	10621.53
868.59	10685.03
868.91	10565.26
869.23	10586.28
869.55	10539.95
869.87	10537.92
870.19	10549.21
870.51	10573.62
870.83	10532.04
871.15	10478.93
871.469	10514.64
871.789	10481.87
872.109	10501.76
872.428	10402.1
872.748	10439.61
873.067	10408.65
873.386	10456.79
873.706	10311.71
874.025	10382.21
874.344	10268.54
874.663	10322.1
874.982	10249.56
875.301	10244.36
875.62	10250.92
875.939	10253.63
876.258	10194.65
876.577	10181.99
876.896	10165.95
877.214	10170.69
877.533	10114.42
877.852	10119.62
878.17	10138.83
878.489	10124.37
878.807	10134.54
879.125	10042.56
879.444	10150.35
879.762	10002.34
880.08	10024.26
880.398	9970.47
880.716	9982.22
881.034	10009.12
881.352	9972.96
881.67	9931.15
881.988	9923.69
882.306	9817.93
882.624	9806.63
882.941	9736.35
883.259	9801.44
883.577	9782.68
883.894	9768.9
884.212	9696.58
884.529	9788.1
884.846	9612.29
885.164	9617.71
885.481	9702.46
885.798	9681.67
886.115	9556.47
886.432	9569.35
886.75	9550.82
887.067	9499.75
887.383	9507.66
887.7	9535.46
888.017	9475.34
888.334	9501.56
888.651	9403.26
888.967	9390.15
889.284	9324.16
889.6	9350.15
889.917	9235.8
890.233	9320.32
890.55	9231.51
890.866	9297.95
891.182	9218.4
891.498	9181.79
891.815	9194.67
892.131	9177.95
892.447	9155.35
892.763	9060.44
893.079	9058.18
893.395	9008.01
893.71	9009.37
894.026	8974.11
894.342	8925.75
894.657	8894.34
894.973	8887.11
895.289	8862.93
895.604	8883.27
895.92	8756.27
896.235	8711.52
896.55	8791.07
896.865	8763.5
897.181	8707.91
897.496	8656.38
897.811	8596.27
898.126	8591.75
898.441	8595.14
898.756	8542.04
899.071	8441.7
899.386	8503.17
899.7	8399.44
900.015	8357.86
900.33	8291.42
900.644	8277.41
900.959	8342.94
901.273	8337.52
901.588	8265.43
901.902	8141.14
902.216	8196.51
902.531	8210.29
902.845	8118.09
903.159	8053.69
903.473	8055.95
903.787	8034.7
904.101	7998.09
904.415	7927.14
904.729	7953.35
905.042	7873.35
905.356	7912.9
905.67	7880.58
905.984	7830.42
906.297	7775.05
906.611	7737.08
906.924	7730.76
907.237	7708.61
907.551	7661.38
907.864	7665
908.177	7659.12
908.491	7625
908.804	7518.33
909.117	7487.37
909.43	7483.31
909.743	7427.71
910.056	7435.85
910.368	7432.46
910.681	7410.31
910.994	7331.45
911.307	7281.28
911.619	7269.53
911.932	7277.66
912.244	7225.46
912.557	7210.32
912.869	7166.93
913.181	7126.71
913.494	7068.18
913.806	7036.54
914.118	7093.71
914.43	6979.59
914.742	7024.79
915.054	6970.1
915.366	6914.06
915.678	6884.23
915.99	6890.33
916.302	6880.61
916.613	6870.21
916.925	6750.22
917.236	6770.78
917.548	6755.42
917.859	6715.42
918.171	6676.32
918.482	6608.98
918.794	6612.82
919.105	6635.64
919.416	6604.69
919.727	6514.74
920.038	6536.21
920.349	6475.65
920.66	6428.64
920.971	6449.21
921.282	6441.53
921.593	6411.7
921.903	6336.9
922.214	6323.56
922.525	6323.11
922.835	6290.8
923.146	6204.7
923.456	6265.26
923.767	6158.14
924.077	6171.25
924.387	6155.43
924.697	6104.81
925.008	6069.11
925.318	6065.49
925.628	6056.9
925.938	6054.64
926.248	5961.76
926.558	5954.31
926.867	5961.99
927.177	5954.08
927.487	5901.65
927.796	5848.77
928.106	5818.04
928.416	5805.84
928.725	5792.28
929.034	5769.9
929.344	5759.06
929.653	5712.05
929.962	5671.38
930.271	5699.85
930.581	5672.96
930.89	5628.89
931.199	5597.71
931.508	5579.63
931.817	5595.9
932.125	5590.93
932.434	5532.17
932.743	5486.07
933.051	5465.05
933.36	5492.4
933.669	5479.74
933.977	5424.6
934.286	5390.03
934.594	5359.29
934.902	5339.63
935.21	5310.71
935.519	5346.87
935.827	5297.83
936.135	5248.56
936.443	5264.83
936.751	5202.24
937.059	5198.17
937.367	5163.59
937.674	5209.02
937.982	5157.49
938.29	5138.28
938.597	5128.11
938.905	5077.95
939.213	5033.2
939.52	5054.9
939.827	5004.95
940.135	4990.72
940.442	4984.39
940.749	4912.75
941.056	4940.32
941.363	4898.29
941.67	4893.09
941.977	4805.64
942.284	4856.71
942.591	4836.82
942.898	4799.76
943.205	4822.36
943.511	4758.63
943.818	4756.37
944.125	4711.85
944.431	4667.56
944.738	4664.4
945.044	4655.81
945.35	4630.5
945.657	4587.11
945.963	4601.35
946.269	4593.89
946.575	4623.04
946.881	4551.41
947.187	4541.46
947.493	4497.17
947.799	4504.63
948.105	4468.02
948.41	4407.91
948.716	4391.41
949.022	4438.41
949.327	4347.8
949.633	4334.91
949.938	4385.08
950.244	4317.74
950.549	4274.8
950.854	4302.6
951.16	4296.72
951.465	4274.12
951.77	4227.8
952.075	4218.76
952.38	4209.27
952.685	4224.86
952.99	4131.53
953.294	4138.54
953.599	4088.37
953.904	4068.71
954.209	4064.86
954.513	4077.52
954.818	4053.11
955.122	4046.79
955.426	4031.42
955.731	4035.94
956.035	3962.49
956.339	3982.83
956.643	3978.31
956.948	3972.21
957.252	3930.41
957.556	3933.34
957.86	3924.3
958.163	3903.51
958.467	3882.72
958.771	3894.02
959.075	3836.17
959.378	3794.59
959.682	3802.05
959.985	3795.49
960.289	3757.75
960.592	3742.39
960.896	3723.86
961.199	3717.98
961.502	3679.79
961.805	3677.76
962.108	3660.58
962.411	3661.03
962.714	3622.39
963.017	3631.88
963.32	3635.5
963.623	3585.33
963.926	3569.28
964.228	3542.84
964.531	3551.66
964.833	3560.47
965.136	3519.57
965.438	3564.31
965.741	3473.92
966.043	3443.19
966.345	3446.12
966.648	3442.73
966.95	3468.27
967.252	3407.03
967.554	3390.53
967.856	3353.7
968.158	3362.96
968.46	3352.34
968.761	3308.5
969.063	3334.49
969.365	3329.07
969.666	3278.9
969.968	3265.34
970.269	3256.98
970.571	3251.78
970.872	3264.66
971.174	3244.55
971.475	3170.43
971.776	3198
972.077	3201.38
972.378	3165.91
972.679	3142.18
972.98	3163.19
973.281	3122.29
973.582	3152.35
973.883	3103.53
974.183	3095.4
974.484	3074.16
974.785	3072.35
975.085	3086.81
975.386	3041.39
975.686	3030.09
975.986	2987.83
976.287	2996.87
976.587	2979.47
976.887	2976.98
977.187	2970.88
977.487	2968.85
977.787	2944.44
978.087	2915.74
978.387	2918.23
978.687	2888.85
978.987	2871.45
979.286	2883.43
979.586	2833.26
979.885	2876.2
980.185	2807.5
980.484	2820.38
980.784	2816.08
981.083	2804.56
981.382	2786.03
981.682	2749.87
981.981	2747.84
982.28	2733.37
982.579	2709.65
982.878	2726.14
983.177	2715.07
983.475	2698.8
983.774	2638.91
984.073	2656.09
984.372	2641.4
984.67	2666.26
984.969	2657.67
985.267	2616.99
985.566	2610.67
985.864	2582.64
986.162	2606.15
986.461	2567.96
986.759	2555.98
987.057	2547.62
987.355	2516.21
987.653	2520.95
987.951	2495.41
988.249	2496.09
988.547	2496.54
988.844	2458.58
989.142	2484.57
989.44	2431.69
989.737	2409.77
990.035	2448.86
990.332	2396.89
990.63	2397.11
990.927	2396.89
991.224	2382.2
991.521	2363.21
991.819	2358.47
992.116	2369.77
992.413	2371.12
992.71	2356.21
993.006	2310.79
993.303	2321.86
993.6	2305.82
993.897	2302.65
994.193	2295.42
994.49	2287.74
994.787	2253.84
995.083	2254.07
995.379	2224.46
995.676	2229.43
995.972	2201.86
996.268	2224.24
996.565	2192.6
996.861	2162.32
997.157	2201.64
997.453	2156.44
997.749	2134.97
998.044	2132.49
998.34	2134.29
998.636	2116.89
998.932	2103.79
999.227	2087.74
999.523	2107.85
999.818	2073.28
1000.114	2062.66
1000.409	2054.3
1000.704	2044.58
1001	2048.42
1001.295	2021.75
1001.59	2007.97
1001.885	2010.91
1002.18	2006.39
1002.475	1960.51
1002.77	1981.3
1003.065	1974.98
1003.359	1923.9
1003.654	1963.9
1003.949	1902.44
1004.243	1919.84
1004.538	1919.16
1004.832	1902.44
1005.127	1881.19
1005.421	1892.27
1005.715	1866.28
1006.009	1887.97
1006.304	1854.75
1006.598	1839.84
1006.892	1833.06
1007.186	1811.82
1007.48	1817.69
1007.773	1817.92
1008.067	1797.58
1008.361	1751.93
1008.655	1741.54
1008.948	1766.85
1009.242	1770.69
1009.535	1741.31
1009.829	1731.59
1010.122	1725.94
1010.415	1683.46
1010.708	1673.74
1011.001	1691.37
1011.295	1663.35
1011.588	1654.53
1011.881	1650.92
1012.173	1629.45
1012.466	1624.03
1012.759	1654.76
1013.052	1616.57
1013.344	1616.57
1013.637	1608.66
1013.93	1578.83
1014.222	1607.98
1014.514	1568.21
1014.807	1567.3
1015.099	1573.4
1015.391	1550.35
1015.683	1537.47
1015.976	1511.26
1016.268	1515.1
1016.56	1500.19
1016.851	1506.51
1017.143	1497.47
1017.435	1477.36
1017.727	1472.84
1018.018	1437.59
1018.31	1443.46
1018.602	1415.67
1018.893	1416.8
1019.185	1427.19
1019.476	1412.28
1019.767	1387.87
1020.058	1386.74
1020.35	1369.34
1020.641	1346.07
1020.932	1394.65
1021.223	1372.05
1021.514	1347.65
1021.804	1353.98
1022.095	1326.18
1022.386	1336.8
1022.677	1314.88
1022.967	1310.59
1023.258	1305.62
1023.548	1329.34
1023.839	1266.75
1024.129	1293.86
1024.419	1267.65
1024.709	1268.78
1025	1248.67
1025.29	1253.41
1025.58	1249.35
1025.87	1205.73
1026.16	1229.01
1026.449	1212.96
1026.739	1218.16
1027.029	1211.61
1027.319	1192.62
1027.608	1159.86
1027.898	1196.24
1028.187	1180.65
1028.477	1174.09
1028.766	1141.78
1029.055	1158.73
1029.344	1141.55
1029.634	1147.2
1029.923	1125.96
1030.212	1130.48
1030.501	1122.8
1030.79	1113.08
1031.078	1094.55
1031.367	1098.39
1031.656	1071.5
1031.945	1079.41
1032.233	1057.71
1032.522	1063.59
1032.81	1052.97
1033.099	1061.55
1033.387	1052.06
1033.675	1048.67
1033.963	1028.79
1034.251	1017.04
1034.54	1005.96
1034.828	1021.33
1035.116	988.34
1035.403	990.6
1035.691	973.19
1035.979	987.66
1036.267	980.2
1036.554	985.17
1036.842	975
1037.129	951.27
1037.417	940.88
1037.704	960.54
1037.992	955.12
1038.279	945.85
1038.566	915.34
1038.853	915.34
1039.14	915.34
