Data from hue_70_FLMS001491_12.txt Node
Date: Mon Feb 06 15:20:10 GMT 2017
User: dcchb
Spectrometer: FLMS00149
Trigger mode: 0
Integration Time (sec): 2.000000E-2
Scans to average: 10
Electric dark correction enabled: true
Nonlinearity correction enabled: false
Boxcar width: 0
XAxis mode: Wavelengths
Number of Pixels in Spectrum: 2048
>>>>>Begin Spectral Data<<<<<
341.393	-13.47
341.776	-13.47
342.16	-13.47
342.543	-77.2
342.927	-67.94
343.31	-66.58
343.693	-82.4
344.077	-78.33
344.46	-57.77
344.843	-36.3
345.226	-33.59
345.61	-39.01
345.993	-23.42
346.376	7.54
346.759	1.67
347.142	26.52
347.525	24.72
347.908	64.94
348.291	77.14
348.674	97.71
349.057	117.14
349.44	122.79
349.823	139.52
350.206	157.59
350.588	183.81
350.971	204.15
351.354	226.97
351.737	239.63
352.119	237.37
352.502	269.23
352.884	295.22
353.267	278.72
353.65	292.28
354.032	289.79
354.414	290.25
354.797	308.1
355.179	307.65
355.562	301.55
355.944	326.18
356.326	325.27
356.709	329.34
357.091	325.05
357.473	338.15
357.855	333.86
358.238	340.87
358.62	351.26
359.002	333.86
359.384	329.79
359.766	340.87
360.148	333.64
360.53	334.99
360.912	318.72
361.294	328.44
361.676	334.99
362.057	311.71
362.439	328.89
362.821	361.21
363.203	306.29
363.584	331.83
363.966	313.52
364.348	298.61
364.729	309.91
365.111	316.46
365.493	298.38
365.874	324.6
366.256	303.13
366.637	308.55
367.019	305.39
367.4	302.22
367.781	299.74
368.163	332.05
368.544	301.55
368.925	317.36
369.306	326.63
369.688	329.57
370.069	320.3
370.45	305.61
370.831	309
371.212	313.07
371.593	305.84
371.974	319.62
372.355	302.45
372.736	299.96
373.117	329.57
373.498	291.6
373.879	322.34
374.26	300.64
374.641	311.94
375.021	311.94
375.402	330.47
375.783	313.07
376.163	325.5
376.544	312.62
376.925	337.7
377.305	332.51
377.686	329.79
378.066	306.29
378.447	335.9
378.827	319.17
379.208	325.05
379.588	335.22
379.968	333.18
380.349	332.73
380.729	313.75
381.109	341.09
381.489	319.85
381.87	316.69
382.25	314.2
382.63	312.62
383.01	333.86
383.39	325.73
383.77	334.77
384.15	338.15
384.53	327.99
384.91	329.57
385.29	339.96
385.67	349
386.049	344.26
386.429	344.03
386.809	344.93
387.189	358.95
387.568	341.32
387.948	340.41
388.328	346.06
388.707	336.12
389.087	353.07
389.466	373.86
389.846	349.45
390.225	362.56
390.605	343.13
390.984	337.48
391.363	356.91
391.743	361.21
392.122	332.51
392.501	356.23
392.881	368.21
393.26	345.84
393.639	336.12
394.018	373.41
394.397	360.75
394.776	343.8
395.155	364.14
395.534	355.78
395.913	356.91
396.292	350.13
396.671	350.36
397.05	353.97
397.429	349.68
397.808	363.01
398.186	394.65
398.565	358.27
398.944	374.09
399.323	373.41
399.701	370.7
400.08	382.67
400.458	378.61
400.837	382.45
401.215	382.45
401.594	404.14
401.972	378.38
402.351	370.7
402.729	379.06
403.107	385.84
403.486	406.85
403.864	379.06
404.242	385.84
404.62	398.94
404.999	382.22
405.377	397.36
405.755	395.78
406.133	391.26
406.511	396.68
406.889	390.36
407.267	395.1
407.645	407.53
408.023	416.34
408.401	407.53
408.779	395.1
409.156	430.13
409.534	419.51
409.912	425.84
410.29	420.64
410.667	428.32
411.045	423.58
411.422	409.57
411.8	421.54
412.178	432.39
412.555	437.36
412.933	408.66
413.31	421.99
413.687	412.73
414.065	473.07
414.442	441.43
414.819	440.75
415.197	454.54
415.574	465.16
415.951	452.28
416.328	475.55
416.705	476
417.082	461.09
417.46	454.31
417.837	456.12
418.214	473.07
418.591	470.81
418.967	470.58
419.344	474.42
419.721	459.28
420.098	476.23
420.475	466.51
420.852	491.37
421.228	473.29
421.605	477.59
421.982	468.77
422.358	488.21
422.735	497.92
423.111	488.43
423.488	505.61
423.864	496.34
424.241	510.81
424.617	503.57
424.994	506.06
425.37	499.05
425.746	501.09
426.123	519.62
426.499	532.95
426.875	509
427.251	525.04
427.627	517.81
428.003	531.6
428.379	532.05
428.756	542.9
429.132	550.35
429.507	520.75
429.883	543.8
430.259	557.13
430.635	567.08
431.011	544.48
431.387	548.32
431.763	593.06
432.138	576.34
432.514	573.18
432.89	569.56
433.265	603.91
433.641	591.93
434.016	620.18
434.392	604.14
434.767	616.79
435.143	613.85
435.518	615.89
435.894	609.79
436.269	629.45
436.644	617.92
437.02	614.31
437.395	634.64
437.77	642.55
438.145	660.18
438.52	651.14
438.895	653.17
439.271	657.24
439.646	670.8
440.021	658.6
440.395	668.09
440.77	663.34
441.145	657.02
441.52	666.06
441.895	677.58
442.27	681.87
442.645	679.84
443.019	688.2
443.394	662.44
443.769	704.47
444.143	696.56
444.518	711.93
444.892	700.18
445.267	696.34
445.641	696.56
446.016	701.99
446.39	729.11
446.764	740.4
447.139	715.55
447.513	713.29
447.887	725.49
448.262	740.63
448.636	741.99
449.01	744.02
449.384	756.22
449.758	747.64
450.132	749.9
450.506	746.05
450.88	755.32
451.254	760.74
451.628	767.3
452.002	770.23
452.376	806.39
452.75	798.26
453.123	783.34
453.497	794.64
453.871	798.93
454.244	824.7
454.618	830.35
454.992	821.08
455.365	832.38
455.739	851.36
456.112	846.84
456.486	837.12
456.859	863.34
457.232	896.56
457.606	859.72
457.979	879.61
458.352	906.05
458.725	916.22
459.099	940.85
459.472	921.42
459.845	920.51
460.218	948.53
460.591	944.01
460.964	973.17
461.337	987.4
461.71	1005.03
462.083	992.15
462.456	989.89
462.829	1018.14
463.201	1022.66
463.574	1057.46
463.947	1045.03
464.32	1064.69
464.692	1087.97
465.065	1097.46
465.438	1114.41
465.81	1143.78
466.183	1132.94
466.555	1171.81
466.928	1167.29
467.3	1173.39
467.672	1217
468.045	1251.13
468.417	1243.22
468.789	1231.92
469.161	1272.37
469.534	1320.5
469.906	1297.45
470.278	1313.27
470.65	1345.13
471.022	1382.87
471.394	1392.59
471.766	1457.22
472.138	1464
472.51	1483.66
472.882	1545.35
473.253	1565.47
473.625	1580.38
473.997	1642.53
474.369	1630.78
474.74	1649.98
475.112	1729.53
475.484	1737.44
475.855	1811.34
476.227	1850.88
476.598	1908.74
476.97	1955.51
477.341	2000.71
477.713	2054.49
478.084	2079.8
478.455	2139.69
478.827	2179.01
479.198	2273.25
479.569	2337.65
479.94	2358.21
480.311	2422.62
480.682	2516.18
481.053	2645.66
481.424	2655.83
481.795	2727.92
482.166	2836.85
482.537	2897.64
482.908	2999.1
483.279	3079.78
483.65	3164.07
484.021	3222.37
484.391	3347.34
484.762	3487.68
485.133	3521.12
485.503	3629.82
485.874	3744.17
486.244	3841.11
486.615	3965.63
486.985	4082.69
487.356	4233.42
487.726	4253.31
488.097	4400.87
488.467	4490.36
488.837	4653.75
489.207	4741.88
489.578	4905.04
489.948	5044.02
490.318	5124.7
490.688	5223.68
491.058	5370.57
491.428	5510.9
491.798	5609.88
492.168	5818.01
492.538	5930.55
492.908	6091
493.278	6255.06
493.648	6310.65
494.017	6455.06
494.387	6598.1
494.757	6711.55
495.126	6955.16
495.496	6991.31
495.866	7114.47
496.235	7290.06
496.605	7388.37
496.974	7431.98
497.344	7689.83
497.713	7732.76
498.082	7878.3
498.452	8036.71
498.821	8190.83
499.19	8317.61
499.559	8422.46
499.928	8494.32
500.298	8636.02
500.667	8855.45
501.036	8910.13
501.405	9024.25
501.774	9164.82
502.143	9287.52
502.512	9346.96
502.88	9544.92
503.249	9617.01
503.618	9721.64
503.987	9787.85
504.356	9897.9
504.724	10007.96
505.093	10089.76
505.462	10215.41
505.83	10325.46
506.199	10446.36
506.567	10673.7
506.936	10715.28
507.304	10876.86
507.672	10915.96
508.041	11011.77
508.409	11189.4
508.777	11269.62
509.145	11363.63
509.514	11460.8
509.882	11589.84
510.25	11621.25
510.618	11792.54
510.986	11816.5
511.354	11976.94
511.722	12097.62
512.09	12229.37
512.458	12280.89
512.826	12456.71
513.193	12453.32
513.561	12453.99
513.929	12654.22
514.297	12827.09
514.664	12811.73
515.032	12905.96
515.4	13046.07
515.767	13161.09
516.135	13230.25
516.502	13206.97
516.869	13389.56
517.237	13436.12
517.604	13453.74
517.972	13604.7
518.339	13614.87
518.706	13689.89
519.073	13817.12
519.44	13847.18
519.808	14021.19
520.175	14046.27
520.542	14166.04
520.909	14317
521.276	14316.54
521.643	14471.79
522.009	14482.19
522.376	14659.81
522.743	14743.65
523.11	14785.91
523.477	14936.64
523.843	15039.01
524.21	15151.78
524.577	15218.89
524.943	15262.51
525.31	15350.19
525.676	15540.69
526.043	15611.65
526.409	15616.4
526.776	15829.73
527.142	15819.1
527.508	15888.71
527.874	16091.64
528.241	16098.87
528.607	16094.58
528.973	16172.31
529.339	16275.59
529.705	16307.9
530.071	16509.93
530.437	16440.33
530.803	16516.26
531.169	16682.81
531.535	16641.91
531.901	16613.43
532.267	16674.45
532.632	16858.4
532.998	16809.59
533.364	17007.32
533.73	16902.01
534.095	17026.08
534.461	17040.77
534.826	17132.29
535.192	17178.16
535.557	17210.93
535.923	17201.89
536.288	17257.26
536.653	17399.4
537.019	17237.6
537.384	17258.61
537.749	17325.5
538.114	17356.69
538.479	17414.77
538.845	17496.35
539.21	17406.63
539.575	17478.27
539.94	17481.88
540.305	17658.83
540.67	17451.15
541.034	17603.92
541.399	17650.24
541.764	17651.15
542.129	17640.07
542.494	17654.99
542.858	17675.1
543.223	17752.84
543.587	17830.12
543.952	17751.71
544.316	17808.2
544.681	17805.04
545.045	17833.06
545.41	17858.37
545.774	17830.58
546.138	17945.83
546.503	17876.22
546.867	17833.97
547.231	17998.26
547.595	17975.66
547.959	18022.44
548.324	17949.67
548.688	18057.24
549.052	18029.67
549.416	18118.7
549.779	18049.33
550.143	18111.92
550.507	18215.2
550.871	18163.45
551.235	18132.04
551.599	18277.57
551.962	18128.42
552.326	18258.59
552.689	18429.88
553.053	18167.97
553.417	18295.42
553.78	18515.76
554.143	18379.71
554.507	18407.74
554.87	18460.62
555.234	18609.54
555.597	18516.89
555.96	18489.32
556.323	18551.91
556.686	18554.63
557.05	18724.79
557.413	18751
557.776	18702.87
558.139	18774.51
558.502	18779.7
558.865	18818.57
559.228	18988.06
559.59	18942.19
559.953	18955.52
560.316	19114.84
560.679	19231.44
561.041	19136.76
561.404	19148.06
561.767	19388.73
562.129	19264.21
562.492	19466.69
562.854	19445.22
563.217	19417.88
563.579	19481.15
563.941	19553.92
564.304	19573.81
564.666	19707.59
565.028	19686.12
565.39	19761.83
565.753	19826.23
566.115	19920.69
566.477	19925.44
566.839	19989.84
567.201	20109.39
567.563	19964.31
567.925	20189.61
568.287	20126.56
568.648	20145.77
569.01	20307.57
569.372	20371.98
569.734	20251.08
570.095	20437.74
570.457	20551.18
570.819	20561.58
571.18	20600.9
571.542	20721.12
571.903	20639.09
572.265	20719.77
572.626	20778.07
572.987	20788.24
573.349	20959.31
573.71	20928.8
574.071	20886.99
574.432	21002.24
574.794	21177.16
575.155	21161.11
575.516	21006.31
575.877	21089.02
576.238	21137.38
576.599	21217.15
576.96	21211.5
577.32	21205.63
577.681	21300.54
578.042	21197.49
578.403	21254.22
578.763	21263.48
579.124	21330.82
579.485	21427.54
579.845	21573.75
580.206	21445.17
580.566	21470.93
580.927	21469.58
581.287	21486.75
581.648	21447.66
582.008	21540.76
582.368	21498.95
582.728	21623.92
583.089	21532.17
583.449	21540.54
583.809	21545.05
584.169	21503.25
584.529	21468.9
584.889	21705.5
585.249	21575.79
585.609	21589.12
585.969	21620.99
586.329	21499.18
586.688	21712.73
587.048	21529.69
587.408	21478.84
587.768	21599.06
588.127	21598.39
588.487	21518.39
588.846	21643.36
589.206	21456.02
589.565	21609.01
589.925	21630.25
590.284	21570.37
590.643	21604.26
591.003	21601.55
591.362	21606.07
591.721	21601.78
592.08	21623.7
592.44	21570.59
592.799	21729.46
593.158	21675.45
593.517	21593.42
593.876	21643.13
594.235	21637.03
594.593	21553.42
594.952	21661.21
595.311	21526.52
595.67	21666.86
596.029	21776.91
596.387	21793.86
596.746	21796.8
597.104	21605.17
597.463	21735.56
597.822	21729.46
598.18	21627.31
598.538	21709.34
598.897	21737.37
599.255	21622.34
599.613	21981.88
599.972	21746.63
600.33	21885.61
600.688	21731.49
601.046	21911.82
601.404	21946.63
601.762	21780.08
602.12	21903.01
602.478	21922.22
602.836	21917.93
603.194	21753.64
603.552	21847.87
603.91	21821.66
604.268	21952.5
604.625	21860.3
604.983	21966.74
605.341	21772.85
605.698	21999.73
606.056	22038.6
606.413	21914.31
606.771	22070.46
607.128	22134.87
607.485	21980.3
607.843	22098.03
608.2	22187.52
608.557	22311.59
608.914	22089
609.272	22309.78
609.629	22243.57
609.986	22351.59
610.343	22260.52
610.7	22474.75
611.057	22424.35
611.414	22376.45
611.771	22342.32
612.127	22487.4
612.484	22508.87
612.841	22519.49
613.198	22403.56
613.554	22526.05
613.911	22777.11
614.267	22540.74
614.624	22680.17
614.98	22599.49
615.337	22895.98
615.693	22740.5
616.05	22676.55
616.406	22840.39
616.762	22713.39
617.118	22814.85
617.475	22731.69
617.831	22868.41
618.187	22949.76
618.543	22865.02
618.899	23061.4
619.255	23030.44
619.611	23045.13
619.967	23088.29
620.323	23178.91
620.678	23142.75
621.034	22999.25
621.39	22944.34
621.746	22955.64
622.101	23242.41
622.457	23064.56
622.812	23082.64
623.168	23126.48
623.523	23187.72
623.879	23260.94
624.234	23123.32
624.589	23228.63
624.945	23089.42
625.3	23265.01
625.655	23221.85
626.01	23128.06
626.365	23245.8
626.72	23176.65
627.075	23293.03
627.43	23200.38
627.785	23048.97
628.14	23275.4
628.495	23267.04
628.85	23228.63
629.205	23041.06
629.559	23375.52
629.914	23116.09
630.269	23349.75
630.623	23117.89
630.978	23095.97
631.332	23261.85
631.687	23272.69
632.041	23124.67
632.396	23015.07
632.75	23129.42
633.104	23055.3
633.459	23096.65
633.813	23119.48
634.167	23044
634.521	22975.53
634.875	22948.86
635.229	22941.85
635.583	22855.08
635.937	22918.13
636.291	22859.6
636.645	22932.82
636.999	22907.51
637.352	22937.56
637.706	22768.53
638.06	22771.69
638.413	22753.61
638.767	22716.78
639.121	22855.53
639.474	22595.2
639.828	22822.08
640.181	22731.46
640.534	22813.72
640.888	22554.07
641.241	22599.26
641.594	22571.47
641.947	22746.83
642.301	22653.73
642.654	22606.04
643.007	22593.61
643.36	22578.47
643.713	22562.88
644.066	22708.87
644.419	22442.21
644.771	22356.11
645.124	22171.25
645.477	22013.52
645.83	21865.72
646.182	21978.94
646.535	21931.71
646.888	21859.85
647.24	21819.62
647.593	21879.96
647.945	21846.74
648.298	21826.86
648.65	21780.53
649.002	21659.18
649.355	21815.78
649.707	21791.6
650.059	21912.73
650.411	22168.54
650.763	22173.74
651.115	22365.6
651.467	22224.59
651.819	22255.54
652.171	22259.39
652.523	22201.53
652.875	22285.6
653.227	22244.92
653.578	22200.4
653.93	22110.69
654.282	22100.07
654.633	22037.7
654.985	22228.2
655.337	22266.62
655.688	22263.68
656.039	22230.23
656.391	22096.9
656.742	22103.68
657.094	22111.59
657.445	22248.09
657.796	22195.89
658.147	22126.51
658.498	22154.08
658.849	22189.11
659.2	22084.7
659.551	22173.29
659.902	22236.11
660.253	22085.15
660.604	22252.16
660.955	22141.2
661.306	22183
661.656	22086.06
662.007	22138.71
662.358	22136.68
662.708	22089.22
663.059	22146.4
663.409	22019.17
663.76	22233.62
664.11	22193.4
664.461	22141.65
664.811	22247.18
665.161	22174.87
665.511	22222.55
665.862	22237.01
666.212	22271.82
666.562	22178.26
666.912	22133.74
667.262	22157.24
667.612	22044.93
667.962	22235.66
668.312	22093.52
668.662	22300.29
669.011	22102.1
669.361	22079.96
669.711	22135.1
670.06	22037.47
670.41	22084.7
670.76	22003.8
671.109	22106.4
671.459	22070.92
671.808	22008.77
672.157	22100.52
672.507	21811.71
672.856	21907.98
673.205	21884.03
673.554	22044.7
673.904	21970.13
674.253	22012.39
674.602	21972.84
674.951	21575.56
675.3	21500.31
675.649	21888.32
675.998	21873.18
676.346	21871.37
676.695	21959.28
677.044	21773.3
677.393	21843.13
677.741	21845.16
678.09	21739.17
678.438	21667.31
678.787	21715.67
679.135	21892.84
679.484	21654.88
679.832	21752.96
680.181	21491.05
680.529	21567.65
680.877	21589.35
681.225	21493.76
681.573	21617.6
681.922	21537.37
682.27	21521.55
682.618	21493.98
682.966	21494.89
683.314	21367.88
683.661	21269.58
684.009	21106.65
684.357	21165.86
684.705	21196.14
685.053	21175.12
685.4	21061.68
685.748	20969.93
686.095	21071.4
686.443	20769.26
686.79	20923.6
687.138	20942.81
687.485	20963.6
687.832	20777.17
688.18	20899.2
688.527	20741.01
688.874	20668.69
689.221	20697.85
689.568	20608.58
689.915	20522.48
690.262	20541.92
690.609	20417.85
690.956	20445.87
691.303	20418.53
691.65	20208.14
691.997	20188.25
692.344	20159.55
692.69	20061.93
693.037	20024.87
693.383	19920.46
693.73	20064.64
694.077	19883.18
694.423	19869.39
694.769	19851.77
695.116	19773.35
695.462	19753.92
695.808	19628.04
696.155	19732.45
696.501	19479.12
696.847	19509.63
697.193	19423.98
697.539	19506.92
697.885	19264.44
698.231	19248.62
698.577	19116.42
698.923	19111.67
699.269	19136.08
699.614	18947.16
699.96	19017.21
700.306	18848.4
700.651	18815.86
700.997	18762.76
701.342	18730.67
701.688	18639.59
702.033	18689.54
702.379	18584.68
702.724	18504.23
703.069	18510.33
703.415	18342.43
703.76	18400.5
704.105	18354.18
704.45	18342.43
704.795	18190.79
705.14	18116.22
705.485	18138.36
705.83	18014.3
706.175	17989.44
706.52	18010.23
706.865	17819.96
707.209	17867.64
707.554	17778.37
707.899	17826.96
708.243	17676
708.588	17671.26
708.932	17503.35
709.277	17457.93
709.621	17439.4
709.966	17497.7
710.31	17523.24
710.654	17329.8
710.998	17389.23
711.342	17417.93
711.687	17355.11
712.031	17325.5
712.375	17295.68
712.719	17248.44
713.063	17189.69
713.407	17144.94
713.75	17073.08
714.094	17121.44
714.438	17014.55
714.782	17109.24
715.125	16897.49
715.469	17003.48
715.812	16902.92
716.156	16732.07
716.499	16918.74
716.843	16794.22
717.186	16724.84
717.53	16762.58
717.873	16781.11
718.216	16721.45
718.559	16611.4
718.902	16443.27
719.246	16554.45
719.589	16485.3
719.932	16426.32
720.275	16459.54
720.617	16412.31
720.96	16363.95
721.303	16335.25
721.646	16422.48
721.989	16372.99
722.331	16379.09
722.674	16279.88
723.016	16380.22
723.359	16273.1
723.701	16377.28
724.044	16129.38
724.386	16161.02
724.729	16161.24
725.071	16141.13
725.413	16101.13
725.755	16189.49
726.097	16071.07
726.439	16039.89
726.782	16003.28
727.124	16045.54
727.465	15977.97
727.807	15971.87
728.149	15941.81
728.491	15910.4
728.833	15867.92
729.175	15885.77
729.516	15827.69
729.858	15812.32
730.199	15863.62
730.541	15820.01
730.882	15835.15
731.224	15902.94
731.565	15780.23
731.906	15863.4
732.248	15818.2
732.589	15713.34
732.93	15647.13
733.271	15641.71
733.612	15669.96
733.953	15801.7
734.294	15614.36
734.635	15656.17
734.976	15656.85
735.317	15650.29
735.658	15624.08
735.999	15670.18
736.339	15620.24
736.68	15623.4
737.021	15638.77
737.361	15509.51
737.702	15676.73
738.042	15608.94
738.383	15549.51
738.723	15599
739.063	15539.34
739.404	15563.52
739.744	15637.64
740.084	15547.92
740.424	15569.39
740.764	15524.2
741.104	15675.83
741.444	15573.69
741.784	15565.33
742.124	15601.03
742.464	15580.24
742.804	15584.31
743.143	15581.37
743.483	15657.53
743.823	15589.73
744.162	15608.71
744.502	15515.61
744.841	15633.8
745.181	15654.59
745.52	15660.01
745.86	15685.55
746.199	15664.98
746.538	15780.69
746.877	15750.41
747.216	15795.38
747.556	15795.6
747.895	15843.51
748.234	15909.04
748.573	15965.99
748.911	15880.8
749.25	15880.57
749.589	15973.45
749.928	15995.14
750.267	16065.43
750.605	16019.55
750.944	16193.33
751.283	16086.22
751.621	16240.56
751.96	16231.75
752.298	16331.41
752.636	16326.89
752.975	16376.15
753.313	16288.47
753.651	16537.73
753.989	16445.98
754.327	16529.82
754.666	16608.46
755.004	16601
755.342	16723.49
755.679	16745.41
756.017	16793.99
756.355	16935.68
756.693	17072.86
757.031	17098.39
757.368	17125.28
757.706	17160.09
758.044	17148.33
758.381	17280.53
758.719	17421.77
759.056	17460.64
759.394	17586.29
759.731	17498.38
760.068	17518.95
760.405	17633.52
760.743	17579.06
761.08	17775.44
761.417	17741.99
761.754	17802.33
762.091	17910.12
762.428	17949.22
762.765	17852.72
763.102	17972.27
763.438	18023.34
763.775	17978.82
764.112	18129.33
764.449	18144.69
764.785	18173.17
765.122	18157.12
765.458	18217.46
765.795	18160.51
766.131	18239.83
766.467	18271.47
766.804	18303.78
767.14	18320.96
767.476	18318.47
767.812	18277.57
768.148	18387.85
768.485	18270.34
768.821	18227.63
769.157	18252.49
769.492	18342.88
769.828	18275.76
770.164	18205.26
770.5	18227.85
770.836	18340.62
771.171	18272.82
771.507	18260.85
771.842	18055.2
772.178	18211.81
772.513	18172.26
772.849	18137.23
773.184	18105.15
773.519	18139.95
773.855	18134.3
774.19	18100.63
774.525	18131.13
774.86	18001.19
775.195	18027.86
775.53	17920.74
775.865	17837.81
776.2	17752.39
776.535	17788.54
776.87	17848.2
777.205	17735.21
777.539	17690.02
777.874	17817.02
778.209	17591.49
778.543	17574.76
778.878	17497.25
779.212	17551.71
779.547	17507.2
779.881	17484.6
780.215	17409.34
780.55	17418.61
780.884	17310.82
781.218	17362.34
781.552	17309.69
781.886	17270.14
782.22	17175.68
782.554	17039.41
782.888	16961.9
783.222	16897.27
783.556	16860.21
783.889	16870.15
784.223	16720.78
784.557	16817.5
784.89	16743.83
785.224	16640.33
785.557	16649.82
785.891	16627.67
786.224	16585.41
786.558	16538.18
786.891	16354.91
787.224	16416.15
787.557	16272.43
787.891	16314.91
788.224	16278.07
788.557	16223.61
788.89	16209.15
789.223	16146.33
789.556	15958.76
789.888	16050.51
790.221	15987.69
790.554	15898.65
790.887	15924.19
791.219	15810.52
791.552	15813.91
791.884	15707.69
792.217	15692.33
792.549	15638.77
792.882	15542.5
793.214	15448.04
793.546	15569.39
793.879	15392.45
794.211	15278.78
794.543	15392.67
794.875	15312.45
795.207	15334.82
795.539	15195.17
795.871	15175.5
796.203	15055.73
796.535	15034.72
796.867	15056.64
797.198	14981.16
797.53	14963.99
797.862	14849.64
798.193	14867.04
798.525	14736.19
798.856	14754.05
799.188	14640.83
799.519	14645.58
799.85	14552.02
800.182	14505.01
800.513	14556.09
800.844	14413.27
801.175	14499.82
801.506	14427.28
801.837	14448.74
802.168	14383.66
802.499	14340.72
802.83	14261.63
803.161	14224.12
803.491	14220.73
803.822	14161.29
804.153	14149.09
804.483	14073.16
804.814	13943.67
805.145	14007.17
805.475	14023.22
805.805	13893.73
806.136	13775.99
806.466	13964.46
806.796	13788.65
807.126	13718.82
807.457	13672.04
807.787	13675.43
808.117	13642.44
808.447	13525.6
808.777	13588.65
809.107	13541.88
809.436	13465.72
809.766	13486.74
810.096	13429.11
810.426	13442.22
810.755	13352.05
811.085	13281.32
811.414	13303.01
811.744	13234.99
812.073	13249
812.403	13119.06
812.732	13147.31
813.061	13082.68
813.39	13031.61
813.719	13017.82
814.049	13102.57
814.378	12994.09
814.707	12962.68
815.036	12883.36
815.365	12807.21
815.693	12843.81
816.022	12731.73
816.351	12745.96
816.68	12623.03
817.008	12724.27
817.337	12580.54
817.665	12524.28
817.994	12595.23
818.322	12567.21
818.651	12549.59
818.979	12473.66
819.307	12519.53
819.636	12548.23
819.964	12350.27
820.292	12434.79
820.62	12492.41
820.948	12354.11
821.276	12418.06
821.604	12392.3
821.932	12362.02
822.259	12444.73
822.587	12345.52
822.915	12386.88
823.243	12390.72
823.57	12309.37
823.898	12372.19
824.225	12327.9
824.553	12308.24
824.88	12363.6
825.207	12298.07
825.535	12308.01
825.862	12384.17
826.189	12347.1
826.516	12466.2
826.843	12442.02
827.17	12342.59
827.497	12378.52
827.824	12319.76
828.151	12395.69
828.478	12369.25
828.805	12417.84
829.131	12294
829.458	12269.37
829.785	12218.52
830.111	12299.65
830.438	12373.54
830.764	12226.43
831.09	12304.39
831.417	12286.54
831.743	12279.99
832.069	12272.98
832.395	12216.03
832.722	12265.52
833.048	12242.47
833.374	12246.99
833.7	12227.79
834.026	12170.84
834.351	12219.2
834.677	12206.09
835.003	12264.17
835.329	12092.87
835.654	12167.9
835.98	12078.64
836.306	12111.18
836.631	12084.06
836.956	12122.48
837.282	12086.09
837.607	12026.44
837.932	12005.64
838.258	11981.69
838.583	12063.95
838.908	11859.21
839.233	11958.19
839.558	11939.43
839.883	11850.39
840.208	11873.22
840.533	11858.3
840.858	11809.04
841.182	11812.66
841.507	11851.52
841.832	11731.53
842.156	11733.56
842.481	11794.58
842.805	11673
843.13	11635.49
843.454	11670.74
843.778	11569.05
844.103	11568.37
844.427	11567.69
844.751	11604.3
845.075	11529.27
845.399	11508.26
845.723	11463.51
846.047	11406.56
846.371	11426
846.695	11349.39
847.019	11283.4
847.343	11145.78
847.666	11129.74
847.99	11029.85
848.313	11163.86
848.637	11073.92
848.96	11039.34
849.284	10978.1
849.607	10859.69
849.931	10911.44
850.254	10790.99
850.577	10784.66
850.9	10688.39
851.223	10699.46
851.546	10557.32
851.869	10529.75
852.192	10639.8
852.515	10488.85
852.838	10488.4
853.161	10446.36
853.483	10468.28
853.806	10304.45
854.129	10322.98
854.451	10402.3
854.774	10264
855.096	10280.72
855.419	10172.25
855.741	10149.42
856.063	10128.86
856.385	10070.1
856.708	10065.13
857.03	9974.29
857.352	10014.06
857.674	9958.02
857.996	9917.56
858.318	9943.33
858.64	9912.37
858.961	9891.12
859.283	9882.99
859.605	9765.7
859.926	9845.7
860.248	9822.88
860.57	9688.42
860.891	9763.22
861.212	9669.21
861.534	9675.08
861.855	9621.07
862.176	9707.85
862.498	9564.81
862.819	9652.26
863.14	9511.02
863.461	9541.3
863.782	9501.3
864.103	9500.17
864.424	9444.13
864.745	9478.48
865.065	9446.16
865.386	9474.19
865.707	9462.21
866.027	9455.2
866.348	9421.31
866.668	9419.95
866.989	9391.93
867.309	9329.33
867.63	9335.66
867.95	9339.95
868.27	9318.48
868.59	9317.81
868.91	9212.05
869.23	9258.6
869.55	9204.59
869.87	9267.41
870.19	9222.44
870.51	9224.02
870.83	9230.8
871.15	9062.67
871.469	9100.64
871.789	9151.48
872.109	9082.33
872.428	9153.74
872.748	9170.69
873.067	9120.97
873.386	9044.14
873.706	9065.61
874.025	8991.26
874.344	9024.93
874.663	9062.45
874.982	9013.41
875.301	8970.02
875.62	8966.18
875.939	8912.17
876.258	8958.49
876.577	8905.16
876.896	8912.84
877.214	8837.14
877.533	8894.09
877.852	8887.76
878.17	8839.17
878.489	8934.31
878.807	8758.27
879.125	8812.96
879.444	8821.55
879.762	8779.97
880.08	8720.31
880.398	8702.23
880.716	8709.46
881.034	8691.61
881.352	8671.95
881.67	8669.91
881.988	8628.78
882.306	8604.15
882.624	8635.11
882.941	8575
883.259	8565.28
883.577	8518.5
883.894	8513.76
884.212	8505.62
884.529	8490.26
884.846	8496.13
885.164	8407.1
885.481	8438.05
885.798	8444.61
886.115	8385.63
886.432	8365.51
886.75	8331.39
887.067	8343.59
887.383	8257.72
887.7	8280.32
888.017	8221.34
888.334	8275.35
888.651	8280.54
888.967	8249.13
889.284	8150.6
889.6	8193.54
889.917	8081
890.233	8151.06
890.55	8073.77
890.866	8109.7
891.182	8123.94
891.498	7976.37
891.815	7994.68
892.131	7965.3
892.447	7986.77
892.763	7898.41
893.079	7873.32
893.395	7778.86
893.71	7844.85
894.026	7863.15
894.342	7766.66
894.657	7794
894.973	7781.12
895.289	7732.99
895.604	7668.13
895.92	7666.32
896.235	7615.93
896.55	7607.12
896.865	7577.06
897.181	7638.53
897.496	7571.64
897.811	7539.32
898.126	7534.58
898.441	7423.17
898.756	7451.19
899.071	7399.89
899.386	7368.7
899.7	7384.07
900.015	7315.6
900.33	7241.25
900.644	7250.06
900.959	7258.65
901.273	7245.32
901.588	7178.2
901.902	7161.48
902.216	7168.26
902.531	7089.16
902.845	7164.42
903.159	7058.2
903.473	7013.91
903.787	7031.31
904.101	6993.57
904.415	6988.83
904.729	6952.67
905.042	6986.79
905.356	6910.64
905.67	6887.81
905.984	6903.63
906.297	6868.15
906.611	6782.28
906.924	6821.15
907.237	6735.05
907.551	6780.92
907.864	6704.32
908.177	6712.9
908.491	6709.29
908.804	6632.9
909.117	6631.32
909.43	6556.07
909.743	6584.77
910.056	6580.25
910.368	6517.43
910.681	6456.41
910.994	6425.45
911.307	6408.05
911.619	6353.14
911.932	6394.72
912.244	6352.69
912.557	6376.87
912.869	6302.52
913.181	6212.58
913.494	6242.18
913.806	6176.65
914.118	6189.3
914.43	6150.21
914.742	6168.96
915.054	6061.62
915.366	6073.6
915.678	6064.78
915.99	6005.8
916.302	5962.19
916.613	5962.41
916.925	5933.71
917.236	5912.25
917.548	5913.83
917.859	5873.83
918.171	5819.37
918.482	5834.06
918.794	5798.12
919.105	5817.78
919.416	5747.73
919.727	5738.46
920.038	5720.84
920.349	5635.87
920.66	5660.5
920.971	5672.7
921.282	5662.76
921.593	5597.9
921.903	5608.98
922.214	5539.37
922.525	5539.37
922.835	5525.36
923.146	5511.8
923.456	5474.74
923.767	5431.81
924.077	5462.54
924.387	5468.87
924.697	5406.04
925.008	5353.16
925.318	5320.62
925.628	5317.01
925.938	5302.09
926.248	5261.19
926.558	5206.95
926.867	5183.23
927.177	5245.6
927.487	5185.94
927.796	5115.43
928.106	5131.25
928.416	5078.37
928.725	5117.01
929.034	5075.43
929.344	5075.21
929.653	5092.61
929.962	5016.22
930.271	4995.43
930.581	4982.78
930.89	4973.29
931.199	4912.27
931.508	4955.66
931.817	4900.52
932.125	4852.16
932.434	4841.31
932.743	4864.36
933.051	4801.77
933.36	4741.2
933.669	4762.67
933.977	4762.45
934.286	4711.37
934.594	4701.66
934.902	4674.09
935.21	4684.48
935.519	4672.05
935.827	4622.79
936.135	4613.07
936.443	4575.11
936.751	4564.71
937.059	4550.47
937.367	4529.01
937.674	4497.82
937.982	4503.24
938.29	4457.59
938.597	4411.95
938.905	4406.52
939.213	4438.16
939.52	4416.47
939.827	4382.79
940.135	4336.69
940.442	4335.56
940.749	4332.85
941.056	4369.91
941.363	4262.35
941.67	4291.95
941.977	4285.62
942.284	4211.95
942.591	4180.31
942.898	4227.09
943.205	4184.83
943.511	4149.58
943.818	4184.83
944.125	4101.9
944.431	4136.25
944.738	4130.15
945.044	4074.33
945.35	4111.39
945.657	4052.18
945.963	4043.59
946.269	4010.15
946.575	4038.85
946.881	3972.41
947.187	3971.73
947.493	3933.99
947.799	3892.86
948.105	3923.82
948.41	3872.53
948.716	3868.01
949.022	3863.94
949.327	3866.88
949.633	3832.3
949.938	3806.31
950.244	3808.57
950.549	3756.82
950.854	3744.17
951.16	3732.87
951.465	3681.12
951.77	3717.73
952.075	3683.83
952.38	3678.63
952.685	3682.47
952.99	3641.34
953.294	3649.25
953.599	3638.41
953.904	3592.08
954.209	3600.67
954.513	3546.88
954.818	3535.59
955.122	3535.59
955.426	3512.99
955.731	3508.24
956.035	3467.11
956.339	3467.34
956.643	3478.41
956.948	3444.74
957.252	3469.15
957.556	3433.21
957.86	3429.15
958.163	3406.1
958.467	3392.54
958.771	3367.23
959.075	3352.31
959.378	3314.57
959.682	3345.31
959.985	3306.44
960.289	3291.3
960.592	3299.66
960.896	3276.83
961.199	3257.85
961.502	3266.67
961.805	3191.64
962.108	3188.93
962.411	3179.21
962.714	3161.13
963.017	3158.19
963.32	3166.78
963.623	3149.38
963.926	3162.26
964.228	3122.04
964.531	3082.94
964.833	3092.88
965.136	3020.34
965.438	3045.2
965.741	3053.34
966.043	3006.56
966.345	3006.56
966.648	3030.97
966.95	2974.02
967.252	2968.37
967.554	2975.37
967.856	2936.28
968.158	2914.13
968.46	2928.82
968.761	2910.74
969.063	2945.54
969.365	2874.13
969.666	2906.45
969.968	2867.81
970.269	2856.73
970.571	2837.75
970.872	2851.76
971.174	2805.66
971.475	2840.24
971.776	2842.72
972.077	2785.55
972.378	2778.32
972.679	2756.62
972.98	2737.64
973.281	2750.29
973.582	2726.57
973.883	2683.86
974.183	2701.26
974.484	2735.38
974.785	2673.69
975.085	2675.04
975.386	2685.66
975.686	2666.68
975.986	2629.85
976.287	2595.72
976.587	2595.95
976.887	2597.08
977.187	2579.68
977.487	2608.83
977.787	2548.49
978.087	2536.06
978.387	2542.16
978.687	2510.3
978.987	2487.48
979.286	2500.36
979.586	2511.43
979.885	2476.63
980.185	2498.55
980.484	2433.24
980.784	2471.43
981.083	2465.1
981.382	2447.48
981.682	2406.12
981.981	2439.12
982.28	2401.83
982.579	2373.58
982.878	2385.78
983.177	2358.44
983.475	2372.9
983.774	2382.39
984.073	2353.47
984.372	2292.91
984.67	2333.58
984.969	2346.69
985.267	2335.84
985.566	2311.89
985.864	2279.8
986.162	2297.43
986.461	2259.69
986.759	2266.01
987.057	2261.49
987.355	2227.82
987.653	2234.38
987.951	2183.53
988.249	2197.09
988.547	2198.45
988.844	2190.99
989.142	2186.47
989.44	2132.23
989.737	2129.07
990.035	2151.44
990.332	2155.51
990.63	2115.06
990.927	2117.32
991.224	2088.39
991.521	2148.5
991.819	2088.39
992.116	2092.91
992.413	2067.15
992.71	2073.48
993.006	2040.71
993.303	2059.24
993.6	2027.6
993.897	2069.18
994.193	2042.29
994.49	2025.34
994.787	1990.31
995.083	1981.05
995.379	1987.38
995.676	1966.59
995.972	1948.96
996.268	1963.65
996.565	1937.66
996.861	1948.96
997.157	1933.37
997.453	1931.79
997.749	1929.07
998.044	1871
998.34	1916.64
998.636	1877.32
998.932	1889.98
999.227	1858.34
999.523	1860.83
999.818	1826.93
1000.114	1831
1000.409	1808.17
1000.704	1788.06
1001	1806.36
1001.295	1764.56
1001.59	1804.78
1001.885	1773.82
1002.18	1786.25
1002.475	1737.21
1002.77	1740.15
1003.065	1728.17
1003.359	1726.82
1003.654	1725.92
1003.949	1703.32
1004.243	1715.07
1004.538	1697.44
1004.832	1679.14
1005.127	1684.11
1005.421	1629.65
1005.715	1655.41
1006.009	1650.21
1006.304	1645.24
1006.598	1618.57
1006.892	1634.84
1007.186	1621.06
1007.48	1566.6
1007.773	1571.57
1008.067	1574.96
1008.361	1583.55
1008.655	1586.26
1008.948	1589.2
1009.242	1578.8
1009.535	1546.71
1009.829	1537.9
1010.122	1513.27
1010.415	1523.89
1010.708	1504
1011.001	1505.81
1011.295	1464.9
1011.588	1510.1
1011.881	1513.94
1012.173	1462.19
1012.466	1452.48
1012.759	1446.83
1013.052	1440.5
1013.344	1412.7
1013.637	1443.66
1013.93	1394.17
1014.222	1426.71
1014.514	1409.99
1014.807	1389.88
1015.099	1386.71
1015.391	1434.17
1015.683	1357.79
1015.976	1355.08
1016.268	1374.06
1016.56	1353.04
1016.851	1348.3
1017.143	1318.24
1017.435	1299.94
1017.727	1317.56
1018.018	1320.28
1018.31	1297.9
1018.602	1297.9
1018.893	1273.72
1019.185	1321.63
1019.476	1259.49
1019.767	1289.32
1020.058	1244.12
1020.35	1224.91
1020.641	1254.52
1020.932	1263.78
1021.223	1210.9
1021.514	1224.46
1021.804	1208.64
1022.095	1186.72
1022.386	1175.42
1022.677	1197.12
1022.967	1158.47
1023.258	1197.57
1023.548	1146.72
1023.839	1155.31
1024.129	1144.69
1024.419	1142.65
1024.709	1134.52
1025	1155.31
1025.29	1133.84
1025.58	1118.25
1025.87	1109.89
1026.16	1107.85
1026.449	1106.95
1026.739	1078.02
1027.029	1093.62
1027.319	1064.01
1027.608	1067.4
1027.898	1049.55
1028.187	1050.68
1028.477	1033.28
1028.766	1029.21
1029.055	1009.32
1029.344	1019.27
1029.634	1003.67
1029.923	1010.68
1030.212	1028.53
1030.501	1009.1
1030.79	1042.09
1031.078	1001.41
1031.367	964.58
1031.656	988.53
1031.945	984.24
1032.233	945.14
1032.522	963.68
1032.81	949.89
1033.099	961.42
1033.387	958.7
1033.675	934.07
1033.963	927.52
1034.251	935.65
1034.54	933.39
1034.828	910.34
1035.116	905.6
1035.403	887.29
1035.691	915.09
1035.979	896.33
1036.267	882.55
1036.554	874.64
1036.842	876.67
1037.129	880.97
1037.417	850.46
1037.704	870.12
1037.992	867.86
1038.279	866.28
1038.566	840.97
1038.853	840.97
1039.14	840.97
