Data from hue_120_FLMS001491_00053.txt Node
Date: Tue Feb 07 16:59:40 GMT 2017
User: dcchb
Spectrometer: FLMS00149
Trigger mode: 0
Integration Time (sec): 2.000000E-2
Scans to average: 10
Electric dark correction enabled: true
Nonlinearity correction enabled: false
Boxcar width: 0
XAxis mode: Wavelengths
Number of Pixels in Spectrum: 2048
>>>>>Begin Spectral Data<<<<<
341.393	-18.43
341.776	-18.43
342.16	-18.43
342.543	-75.38
342.927	-61.14
343.31	-57.3
343.693	-75.38
344.077	-65.89
344.46	-59.56
344.843	-62.5
345.226	-44.65
345.61	-26.79
345.993	-27.7
346.376	-13.91
346.759	13.21
347.142	11.62
347.525	42.58
347.908	67.89
348.291	89.81
348.674	90.27
349.057	118.29
349.44	112.86
349.823	156.25
350.206	138.17
350.588	201
350.971	192.86
351.354	238.06
351.737	219.75
352.119	276.93
352.502	247.32
352.884	269.7
353.267	270.83
353.65	296.81
354.032	304.27
354.414	320.77
354.797	315.34
355.179	305.63
355.562	323.93
355.944	323.03
356.326	342.01
356.709	345.17
357.091	333.65
357.473	336.81
357.855	334.78
358.238	342.01
358.62	340.65
359.002	339.3
359.384	325.29
359.766	320.77
360.148	355.8
360.53	337.94
360.912	342.24
361.294	337.27
361.676	352.63
362.057	332.29
362.439	319.19
362.821	348.11
363.203	319.86
363.584	336.14
363.966	310.37
364.348	321.67
364.729	323.25
365.111	318.06
365.493	329.58
365.874	315.57
366.256	310.83
366.637	302.92
367.019	322.8
367.4	296.81
367.781	319.41
368.163	325.74
368.544	320.99
368.925	315.34
369.306	314.67
369.688	315.8
370.069	312.86
370.45	323.48
370.831	292.29
371.212	308.11
371.593	316.02
371.974	311.96
372.355	297.49
372.736	330.71
373.117	341.78
373.498	308.57
373.879	297.49
374.26	327.55
374.641	305.85
375.021	334.78
375.402	326.19
375.783	328
376.163	343.59
376.544	316.02
376.925	321.9
377.305	323.93
377.686	304.27
378.066	320.09
378.447	322.35
378.827	315.12
379.208	333.42
379.588	335.91
379.968	330.49
380.349	331.84
380.729	318.73
381.109	341.33
381.489	323.93
381.87	343.59
382.25	336.81
382.63	343.59
383.01	356.02
383.39	338.17
383.77	302.24
384.15	354.21
384.53	344.95
384.91	329.58
385.29	338.62
385.67	355.34
386.049	357.38
386.429	331.62
386.809	355.8
387.189	343.82
387.568	363.93
387.948	362.8
388.328	357.83
388.707	357.6
389.087	362.8
389.466	332.97
389.846	372.97
390.225	389.02
390.605	381.33
390.984	387.43
391.363	369.81
391.743	392.18
392.122	364.38
392.501	382.24
392.881	375.91
393.26	378.39
393.639	374.33
394.018	377.26
394.397	378.39
394.776	368.9
395.155	394.89
395.534	365.96
395.913	379.3
396.292	377.94
396.671	403.48
397.05	391.28
397.429	385.85
397.808	398.05
398.186	381.78
398.565	393.99
398.944	400.77
399.323	408.9
399.701	378.39
400.08	397.15
400.458	388.11
400.837	401.9
401.215	393.08
401.594	411.61
401.972	421.78
402.351	400.77
402.729	391.73
403.107	420.65
403.486	422.01
403.864	422.69
404.242	426.08
404.62	422.23
404.999	396.25
405.377	415.91
405.755	434.44
406.133	432.86
406.511	424.72
406.889	420.2
407.267	431.95
407.645	428.79
408.023	438.96
408.401	461.78
408.779	450.93
409.156	431.95
409.534	459.52
409.912	443.25
410.29	469.92
410.667	469.92
411.045	459.97
411.422	459.75
411.8	472.63
412.178	484.15
412.555	479.86
412.933	472.4
413.31	470.14
413.687	486.41
414.065	472.63
414.442	472.18
414.819	489.58
415.197	475.11
415.574	465.4
415.951	491.16
416.328	482.35
416.705	489.8
417.082	511.95
417.46	498.16
417.837	501.55
418.214	506.53
418.591	506.98
418.967	516.47
419.344	526.86
419.721	518.05
420.098	532.74
420.475	530.71
420.852	524.38
421.228	535.23
421.605	552.63
421.982	533.87
422.358	552.4
422.735	539.75
423.111	539.97
423.488	551.04
423.864	553.98
424.241	554.21
424.617	567.09
424.994	566.19
425.37	576.58
425.746	579.29
426.123	584.26
426.499	577.48
426.875	589.91
427.251	590.14
427.627	586.07
428.003	598.5
428.379	589.69
428.756	599.86
429.132	601.44
429.507	601.21
429.883	627.43
430.259	620.87
430.635	606.41
431.011	631.04
431.387	625.62
431.763	655.67
432.138	634.21
432.514	677.6
432.89	645.96
433.265	669.23
433.641	658.16
434.016	666.52
434.392	682.79
434.767	689.57
435.143	702.91
435.518	706.29
435.894	699.06
436.269	717.14
436.644	722.11
437.02	700.65
437.395	730.02
437.77	733.19
438.145	741.1
438.52	749.23
438.895	761.66
439.271	756.92
439.646	781.1
440.021	771.38
440.395	779.06
440.77	792.62
441.145	769.8
441.52	816.35
441.895	808.89
442.27	798.27
442.645	796.69
443.019	831.72
443.394	796.01
443.769	805.28
444.143	799.4
444.518	812.73
444.892	831.94
445.267	824.48
445.641	822.22
446.016	810.47
446.39	836.69
446.764	847.99
447.139	855.9
447.513	864.03
447.887	872.39
448.262	855.67
448.636	873.52
449.01	915.33
449.384	905.84
449.758	901.77
450.132	897.93
450.506	907.42
450.88	897.25
451.254	935.22
451.628	921.43
452.002	934.54
452.376	924.37
452.75	941.32
453.123	934.99
453.497	975.89
453.871	961.2
454.244	960.07
454.618	975.21
454.992	977.93
455.365	1001.65
455.739	1000.3
456.112	1030.35
456.486	1022.44
456.859	1040.3
457.232	1065.16
457.606	1060.18
457.979	1069
458.352	1104.7
458.725	1090.69
459.099	1125.27
459.472	1139.96
459.845	1160.97
460.218	1154.42
460.591	1158.71
460.964	1170.01
461.337	1176.34
461.71	1221.99
462.083	1239.61
462.456	1214.98
462.829	1255.66
463.201	1268.99
463.574	1261.31
463.947	1298.6
464.32	1332.27
464.692	1325.04
465.065	1322.1
465.438	1352.15
465.81	1377.69
466.183	1386.28
466.555	1428.31
466.928	1413.85
467.3	1433.28
467.672	1462.43
468.045	1493.84
468.417	1508.76
468.789	1548.53
469.161	1544.69
469.534	1572.49
469.906	1630.56
470.278	1644.12
470.65	1675.99
471.022	1685.03
471.394	1717.34
471.766	1741.97
472.138	1762.09
472.51	1841.63
472.882	1864.23
473.253	1899.48
473.625	1916.21
473.997	1990.1
474.369	2008.41
474.74	2014.51
475.112	2061.74
475.484	2090.21
475.855	2178.12
476.227	2176.09
476.598	2287.72
476.97	2353.03
477.341	2372.01
477.713	2445.46
478.084	2483.2
478.455	2584.21
478.827	2580.14
479.198	2713.7
479.569	2754.15
479.94	2847.71
480.311	2933.36
480.682	2998.21
481.053	3115.95
481.424	3212.44
481.795	3288.83
482.166	3341.93
482.537	3426.22
482.908	3534.02
483.279	3566.11
483.65	3690.17
484.021	3867.34
484.391	3903.95
484.762	3973.55
485.133	4035.92
485.503	4197.05
485.874	4327.89
486.244	4381.23
486.615	4576.7
486.985	4649.24
487.356	4804.72
487.726	4876.58
488.097	5017.14
488.467	5098.04
488.837	5258.49
489.207	5372.61
489.578	5482.89
489.948	5663.9
490.318	5754.75
490.688	5864.13
491.058	6003.1
491.428	6158.81
491.798	6281.74
492.168	6463.66
492.538	6570.32
492.908	6661.84
493.278	6777.1
493.648	6873.59
494.017	7036.07
494.387	7188.84
494.757	7311.32
495.126	7390.41
495.496	7493.01
495.866	7648.71
496.235	7817.52
496.605	7910.63
496.974	8003.28
497.344	8082.15
497.713	8263.84
498.082	8371.18
498.452	8451.85
498.821	8559.87
499.19	8655.24
499.559	8749.93
499.928	8904.05
500.298	9004.38
500.667	9142.46
501.036	9131.38
501.405	9265.39
501.774	9318.05
502.143	9414.77
502.512	9469.45
502.88	9667.19
503.249	9650.24
503.618	9734.76
503.987	9848.88
504.356	9986.5
504.724	10030.34
505.093	10088.42
505.462	10218.14
505.83	10280.96
506.199	10357.11
506.567	10461.52
506.936	10480.95
507.304	10593.27
507.672	10609.09
508.041	10727.05
508.409	10782.64
508.777	10838.23
509.145	10995.29
509.514	11006.36
509.882	11042.97
510.25	11093.37
510.618	11132.01
510.986	11169.07
511.354	11297.65
511.722	11422.4
512.09	11420.59
512.458	11400.25
512.826	11591.43
513.193	11584.65
513.561	11539.23
513.929	11662.17
514.297	11735.38
514.664	11744.87
515.032	11753.46
515.4	11950.07
515.767	11940.58
516.135	11970.41
516.502	11847.24
516.869	12033
517.237	12057.18
517.604	11989.61
517.972	12080.46
518.339	12064.64
518.706	12190.29
519.073	12212.89
519.44	12221.92
519.808	12381.69
520.175	12332.43
520.542	12458.3
520.909	12438.87
521.276	12437.06
521.643	12419.66
522.009	12486.1
522.376	12499.66
522.743	12604.29
523.11	12611.97
523.477	12727.67
523.843	12778.29
524.21	12829.82
524.577	12822.36
524.943	12838.63
525.31	12943.26
525.676	12871.4
526.043	12958.63
526.409	12969.7
526.776	13078.85
527.142	12962.24
527.508	13088.79
527.874	13080.88
528.241	13002.24
528.607	13099.64
528.973	13172.18
529.339	13077.27
529.705	13139.19
530.071	13248.56
530.437	13215.12
530.803	13179.41
531.169	13240.88
531.535	13130.15
531.901	13148.91
532.267	13200.88
532.632	13131.05
532.998	13166.31
533.364	13150.26
533.73	13110.71
534.095	13126.99
534.461	13158.17
534.826	13160.2
535.192	13102.35
535.557	13217.83
535.923	13059.64
536.288	13070.94
536.653	13075.24
537.019	12988.91
537.384	13036.82
537.749	12985.52
538.114	12944.62
538.479	12966.31
538.845	12878.18
539.21	12756.6
539.575	12948.23
539.94	12893.77
540.305	12884.28
540.67	12766.54
541.034	12733.78
541.399	12825.3
541.764	12726.77
542.129	12702.82
542.494	12733.78
542.858	12675.02
543.223	12651.97
543.587	12679.31
543.952	12572.88
544.316	12548.02
544.681	12501.01
545.045	12506.89
545.41	12498.3
545.774	12441.81
546.138	12398.64
546.503	12475.48
546.867	12391.64
547.231	12418.98
547.595	12311.41
547.959	12306.22
548.324	12236.16
548.688	12216.95
549.052	12202.04
549.416	12146.67
549.779	12093.57
550.143	12123.62
550.507	12089.72
550.871	12129.5
551.235	11978.09
551.599	12099.22
551.962	12007.24
552.326	12035.26
552.689	12030.97
553.053	11945.32
553.417	11821.48
553.78	11983.29
554.143	11885.89
554.507	11948.26
554.87	11945.77
555.234	11921.82
555.597	11813.8
555.96	11861.26
556.323	11839.79
556.686	11836.85
557.05	11846.12
557.413	11889.28
557.776	11733.35
558.139	11894.93
558.502	11851.76
558.865	11843.4
559.228	11864.87
559.59	11807.02
559.953	11837.08
560.316	11769.73
560.679	11824.65
561.041	11825.55
561.404	11804.76
561.767	11856.51
562.129	11791.43
562.492	11852.89
562.854	11828.71
563.217	11763.41
563.579	11827.58
563.941	11862.16
564.304	11893.12
564.666	11943.97
565.028	11885.44
565.39	11931.08
565.753	11881.59
566.115	11999.11
566.477	11973.8
566.839	11898.09
567.201	12067.13
567.563	11879.79
567.925	11934.47
568.287	11926.56
568.648	11961.59
569.01	12088.82
569.372	12112.77
569.734	11953.68
570.095	12167.01
570.457	12091.08
570.819	12147.12
571.18	12083.17
571.542	12206.56
571.903	12190.29
572.265	12170.85
572.626	12185.54
572.987	12107.8
573.349	12115.71
573.71	12255.37
574.071	12241.13
574.432	12192.77
574.794	12262.83
575.155	12232.09
575.516	12248.59
575.877	12188.25
576.238	12250.4
576.599	12297.4
576.96	12277.29
577.32	12294.24
577.681	12200.46
578.042	12272.54
578.403	12230.06
578.763	12301.47
579.124	12274.58
579.485	12239.78
579.845	12347.34
580.206	12334.46
580.566	12310.28
580.927	12280.91
581.287	12280.23
581.648	12253.79
582.008	12282.04
582.368	12265.99
582.728	12348.7
583.089	12235.94
583.449	12300.34
583.809	12296.95
584.169	12281.81
584.529	12255.82
584.889	12265.31
585.249	12274.35
585.609	12203.17
585.969	12218.99
586.329	12265.31
586.688	12245.2
587.048	12182.38
587.408	12210.85
587.768	12145.32
588.127	12199.55
588.487	12098.99
588.846	12208.37
589.206	12100.8
589.565	12103.96
589.925	12096.05
590.284	12159.33
590.643	12129.27
591.003	12117.07
591.362	12143.73
591.721	12128.59
592.08	12073.91
592.44	12074.81
592.799	12122.94
593.158	12139.44
593.517	12129.95
593.876	12067.13
594.235	12084.07
594.593	12123.4
594.952	12111.64
595.311	12016.51
595.67	12039.33
596.029	12099.89
596.387	12120.01
596.746	12125.43
597.104	12021.48
597.463	12027.13
597.822	12076.62
598.18	12018.77
598.538	11984.19
598.897	12004.75
599.255	11986.68
599.613	12090.18
599.972	12087.46
600.33	11916.17
600.688	12055.38
601.046	12029.84
601.404	12067.8
601.762	12011.99
602.12	12104.64
602.478	12081.14
602.836	12089.27
603.194	11977.19
603.552	11954.81
603.91	11965.21
604.268	11969.73
604.625	11909.39
604.983	11997.07
605.341	11974.93
605.698	11995.49
606.056	12080.91
606.413	12020.8
606.771	12121.14
607.128	12107.58
607.485	12004.75
607.843	11994.13
608.2	12028.03
608.557	12172.21
608.914	12015.6
609.272	12095.6
609.629	12150.51
609.986	12152.1
610.343	12041.82
610.7	12221.02
611.057	12181.25
611.414	12128.59
611.771	12163.39
612.127	12178.31
612.484	12245.2
612.841	12171.53
613.198	12180.12
613.554	12158.88
613.911	12269.15
614.267	12273.22
614.624	12225.54
614.98	12207.91
615.337	12224.41
615.693	12343.05
616.05	12257.63
616.406	12332.88
616.762	12324.75
617.118	12324.29
617.475	12253.11
617.831	12362.49
618.187	12325.88
618.543	12331.3
618.899	12304.86
619.255	12351.64
619.611	12267.35
619.967	12395.71
620.323	12413.56
620.678	12407.23
621.034	12371.98
621.39	12414.91
621.746	12349.83
622.101	12470.05
622.457	12397.06
622.812	12368.14
623.168	12496.27
623.523	12404.07
623.879	12415.82
624.234	12332.66
624.589	12393.45
624.945	12365.42
625.3	12434.57
625.655	12410.17
626.01	12425.99
626.365	12462.37
626.72	12399.32
627.075	12345.31
627.43	12420.56
627.785	12394.12
628.14	12417.17
628.495	12417.85
628.85	12390.73
629.205	12302.37
629.559	12397.29
629.914	12274.35
630.269	12325.2
630.623	12286.78
630.978	12300.57
631.332	12241.58
631.687	12355.03
632.041	12309.61
632.396	12293.11
632.75	12241.58
633.104	12199.1
633.459	12207.46
633.813	12141.02
634.167	12289.04
634.521	12173.11
634.875	12202.72
635.229	12126.79
635.583	12084.75
635.937	12114.36
636.291	12058.31
636.645	12085.66
636.999	12118.42
637.352	12097.41
637.706	12070.29
638.06	12068.48
638.413	11993.46
638.767	11963.85
639.121	12049.73
639.474	11995.94
639.828	11946.68
640.181	11997.75
640.534	11985.09
640.888	11950.97
641.241	11879.56
641.594	11929.73
641.947	11904.19
642.301	11881.59
642.654	11914.81
643.007	11896.51
643.36	11875.49
643.713	11814.03
644.066	11876.4
644.419	11823.74
644.771	11711.66
645.124	11553.69
645.477	11567.03
645.83	11520.7
646.182	11471.66
646.535	11422.62
646.888	11533.35
647.24	11467.82
647.593	11475.28
647.945	11509.17
648.298	11488.38
648.65	11457.88
649.002	11370.65
649.355	11415.39
649.707	11431.66
650.059	11579
650.411	11597.76
650.763	11562.05
651.115	11718.21
651.467	11670.53
651.819	11701.94
652.171	11666.68
652.523	11724.99
652.875	11684.09
653.227	11616.29
653.578	11670.3
653.93	11707.81
654.282	11693.35
654.633	11677.76
654.985	11677.08
655.337	11677.53
655.688	11677.08
656.039	11757.08
656.391	11700.13
656.742	11594.82
657.094	11754.82
657.445	11702.16
657.796	11727.02
658.147	11679.34
658.498	11708.27
658.849	11779.45
659.2	11650.64
659.551	11640.02
659.902	11690.86
660.253	11682.96
660.604	11669.4
660.955	11711.88
661.306	11759.11
661.656	11734.93
662.007	11803.63
662.358	11776.96
662.708	11855.38
663.059	11718.89
663.409	11683.86
663.76	11741.03
664.11	11727.47
664.461	11822.39
664.811	11830.07
665.161	11767.93
665.511	11735.38
665.862	11742.39
666.212	11792.78
666.562	11794.82
666.912	11757.53
667.262	11696.74
667.612	11773.12
667.962	11758.89
668.312	11736.97
668.662	11801.82
669.011	11714.14
669.361	11722.5
669.711	11655.16
670.06	11714.59
670.41	11644.99
670.76	11707.36
671.109	11808.83
671.459	11668.27
671.808	11626.69
672.157	11752.56
672.507	11563.86
672.856	11677.98
673.205	11596.63
673.554	11659.68
673.904	11583.75
674.253	11673.92
674.602	11577.65
674.951	11433.47
675.3	11402.06
675.649	11573.35
675.998	11526.8
676.346	11589.85
676.695	11618.1
677.044	11522.28
677.393	11463.75
677.741	11581.04
678.09	11534.71
678.438	11522.51
678.787	11545.11
679.135	11445.22
679.484	11338.56
679.832	11415.39
680.181	11379.91
680.529	11399.12
680.877	11376.3
681.225	11329.74
681.573	11359.8
681.922	11321.16
682.27	11245.45
682.618	11287.03
682.966	11248.62
683.314	11234.61
683.661	11273.02
684.009	11224.66
684.357	11118.68
684.705	11169.3
685.053	11153.03
685.4	11087.94
685.748	11070.99
686.095	11040.94
686.443	11000.04
686.79	10977.66
687.138	11022.41
687.485	10996.19
687.832	10892.02
688.18	10950.55
688.527	10891.11
688.874	10875.97
689.221	10817.67
689.568	10850.66
689.915	10761.4
690.262	10833.03
690.609	10746.48
690.956	10674.85
691.303	10642.3
691.65	10653.15
691.997	10565.7
692.344	10529.09
692.69	10518.69
693.037	10498.13
693.383	10449.99
693.73	10410.45
694.077	10348.75
694.423	10335.65
694.769	10363.44
695.116	10269.66
695.462	10243.45
695.808	10237.34
696.155	10211.81
696.501	10108.76
696.847	10148.76
697.193	10026.5
697.539	10187.85
697.885	9972.04
698.231	10001.19
698.577	9986.73
698.923	9969.78
699.269	9919.84
699.614	9852.04
699.96	9786.51
700.306	9846.17
700.651	9735.89
700.997	9760.07
701.342	9727.3
701.688	9705.61
702.033	9624.03
702.379	9677.81
702.724	9552.16
703.069	9549.9
703.415	9444.6
703.76	9460.42
704.105	9481.21
704.45	9460.87
704.795	9389
705.14	9308.1
705.485	9280.53
705.83	9248.44
706.175	9297.71
706.52	9241.66
706.865	9194.66
707.209	9232.62
707.554	9150.14
707.899	9188.33
708.243	9163.93
708.588	9071.95
708.932	9075.34
709.277	9045.06
709.621	9060.43
709.966	8959.86
710.31	9029.92
710.654	8918.96
710.998	8916.7
711.342	8921.67
711.687	8924.38
712.031	8890.03
712.375	8818.17
712.719	8849.81
713.063	8832.63
713.407	8866.08
713.75	8796.48
714.094	8719.64
714.438	8735.91
714.782	8700.21
715.125	8676.48
715.469	8724.62
715.812	8694.79
716.156	8570.04
716.499	8667.67
716.843	8639.65
717.186	8601
717.53	8645.75
717.873	8587.44
718.216	8585.41
718.559	8485.75
718.902	8478.97
719.246	8529.82
719.589	8471.06
719.932	8504.96
720.275	8472.42
720.617	8426.77
720.96	8447.11
721.303	8486.88
721.646	8443.94
721.989	8419.09
722.331	8428.58
722.674	8395.36
723.016	8445.75
723.359	8363.04
723.701	8444.17
724.044	8332.76
724.386	8285.76
724.729	8344.29
725.071	8342.48
725.413	8331.63
725.755	8372.76
726.097	8341.35
726.439	8260.9
726.782	8259.54
727.124	8258.41
727.465	8271.07
727.807	8264.51
728.149	8282.14
728.491	8229.26
728.833	8299.77
729.175	8314.68
729.516	8221.58
729.858	8218.41
730.199	8199.66
730.541	8199.88
730.882	8236.49
731.224	8295.7
731.565	8192.65
731.906	8229.71
732.248	8138.87
732.589	8242.59
732.93	8224.97
733.271	8173.22
733.612	8249.37
733.953	8213.67
734.294	8171.64
734.635	8187
734.976	8244.4
735.317	8140.22
735.658	8234.46
735.999	8208.24
736.339	8171.86
736.68	8217.51
737.021	8212.09
737.361	8189.94
737.702	8219.54
738.042	8229.71
738.383	8204.85
738.723	8291.86
739.063	8224.29
739.404	8262.71
739.744	8226.55
740.084	8224.06
740.424	8342.03
740.764	8251.41
741.104	8326.43
741.444	8285.76
741.784	8323.04
742.124	8347.22
742.464	8362.59
742.804	8322.59
743.143	8352.2
743.483	8374.79
743.823	8419.99
744.162	8394.45
744.502	8492.98
744.841	8531.17
745.181	8516.94
745.52	8563.72
745.86	8613.43
746.199	8615.69
746.538	8602.58
746.877	8676.71
747.216	8669.25
747.556	8752.41
747.895	8807.1
748.234	8774.78
748.573	8879.41
748.911	8959.86
749.25	9005.96
749.589	9075.79
749.928	9147.2
750.267	9230.36
750.605	9264.26
750.944	9255.67
751.283	9331.38
751.621	9427.2
751.96	9499.06
752.298	9657.02
752.636	9735.66
752.975	9760.29
753.313	9788.99
753.651	10005.26
753.989	10028.08
754.327	10141.53
754.666	10228.98
755.004	10417
755.342	10457.68
755.679	10599.59
756.017	10668.97
756.355	10872.36
756.693	10974.73
757.031	11095.4
757.368	11252.23
757.706	11345.79
758.044	11486.12
758.381	11682.28
758.719	11805.89
759.056	11974.93
759.394	12084.75
759.731	12057.63
760.068	12368.59
760.405	12442.94
760.743	12641.35
761.08	12818.29
761.417	12966.54
761.754	13087.89
762.091	13284.95
762.428	13331.27
762.765	13511.61
763.102	13696.24
763.438	13874.99
763.775	14002.44
764.112	14165.83
764.449	14288.54
764.785	14448.98
765.122	14507.51
765.458	14716.55
765.795	14868.41
766.131	14985.69
766.467	15161.73
766.804	15186.59
767.14	15302.97
767.476	15555.17
767.812	15597.43
768.148	15726.24
768.485	15854.82
768.821	15921.04
769.157	16041.94
769.492	16164.19
769.828	16236.73
770.164	16309.27
770.5	16417.52
770.836	16554.01
771.171	16513.79
771.507	16707.68
771.842	16720.79
772.178	16876.27
772.513	16909.71
772.849	16985.64
773.184	17044.4
773.519	17089.14
773.855	17118.07
774.19	17278.97
774.525	17305.63
774.86	17446.42
775.195	17505.85
775.53	17540.43
775.865	17557.38
776.2	17457.94
776.535	17471.73
776.87	17545.85
777.205	17630.82
777.539	17589.69
777.874	17688.22
778.209	17639.64
778.543	17688.22
778.878	17639.18
779.212	17697.49
779.547	17683.93
779.881	17843.92
780.215	17801.89
780.55	17876.46
780.884	17827.65
781.218	17822.23
781.552	17856.58
781.886	17790.59
782.22	17844.6
782.554	17759.41
782.888	17667.88
783.222	17717.15
783.556	17712.85
783.889	17758.05
784.223	17637.6
784.557	17727.54
784.89	17694.32
785.224	17616.13
785.557	17560.77
785.891	17576.36
786.224	17549.47
786.558	17691.61
786.891	17500.66
787.224	17495.91
787.557	17485.97
787.891	17541.11
788.224	17453.43
788.557	17493.2
788.89	17493.65
789.223	17544.72
789.556	17345.63
789.888	17398.74
790.221	17290.49
790.554	17133.43
790.887	17209.82
791.219	17088.01
791.552	17108.12
791.884	16999.43
792.217	17097.28
792.549	17012.53
792.882	16898.86
793.214	16853.22
793.546	16915.81
793.879	16914.46
794.211	16755.36
794.543	16842.59
794.875	16815.25
795.207	16908.13
795.539	16737.51
795.871	16867.23
796.203	16692.77
796.535	16540
796.867	16562.83
797.198	16561.25
797.53	16556.05
797.862	16476.95
798.193	16521.92
798.525	16375.94
798.856	16375.94
799.188	16210.29
799.519	16154.7
799.85	16085.1
800.182	16231.54
800.513	16266.11
800.844	16041.03
801.175	16081.48
801.506	16182.27
801.837	16065.44
802.168	16010.98
802.499	16058.21
802.83	15949.06
803.161	15929.4
803.491	15900.7
803.822	15845.33
804.153	15763.75
804.483	15623.87
804.814	15610.54
805.145	15542.06
805.475	15646.02
805.805	15535.51
806.136	15636.75
806.466	15629.97
806.796	15469.97
807.126	15406.25
807.457	15402.41
807.787	15418.9
808.117	15326.25
808.447	15309.75
808.777	15331.22
809.107	15178.68
809.436	15207.16
809.766	15205.12
810.096	15203.77
810.426	15140.94
810.755	15129.64
811.085	15041.51
811.414	15032.92
811.744	14909.54
812.073	14953.83
812.403	14896.43
812.732	14853.27
813.061	14874.06
813.39	14820.95
813.719	14753.61
814.049	14813.49
814.378	14752.93
814.707	14649.66
815.036	14708.64
815.365	14641.3
815.693	14510.23
816.022	14551.35
816.351	14520.85
816.68	14418.48
817.008	14479.94
817.337	14309.78
817.665	14325.15
817.994	14368.76
818.322	14342.09
818.651	14317.69
818.979	14276.11
819.307	14296.45
819.636	14243.57
819.964	14154.3
820.292	14241.08
820.62	14203.79
820.948	14086.06
821.276	14191.14
821.604	14177.81
821.932	14174.87
822.259	14169.44
822.587	14145.04
822.915	14188.2
823.243	14207.41
823.57	14196.79
823.898	14119.28
824.225	14054.19
824.553	14041.99
824.88	14096
825.207	14154.53
825.535	14154.3
825.862	14204.47
826.189	14163.57
826.516	14178.94
826.843	14268.88
827.17	14187.3
827.497	14186.84
827.824	14160.4
828.151	14248.99
828.478	14209.89
828.805	14252.83
829.131	14133.06
829.458	14143.68
829.785	14055.77
830.111	14145.72
830.438	14230.01
830.764	14231.14
831.09	14123.57
831.417	14061.42
831.743	14171.03
832.069	14202.66
832.395	14100.75
832.722	14093.74
833.048	14137.81
833.374	14129.67
833.7	14082.89
834.026	14097.81
834.351	14174.64
834.677	14047.19
835.003	14022.1
835.329	13937.36
835.654	14064.59
835.98	14033.18
836.306	14032.27
836.631	13978.04
836.956	13993.18
837.282	14035.66
837.607	13946.17
837.932	13836.35
838.258	13828.21
838.583	13966.96
838.908	13843.58
839.233	13820.98
839.558	13841.77
839.883	13697.14
840.208	13695.56
840.533	13691.72
840.858	13633.86
841.182	13691.94
841.507	13702.79
841.832	13564.26
842.156	13573.98
842.481	13584.6
842.805	13561.78
843.13	13437.49
843.454	13463.47
843.778	13414.44
844.103	13355.68
844.427	13252.18
844.751	13376.47
845.075	13337.38
845.399	13284.5
845.723	13246.08
846.047	13236.59
846.371	13093.31
846.695	13129.02
847.019	13094.67
847.343	12960.21
847.666	12926.09
847.99	12832.98
848.313	12908.46
848.637	12748.69
848.96	12777.84
849.284	12739.42
849.607	12631.18
849.931	12638.41
850.254	12496.72
850.577	12447.91
850.9	12363.39
851.223	12418.08
851.546	12327.46
851.869	12301.47
852.192	12212.66
852.515	12144.41
852.838	12142.6
853.161	12145.09
853.483	12094.92
853.806	11949.39
854.129	11998.65
854.451	11836.62
854.774	11830.07
855.096	11779
855.419	11805.44
855.741	11713.24
856.063	11746
856.385	11725.67
856.708	11594.14
857.03	11688.38
857.352	11653.8
857.674	11566.8
857.996	11550.98
858.318	11449.52
858.64	11478.22
858.961	11473.02
859.283	11419.91
859.605	11331.55
859.926	11419.46
860.248	11339.91
860.57	11300.14
860.891	11292.91
861.212	11151.22
861.534	11204.32
861.855	11229.86
862.176	11140.37
862.498	11141.73
862.819	11191.67
863.14	11107.38
863.461	11044.78
863.782	11026.7
864.103	11074.61
864.424	11029.64
864.745	11009.98
865.065	10958.68
865.386	10940.15
865.707	10854.28
866.027	10992.8
866.348	10812.02
866.668	10858.12
866.989	10784.45
867.309	10856.54
867.63	10778.12
867.95	10809.98
868.27	10729.31
868.59	10734.51
868.91	10669.2
869.23	10718.69
869.55	10699.93
869.87	10713.04
870.19	10640.95
870.51	10682.3
870.83	10723.21
871.15	10578.8
871.469	10608.63
871.789	10622.42
872.109	10584.23
872.428	10494.51
872.748	10573.83
873.067	10547.17
873.386	10548.07
873.706	10583.78
874.025	10494.96
874.344	10425.59
874.663	10447.96
874.982	10418.81
875.301	10435.53
875.62	10402.09
875.939	10392.14
876.258	10335.65
876.577	10247.06
876.896	10272.6
877.214	10287.06
877.533	10227.4
877.852	10215.88
878.17	10271.02
878.489	10254.97
878.807	10291.13
879.125	10272.6
879.444	10156.22
879.762	10115.54
880.08	10156.44
880.398	10120.96
880.716	10140.62
881.034	10104.69
881.352	10050.68
881.67	10014.75
881.988	10021.08
882.306	9997.35
882.624	9952.38
882.941	9942.66
883.259	9887.52
883.577	9916.45
883.894	9945.6
884.212	9848.43
884.529	9814.98
884.846	9833.96
885.164	9764.36
885.481	9785.38
885.798	9836.22
886.115	9681.2
886.432	9706.51
886.75	9687.08
887.067	9694.08
887.383	9577.02
887.7	9651.37
888.017	9609.79
888.334	9605.27
888.651	9554.65
888.967	9505.61
889.284	9418.83
889.6	9421.09
889.917	9454.77
890.233	9427.87
890.55	9384.26
890.866	9328.22
891.182	9292.96
891.498	9318.27
891.815	9298.16
892.131	9254.77
892.447	9173.19
892.763	9142.23
893.079	9126.86
893.395	9081.44
893.71	9128.22
894.026	9096.36
894.342	9081.89
894.657	8979.98
894.973	9033.99
895.289	8957.15
895.604	8985.4
895.92	8922.35
896.235	8816.59
896.55	8813.43
896.865	8814.33
897.181	8712.86
897.496	8827.44
897.811	8760.77
898.126	8714.9
898.441	8630.61
898.756	8620.44
899.071	8619.99
899.386	8651.85
899.7	8512.19
900.015	8534.34
900.33	8433.55
900.644	8464.74
900.959	8484.4
901.273	8416.37
901.588	8385.64
901.902	8332.76
902.216	8310.61
902.531	8246.89
902.845	8200.34
903.159	8189.49
903.473	8161.69
903.787	8147.91
904.101	8062.71
904.415	8048.02
904.729	8065.42
905.042	7956.5
905.356	7958.31
905.67	7951.08
905.984	7983.39
906.297	7970.28
906.611	7881.02
906.924	7861.14
907.237	7824.75
907.551	7827.46
907.864	7733.68
908.177	7736.17
908.491	7680.12
908.804	7613.01
909.117	7608.26
909.43	7535.49
909.743	7570.3
910.056	7524.19
910.368	7430.86
910.681	7394.48
910.994	7433.58
911.307	7358.1
911.619	7322.84
911.932	7370.98
912.244	7321.04
912.557	7321.71
912.869	7211.21
913.181	7183.19
913.494	7145
913.806	7142.96
914.118	7116.52
914.43	7093.7
914.742	7096.64
915.054	7092.57
915.366	7029.74
915.678	7050.08
915.99	6960.14
916.302	6911.78
916.613	6881.73
916.925	6909.07
917.236	6887.6
917.548	6802.86
917.859	6790.43
918.171	6761.28
918.482	6709.08
918.794	6742.52
919.105	6739.58
919.416	6618.68
919.727	6621.39
920.038	6659.58
920.349	6618.46
920.66	6550.66
920.971	6587.04
921.282	6559.02
921.593	6485.8
921.903	6518.12
922.214	6424.34
922.525	6444.45
922.835	6328.75
923.146	6323.77
923.456	6297.33
923.767	6305.7
924.077	6270.22
924.387	6255.3
924.697	6207.85
925.008	6207.85
925.318	6180.28
925.628	6132.14
925.938	6111.8
926.248	6057.11
926.558	6052.14
926.867	6064.8
927.177	6028.87
927.487	5948.42
927.796	5942.99
928.106	5911.36
928.416	5877.01
928.725	5851.7
929.034	5834.75
929.344	5845.37
929.653	5857.8
929.962	5733.73
930.271	5745.94
930.581	5793.17
930.89	5765.82
931.199	5661.64
931.508	5718.37
931.817	5684.7
932.125	5631.82
932.434	5638.82
932.743	5568.77
933.051	5514.08
933.36	5538.26
933.669	5542.78
933.977	5463.46
934.286	5458.49
934.594	5436.79
934.902	5389.56
935.21	5361.99
935.519	5372.39
935.827	5341.43
936.135	5303.69
936.443	5279.51
936.751	5274.08
937.059	5259.85
937.367	5241.77
937.674	5268.89
937.982	5186.86
938.29	5153.41
938.597	5199.96
938.905	5116.57
939.213	5038.38
939.52	5056.69
939.827	5063.02
940.135	5061.21
940.442	5018.27
940.749	4995.9
941.056	5028.67
941.363	4948.22
941.67	4933.75
941.977	4931.49
942.284	4924.26
942.591	4849.24
942.898	4817.83
943.205	4821.67
943.511	4802.91
943.818	4803.36
944.125	4730.82
944.431	4743.93
944.738	4716.81
945.044	4702.8
945.35	4691.95
945.657	4653.08
945.963	4662.12
946.269	4634.33
946.575	4608.79
946.881	4567.21
947.187	4574.67
947.493	4528.79
947.799	4519.98
948.105	4520.43
948.41	4464.61
948.716	4482.92
949.022	4503.71
949.327	4421.9
949.633	4398.18
949.938	4413.77
950.244	4413.09
950.549	4341
950.854	4308.46
951.16	4378.74
951.465	4276.14
951.77	4276.82
952.075	4237.95
952.38	4244.73
952.685	4231.17
952.99	4247.67
953.294	4179.2
953.599	4204.06
953.904	4171.51
954.209	4140.78
954.513	4098.97
954.818	4088.8
955.122	4089.71
955.426	4068.01
955.731	3989.82
956.035	4026.21
956.339	4008.13
956.643	3981.69
956.948	4018.52
957.252	3968.36
957.556	3956.38
957.86	3891.3
958.163	3944.85
958.467	3886.32
958.771	3920.45
959.075	3866.66
959.378	3839.77
959.682	3863.05
959.985	3809.04
960.289	3819.43
960.592	3777.17
960.896	3780.11
961.199	3779.43
961.502	3705.09
961.805	3733.56
962.108	3682.26
962.411	3705.99
962.714	3688.59
963.017	3637.52
963.32	3650.4
963.623	3626.9
963.926	3642.26
964.228	3596.16
964.531	3582.38
964.833	3604.75
965.136	3539.67
965.438	3542.6
965.741	3508.03
966.043	3495.37
966.345	3468.71
966.648	3462.61
966.95	3477.3
967.252	3400.91
967.554	3429.84
967.856	3453.12
968.158	3400.24
968.46	3352.1
968.761	3373.34
969.063	3364.76
969.365	3327.92
969.666	3320.01
969.968	3292.89
970.269	3277.3
970.571	3304.87
970.872	3302.38
971.174	3282.72
971.475	3253.12
971.776	3214.7
972.077	3199.79
972.378	3171.77
972.679	3188.94
972.98	3157.98
973.281	3159.79
973.582	3145.1
973.883	3126.12
974.183	3077.08
974.484	3140.36
974.785	3103.29
975.085	3094.48
975.386	3061.26
975.686	3066.23
975.986	3041.37
976.287	3056.06
976.587	2966.57
976.887	2964.31
977.187	2988.04
977.487	3009.96
977.787	2952.56
978.087	2932.9
978.387	2957.08
978.687	2943.75
978.987	2920.02
979.286	2871.66
979.586	2894.49
979.885	2887.25
980.185	2865.33
980.484	2816.3
980.784	2827.82
981.083	2777.88
981.382	2778.78
981.682	2787.82
981.981	2764.09
982.28	2772.23
982.579	2749.86
982.878	2758.44
983.177	2728.16
983.475	2739.91
983.774	2705.11
984.073	2718.45
984.372	2686.81
984.67	2668.28
984.969	2679.58
985.267	2656.3
985.566	2644.55
985.864	2669.63
986.162	2573.36
986.461	2608.39
986.759	2570.65
987.057	2542.63
987.355	2561.84
987.653	2548.28
987.951	2561.61
988.249	2548.73
988.547	2525.68
988.844	2496.76
989.142	2510.54
989.44	2461.5
989.737	2463.76
990.035	2466.7
990.332	2472.12
990.63	2429.87
990.927	2421.73
991.224	2414.95
991.521	2382.64
991.819	2384.22
992.116	2381.96
992.413	2382.64
992.71	2384.67
993.006	2389.41
993.303	2349.19
993.6	2325.69
993.897	2328.85
994.193	2334.5
994.49	2273.71
994.787	2299.47
995.083	2279.59
995.379	2270.32
995.676	2260.38
995.972	2275.07
996.268	2240.27
996.565	2229.87
996.861	2240.49
997.157	2215.86
997.453	2210.66
997.749	2195.3
998.044	2151.45
998.34	2153.04
998.636	2161.62
998.932	2125.92
999.227	2155.75
999.523	2105.35
999.818	2105.58
1000.114	2100.83
1000.409	2081.17
1000.704	2059.71
1001	2058.58
1001.295	2037.79
1001.59	2037.11
1001.885	2031.68
1002.18	2015.87
1002.475	2009.31
1002.77	2009.54
1003.065	1979.71
1003.359	1970.22
1003.654	1982.19
1003.949	1956.21
1004.243	1954.17
1004.538	1908.3
1004.832	1894.29
1005.127	1922.31
1005.421	1924.57
1005.715	1894.96
1006.009	1878.47
1006.304	1875.08
1006.598	1847.73
1006.892	1845.47
1007.186	1833.27
1007.48	1810.22
1007.773	1835.3
1008.067	1829.88
1008.361	1790.79
1008.655	1778.13
1008.948	1760.5
1009.242	1758.92
1009.535	1766.61
1009.829	1749.66
1010.122	1726.61
1010.415	1708.3
1010.708	1720.28
1011.001	1708.08
1011.295	1678.02
1011.588	1686.38
1011.881	1659.04
1012.173	1655.2
1012.466	1683.44
1012.759	1636.21
1013.052	1641.19
1013.344	1621.98
1013.637	1635.76
1013.93	1604.8
1014.222	1589.21
1014.514	1583.33
1014.807	1606.61
1015.099	1576.1
1015.391	1583.79
1015.683	1568.87
1015.976	1565.71
1016.268	1552.37
1016.56	1527.74
1016.851	1501.3
1017.143	1498.14
1017.435	1485.48
1017.727	1476.9
1018.018	1474.18
1018.31	1477.12
1018.602	1439.61
1018.893	1474.41
1019.185	1441.87
1019.476	1433.06
1019.767	1419.5
1020.058	1395.54
1020.35	1408.88
1020.641	1406.16
1020.932	1400.97
1021.223	1388.31
1021.514	1371.59
1021.804	1370.23
1022.095	1335.66
1022.386	1334.08
1022.677	1351.48
1022.967	1348.54
1023.258	1329.78
1023.548	1309.67
1023.839	1322.1
1024.129	1277.13
1024.419	1303.79
1024.709	1287.3
1025	1276.45
1025.29	1274.19
1025.58	1243.23
1025.87	1243.91
1026.16	1238.94
1026.449	1251.59
1026.739	1219.95
1027.029	1226.28
1027.319	1210.24
1027.608	1175.66
1027.898	1170.69
1028.187	1179.5
1028.477	1167.53
1028.766	1172.72
1029.055	1154.42
1029.344	1165.72
1029.634	1140.86
1029.923	1118.71
1030.212	1124.59
1030.501	1170.24
1030.79	1099.5
1031.078	1116.23
1031.367	1082.56
1031.656	1114.19
1031.945	1090.24
1032.233	1088.21
1032.522	1080.97
1032.81	1087.53
1033.099	1046.63
1033.387	1078.26
1033.675	1049.11
1033.963	1058.38
1034.251	1031.26
1034.54	1023.12
1034.828	1032.61
1035.116	1006.63
1035.403	997.13
1035.691	999.62
1035.979	990.36
1036.267	1023.57
1036.554	969.34
1036.842	963.46
1037.129	983.12
1037.417	974.99
1037.704	933.18
1037.992	959.62
1038.279	958.72
1038.566	929.79
1038.853	929.79
1039.14	929.79
