Data from hue_340_FLMS001491_42.txt Node
Date: Mon Feb 06 15:43:09 GMT 2017
User: dcchb
Spectrometer: FLMS00149
Trigger mode: 0
Integration Time (sec): 2.000000E-2
Scans to average: 10
Electric dark correction enabled: true
Nonlinearity correction enabled: false
Boxcar width: 0
XAxis mode: Wavelengths
Number of Pixels in Spectrum: 2048
>>>>>Begin Spectral Data<<<<<
341.393	-26.57
341.776	-26.57
342.16	-26.57
342.543	-85.55
342.927	-69.96
343.31	-51.43
343.693	-78.54
344.077	-66.57
344.46	-68.37
344.843	-46.68
345.226	-37.19
345.61	-47.13
345.993	-24.76
346.376	-0.13
346.759	8.69
347.142	24.73
347.525	46.88
347.908	66.09
348.291	78.51
348.674	82.36
349.057	113.54
349.44	124.62
349.823	145.41
350.206	150.6
350.588	182.69
350.971	184.95
351.354	204.16
351.737	243.03
352.119	245.06
352.502	268.57
352.884	271.73
353.267	273.09
353.65	273.31
354.032	280.54
354.414	296.14
354.797	309.92
355.179	305.63
355.562	302.46
355.944	297.27
356.326	319.86
356.709	324.84
357.091	324.16
357.473	332.97
357.855	321.67
358.238	347.66
358.62	318.51
359.002	319.64
359.384	324.61
359.766	320.54
360.148	314.67
360.53	322.12
360.912	314.67
361.294	325.06
361.676	328
362.057	333.65
362.439	322.35
362.821	323.48
363.203	299.98
363.584	297.49
363.966	304.05
364.348	309.02
364.729	339.98
365.111	314.67
365.493	302.01
365.874	299.07
366.256	301.33
366.637	288.68
367.019	307.21
367.4	320.09
367.781	299.07
368.163	300.2
368.544	299.98
368.925	306.53
369.306	313.54
369.688	297.72
370.069	276.02
370.45	312.18
370.831	313.54
371.212	275.12
371.593	289.36
371.974	309.02
372.355	295.91
372.736	276.48
373.117	304.5
373.498	297.04
373.879	295.23
374.26	296.14
374.641	310.6
375.021	332.75
375.402	316.7
375.783	343.59
376.163	308.11
376.544	294.78
376.925	315.57
377.305	311.5
377.686	286.65
378.066	303.14
378.447	315.12
378.827	323.03
379.208	327.1
379.588	329.36
379.968	322.8
380.349	319.86
380.729	318.96
381.109	327.77
381.489	306.31
381.87	312.86
382.25	337.72
382.63	323.25
383.01	337.04
383.39	321.22
383.77	312.41
384.15	320.32
384.53	322.35
384.91	322.8
385.29	326.19
385.67	289.81
386.049	329.36
386.429	330.03
386.809	343.37
387.189	323.71
387.568	338.85
387.948	327.32
388.328	363.03
388.707	336.59
389.087	334.33
389.466	341.11
389.846	322.12
390.225	358.06
390.605	340.2
390.984	339.98
391.363	362.12
391.743	338.17
392.122	333.42
392.501	320.32
392.881	356.7
393.26	354.21
393.639	375.91
394.018	372.29
394.397	348.11
394.776	359.86
395.155	355.34
395.534	346.3
395.913	345.85
396.292	354.89
396.671	366.42
397.05	377.72
397.429	358.51
397.808	357.6
398.186	382.24
398.565	369.35
398.944	365.96
399.323	359.86
399.701	374.55
400.08	381.11
400.458	361.22
400.837	380.2
401.215	365.96
401.594	355.57
401.972	389.02
402.351	365.29
402.729	369.81
403.107	377.94
403.486	392.4
403.864	389.92
404.242	378.17
404.62	376.36
404.999	384.27
405.377	405.51
405.755	413.42
406.133	394.21
406.511	385.4
406.889	423.36
407.267	422.23
407.645	410.94
408.023	390.15
408.401	402.8
408.779	408
409.156	404.16
409.534	434.44
409.912	429.92
410.29	438.05
410.667	426.3
411.045	442.12
411.422	422.69
411.8	440.09
412.178	443.48
412.555	432.18
412.933	448.9
413.31	471.5
413.687	464.27
414.065	473.98
414.442	483.48
414.819	459.75
415.197	488.9
415.574	469.47
415.951	475.11
416.328	491.39
416.705	487.54
417.082	495.45
417.46	496.13
417.837	496.58
418.214	504.94
418.591	514.66
418.967	515.57
419.344	511.5
419.721	508.79
420.098	544.27
420.475	537.26
420.852	542.68
421.228	516.24
421.605	551.72
421.982	549.46
422.358	548.33
422.735	541.55
423.111	559.86
423.488	556.24
423.864	573.42
424.241	572.06
424.617	581.78
424.994	571.16
425.37	603.25
425.746	584.04
426.123	610.48
426.499	576.58
426.875	587.88
427.251	597.82
427.627	622.46
428.003	607.77
428.379	622.91
428.756	618.61
429.132	622.23
429.507	626.75
429.883	638.5
430.259	672.4
430.635	643.47
431.011	661.32
431.387	679.63
431.763	701.1
432.138	674.43
432.514	694.09
432.89	717.82
433.265	712.62
433.641	709.91
434.016	710.81
434.392	743.36
434.767	734.32
435.143	745.39
435.518	740.19
435.894	751.72
436.269	753.75
436.644	763.47
437.02	743.13
437.395	751.94
437.77	803.69
438.145	807.54
438.52	771.83
438.895	797.14
439.271	776.58
439.646	804.82
440.021	821.77
440.395	808.89
440.77	809.34
441.145	832.85
441.52	817.7
441.895	803.92
442.27	831.26
442.645	853.18
443.019	866.74
443.394	862.45
443.769	860.42
444.143	836.69
444.518	862.45
444.892	841.66
445.267	882.56
445.641	896.57
446.016	851.38
446.39	886.86
446.764	887.99
447.139	922.56
447.513	879.62
447.887	899.74
448.262	898.61
448.636	899.96
449.01	913.3
449.384	896.35
449.758	923.01
450.132	916.01
450.506	927.53
450.88	919.85
451.254	930.92
451.628	940.87
452.002	943.58
452.376	960.07
452.75	960.75
453.123	948.32
453.497	943.35
453.871	961.43
454.244	964.59
454.618	993.97
454.992	1017.25
455.365	963.24
455.739	997.81
456.112	1009.11
456.486	1003.69
456.859	1042.11
457.232	1051.6
457.606	1033.07
457.979	1049.34
458.352	1047.08
458.725	1076
459.099	1066.51
459.472	1079.62
459.845	1115.1
460.218	1089.79
460.591	1119.62
460.964	1118.49
461.337	1145.83
461.71	1153.29
462.083	1159.39
462.456	1188.54
462.829	1157.81
463.201	1203.68
463.574	1172.27
463.947	1198.26
464.32	1214.3
464.692	1234.42
465.065	1244.13
465.438	1239.16
465.81	1255.89
466.183	1284.81
466.555	1274.42
466.928	1283.45
467.3	1300.18
467.672	1302.44
468.045	1316.67
468.417	1318.93
468.789	1357.8
469.161	1337.46
469.534	1367.07
469.906	1393.06
470.278	1422.89
470.65	1424.24
471.022	1420.4
471.394	1451.59
471.766	1462.89
472.138	1464.47
472.51	1507.4
472.882	1508.31
473.253	1531.36
473.625	1538.82
473.997	1578.81
474.369	1608.87
474.74	1611.13
475.112	1656.78
475.484	1649.1
475.855	1687.06
476.227	1707.17
476.598	1729.77
476.97	1739.71
477.341	1773.39
477.713	1793.05
478.084	1815.42
478.455	1867.39
478.827	1875.3
479.198	1894.74
479.569	1916.43
479.94	1963.89
480.311	1980.16
480.682	2018.58
481.053	2045.69
481.424	2036.43
481.795	2094.96
482.166	2129.53
482.537	2125.69
482.908	2181.51
483.279	2197.56
483.65	2260.15
484.021	2267.38
484.391	2297.89
484.762	2311.45
485.133	2304.22
485.503	2396.42
485.874	2402.07
486.244	2441.16
486.615	2462.63
486.985	2509.64
487.356	2562.29
487.726	2562.74
488.097	2593.25
488.467	2596.41
488.837	2626.24
489.207	2713.02
489.578	2713.25
489.948	2730.2
490.318	2767.94
490.688	2790.99
491.058	2829.4
491.428	2861.04
491.798	2877.76
492.168	2933.13
492.538	2960.25
492.908	2975.84
493.278	3038.21
493.648	3049.74
494.017	3084.31
494.387	3080.47
494.757	3104.2
495.126	3097.64
495.496	3141.03
495.866	3162.5
496.235	3173.57
496.605	3269.17
496.974	3233.91
497.344	3237.3
497.713	3262.39
498.082	3352.55
498.452	3339.22
498.821	3352.55
499.19	3363.17
499.559	3420.35
499.928	3425.32
500.298	3424.64
500.667	3427.35
501.036	3432.55
501.405	3499.67
501.774	3465.09
502.143	3501.25
502.512	3538.08
502.88	3529.5
503.249	3551.19
503.618	3555.03
503.987	3574.47
504.356	3586.67
504.724	3615.37
505.093	3609.72
505.462	3630.96
505.83	3653.56
506.199	3690.85
506.567	3717.97
506.936	3720.68
507.304	3745.09
507.672	3755.03
508.041	3762.94
508.409	3794.12
508.777	3806.1
509.145	3796.38
509.514	3795.48
509.882	3844.07
510.25	3839.32
510.618	3857.85
510.986	3856.27
511.354	3873.9
511.722	3898.3
512.09	3891.97
512.458	3895.59
512.826	3957.96
513.193	3952.31
513.561	3952.76
513.929	4028.92
514.297	4016.72
514.664	4026.21
515.032	4035.7
515.4	3998.41
515.767	4046.77
516.135	4044.74
516.502	4053.78
516.869	4052.65
517.237	4110.5
517.604	4069.82
517.972	4137.17
518.339	4137.62
518.706	4144.85
519.073	4113.66
519.44	4186.66
519.808	4170.84
520.175	4187.33
520.542	4235.69
520.909	4275.47
521.276	4246.31
521.643	4242.7
522.009	4307.56
522.376	4263.04
522.743	4240.89
523.11	4382.13
523.477	4355.24
523.843	4368.35
524.21	4377.16
524.577	4420.77
524.943	4428.23
525.31	4401.79
525.676	4497.61
526.043	4491.51
526.409	4515.46
526.776	4527.21
527.142	4562.92
527.508	4599.3
527.874	4593.88
528.241	4601.79
528.607	4630.49
528.973	4658.51
529.339	4604.27
529.705	4699.18
530.071	4727.88
530.437	4726.08
530.803	4766.3
531.169	4825.51
531.535	4764.95
531.901	4792.06
532.267	4811.5
532.632	4870.71
532.998	4858.73
533.364	4936.47
533.73	4908.22
534.095	4964.26
534.461	4951.38
534.826	4996.58
535.192	5006.75
535.557	5021.44
535.923	5025.96
536.288	5062.79
536.653	5073.19
537.019	5111.15
537.384	5112.73
537.749	5109.34
538.114	5114.54
538.479	5137.59
538.845	5165.16
539.21	5173.97
539.575	5182.11
539.94	5218.72
540.305	5241.32
540.67	5258.04
541.034	5319.73
541.399	5313.41
541.764	5340.3
542.129	5375.32
542.494	5325.38
542.858	5414.19
543.223	5405.38
543.587	5437.02
543.952	5425.27
544.316	5487.64
544.681	5516.34
545.045	5548.43
545.41	5549.33
545.774	5581.65
546.138	5598.6
546.503	5591.14
546.867	5585.94
547.231	5633.85
547.595	5681.31
547.959	5728.31
548.324	5730.34
548.688	5696.9
549.052	5726.05
549.416	5828.65
549.779	5820.74
550.143	5813.96
550.507	5825.93
550.871	5889.21
551.235	5808.76
551.599	5893.5
551.962	5902.32
552.326	5911.58
552.689	5938.02
553.053	5915.42
553.417	5906.84
553.78	6020.28
554.143	6011.92
554.507	6048.75
554.87	6068.64
555.234	6091.92
555.597	6001.75
555.96	6109.09
556.323	6125.14
556.686	6128.3
557.05	6152.93
557.413	6167.62
557.776	6172.82
558.139	6218.24
558.502	6214.4
558.865	6240.84
559.228	6267.5
559.59	6222.31
559.953	6347.73
560.316	6300.5
560.679	6372.36
561.041	6369.87
561.404	6384.56
561.767	6402.42
562.129	6423.88
562.492	6451.68
562.854	6423.66
563.217	6470.21
563.579	6463.88
563.941	6485.35
564.304	6554.5
564.666	6549.76
565.028	6545.69
565.39	6531.23
565.753	6614.16
566.115	6651.22
566.477	6683.76
566.839	6726.25
567.201	6762.18
567.563	6734.39
567.925	6785.01
568.287	6754.95
568.648	6801.5
569.01	6853.48
569.372	6899.58
569.734	6894.83
570.095	6894.83
570.457	6912.01
570.819	6978.67
571.18	6992.01
571.542	6983.19
571.903	7078.78
572.265	7136.63
572.626	7124.21
572.987	7190.42
573.349	7213.02
573.71	7275.39
574.071	7351.77
574.432	7394.71
574.794	7378.66
575.155	7424.08
575.516	7460.47
575.877	7595.15
576.238	7603.29
576.599	7667.69
576.96	7751.31
577.32	7795.83
577.681	7859.33
578.042	7900
578.403	8042.83
578.763	8116.04
579.124	8188.58
579.485	8271.52
579.845	8423.38
580.206	8413.66
580.566	8573.21
580.927	8711.51
581.287	8850.26
581.648	8808.91
582.008	9035.12
582.368	9157.6
582.728	9254.09
583.089	9478.95
583.449	9539.28
583.809	9698.6
584.169	9877.35
584.529	10056.33
584.889	10300.84
585.249	10459.71
585.609	10512.59
585.969	10830.32
586.329	10872.13
586.688	11124.1
587.048	11388.27
587.408	11532.23
587.768	11686.8
588.127	11885.66
588.487	12089.72
588.846	12427.79
589.206	12592.99
589.565	12821
589.925	13063.48
590.284	13345.51
590.643	13547.09
591.003	13734.2
591.362	14038.6
591.721	14314.3
592.08	14533.05
592.44	14912.48
592.799	15130.55
593.158	15340.26
593.517	15610.99
593.876	15926.01
594.235	16226.56
594.593	16474.02
594.952	16775.7
595.311	16949.26
595.67	17331.85
596.029	17817.48
596.387	17984.26
596.746	18184.48
597.104	18440.97
597.463	18737.46
597.822	19081.18
598.18	19344
598.538	19562.07
598.897	19978.1
599.255	20037.09
599.613	20561.37
599.972	20729.95
600.33	21005.2
600.688	21325.87
601.046	21609.25
601.404	21982.8
601.762	22194.09
602.12	22546.62
602.478	22706.39
602.836	22921.76
603.194	23199.71
603.552	23399.48
603.91	23637.67
604.268	23894.84
604.625	24094.38
604.983	24458.66
605.341	24530.08
605.698	24895.94
606.056	25181.58
606.413	25358.98
606.771	25655.02
607.128	25875.12
607.485	26060.66
607.843	26210.94
608.2	26478.72
608.557	26780.41
608.914	26925.04
609.272	27235.77
609.629	27415.65
609.986	27769.54
610.343	27656.09
610.7	28056.08
611.057	28180.37
611.414	28430.54
611.771	28581.72
612.127	28901.26
612.484	29183.51
612.841	29329.95
613.198	29382.83
613.554	29468.7
613.911	29742.59
614.267	29985.53
614.624	30128.57
614.98	30322.92
615.337	30534.44
615.693	30496.7
616.05	30571.5
616.406	30978.27
616.762	31051.26
617.118	31053.07
617.475	31309.11
617.831	31388.2
618.187	31588.65
618.543	31792.03
618.899	32033.38
619.255	32168.74
619.611	32116.54
619.967	32357.89
620.323	32518.34
620.678	32470.21
621.034	32529.87
621.39	32704.55
621.746	32771.44
622.101	33244.87
622.457	32951.32
622.812	33255.95
623.168	33357.87
623.523	33503.85
623.879	33514.47
624.234	33457.52
624.589	33643.73
624.945	33810.74
625.3	33897.74
625.655	33998.75
626.01	33970.96
626.365	34150.16
626.72	34214.34
627.075	34139.77
627.43	34214.57
627.785	34109.71
628.14	34321
628.495	34300.67
628.85	34372.53
629.205	34379.53
629.559	34626.99
629.914	34600.55
630.269	34494.79
630.623	34556.7
630.978	34568
631.332	34643.26
631.687	34841.89
632.041	34637.38
632.396	34924.38
632.75	34640.09
633.104	34726.64
633.459	34615.69
633.813	34773.42
634.167	34788.79
634.521	34644.84
634.875	34791.05
635.229	34866.07
635.583	34678.51
635.937	34747.89
636.291	34778.85
636.645	34772.07
636.999	34840.31
637.352	34757.83
637.706	34623.37
638.06	35002.79
638.413	34850.26
638.767	34735.68
639.121	34887.32
639.474	34642.13
639.828	34605.74
640.181	34834.21
640.534	34777.04
640.888	34697.04
641.241	34614.1
641.594	34681.9
641.947	34830.82
642.301	34798.73
642.654	34669.7
643.007	34779.98
643.36	34824.49
643.713	34673.99
644.066	34872.63
644.419	34597.83
644.771	34401
645.124	34142.03
645.477	34010.73
645.83	33949.04
646.182	33794.92
646.535	33682.38
646.888	33779.55
647.24	33581.14
647.593	33780.91
647.945	33647.58
648.298	33574.36
648.65	33560.12
649.002	33455.72
649.355	33603.28
649.707	33616.62
650.059	33681.47
650.411	34166.21
650.763	34159.65
651.115	34516.48
651.467	34344.96
651.819	34368.69
652.171	34341.34
652.523	34342.47
652.875	34289.82
653.227	34051.86
653.578	34313.09
653.93	34285.98
654.282	34161.46
654.633	34126.43
654.985	34270.61
655.337	34230.84
655.688	34161.69
656.039	34299.08
656.391	33974.35
656.742	34072.88
657.094	34107.9
657.445	34187
657.796	34099.54
658.147	34057.06
658.498	34080.56
658.849	34100.45
659.2	33930.05
659.551	33944.52
659.902	34106.32
660.253	34030.39
660.604	34117.17
660.955	33993.78
661.306	34055.93
661.656	33876.27
662.007	34096.83
662.358	33942.03
662.708	33973.67
663.059	33911.07
663.409	33788.81
663.76	34011.18
664.11	34114.46
664.461	34066.1
664.811	33988.13
665.161	33960.79
665.511	34001.24
665.862	34020.9
666.212	34010.05
666.562	34080.33
666.912	33978.19
667.262	33919.88
667.612	33941.13
667.962	33922.6
668.312	34009.37
668.662	33972.76
669.011	33919.21
669.361	33971.41
669.711	33923.95
670.06	33909.49
670.41	33810.74
670.76	33706.11
671.109	33909.04
671.459	33800.57
671.808	33754.01
672.157	33849.6
672.507	33655.94
672.856	33797.4
673.205	33671.08
673.554	33847.34
673.904	33781.13
674.253	33788.36
674.602	33727.57
674.951	33263.86
675.3	33105.44
675.649	33678.08
675.998	33513.12
676.346	33589.95
676.695	33763.73
677.044	33448.94
677.393	33595.37
677.741	33643.96
678.09	33399.45
678.438	33401.48
678.787	33559.67
679.135	33461.37
679.484	33272.22
679.832	33424.76
680.181	33216.17
680.529	33311.99
680.877	33144.76
681.225	33241.71
681.573	33589.05
681.922	33079.91
682.27	33033.13
682.618	32977.76
682.966	32901.15
683.314	33000.36
683.661	32967.37
684.009	32796.3
684.357	32738.67
684.705	32723.08
685.053	32600.6
685.4	32662.06
685.748	32511.79
686.095	32527.38
686.443	32453.93
686.79	32389.53
687.138	32423.43
687.485	32510.43
687.832	32310.66
688.18	32125.13
688.527	31957.22
688.874	32228.4
689.221	32102.98
689.568	31942.76
689.915	31999.71
690.262	31958.13
690.609	31930.11
690.956	31725.82
691.303	31746.38
691.65	31599.95
691.997	31620.74
692.344	31384.58
692.69	31312.5
693.037	31385.49
693.383	31057.81
693.73	31224.36
694.077	31033.86
694.423	31115.66
694.769	30992.5
695.116	30917.93
695.462	30900.98
695.808	30832.06
696.155	30744.38
696.501	30615.57
696.847	30651.72
697.193	30418.96
697.539	30436.13
697.885	30223.94
698.231	30229.59
698.577	30194.79
698.923	30158.4
699.269	30005.64
699.614	29769.26
699.96	29804.51
700.306	29778.98
700.651	29748.92
700.997	29585.54
701.342	29700.33
701.688	29583.73
702.033	29352.32
702.379	29320.23
702.724	29183.96
703.069	29341.47
703.415	28900.36
703.76	28983.52
704.105	29019.9
704.45	28956.85
704.795	28901.71
705.14	28723.64
705.485	28678.21
705.83	28604.32
706.175	28621.04
706.52	28559.12
706.865	28455.85
707.209	28322.07
707.554	28318.22
707.899	28412.01
708.243	28271.67
708.588	28186.93
708.932	28049.76
709.277	27964.56
709.621	27958.91
709.966	27808.86
710.31	27865.13
710.654	27622.2
710.998	27812.02
711.342	27717.34
711.687	27629.65
712.031	27489.32
712.375	27441.41
712.719	27523.89
713.063	27386.5
713.407	27528.64
713.75	27327.06
714.094	27330.91
714.438	27215.2
714.782	27204.81
715.125	27021.99
715.469	27049.11
715.812	26974.3
716.156	26877.13
716.499	26916
716.843	26952.16
717.186	26693.18
717.53	26874.19
717.873	26719.17
718.216	26712.39
718.559	26675.33
718.902	26423.13
719.246	26494.32
719.589	26403.25
719.932	26163.93
720.275	26273.53
720.617	26334.77
720.96	26209.81
721.303	26248.45
721.646	26189.01
721.989	26048.68
722.331	25990.83
722.674	25975.01
723.016	26045.97
723.359	25927.78
723.701	26046.87
724.044	25677.16
724.386	25738.86
724.729	25776.37
725.071	25820.89
725.413	25656.83
725.755	25673.55
726.097	25598.3
726.439	25485.76
726.782	25471.97
727.124	25559.88
727.465	25420.45
727.807	25372.99
728.149	25327.79
728.491	25374.8
728.833	25270.39
729.175	25193.56
729.516	25145.2
729.858	25112.88
730.199	25263.16
730.541	25160.79
730.882	25057.07
731.224	25142.26
731.565	24994.92
731.906	24870.63
732.248	24949.05
732.589	24866.56
732.93	24780.01
733.271	24785.89
733.612	24846.45
733.953	24886.22
734.294	24742.73
734.635	24653.69
734.976	24754.7
735.317	24502.73
735.658	24628.6
735.999	24554.71
736.339	24527.14
736.68	24574.59
737.021	24452.56
737.361	24364.66
737.702	24515.84
738.042	24370.98
738.383	24332.57
738.723	24416.18
739.063	24225.22
739.404	24227.71
739.744	24253.47
740.084	24235.62
740.424	24077.21
740.764	24034.5
741.104	24116.07
741.444	24046.25
741.784	23893.26
742.124	23892.8
742.464	23919.7
742.804	23814.84
743.143	23872.47
743.483	23924.89
743.823	23662.08
744.162	23765.8
744.502	23773.26
744.841	23693.49
745.181	23600.16
745.52	23622.08
745.86	23628.63
746.199	23574.62
746.538	23496.43
746.877	23551.8
747.216	23537.79
747.556	23483.55
747.895	23503.44
748.234	23394.29
748.573	23209.88
748.911	23376.21
749.25	23181.86
749.589	23193.84
749.928	23173.5
750.267	23202.65
750.605	23107.97
750.944	23063
751.283	22921.3
751.621	23147.29
751.96	22847.86
752.298	22945.03
752.636	22797.69
752.975	22811.7
753.313	22791.82
753.651	22828.88
753.989	22602.22
754.327	22644.7
754.666	22450.58
755.004	22476.8
755.342	22477.93
755.679	22458.27
756.017	22355.22
756.355	22480.41
756.693	22250.14
757.031	22362.9
757.368	22267.99
757.706	22159.29
758.044	22134.88
758.381	22091.27
758.719	21985.51
759.056	21938.28
759.394	21885.4
759.731	21742.8
760.068	21707.1
760.405	21658.96
760.743	21619.64
761.08	21635.01
761.417	21445.41
761.754	21485.18
762.091	21488.12
762.428	21394.34
762.765	21209.71
763.102	21317.73
763.438	21183.04
763.775	21019.21
764.112	21180.56
764.449	21174.01
764.785	20970.62
765.122	20872.09
765.458	20757.52
765.795	20764.98
766.131	20695.6
766.467	20645.66
766.804	20473.68
767.14	20382.61
767.476	20387.36
767.812	20378.55
768.148	20378.32
768.485	20084.09
768.821	20117.99
769.157	20056.52
769.492	20068.05
769.828	20003.41
770.164	19797.54
770.5	19766.58
770.836	19827.37
771.171	19697.66
771.507	19690.88
771.842	19415.86
772.178	19484.78
772.513	19420.61
772.849	19375.41
773.184	19248.63
773.519	19281.85
773.855	19288.18
774.19	19122.76
774.525	19076.66
774.86	19032.37
775.195	18984.91
775.53	18937.45
775.865	18747.85
776.2	18664.47
776.535	18523.68
776.87	18603.45
777.205	18573.62
777.539	18467.64
777.874	18520.52
778.209	18226.96
778.543	18250.69
778.878	17996.46
779.212	18119.85
779.547	17965.5
779.881	18063.58
780.215	17873.98
780.55	17911.49
780.884	17743.14
781.218	17705.17
781.552	17720.76
781.886	17647.77
782.22	17524.84
782.554	17416.36
782.888	17323.71
783.222	17229.93
783.556	17303.82
783.889	17122.36
784.223	17021.57
784.557	17043.49
784.89	17038.97
785.224	16939.31
785.557	16831.07
785.891	16830.62
786.224	16729.6
786.558	16754.69
786.891	16572.09
787.224	16562.83
787.557	16479.44
787.891	16506.33
788.224	16469.95
788.557	16415.49
788.89	16330.74
789.223	16291.87
789.556	16212.78
789.888	16148.83
790.221	16031.09
790.554	16058.43
790.887	15937.53
791.219	15899.79
791.552	15910.41
791.884	15845.33
792.217	15798.1
792.549	15721.49
792.882	15626.58
793.214	15511.33
793.546	15626.13
793.879	15409.64
794.211	15309.75
794.543	15449.86
794.875	15353.59
795.207	15332.58
795.539	15347.04
795.871	15222.3
796.203	15043.32
796.535	15018.69
796.867	15056.43
797.198	14978.24
797.53	15031.79
797.862	14773.5
798.193	14848.52
798.525	14761.74
798.856	14824.12
799.188	14700.96
799.519	14546.84
799.85	14472.71
800.182	14614.63
800.513	14611.24
800.844	14427.97
801.175	14531.92
801.506	14355.65
801.837	14308.2
802.168	14236.79
802.499	14368.08
802.83	14241.98
803.161	14188.2
803.491	14117.47
803.822	14175.55
804.153	14066.4
804.483	13978.71
804.814	13958.38
805.145	13880.64
805.475	13963.35
805.805	13861.43
806.136	13842.22
806.466	13786.4
806.796	13776.46
807.126	13570.82
807.457	13671.83
807.787	13625.5
808.117	13518.61
808.447	13524.04
808.777	13488.56
809.107	13393.87
809.436	13330.14
809.766	13351.61
810.096	13316.81
810.426	13278.39
810.755	13392.74
811.085	13233.88
811.414	13227.77
811.744	13115.01
812.073	13126.08
812.403	13060.77
812.732	13097.83
813.061	12985.52
813.39	12884.96
813.719	12867.56
814.049	13029.13
814.378	12919.08
814.707	12866.65
815.036	12864.62
815.365	12751.85
815.693	12731.29
816.022	12663.04
816.351	12662.59
816.68	12587.11
817.008	12654
817.337	12499.21
817.665	12479.32
817.994	12475.93
818.322	12490.17
818.651	12428.47
818.979	12438.64
819.307	12411.07
819.636	12345.09
819.964	12301.47
820.292	12368.36
820.62	12305.09
820.948	12263.73
821.276	12418.76
821.604	12244.75
821.932	12251.75
822.259	12312.32
822.587	12241.36
822.915	12290.4
823.243	12280.23
823.57	12193.68
823.898	12285.65
824.225	12148.71
824.553	12256.95
824.88	12196.39
825.207	12207.46
825.535	12196.16
825.862	12190.51
826.189	12177.86
826.516	12228.7
826.843	12193.22
827.17	12182.38
827.497	12285.43
827.824	12112.77
828.151	12280
828.478	12187.35
828.805	12231.19
829.131	12192.77
829.458	12124.07
829.785	12061.7
830.111	12143.06
830.438	12166.78
830.764	12074.36
831.09	12193.68
831.417	12080.91
831.743	12166.33
832.069	12214.47
832.395	12113.9
832.722	12101.48
833.048	12046.11
833.374	12083.4
833.7	12014.02
834.026	12028.03
834.351	12026.22
834.677	12055.38
835.003	12022.61
835.329	11958.43
835.654	11982.83
835.98	11963.4
836.306	11994.13
836.631	11890.63
836.956	11976.51
837.282	11923.18
837.607	11866.45
837.932	11896.06
838.258	11825.1
838.583	11854.02
838.908	11742.16
839.233	11828.26
839.558	11816.06
839.883	11700.13
840.208	11677.08
840.533	11600.7
840.858	11702.84
841.182	11749.17
841.507	11682.5
841.832	11619.68
842.156	11546.24
842.481	11514.6
842.805	11583.98
843.13	11538.55
843.454	11482.51
843.778	11467.59
844.103	11449.06
844.427	11400.25
844.751	11454.71
845.075	11350.99
845.399	11354.6
845.723	11290.65
846.047	11339.91
846.371	11194.15
846.695	11159.35
847.019	11050.43
847.343	11061.5
847.666	11023.54
847.99	10986.7
848.313	11001.84
848.637	10868.74
848.96	10855.18
849.284	10893.15
849.607	10764.11
849.931	10738.57
850.254	10682.98
850.577	10632.81
850.9	10544.45
851.223	10512.59
851.546	10476.43
851.869	10428.3
852.192	10422.65
852.515	10381.07
852.838	10364.8
853.161	10351.92
853.483	10340.84
853.806	10245.71
854.129	10253.84
854.451	10174.75
854.774	10095.2
855.096	10094.07
855.419	10090
855.741	10020.17
856.063	9921.87
856.385	9953.28
856.708	9823.12
857.03	9818.37
857.352	9865.38
857.674	9869.22
857.996	9771.59
858.318	9803
858.64	9839.16
858.961	9738.83
859.283	9677.36
859.605	9664.25
859.926	9701.99
860.248	9588.1
860.57	9619.05
860.891	9614.76
861.212	9549
861.534	9462.9
861.855	9528.21
862.176	9480.08
862.498	9538.38
862.819	9525.05
863.14	9468.1
863.461	9430.36
863.782	9482.11
864.103	9351.94
864.424	9371.6
864.745	9348.78
865.065	9297.48
865.386	9307.65
865.707	9238.27
866.027	9287.54
866.348	9243.92
866.668	9243.02
866.989	9224.26
867.309	9188.56
867.63	9175.22
867.95	9150.82
868.27	9113.98
868.59	9107.66
868.91	9144.72
869.23	9104.94
869.55	9072.18
869.87	9075.34
870.19	9081.89
870.51	9083.48
870.83	9075.34
871.15	9033.31
871.469	8960.09
871.789	9012.07
872.109	9031.73
872.428	8911.95
872.748	9018.62
873.067	8946.53
873.386	8964.61
873.706	8924.16
874.025	8865.18
874.344	8832.41
874.663	8871.96
874.982	8850.04
875.301	8852.52
875.62	8857.27
875.939	8831.51
876.258	8841.22
876.577	8767.78
876.896	8716.71
877.214	8665.86
877.533	8693.43
877.852	8729.13
878.17	8743.37
878.489	8713.77
878.807	8738.17
879.125	8650.72
879.444	8576.14
879.762	8669.7
880.08	8644.84
880.398	8571.17
880.716	8647.33
881.034	8571.4
881.352	8538.18
881.67	8542.7
881.988	8523.26
882.306	8496.15
882.624	8467.22
882.941	8413.21
883.259	8405.08
883.577	8431.74
883.894	8369.37
884.212	8359.88
884.529	8389.03
884.846	8343.83
885.164	8326.21
885.481	8284.85
885.798	8330.5
886.115	8216.61
886.432	8207.79
886.75	8205.08
887.067	8242.82
887.383	8156.49
887.7	8209.15
888.017	8144.07
888.334	8190.84
888.651	8111.07
888.967	8095.71
889.284	8079.66
889.6	8057.51
889.917	8011.19
890.233	7997.18
890.55	7943.39
890.866	8013.22
891.182	7957.63
891.498	7964.18
891.815	7937.97
892.131	7879.67
892.447	7851.64
892.763	7801.93
893.079	7735.49
893.395	7714.7
893.71	7742.72
894.026	7735.71
894.342	7678.99
894.657	7645.77
894.973	7666.79
895.289	7628.6
895.604	7571.65
895.92	7588.83
896.235	7564.42
896.55	7516.29
896.865	7539.11
897.181	7468.83
897.496	7458.43
897.811	7384.76
898.126	7385.22
898.441	7378.21
898.756	7383.41
899.071	7268.61
899.386	7317.19
899.7	7293.24
900.015	7244.43
900.33	7210.98
900.644	7196.07
900.959	7150.19
901.273	7167.59
901.588	7097.31
901.902	7067.03
902.216	7039.01
902.531	7003.08
902.845	7040.82
903.159	7010.76
903.473	6966.7
903.787	6908.62
904.101	6889.86
904.415	6901.84
904.729	6855.51
905.042	6817.77
905.356	6794.95
905.67	6792.01
905.984	6754.5
906.297	6752.24
906.611	6721.73
906.924	6713.59
907.237	6641.05
907.551	6598.57
907.864	6604.67
908.177	6623.88
908.491	6620.94
908.804	6503.2
909.117	6512.02
909.43	6510.66
909.743	6438.12
910.056	6449.65
910.368	6380.5
910.681	6366.94
910.994	6373.72
911.307	6328.07
911.619	6290.55
911.932	6316.32
912.244	6284.23
912.557	6180.73
912.869	6200.39
913.181	6185.7
913.494	6180.73
913.806	6134.63
914.118	6115.87
914.43	6158.13
914.742	6039.49
915.054	5992.03
915.366	6056.44
915.678	5975.53
915.99	5971.47
916.302	5937.34
916.613	5884.01
916.925	5896.67
917.236	5874.52
917.548	5815.99
917.859	5795.43
918.171	5794.52
918.482	5763.34
918.794	5761.98
919.105	5786.84
919.416	5712.72
919.727	5711.14
920.038	5644.47
920.349	5600.18
920.66	5593.62
920.971	5627.97
921.282	5597.92
921.593	5565.15
921.903	5488.54
922.214	5476.34
922.525	5473.85
922.835	5482.44
923.146	5380.75
923.456	5398.38
923.767	5409.67
924.077	5357.02
924.387	5331.94
924.697	5301.43
925.008	5288.77
925.318	5269.56
925.628	5273.86
925.938	5235.89
926.248	5243.58
926.558	5139.85
926.867	5159.06
927.177	5148.21
927.487	5101.21
927.796	5039.51
928.106	5066.41
928.416	5089.46
928.725	5027.76
929.034	4952.06
929.344	5016.24
929.653	4992.06
929.962	4951.83
930.271	4936.69
930.581	4930.36
930.89	4858.28
931.199	4815.11
931.508	4853.76
931.817	4832.29
932.125	4778.05
932.434	4782.12
932.743	4769.01
933.051	4704.16
933.36	4711.84
933.669	4663.25
933.977	4693.99
934.286	4705.51
934.594	4659.41
934.902	4672.29
935.21	4600.43
935.519	4585.52
935.827	4573.31
936.135	4557.95
936.443	4527.21
936.751	4470.94
937.059	4504.61
937.367	4482.69
937.674	4460.77
937.982	4492.41
938.29	4415.8
938.597	4419.42
938.905	4354.56
939.213	4362.47
939.52	4318.86
939.827	4328.57
940.135	4281.12
940.442	4267.33
940.749	4260.78
941.056	4258.29
941.363	4261.23
941.67	4186.88
941.977	4194.79
942.284	4153.66
942.591	4197.73
942.898	4121.8
943.205	4127.22
943.511	4088.13
943.818	4073.89
944.125	4103.04
944.431	4041.12
944.738	4041.35
945.044	4002.03
945.35	4012.2
945.657	3958.19
945.963	3999.77
946.269	3951.18
946.575	3958.41
946.881	3938.3
947.187	3920.67
947.493	3881.35
947.799	3857.17
948.105	3862.6
948.41	3858.98
948.716	3849.04
949.022	3812.65
949.327	3792.32
949.633	3727.46
949.938	3748.25
950.244	3765.42
950.549	3771.53
950.854	3721.58
951.16	3714.58
951.465	3652.66
951.77	3661.92
952.075	3668.93
952.38	3665.31
952.685	3611.98
952.99	3571.3
953.294	3581.02
953.599	3566.33
953.904	3537.63
954.209	3558.88
954.513	3511.87
954.818	3477.97
955.122	3465.32
955.426	3483.17
955.731	3434.13
956.035	3438.2
956.339	3448.37
956.643	3407.92
956.948	3401.14
957.252	3388.48
957.556	3363.4
957.86	3386.68
958.163	3348.94
958.467	3368.37
958.771	3319.11
959.075	3283.85
959.378	3272.78
959.682	3283.4
959.985	3244.31
960.289	3263.97
960.592	3243.4
960.896	3253.12
961.199	3220.35
961.502	3215.61
961.805	3154.14
962.108	3173.35
962.411	3137.42
962.714	3153.69
963.017	3109.4
963.32	3143.29
963.623	3092.67
963.926	3089.74
964.228	3059.45
964.531	3035.73
964.833	3069.85
965.136	3014.93
965.438	3025.1
965.741	2975.61
966.043	3015.61
966.345	2976.52
966.648	2973.13
966.95	2947.37
967.252	2911.66
967.554	2919.8
967.856	2940.13
968.158	2902.62
968.46	2912.34
968.761	2903.75
969.063	2868.5
969.365	2842.74
969.666	2872.34
969.968	2807.93
970.269	2801.61
970.571	2825.79
970.872	2770.2
971.174	2784.43
971.475	2776.3
971.776	2758.44
972.077	2743.08
972.378	2746.69
972.679	2756.64
972.98	2727.71
973.281	2719.58
973.582	2688.62
973.883	2712.34
974.183	2710.76
974.484	2664.66
974.785	2659.69
975.085	2650.88
975.386	2652.68
975.686	2630.54
975.986	2625.79
976.287	2609.3
976.587	2566.59
976.887	2540.37
977.187	2563.87
977.487	2555.06
977.787	2558
978.087	2513.03
978.387	2502.86
978.687	2488.17
978.987	2517.55
979.286	2477.1
979.586	2478.9
979.885	2445.91
980.185	2434.84
980.484	2468.06
980.784	2428.51
981.083	2401.62
981.382	2416.76
981.682	2355.29
981.981	2363.43
982.28	2358.91
982.579	2338.57
982.878	2315.29
983.177	2311.45
983.475	2319.81
983.774	2312.35
984.073	2309.19
984.372	2279.13
984.67	2309.64
984.969	2332.24
985.267	2311.9
985.566	2270.55
985.864	2243.88
986.162	2231.45
986.461	2245.01
986.759	2212.47
987.057	2201.85
987.355	2225.13
987.653	2201.17
987.951	2168.18
988.249	2201.85
988.547	2205.69
988.844	2188.29
989.142	2134.96
989.44	2129.31
989.737	2127.73
990.035	2095.86
990.332	2115.3
990.63	2096.99
990.927	2073.49
991.224	2085.24
991.521	2065.36
991.819	2083.66
992.116	2036.2
992.413	2034.85
992.71	2053.6
993.006	2037.56
993.303	2013.15
993.6	2031.23
993.897	2000.27
994.193	1987.62
994.49	2015.41
994.787	1924.57
995.083	1973.15
995.379	1954.85
995.676	1928.86
995.972	1925.7
996.268	1880.95
996.565	1976.09
996.861	1901.74
997.157	1920.27
997.453	1893.38
997.749	1901.07
998.044	1832.59
998.34	1868.52
998.636	1864.46
998.932	1854.97
999.227	1815.19
999.523	1843.44
999.818	1810.9
1000.114	1830.11
1000.409	1791.69
1000.704	1801.18
1001	1771.13
1001.295	1784.46
1001.59	1741.3
1001.885	1759.37
1002.18	1740.62
1002.475	1732.71
1002.77	1730.67
1003.065	1699.49
1003.359	1687.51
1003.654	1715.08
1003.949	1675.76
1004.243	1673.28
1004.538	1658.13
1004.832	1672.15
1005.127	1627.85
1005.421	1642.54
1005.715	1628.3
1006.009	1606.38
1006.304	1613.62
1006.598	1613.39
1006.892	1624.91
1007.186	1589.66
1007.48	1599.15
1007.773	1581.75
1008.067	1574.75
1008.361	1527.06
1008.655	1520.74
1008.948	1531.13
1009.242	1534.97
1009.535	1522.09
1009.829	1538.82
1010.122	1499.27
1010.415	1483.45
1010.708	1498.82
1011.001	1480.06
1011.295	1479.61
1011.588	1467.63
1011.881	1458.59
1012.173	1450.68
1012.466	1467.18
1012.759	1437.58
1013.052	1448.42
1013.344	1441.19
1013.637	1440.29
1013.93	1430.12
1014.222	1383.57
1014.514	1377.46
1014.807	1385.37
1015.099	1389.21
1015.391	1384.02
1015.683	1379.05
1015.976	1326.84
1016.268	1335.43
1016.56	1321.87
1016.851	1352.38
1017.143	1327.97
1017.435	1316.67
1017.727	1308.99
1018.018	1281.65
1018.31	1286.39
1018.602	1268.99
1018.893	1269.44
1019.185	1268.77
1019.476	1281.65
1019.767	1236.68
1020.058	1248.65
1020.35	1240.74
1020.641	1237.13
1020.932	1229.67
1021.223	1198.03
1021.514	1199.16
1021.804	1202.33
1022.095	1192.16
1022.386	1161.88
1022.677	1174.76
1022.967	1147.19
1023.258	1135.44
1023.548	1161.2
1023.839	1138.15
1024.129	1134.31
1024.419	1130.46
1024.709	1130.24
1025	1112.84
1025.29	1109
1025.58	1126.17
1025.87	1102.67
1026.16	1102.89
1026.449	1104.25
1026.739	1079.39
1027.029	1072.39
1027.319	1071.48
1027.608	1031.94
1027.898	1047.08
1028.187	1050.47
1028.477	1060.18
1028.766	1030.58
1029.055	1029.45
1029.344	1021.99
1029.634	1013.86
1029.923	987.87
1030.212	1010.92
1030.501	1007.08
1030.79	979.28
1031.078	989
1031.367	968.66
1031.656	973.63
1031.945	974.31
1032.233	968.21
1032.522	952.84
1032.81	932.05
1033.099	917.59
1033.387	942.45
1033.675	924.37
1033.963	939.96
1034.251	921.88
1034.54	912.62
1034.828	926.18
1035.116	929.34
1035.403	900.41
1035.691	890.47
1035.979	881.66
1036.267	869.91
1036.554	855.22
1036.842	852.73
1037.129	840.53
1037.417	867.42
1037.704	857.7
1037.992	850.7
1038.279	850.7
1038.566	855.44
1038.853	855.44
1039.14	855.44
