Data from hue_28_FLMS001491_00076.txt Node
Date: Tue Feb 07 17:17:47 GMT 2017
User: dcchb
Spectrometer: FLMS00149
Trigger mode: 0
Integration Time (sec): 2.000000E-2
Scans to average: 10
Electric dark correction enabled: true
Nonlinearity correction enabled: false
Boxcar width: 0
XAxis mode: Wavelengths
Number of Pixels in Spectrum: 2048
>>>>>Begin Spectral Data<<<<<
341.393	-18.71
341.776	-18.71
342.16	-18.71
342.543	-39.5
342.927	-71.59
343.31	-75.89
343.693	-67.98
344.077	-70.69
344.46	-46.51
344.843	-56
345.226	-48.54
345.61	-22.78
345.993	-25.95
346.376	-19.39
346.759	14.73
347.142	26.71
347.525	57.89
347.908	47.95
348.291	63.54
348.674	107.38
349.057	115.52
349.44	110.77
349.823	140.15
350.206	173.6
350.588	204.56
350.971	218.79
351.354	238.68
351.737	244.1
352.119	247.27
352.502	258.57
352.884	273.93
353.267	274.61
353.65	299.7
354.032	316.64
354.414	321.62
354.797	307.6
355.179	336.3
355.562	319.81
355.944	330.88
356.326	344.67
356.709	343.31
357.091	339.24
357.473	332.91
357.855	326.14
358.238	335.63
358.62	350.99
359.002	336.53
359.384	354.38
359.766	323.2
360.148	333.82
360.53	325.46
360.912	345.34
361.294	348.06
361.676	318.9
362.057	337.66
362.439	349.64
362.821	338.11
363.203	338.79
363.584	341.5
363.966	312.8
364.348	320.71
364.729	324.78
365.111	331.33
365.493	319.81
365.874	313.25
366.256	316.42
366.637	318.68
367.019	314.61
367.4	306.02
367.781	303.54
368.163	321.62
368.544	329.07
368.925	314.16
369.306	334.95
369.688	319.81
370.069	336.98
370.45	314.61
370.831	330.2
371.212	322.07
371.593	319.36
371.974	336.76
372.355	314.61
372.736	327.27
373.117	293.82
373.498	315.51
373.879	329.98
374.26	317.55
374.641	323.2
375.021	308.96
375.402	341.73
375.783	328.62
376.163	304.44
376.544	327.94
376.925	342.63
377.305	333.82
377.686	318.9
378.066	321.16
378.447	348.28
378.827	342.18
379.208	331.33
379.588	338.11
379.968	347.83
380.349	335.63
380.729	344.67
381.109	325.23
381.489	343.08
381.87	349.86
382.25	348.51
382.63	363.2
383.01	344.89
383.39	351.9
383.77	332.01
384.15	337.66
384.53	332.24
384.91	358.68
385.29	338.11
385.67	354.84
386.049	377.89
386.429	367.26
386.809	358.9
387.189	350.09
387.568	361.39
387.948	361.39
388.328	339.24
388.707	367.72
389.087	354.61
389.466	362.07
389.846	341.05
390.225	373.59
390.605	373.59
390.984	352.8
391.363	370.2
391.743	384.89
392.122	347.15
392.501	358.45
392.881	396.64
393.26	381.5
393.639	376.53
394.018	384.67
394.397	381.28
394.776	388.96
395.155	395.51
395.534	377.21
395.913	390.54
396.292	383.08
396.671	396.42
397.05	393.7
397.429	397.32
397.808	384.89
398.186	389.64
398.565	406.36
398.944	393.93
399.323	411.78
399.701	409.75
400.08	410.43
400.458	383.99
400.837	396.87
401.215	408.17
401.594	407.72
401.972	397.32
402.351	420.6
402.729	415.62
403.107	389.86
403.486	412.69
403.864	404.55
404.242	430.54
404.62	407.04
404.999	444.55
405.377	403.2
405.755	433.7
406.133	428.28
406.511	436.19
406.889	428.51
407.267	448.39
407.645	441.16
408.023	433.7
408.401	452.23
408.779	437.77
409.156	444.55
409.534	456.08
409.912	435.96
410.29	457.43
410.667	448.62
411.045	456.3
411.422	472.57
411.8	474.83
412.178	468.96
412.555	466.02
412.933	487.94
413.31	471.22
413.687	483.42
414.065	467.37
414.442	491.78
414.819	498.56
415.197	489.3
415.574	500.59
415.951	483.19
416.328	498.79
416.705	499.69
417.082	512.8
417.46	492.68
417.837	487.49
418.214	510.76
418.591	527.26
418.967	511.89
419.344	518.9
419.721	507.83
420.098	524.32
420.475	523.87
420.852	519.12
421.228	516.19
421.605	520.25
421.982	547.15
422.358	547.15
422.735	529.07
423.111	542.63
423.488	542.63
423.864	545.79
424.241	564.55
424.617	564.1
424.994	550.99
425.37	566.58
425.746	538.56
426.123	579.91
426.499	575.17
426.875	567.49
427.251	608.84
427.627	609.29
428.003	569.97
428.379	632.57
428.756	583.08
429.132	577.65
429.507	599.8
429.883	605.68
430.259	644.09
430.635	647.48
431.011	629.4
431.387	639.12
431.763	648.16
432.138	637.31
432.514	666.47
432.89	663.75
433.265	661.49
433.641	691.78
434.016	688.16
434.392	681.15
434.767	678.89
435.143	672.12
435.518	699.68
435.894	716.18
436.269	686.8
436.644	708.95
437.02	697.88
437.395	718.67
437.77	745.11
438.145	723.64
438.52	739.91
438.895	758.67
439.271	732.9
439.646	756.18
440.021	753.24
440.395	764.99
440.77	768.61
441.145	772.23
441.52	788.95
441.895	770.64
442.27	773.36
442.645	756.41
443.019	758.67
443.394	788.5
443.769	834.37
444.143	766.8
444.518	811.55
444.892	819.23
445.267	816.07
445.641	820.59
446.016	828.95
446.39	807.7
446.764	825.78
447.139	833.01
447.513	837.31
447.887	858.32
448.262	856.07
448.636	828.04
449.01	845.44
449.384	839.79
449.758	888.61
450.132	875.27
450.506	872.11
450.88	868.72
451.254	880.25
451.628	874.82
452.002	898.32
452.376	889.51
452.75	929.74
453.123	910.98
453.497	928.83
453.871	955.5
454.244	955.27
454.618	945.78
454.992	957.98
455.365	946.01
455.739	1000.92
456.112	984.88
456.486	1000.24
456.859	1015.83
457.232	1001.37
457.606	1027.36
457.979	1011.09
458.352	1043.63
458.725	1040.24
459.099	1061.26
459.472	1076.17
459.845	1106.91
460.218	1097.64
460.591	1085.44
460.964	1124.31
461.337	1154.36
461.71	1126.34
462.083	1143.52
462.456	1158.88
462.829	1176.73
463.201	1180.8
463.574	1183.51
463.947	1219.45
464.32	1212.44
464.692	1261.03
465.065	1248.82
465.438	1279.33
465.81	1291.31
466.183	1268.94
466.555	1301.48
466.928	1324.98
467.3	1346.9
467.672	1355.49
468.045	1376.05
468.417	1400.46
468.789	1401.36
469.161	1415.37
469.534	1464.64
469.906	1457.41
470.278	1493.11
470.65	1497.4
471.022	1533.79
471.394	1564.52
471.766	1578.08
472.138	1576.72
472.51	1620.79
472.882	1653.11
473.253	1655.59
473.625	1713.9
473.997	1704.4
474.369	1760.67
474.74	1770.39
475.112	1836.6
475.484	1842.48
475.855	1857.39
476.227	1901.46
476.598	1927
476.97	1961.35
477.341	2010.84
477.713	2028.92
478.084	2044.28
478.455	2107.11
478.827	2143.94
479.198	2201.11
479.569	2242.24
479.94	2286.31
480.311	2301
480.682	2386.65
481.053	2410.83
481.424	2465.29
481.795	2490.37
482.166	2581.9
482.537	2613.53
482.908	2667.99
483.279	2699.86
483.65	2741.67
484.021	2812.4
484.391	2872.96
484.762	2899.85
485.133	2920.64
485.503	3025.5
485.874	3048.32
486.244	3106.18
486.615	3171.03
486.985	3224.59
487.356	3287.19
487.726	3398.82
488.097	3436.34
488.467	3460.74
488.837	3531.02
489.207	3571.7
489.578	3685.6
489.948	3674.75
490.318	3751.58
490.688	3767.63
491.058	3853.5
491.428	3888.3
491.798	3977.56
492.168	4083.78
492.538	4120.16
492.908	4150.44
493.278	4240.61
493.648	4255.07
494.017	4308.4
494.387	4354.5
494.757	4439.25
495.126	4494.39
495.496	4458.46
495.866	4550.88
496.235	4608.06
496.605	4658.9
496.974	4700.26
497.344	4733.25
497.713	4800.14
498.082	4791.33
498.452	4853.25
498.821	4916.3
499.19	4959.69
499.559	5022.51
499.928	5070.87
500.298	5022.06
500.667	5091.89
501.036	5115.16
501.405	5166.01
501.774	5182.96
502.143	5254.37
502.512	5308.83
502.88	5306.8
503.249	5323.97
503.618	5406.45
503.987	5436.28
504.356	5477.19
504.724	5530.97
505.093	5471.76
505.462	5534.36
505.83	5640.8
506.199	5592.89
506.567	5717.63
506.936	5720.57
507.304	5726.67
507.672	5793.56
508.041	5808.7
508.409	5866.55
508.777	5919.21
509.145	5919.89
509.514	5935.93
509.882	5997.85
510.25	5994.01
510.618	6064.97
510.986	6026.55
511.354	6135.93
511.722	6156.72
512.09	6173.21
512.458	6180.22
512.826	6224.29
513.193	6278.97
513.561	6244.17
513.929	6287.33
514.297	6392.19
514.664	6369.37
515.032	6444.84
515.4	6458.63
515.767	6501.57
516.135	6542.7
516.502	6471.51
516.869	6597.38
517.237	6601.9
517.604	6572.3
517.972	6702.69
518.339	6717.15
518.706	6717.83
519.073	6710.6
519.44	6702.24
519.808	6820.2
520.175	6853.42
520.542	6914.21
520.909	6892.29
521.276	6874.44
521.643	6943.36
522.009	7012.97
522.376	7020.2
522.743	7047.54
523.11	7137.71
523.477	7192.62
523.843	7215.45
524.21	7257.93
524.577	7330.25
524.943	7320.08
525.31	7373.86
525.676	7467.87
526.043	7492.73
526.409	7501.77
526.776	7615.21
527.142	7579.73
527.508	7676.68
527.874	7684.13
528.241	7720.07
528.607	7680.74
528.973	7835.99
529.339	7741.53
529.705	7889.78
530.071	7909.44
530.437	7982.43
530.803	7997.35
531.169	8023.79
531.535	8038.93
531.901	8056.55
532.267	8126.83
532.632	8102.65
532.998	8236.89
533.364	8257.68
533.73	8268.98
534.095	8337.9
534.461	8322.54
534.826	8345.13
535.192	8452.93
535.557	8485.69
535.923	8538.8
536.288	8510.78
536.653	8575.18
537.019	8563.43
537.384	8616.54
537.749	8602.08
538.114	8690.66
538.479	8730.21
538.845	8725.24
539.21	8714.39
539.575	8752.81
539.94	8807.95
540.305	8880.26
540.67	8874.84
541.034	8957.09
541.399	8971.78
541.764	8959.35
542.129	9020.14
542.494	9055.4
542.858	9101.5
543.223	9115.96
543.587	9173.13
543.952	9174.26
544.316	9199.8
544.681	9308.72
545.045	9316.63
545.41	9372
545.774	9391.21
546.138	9476.18
546.503	9501.49
546.867	9492.9
547.231	9567.93
547.595	9563.63
547.959	9603.86
548.324	9618.77
548.688	9656.74
549.052	9734.02
549.416	9770.86
549.779	9702.84
550.143	9671.43
550.507	9848.82
550.871	9851.76
551.235	9888.14
551.599	9877.97
551.962	9917.07
552.326	9992.77
552.689	10046.33
553.053	10052.21
553.417	10069.83
553.78	10158.65
554.143	10152.09
554.507	10225.99
554.87	10232.54
555.234	10274.57
555.597	10251.75
555.96	10327.68
556.323	10348.92
556.686	10386.21
557.05	10411.07
557.413	10471.86
557.776	10397.51
558.139	10507.11
558.502	10569.93
558.865	10601.57
559.228	10644.06
559.59	10725.41
559.953	10663.49
560.316	10805.86
560.679	10747.56
561.041	10897.38
561.404	10870.94
561.767	10878.17
562.129	10821
562.492	10988
562.854	10922.47
563.217	10981
563.579	11003.59
563.941	11068.45
564.304	11130.82
564.666	11187.32
565.028	11264.15
565.39	11196.58
565.753	11275.68
566.115	11377.14
566.477	11361.55
566.839	11454.88
567.201	11430.25
567.563	11556.35
567.925	11532.39
568.287	11531.04
568.648	11556.35
569.01	11618.04
569.372	11740.75
569.734	11743.01
570.095	11806.29
570.457	11874.98
570.819	11916.11
571.18	11876.79
571.542	12041.53
571.903	12073.4
572.265	12145.94
572.626	12217.8
572.987	12193.62
573.349	12309.1
573.71	12328.98
574.071	12445.82
574.432	12450.34
574.794	12655.75
575.155	12650.78
575.516	12625.7
575.877	12770.55
576.238	12792.02
576.599	12930.32
576.96	12925.13
577.32	13068.63
577.681	13239.92
578.042	13362.63
578.403	13333.48
578.763	13455.51
579.124	13586.58
579.485	13732.79
579.845	13860.92
580.206	13897.3
580.566	14084.19
580.927	14278.54
581.287	14446.67
581.648	14500
582.008	14695.25
582.368	14793.55
582.728	15065.86
583.089	15138.4
583.449	15271.05
583.809	15508.34
584.169	15738.16
584.529	15811.6
584.889	16149.22
585.249	16305.6
585.609	16393.74
585.969	16685.25
586.329	16851.12
586.688	17083.43
587.048	17358.91
587.408	17480.49
587.768	17773.59
588.127	18053.13
588.487	18150.75
588.846	18592.1
589.206	18731.98
589.565	19034.57
589.925	19299.87
590.284	19613.31
590.643	19854.89
591.003	20211.71
591.362	20538.03
591.721	20822.09
592.08	20943.67
592.44	21350.89
592.799	21608.06
593.158	21888.96
593.517	22214.6
593.876	22514.7
594.235	22674.7
594.593	22991.53
594.952	23341.58
595.311	23606.43
595.67	23843.03
596.029	24359.18
596.387	24577.93
596.746	24962.1
597.104	25124.81
597.463	25288.64
597.822	25626.49
598.18	25869.19
598.538	26172.91
598.897	26593.92
599.255	26616.29
599.613	27299.66
599.972	27546.21
600.33	27876.6
600.688	27997.05
601.046	28307.32
601.404	28670.02
601.762	28962.9
602.12	29412.38
602.478	29432.49
602.836	29722.42
603.194	29894.17
603.552	30249.64
603.91	30356.08
604.268	30850.08
604.625	31011.2
604.983	31304.98
605.341	31336.39
605.698	31840.11
606.056	32076.49
606.413	32342.47
606.771	32593.76
607.128	32846.18
607.485	32829.46
607.843	33099.29
608.2	33478.71
608.557	33715.31
608.914	33853.16
609.272	34315.3
609.629	34424.9
609.986	34708.73
610.343	34551.45
610.7	35202.05
611.057	35148.95
611.414	35431.88
611.771	35529.05
612.127	35893.79
612.484	36084.52
612.841	36329.26
613.198	36375.58
613.554	36612.86
613.911	36850.6
614.267	37129.01
614.624	37013.53
614.98	37354.99
615.337	37665.72
615.693	37716.79
616.05	37776
616.406	38193.39
616.762	38080.85
617.118	38060.96
617.475	38440.61
617.831	38626.82
618.187	38738.68
618.543	38895.52
618.899	39046.25
619.255	39081.5
619.611	39241.27
619.967	39454.82
620.323	39639.23
620.678	39557.19
621.034	39664.99
621.39	39572.79
621.746	39770.07
622.101	40329.38
622.457	40007.35
622.812	40189.72
623.168	40347.23
623.523	40484.4
623.879	40682.59
624.234	40452.09
624.589	40813.66
624.945	40849.36
625.3	40955.35
625.655	40893.88
626.01	40872.41
626.365	41164.84
626.72	41078.74
627.075	41130.94
627.43	41163.71
627.785	41064.27
628.14	41307.43
628.495	41350.37
628.85	41356.24
629.205	41383.81
629.559	41476.92
629.914	41403.7
630.269	41433.76
630.623	41421.1
630.978	41355.11
631.332	41636.69
631.687	41875.78
632.041	41633.3
632.396	41923.23
632.75	41633.75
633.104	41813.41
633.459	41615.9
633.813	41754.42
634.167	41817.47
634.521	41741.32
634.875	41713.3
635.229	41748.32
635.583	41653.64
635.937	41600.08
636.291	41739.96
636.645	41756.23
636.999	41810.92
637.352	41810.92
637.706	41692.51
638.06	41858.6
638.413	41726.63
638.767	41719.85
639.121	41678.95
639.474	41377.94
639.828	41709.45
640.181	41710.58
640.534	41650.7
640.888	41401.67
641.241	41455.22
641.594	41484.6
641.947	41667.2
642.301	41482.12
642.654	41584.94
643.007	41578.61
643.36	41471.95
643.713	41508.33
644.066	41644.37
644.419	41486.41
644.771	41102.46
645.124	40847.78
645.477	40822.92
645.83	40529.82
646.182	40607.11
646.535	40378.87
646.888	40472.42
647.24	40190.4
647.593	40486.21
647.945	40526.89
648.298	40207.57
648.65	40157.18
649.002	39996.28
649.355	40251.41
649.707	40273.11
650.059	40382.03
650.411	40884.84
650.763	40957.61
651.115	41341.1
651.467	41033.77
651.819	41205.51
652.171	40946.31
652.523	40947.67
652.875	40889.59
653.227	40709.03
653.578	41193.08
653.93	41031.51
654.282	40764.85
654.633	40802.59
654.985	40973.88
655.337	41030.15
655.688	40933.43
656.039	41090.94
656.391	40657.5
656.742	40771.85
657.094	40809.36
657.445	40898.18
657.796	40877.84
658.147	40758.07
658.498	40835.8
658.849	40918.29
659.2	40809.59
659.551	40746.77
659.902	40989.02
660.253	40850.72
660.604	40868.12
660.955	40673.32
661.306	40784.05
661.656	40645.75
662.007	40654.11
662.358	40763.26
662.708	40734.11
663.059	40707.67
663.409	40352.65
663.76	40666.09
664.11	40708.8
664.461	40646.88
664.811	40844.17
665.161	40688.92
665.511	40657.28
665.862	40681.23
666.212	40679.65
666.562	40754.45
666.912	40614.12
667.262	40551.74
667.612	40617.05
667.962	40618.18
668.312	40579.99
668.662	40766.65
669.011	40537.06
669.361	40565.76
669.711	40652.76
670.06	40511.97
670.41	40603.95
670.76	40424.52
671.109	40650.95
671.459	40541.58
671.808	40307.01
672.157	40529.15
672.507	40236.27
672.856	40248.48
673.205	40368.25
673.554	40476.94
673.904	40315.59
674.253	40395.36
674.602	40404.63
674.951	39908.6
675.3	39589.96
675.649	40413.44
675.998	40115.82
676.346	40306.78
676.695	40269.94
677.044	40096.39
677.393	40236.27
677.741	40136.61
678.09	40012.32
678.438	39923.96
678.787	39995.15
679.135	40140.46
679.484	39727.81
679.832	40052.55
680.181	39744.31
680.529	39803.52
680.877	39697.53
681.225	39741.6
681.573	39945.88
681.922	39547.03
682.27	39646.01
682.618	39532.79
682.966	39434.03
683.314	39452.79
683.661	39407.59
684.009	39322.4
684.357	39230.88
684.705	39173.7
685.053	39350.87
685.4	39091.9
685.748	39017.32
686.095	39072.46
686.443	38838.34
686.79	38953.37
687.138	38942.75
687.485	38909.75
687.832	38758.12
688.18	38826.82
688.527	38590.89
688.874	38576.66
689.221	38463.21
689.568	38342.99
689.915	38369.43
690.262	38429.31
690.609	38366.49
690.956	38064.35
691.303	38071.81
691.65	37919.05
691.997	37953.85
692.344	37686.06
692.69	37628.88
693.037	37677.47
693.383	37279.97
693.73	37565.16
694.077	37102.34
694.423	37158.61
694.769	37117.71
695.116	37134.89
695.462	37045.85
695.808	36924.04
696.155	37098.05
696.501	36783.93
696.847	36672.3
697.193	36490.16
697.539	36589.59
697.885	36239.99
698.231	36324.06
698.577	36271.18
698.923	36215.59
699.269	35956.16
699.614	35854.69
699.96	35894.92
700.306	35882.49
700.651	35578.99
700.997	35619.67
701.342	35454.93
701.688	35377.42
702.033	35492.22
702.379	35377.19
702.724	35120.02
703.069	35323.18
703.415	34992.79
703.76	34884.32
704.105	34989.18
704.45	34934.72
704.795	34723.2
705.14	34555.07
705.485	34568.85
705.83	34435.07
706.175	34496.08
706.52	34511.68
706.865	34265.36
707.209	34192.36
707.554	34055.42
707.899	34083.21
708.243	33882.09
708.588	33920.96
708.932	33707.18
709.277	33712.6
709.621	33644.81
709.966	33508.31
710.31	33534.75
710.654	33223.12
710.998	33387.87
711.342	33362.1
711.687	33267.87
712.031	33107.65
712.375	33040.3
712.719	33144.71
713.063	33048.89
713.407	33088.66
713.75	32878.5
714.094	32894.77
714.438	32648.9
714.782	32773.87
715.125	32662.46
715.469	32633.76
715.812	32414.78
716.156	32344.28
716.499	32394.22
716.843	32384.73
717.186	32178.18
717.53	32426.31
717.873	32263.37
718.216	32168.24
718.559	31960.56
718.902	31864.97
719.246	31980.22
719.589	31798.08
719.932	31789.94
720.275	31729.15
720.617	31662.49
720.96	31687.8
721.303	31559.44
721.646	31482.15
721.989	31310.86
722.331	31438.09
722.674	31318.54
723.016	31415.49
723.359	31354.02
723.701	31324.42
724.044	31133.24
724.386	30968.04
724.729	31120.81
725.071	31118.77
725.413	31034.48
725.755	30975.5
726.097	30897.08
726.439	30629.07
726.782	30692.57
727.124	30789.06
727.465	30626.13
727.807	30668.39
728.149	30493.7
728.491	30522.63
728.833	30509.75
729.175	30482.86
729.516	30517.21
729.858	30421.16
730.199	30462.07
730.541	30368.28
730.882	30337.32
731.224	30419.13
731.565	30234.05
731.906	30222.52
732.248	30127.39
732.589	29994.28
732.93	29978.92
733.271	29915.41
733.612	29999.93
733.953	29954.06
734.294	29853.27
734.635	29709.09
734.976	29879.71
735.317	29678.58
735.658	29773.04
735.999	29673.84
736.339	29584.8
736.68	29586.16
737.021	29549.55
737.361	29414.41
737.702	29389.1
738.042	29330.12
738.383	29363.11
738.723	29254.41
739.063	29266.62
739.404	29373.28
739.744	29191.37
740.084	29083.35
740.424	29061.43
740.764	29103.91
741.104	29148.88
741.444	29064.14
741.784	28849.23
742.124	29067.07
742.464	28917.93
742.804	28887.19
743.143	28882.22
743.483	28868.21
743.823	28662.57
744.162	28649.91
744.502	28645.16
744.841	28463.02
745.181	28548.9
745.52	28561.33
745.86	28472.74
746.199	28523.59
746.538	28467.77
746.877	28415.34
747.216	28524.72
747.556	28319.52
747.895	28458.5
748.234	28300.09
748.573	28247.44
748.911	28126.76
749.25	28157.72
749.589	28056.71
749.928	28143.26
750.267	28254.67
750.605	27926.09
750.944	27964.5
751.283	27804.96
751.621	27915.69
751.96	27661.91
752.298	27722.03
752.636	27751.86
752.975	27671.41
753.313	27447.23
753.651	27561.35
753.989	27337.63
754.327	27344.86
754.666	27236.16
755.004	27281.58
755.342	27245.65
755.679	27253.56
756.017	27170.63
756.355	27301.92
756.693	26939.45
757.031	27014.47
757.368	26856.06
757.706	26947.81
758.044	26835.95
758.381	26825.33
758.719	26712.56
759.056	26607.7
759.394	26644.99
759.731	26428.05
760.068	26539.68
760.405	26333.81
760.743	26252.91
761.08	26165
761.417	26047.49
761.754	26048.4
762.091	25999.13
762.428	25974.05
762.765	25878.01
763.102	25937.21
763.438	25779.93
763.775	25623.1
764.112	25618.8
764.449	25690.44
764.785	25485.7
765.122	25309.43
765.458	25267.63
765.795	25194.41
766.131	25173.84
766.467	25189.89
766.804	25048.42
767.14	24832.61
767.476	24855.66
767.812	24720.52
768.148	24822.21
768.485	24531.37
768.821	24501.32
769.157	24521.66
769.492	24469
769.828	24310.14
770.164	24071.73
770.5	24077.6
770.836	24037.15
771.171	23967.77
771.507	23869.92
771.842	23747.67
772.178	23760.32
772.513	23596.48
772.849	23518.29
773.184	23468.58
773.519	23553.32
773.855	23351.29
774.19	23226.55
774.525	23206.66
774.86	23158.98
775.195	23050.51
775.53	22964.86
775.865	22856.62
776.2	22725.77
776.535	22477.64
776.87	22594.25
777.205	22486.23
777.539	22343.18
777.874	22389.06
778.209	22245.79
778.543	22183.41
778.878	21943.65
779.212	22148.84
779.547	21856.64
779.881	21904.55
780.215	21813.93
780.55	21846.93
780.884	21611
781.218	21574.39
781.552	21588.85
781.886	21442.64
782.22	21258.01
782.554	21278.8
782.888	21200.84
783.222	21014.18
783.556	20953.39
783.889	20904.35
784.223	20707.52
784.557	20716.33
784.89	20711.14
785.224	20660.74
785.557	20559.05
785.891	20487.41
786.224	20412.39
786.558	20386.62
786.891	20252.17
787.224	20172.85
787.557	20127.42
787.891	20037.71
788.224	19974.88
788.557	19987.31
788.89	19959.74
789.223	19932.4
789.556	19714.33
789.888	19717.49
790.221	19609.02
790.554	19471.39
790.887	19536.25
791.219	19392.07
791.552	19396.37
791.884	19210.16
792.217	19183.49
792.549	19123.38
792.882	18999.77
793.214	18950.96
793.546	19029.37
793.879	18851.3
794.211	18739.66
794.543	18798.64
794.875	18707.12
795.207	18863.5
795.539	18691.53
795.871	18651.3
796.203	18456.73
796.535	18431.2
796.867	18403.17
797.198	18314.14
797.53	18118.21
797.862	18205.44
798.193	18161.37
798.525	18023.98
798.856	18043.86
799.188	17842.96
799.519	17870.98
799.85	17725.23
800.182	17730.88
800.513	17735.4
800.844	17625.79
801.175	17627.38
801.506	17617.43
801.837	17470.09
802.168	17479.81
802.499	17415.63
802.83	17336.54
803.161	17272.58
803.491	17239.36
803.822	17185.13
804.153	17186.48
804.483	17003.66
804.814	16868.98
805.145	16977
805.475	16934.29
805.805	16792.6
806.136	16811.13
806.466	16770.45
806.796	16798.47
807.126	16694.29
807.457	16663.56
807.787	16546.05
808.117	16471.47
808.447	16372.95
808.777	16538.36
809.107	16466.73
809.436	16317.58
809.766	16291.37
810.096	16296.34
810.426	16164.82
810.755	16155.55
811.085	16035.78
811.414	16108.77
811.744	15979.51
812.073	15958.72
812.403	15963.24
812.732	15940.64
813.061	15902
813.39	15863.13
813.719	15799.17
814.049	15846.41
814.378	15775.22
814.707	15691.16
815.036	15641.89
815.365	15580.2
815.693	15385.4
816.022	15477.6
816.351	15422.24
816.68	15320.09
817.008	15373.88
817.337	15201.45
817.665	15179.3
817.994	15252.3
818.322	15212.98
818.651	15014.79
818.979	14993.32
819.307	15153.77
819.636	15056.37
819.964	15098.85
820.292	15023.15
820.62	15003.26
820.948	14924.4
821.276	14976.82
821.604	14948.58
821.932	14855.7
822.259	14927.33
822.587	14867.22
822.915	14891.18
823.243	14973.89
823.57	14887.56
823.898	14906.09
824.225	14825.19
824.553	14853.21
824.88	14820.22
825.207	14885.98
825.535	14831.97
825.862	14955.58
826.189	14868.35
826.516	14883.27
826.843	14908.58
827.17	14825.19
827.497	14949.71
827.824	14863.61
828.151	14756.72
828.478	14914.68
828.805	14817.73
829.131	14823.61
829.458	14898.41
829.785	14813.66
830.111	14919.65
830.438	14783.38
830.764	14908.12
831.09	14862.48
831.417	14773.44
831.743	14821.8
832.069	14851.63
832.395	14760.56
832.722	14839.88
833.048	14697.28
833.374	14774.34
833.7	14672.42
834.026	14668.13
834.351	14755.13
834.677	14674.46
835.003	14710.84
835.329	14612.31
835.654	14600.56
835.98	14563.95
836.306	14622.48
836.631	14503.62
836.956	14622.48
837.282	14497.97
837.607	14522.37
837.932	14385.2
838.258	14400.79
838.583	14469.27
838.908	14339.55
839.233	14395.6
839.558	14300.46
839.883	14221.14
840.208	14276.96
840.533	14216.39
840.858	14207.8
841.182	14271.53
841.507	14222.27
841.832	14156.28
842.156	14122.83
842.481	14167.35
842.805	14015.27
843.13	14032.22
843.454	14149.5
843.778	13971.43
844.103	13929.85
844.427	13901.37
844.751	13960.58
845.075	13880.81
845.399	13834.71
845.723	13815.05
846.047	13750.64
846.371	13685.78
846.695	13664.99
847.019	13498.9
847.343	13494.6
847.666	13462.29
847.99	13293.48
848.313	13373.7
848.637	13266.13
848.96	13247.15
849.284	13187.49
849.607	13110.88
849.931	13014.84
850.254	12977.1
850.577	12898.46
850.9	12764.9
851.223	12823.89
851.546	12786.6
851.869	12598.58
852.192	12694.17
852.515	12585.25
852.838	12559.26
853.161	12549.77
853.483	12488.53
853.806	12453.5
854.129	12450.79
854.451	12306.61
854.774	12324.46
855.096	12347.51
855.419	12272.04
855.741	12233.84
856.063	12146.39
856.385	12102.32
856.708	12129.21
857.03	12147.52
857.352	12033.4
857.674	11975.77
857.996	11938.26
858.318	11849.67
858.64	12004.92
858.961	11877.24
859.283	11814.87
859.605	11767.64
859.926	11804.48
860.248	11776.68
860.57	11671.6
860.891	11704.14
861.212	11675.67
861.534	11562.9
861.855	11531.72
862.176	11588.21
862.498	11569.23
862.819	11514.09
863.14	11428.44
863.461	11519.06
863.782	11386.64
864.103	11480.64
864.424	11429.12
864.745	11480.64
865.065	11315.45
865.386	11213.08
865.707	11302.12
866.027	11271.16
866.348	11266.64
866.668	11224.61
866.989	11230.48
867.309	11115
867.63	11203.59
867.95	11208.79
868.27	11128.11
868.59	11040.43
868.91	11038.62
869.23	11061.67
869.55	10989.13
869.87	11053.31
870.19	11047.21
870.51	11037.49
870.83	11063.71
871.15	10923.37
871.469	10935.8
871.789	11031.16
872.109	10972.64
872.428	10836.37
872.748	10904.61
873.067	10922.24
873.386	10922.02
873.706	10879.53
874.025	10757.27
874.344	10819.42
874.663	10757.05
874.982	10766.31
875.301	10779.87
875.62	10690.83
875.939	10699.2
876.258	10752.75
876.577	10617.39
876.896	10622.36
877.214	10594.11
877.533	10641.57
877.852	10586.43
878.17	10626.66
878.489	10591.4
878.807	10564.28
879.125	10510.05
879.444	10488.81
879.762	10485.19
880.08	10497.62
880.398	10423.5
880.716	10484.96
881.034	10416.94
881.352	10390.28
881.67	10394.35
881.988	10282.26
882.306	10405.87
882.624	10280.68
882.941	10296.04
883.259	10185.09
883.577	10187.57
883.894	10204.07
884.212	10194.58
884.529	10204.75
884.846	10172.66
885.164	10104.64
885.481	10070.74
885.798	10101.47
886.115	10041.81
886.432	9967.69
886.75	10044.07
887.067	10015.82
887.383	9876.17
887.7	9940.35
888.017	9885.21
888.334	9897.41
888.651	9857.64
888.967	9870.07
889.284	9792.55
889.6	9802.95
889.917	9677.3
890.233	9763.18
890.55	9634.59
890.866	9691.31
891.182	9659
891.498	9582.62
891.815	9561.15
892.131	9537.42
892.447	9506.91
892.763	9445.44
893.079	9456.97
893.395	9468.27
893.71	9433.92
894.026	9397.99
894.342	9388.04
894.657	9276.41
894.973	9305.56
895.289	9308.72
895.604	9219.69
895.92	9255.17
896.235	9178.56
896.55	9155.51
896.865	9126.81
897.181	9023.08
897.496	9143.53
897.811	9063.76
898.126	9022.86
898.441	8977.89
898.756	8906.93
899.071	8908.28
899.386	8882.75
899.7	8812.01
900.015	8779.02
900.33	8706.93
900.644	8728.17
900.959	8768.4
901.273	8712.36
901.588	8638.69
901.902	8649.98
902.216	8583.09
902.531	8586.26
902.845	8547.39
903.159	8489.31
903.473	8433.27
903.787	8454.96
904.101	8326.15
904.415	8412.7
904.729	8377.45
905.042	8336.77
905.356	8280.28
905.67	8280.95
905.984	8245.48
906.297	8188.08
906.611	8149.43
906.924	8123.67
907.237	8084.8
907.551	8048.87
907.864	8065.59
908.177	7975.88
908.491	8003
908.804	7934.3
909.117	7954.18
909.43	7788.76
909.743	7848.42
910.056	7827.86
910.368	7762.32
910.681	7744.7
910.994	7725.49
911.307	7666.06
911.619	7695.89
911.932	7671.48
912.244	7579.5
912.557	7572.5
912.869	7509
913.181	7546.51
913.494	7454.76
913.806	7415.21
914.118	7363.24
914.43	7338.38
914.742	7342.45
915.054	7345.84
915.366	7259.29
915.678	7268.78
915.99	7214.77
916.302	7150.14
916.613	7141.55
916.925	7180.19
917.236	7078.5
917.548	7026.52
917.859	7105.17
918.171	6983.36
918.482	6978.39
918.794	6926.64
919.105	6962.35
919.416	6870.37
919.727	6841.67
920.038	6855
920.349	6824.95
920.66	6777.49
920.971	6790.15
921.282	6721
921.593	6691.84
921.903	6644.16
922.214	6645.29
922.525	6565.75
922.835	6520.1
923.146	6527.55
923.456	6520.77
923.767	6495.01
924.077	6451.17
924.387	6461.57
924.697	6409.37
925.008	6387.45
925.318	6415.47
925.628	6356.03
925.938	6371.17
926.248	6302.7
926.558	6209.14
926.867	6220.22
927.177	6191.29
927.487	6165.3
927.796	6128.92
928.106	6074.46
928.416	6091.41
928.725	6098.41
929.034	5992.43
929.344	6090.28
929.653	5990.17
929.962	5936.38
930.271	5905.2
930.581	5889.38
930.89	5876.5
931.199	5829.95
931.508	5874.46
931.817	5825.43
932.125	5791.08
932.434	5773
932.743	5705.2
933.051	5678.31
933.36	5657.29
933.669	5631.98
933.977	5628.14
934.286	5569.16
934.594	5640.12
934.902	5546.34
935.21	5535.94
935.519	5507.02
935.827	5540.01
936.135	5471.31
936.443	5433.35
936.751	5432.22
937.059	5378.66
937.367	5391.99
937.674	5342.5
937.982	5351.99
938.29	5318.32
938.597	5304.31
938.905	5223.86
939.213	5239.9
939.52	5208.49
939.827	5196.52
940.135	5142.51
940.442	5180.02
940.749	5132.56
941.056	5124.88
941.363	5051.66
941.67	5087.37
941.977	5072.23
942.284	5026.58
942.591	4991.1
942.898	4972.57
943.205	4936.86
943.511	4947.03
943.818	4937.31
944.125	4889.18
944.431	4848.5
944.738	4878.56
945.044	4844.66
945.35	4840.82
945.657	4813.7
945.963	4774.83
946.269	4726.25
946.575	4759.01
946.881	4709.75
947.187	4698.68
947.493	4662.74
947.799	4665.68
948.105	4656.64
948.41	4582.52
948.716	4567.38
949.022	4580.49
949.327	4575.74
949.633	4489.64
949.938	4540.71
950.244	4533.48
950.549	4479.02
950.854	4470.66
951.16	4419.81
951.465	4392.7
951.77	4376.65
952.075	4411.23
952.38	4387.05
952.685	4373.03
952.99	4308.4
953.294	4248.07
953.599	4257.11
953.904	4233.6
954.209	4181.63
954.513	4227.05
954.818	4179.82
955.122	4187.28
955.426	4150.22
955.731	4173.27
956.035	4120.61
956.339	4123.78
956.643	4114.74
956.948	4115.87
957.252	4059.82
957.556	4062.76
957.86	4006.04
958.163	4013.5
958.467	4009.88
958.771	3961.97
959.075	3953.61
959.378	3906.38
959.682	3906.61
959.985	3867.29
960.289	3885.82
960.592	3841.98
960.896	3867.96
961.199	3808.98
961.502	3814.63
961.805	3808.53
962.108	3753.16
962.411	3775.99
962.714	3731.24
963.017	3738.02
963.32	3757.91
963.623	3703.67
963.926	3696.89
964.228	3698.93
964.531	3672.71
964.833	3615.09
965.136	3608.08
965.438	3598.37
965.741	3612.83
966.043	3584.13
966.345	3575.77
966.648	3564.69
966.95	3558.59
967.252	3535.77
967.554	3509.33
967.856	3485.15
968.158	3444.7
968.46	3469.1
968.761	3452.38
969.063	3482.66
969.365	3444.02
969.666	3384.13
969.968	3372.16
970.269	3353.63
970.571	3347.75
970.872	3345.72
971.174	3345.27
971.475	3301.65
971.776	3336.9
972.077	3295.1
972.378	3317.92
972.679	3259.62
972.98	3243.8
973.281	3248.09
973.582	3211.94
973.883	3171.71
974.183	3183.01
974.484	3172.61
974.785	3130.13
975.085	3129
975.386	3147.3
975.686	3118.15
975.986	3087.19
976.287	3073.41
976.587	3088.1
976.887	3044.93
977.187	3081.32
977.487	3042.45
977.787	3004.48
978.087	2987.08
978.387	2993.18
978.687	2986.63
978.987	2981.21
979.286	2971.26
979.586	2901.89
979.885	2914.99
980.185	2910.93
980.484	2895.11
980.784	2887.65
981.083	2865.96
981.382	2842.45
981.682	2877.48
981.981	2808.56
982.28	2837.26
982.579	2818.73
982.878	2808.33
983.177	2774.43
983.475	2757.26
983.774	2749.12
984.073	2750.25
984.372	2742.34
984.67	2712.97
984.969	2733.98
985.267	2736.02
985.566	2695.56
985.864	2669.12
986.162	2664.61
986.461	2643.36
986.759	2659.63
987.057	2611.05
987.355	2611.27
987.653	2589.58
987.951	2600.43
988.249	2599.07
988.547	2619.18
988.844	2585.51
989.142	2545.06
989.44	2536.25
989.737	2553.2
990.035	2496.25
990.332	2502.12
990.63	2501.9
990.927	2492.63
991.224	2479.53
991.521	2455.12
991.819	2449.24
992.116	2440.43
992.413	2420.54
992.71	2352.97
993.006	2402.47
993.303	2408.57
993.6	2355.91
993.897	2363.82
994.193	2388.23
994.49	2365.86
994.787	2357.04
995.083	2325.63
995.379	2309.13
995.676	2291.28
995.972	2312.52
996.268	2261.9
996.565	2267.1
996.861	2249.7
997.157	2230.27
997.453	2204.73
997.749	2221.9
998.044	2203.15
998.34	2173.54
998.636	2185.97
998.932	2191.85
999.227	2187.56
999.523	2147.78
999.818	2169.7
1000.114	2167.44
1000.409	2133.55
1000.704	2096.71
1001	2123.83
1001.295	2089.93
1001.59	2065.3
1001.885	2091.96
1002.18	2054.45
1002.475	2053.32
1002.77	2047.67
1003.065	2028.24
1003.359	2015.36
1003.654	1999.09
1003.949	2010.84
1004.243	1946.43
1004.538	1961.57
1004.832	1973.78
1005.127	1959.09
1005.421	1929.03
1005.715	1952.53
1006.009	1911.18
1006.304	1927.68
1006.598	1922.03
1006.892	1918.86
1007.186	1865.98
1007.48	1892.65
1007.773	1856.94
1008.067	1886.77
1008.361	1851.07
1008.655	1785.98
1008.948	1778.75
1009.242	1819.2
1009.535	1789.37
1009.829	1764.97
1010.122	1748.02
1010.415	1760.22
1010.708	1753.44
1011.001	1728.81
1011.295	1751.86
1011.588	1723.84
1011.881	1722.03
1012.173	1700.34
1012.466	1702.14
1012.759	1719.77
1013.052	1708.7
1013.344	1663.28
1013.637	1698.3
1013.93	1639.32
1014.222	1630.28
1014.514	1630.73
1014.807	1627.12
1015.099	1590.51
1015.391	1608.14
1015.683	1620.56
1015.976	1588.93
1016.268	1565.88
1016.56	1555.93
1016.851	1549.15
1017.143	1539.21
1017.435	1532.88
1017.727	1520.23
1018.018	1498.99
1018.31	1491.08
1018.602	1513.67
1018.893	1484.75
1019.185	1468.03
1019.476	1462.83
1019.767	1414.24
1020.058	1433.45
1020.35	1430.74
1020.641	1402.94
1020.932	1438.87
1021.223	1417.41
1021.514	1382.15
1021.804	1400.68
1022.095	1398.65
1022.386	1381.47
1022.677	1388.25
1022.967	1391.19
1023.258	1365.43
1023.548	1336.5
1023.839	1325.21
1024.129	1312.55
1024.419	1328.37
1024.709	1286.11
1025	1292.89
1025.29	1277.52
1025.58	1287.69
1025.87	1227.81
1026.16	1259.22
1026.449	1262.61
1026.739	1250.18
1027.029	1264.64
1027.319	1249.28
1027.608	1217.86
1027.898	1211.31
1028.187	1212.89
1028.477	1199.33
1028.766	1215.15
1029.055	1188.49
1029.344	1177.64
1029.634	1134.7
1029.923	1177.19
1030.212	1149.84
1030.501	1149.39
1030.79	1157.53
1031.078	1115.27
1031.367	1131.54
1031.656	1099.9
1031.945	1063.29
1032.233	1112.33
1032.522	1118.88
1032.81	1084.99
1033.099	1083.63
1033.387	1086.12
1033.675	1070.97
1033.963	1049.73
1034.251	1038.21
1034.54	1023.07
1034.828	1035.95
1035.116	1065.1
1035.403	1028.72
1035.691	1009.73
1035.979	1025.55
1036.267	1019.22
1036.554	1004.99
1036.842	980.13
1037.129	990.07
1037.417	984.2
1037.704	970.64
1037.992	985.1
1038.279	951.88
1038.566	953.46
1038.853	953.46
1039.14	953.46
