Data from hue_190_FLMS001491_00018.txt Node
Date: Tue Feb 07 16:44:55 GMT 2017
User: dcchb
Spectrometer: FLMS00149
Trigger mode: 0
Integration Time (sec): 2.000000E-2
Scans to average: 10
Electric dark correction enabled: true
Nonlinearity correction enabled: false
Boxcar width: 0
XAxis mode: Wavelengths
Number of Pixels in Spectrum: 2048
>>>>>Begin Spectral Data<<<<<
341.393	-7.67
341.776	-7.67
342.16	-7.67
342.543	-68.68
342.927	-64.16
343.31	-65.07
343.693	-68.68
344.077	-61.91
344.46	-53.54
344.843	-41.57
345.226	-39.08
345.61	-35.24
345.993	-31.17
346.376	-20.1
346.759	12.67
347.142	-0.44
347.525	50.63
347.908	64.87
348.291	67.58
348.674	90.63
349.057	130.41
349.44	125.21
349.823	140.12
350.206	147.35
350.588	191.65
350.971	199.78
351.354	208.14
351.737	232.55
352.119	237.75
352.502	273.91
352.884	280.46
353.267	283.4
353.65	312.1
354.032	283.17
354.414	293.34
354.797	298.76
355.179	323.17
355.562	313.23
355.944	339.67
356.326	317.97
356.709	326.11
357.091	329.27
357.473	342.6
357.855	355.03
358.238	331.98
358.62	334.24
359.002	338.54
359.384	325.43
359.766	354.58
360.148	346.9
360.53	336.73
360.912	333.79
361.294	317.29
361.676	325.43
362.057	338.31
362.439	325.43
362.821	318.65
363.203	338.76
363.584	340.12
363.966	331.3
364.348	316.62
364.729	309.84
365.111	304.41
365.493	326.79
365.874	301.25
366.256	309.16
366.637	309.16
367.019	304.41
367.4	316.62
367.781	324.3
368.163	296.96
368.544	324.75
368.925	289.27
369.306	322.72
369.688	307.58
370.069	328.14
370.45	307.8
370.831	309.61
371.212	305.09
371.593	305.99
371.974	319.33
372.355	311.87
372.736	308.71
373.117	325.43
373.498	314.81
373.879	301.7
374.26	314.13
374.641	313.45
375.021	301.02
375.402	295.6
375.783	302.15
376.163	322.04
376.544	317.07
376.925	305.54
377.305	320.68
377.686	318.2
378.066	301.93
378.447	312.32
378.827	314.13
379.208	313.9
379.588	337.63
379.968	312.32
380.349	335.6
380.729	353.9
381.109	323.62
381.489	336.05
381.87	323.85
382.25	332.43
382.63	321.81
383.01	336.28
383.39	332.89
383.77	323.17
384.15	345.32
384.53	355.49
384.91	335.6
385.29	364.52
385.67	334.02
386.049	362.72
386.429	354.36
386.809	353.68
387.189	320.46
387.568	339.67
387.948	328.59
388.328	350.74
388.707	370.17
389.087	362.94
389.466	352.55
389.846	355.71
390.225	355.49
390.605	356.39
390.984	359.55
391.363	362.72
391.743	377.86
392.122	374.24
392.501	361.13
392.881	368.82
393.26	363.17
393.639	373.56
394.018	352.77
394.397	369.72
394.776	380.8
395.155	380.8
395.534	365.43
395.913	369.04
396.292	375.37
396.671	371.53
397.05	390.74
397.429	387.35
397.808	406.33
398.186	385.54
398.565	395.26
398.944	397.97
399.323	404.3
399.701	420.34
400.08	419.21
400.458	402.04
400.837	409.72
401.215	423.96
401.594	416.05
401.972	420.12
402.351	433.68
402.729	417.4
403.107	422.15
403.486	449.27
403.864	420.57
404.242	432.09
404.62	422.6
404.999	431.42
405.377	433.45
405.755	427.35
406.133	460.12
406.511	456.73
406.889	456.73
407.267	473.9
407.645	478.87
408.023	500.11
408.401	482.71
408.779	468.7
409.156	482.49
409.534	505.09
409.912	495.37
410.29	522.94
410.667	504.18
411.045	531.07
411.422	543.05
411.8	547.12
412.178	552.77
412.555	535.59
412.933	575.37
413.31	576.72
413.687	591.64
414.065	570.62
414.442	582.82
414.819	595.93
415.197	612.43
415.574	633.44
415.951	611.98
416.328	642.26
416.705	653.78
417.082	649.26
417.46	673.44
417.837	686.32
418.214	676.61
418.591	692.65
418.967	689.71
419.344	707.79
419.721	712.09
420.098	718.19
420.475	736.72
420.852	742.82
421.228	739.2
421.605	759.77
421.982	772.88
422.358	786.66
422.735	795.7
423.111	813.33
423.488	834.12
423.864	857.84
424.241	859.88
424.617	881.8
424.994	867.34
425.37	895.13
425.746	887.22
426.123	925.19
426.499	915.92
426.875	943.94
427.251	970.16
427.627	977.62
428.003	993.89
428.379	1028.69
428.756	1016.48
429.132	1005.64
429.507	1019.42
429.883	1042.7
430.259	1044.28
430.635	1077.05
431.011	1054.68
431.387	1083.6
431.763	1111.4
432.138	1136.03
432.514	1144.84
432.89	1156.37
433.265	1181.9
433.641	1220.32
434.016	1239.3
434.392	1272.3
434.767	1292.18
435.143	1280.66
435.518	1301
435.894	1333.09
436.269	1338.06
436.644	1393.65
437.02	1402.92
437.395	1390.71
437.77	1437.49
438.145	1463.03
438.52	1480.43
438.895	1504.83
439.271	1520.65
439.646	1590.03
440.021	1568.79
440.395	1590.03
440.77	1606.07
441.145	1608.79
441.52	1654.43
441.895	1646.98
442.27	1705.51
442.645	1704.83
443.019	1741.89
443.394	1752.06
443.769	1730.82
444.143	1768.33
444.518	1805.16
444.892	1775.79
445.267	1818.95
445.641	1827.08
446.016	1858.04
446.39	1873.86
446.764	1883.13
447.139	1882
447.513	1912.51
447.887	1930.58
448.262	1915.22
448.636	1992.5
449.01	1957.25
449.384	1987.53
449.758	2006.97
450.132	2036.34
450.506	2043.8
450.88	2059.85
451.254	2087.64
451.628	2112.5
452.002	2146.17
452.376	2176
452.75	2186.85
453.123	2185.95
453.497	2216.9
453.871	2247.41
454.244	2276.11
454.618	2293.97
454.992	2335.77
455.365	2298.26
455.739	2389.33
456.112	2436.56
456.486	2448.54
456.859	2432.49
457.232	2478.14
457.606	2505.71
457.979	2572.15
458.352	2573.05
458.725	2628.42
459.099	2648.53
459.472	2688.53
459.845	2745.25
460.218	2731.24
460.591	2761.75
460.964	2745.93
461.337	2823.89
461.71	2888.3
462.083	2915.19
462.456	2939.37
462.829	2980.05
463.201	2998.58
463.574	3009.2
463.947	3070.67
464.32	3128.97
464.692	3135.07
465.065	3167.61
465.438	3263.66
465.81	3292.36
466.183	3342.75
466.555	3397.89
466.928	3411.68
467.3	3425.91
467.672	3470.43
468.045	3576.64
468.417	3587.72
468.789	3611.67
469.161	3648.51
469.534	3751.33
469.906	3782.97
470.278	3814.38
470.65	3897.09
471.022	3902.74
471.394	4013.69
471.766	4077.42
472.138	4097.76
472.51	4171.43
472.882	4287.13
473.253	4260.47
473.625	4351.09
473.997	4483.06
474.369	4518.09
474.74	4569.39
475.112	4631.76
475.484	4663.39
475.855	4798.31
476.227	4843.28
476.598	4956.27
476.97	5012.99
477.341	5164.17
477.713	5185.87
478.084	5256.37
478.455	5396.48
478.827	5445.52
479.198	5608
479.569	5611.62
479.94	5734.55
480.311	5847.77
480.682	5918.95
481.053	6062.68
481.424	6153.52
481.795	6291.15
482.166	6313.75
482.537	6384.93
482.908	6507.41
483.279	6597.81
483.65	6766.62
484.021	6882.32
484.391	6954.41
484.762	7023.11
485.133	7044.8
485.503	7200.73
485.874	7365.7
486.244	7379.93
486.615	7469.65
486.985	7630.32
487.356	7792.35
487.726	7821.28
488.097	8000.48
488.467	8019.01
488.837	8190.53
489.207	8244.77
489.578	8446.57
489.948	8438.44
490.318	8539.22
490.688	8652.44
491.058	8725.89
491.428	8855.15
491.798	8922.94
492.168	9099.66
492.538	9079.1
492.908	9194.12
493.278	9340.11
493.648	9312.31
494.017	9459.2
494.387	9557.5
494.757	9612.42
495.126	9755.92
495.496	9718.85
495.866	9728.12
496.235	9826.65
496.605	9947.1
496.974	9965.85
497.344	10009.02
497.713	10127.66
498.082	10145.51
498.452	10215.11
498.821	10252.17
499.19	10310.25
499.559	10412.85
499.928	10474.09
500.298	10472.96
500.667	10578.04
501.036	10560.64
501.405	10584.14
501.774	10606.29
502.143	10661.2
502.512	10724.25
502.88	10755.89
503.249	10778.71
503.618	10851.71
503.987	10809.22
504.356	10857.81
504.724	10951.59
505.093	10881.08
505.462	11041.31
505.83	11000.18
506.199	11042.21
506.567	11174.86
506.936	11044.47
507.304	11187.29
507.672	11313.39
508.041	11275.2
508.409	11257.12
508.777	11340.96
509.145	11359.94
509.514	11387.29
509.882	11498.24
510.25	11444.91
510.618	11493.5
510.986	11438.81
511.354	11554.06
511.722	11609.2
512.09	11608.3
512.458	11566.26
512.826	11674.28
513.193	11638.13
513.561	11650.78
513.929	11760.38
514.297	11814.17
514.664	11747.28
515.032	11797.22
515.4	11857.33
515.767	11861.62
516.135	11765.81
516.502	11740.5
516.869	11902.07
517.237	11886.93
517.604	11834.73
517.972	11925.58
518.339	12000.15
518.706	11806.71
519.073	11878.35
519.44	11865.24
519.808	12015.52
520.175	11903.43
520.542	11977.55
520.909	12010.55
521.276	11926.93
521.643	12053.93
522.009	12018.46
522.376	12049.19
522.743	12116.08
523.11	12143.2
523.477	12163.54
523.843	12160.15
524.21	12190.65
524.577	12199.24
524.943	12180.26
525.31	12187.72
525.676	12296.87
526.043	12258.67
526.409	12199.24
526.776	12288.5
527.142	12247.15
527.508	12228.62
527.874	12177.77
528.241	12118.79
528.607	12213.7
528.973	12218
529.339	12128.06
529.705	12241.05
530.071	12234.95
530.437	12176.19
530.803	12187.94
531.169	12160.6
531.535	12125.8
531.901	12039.7
532.267	12108.62
532.632	12074.27
532.998	11941.62
533.364	12003.99
533.73	11985.24
534.095	11953.82
534.461	11891.45
534.826	11869.76
535.192	11850.78
535.557	11947.27
535.923	11782.3
536.288	11816.2
536.653	11803.55
537.019	11705.47
537.384	11601.74
537.749	11617.56
538.114	11529.88
538.479	11472.48
538.845	11422.76
539.21	11426.83
539.575	11416.44
539.94	11355.65
540.305	11319.04
540.67	11291.02
541.034	11225.93
541.399	11196.33
541.764	11160.85
542.129	11099.38
542.494	11001.31
542.858	11030.91
543.223	10905.04
543.587	10995.21
543.952	10888.99
544.316	10798.15
544.681	10772.61
545.045	10742.33
545.41	10747.08
545.774	10728.09
546.138	10651.71
546.503	10597.7
546.867	10534.88
547.231	10504.14
547.595	10478.83
547.959	10432.96
548.324	10269.8
548.688	10297.37
549.052	10326.52
549.416	10262.57
549.779	10129.92
550.143	10095.57
550.507	10098.51
550.871	10075.91
551.235	10055.34
551.599	10007.21
551.962	10008.34
552.326	9936.25
552.689	9944.39
553.053	9782.13
553.417	9764.73
553.78	9816.48
554.143	9765.41
554.507	9635.24
554.87	9766.31
555.234	9701.23
555.597	9595.69
555.96	9555.24
556.323	9560.67
556.686	9539.42
557.05	9460.78
557.413	9489.93
557.776	9455.36
558.139	9412.65
558.502	9377.85
558.865	9348.24
559.228	9378.3
559.59	9390.05
559.953	9340.11
560.316	9424.63
560.679	9312.76
561.041	9270.05
561.404	9322.48
561.767	9298.3
562.129	9229.15
562.492	9310.28
562.854	9310.05
563.217	9202.03
563.579	9197.74
563.941	9258.08
564.304	9220.56
564.666	9190.05
565.028	9199.32
565.39	9206.33
565.753	9174.01
566.115	9172.88
566.477	9197.96
566.839	9225.53
567.201	9293.33
567.563	9165.42
567.925	9174.01
568.287	9199.55
568.648	9214.24
569.01	9188.02
569.372	9265.31
569.734	9200.68
570.095	9246.1
570.457	9264.86
570.819	9233.22
571.18	9216.49
571.542	9329.49
571.903	9242.26
572.265	9221.92
572.626	9181.24
572.987	9187.12
573.349	9222.6
573.71	9210.85
574.071	9207.68
574.432	9199.55
574.794	9277.06
575.155	9235.7
575.516	9186.67
575.877	9264.86
576.238	9147.57
576.599	9217.4
576.96	9234.57
577.32	9236.61
577.681	9219.21
578.042	9252.43
578.403	9199.32
578.763	9174.91
579.124	9180.56
579.485	9225.53
579.845	9291.52
580.206	9175.82
580.566	9202.48
580.927	9144.63
581.287	9170.62
581.648	9205.42
582.008	9275.93
582.368	9161.81
582.728	9181.02
583.089	9169.49
583.449	9183.28
583.809	9190.28
584.169	9108.93
584.529	9189.38
584.889	9192.99
585.249	9059.66
585.609	9041.58
585.969	9091.98
586.329	9102.83
586.688	9082.71
587.048	9051.53
587.408	9000
587.768	9026.22
588.127	9010.62
588.487	9009.95
588.846	9066.89
589.206	8970.4
589.565	9022.38
589.925	8983.96
590.284	8980.79
590.643	8984.64
591.003	9027.35
591.362	8958.65
591.721	8937.41
592.08	8974.24
592.44	8923.4
592.799	8943.96
593.158	8913.68
593.517	8919.55
593.876	8945.99
594.235	8969.95
594.593	8935.37
594.952	8934.69
595.311	8880.46
595.67	8930.4
596.029	8921.14
596.387	8911.42
596.746	8903.28
597.104	8885.66
597.463	8851.53
597.822	8878.65
598.18	8938.54
598.538	8842.49
598.897	8875.26
599.255	8816.96
599.613	8940.12
599.972	8837.52
600.33	8938.54
600.688	8869.61
601.046	8949.38
601.404	8857.41
601.762	8883.62
602.12	8832.1
602.478	8896.5
602.836	8852.21
603.194	8729.73
603.552	8792.1
603.91	8805.66
604.268	8847.47
604.625	8798.88
604.983	8836.62
605.341	8760.69
605.698	8788.26
606.056	8876.62
606.413	8750.97
606.771	8756.17
607.128	8871.19
607.485	8783.06
607.843	8815.38
608.2	8819.67
608.557	8853.57
608.914	8842.95
609.272	8816.73
609.629	8885.66
609.986	8863.28
610.343	8847.47
610.7	8878.65
611.057	8869.61
611.414	8921.81
611.771	8864.41
612.127	8901.25
612.484	8860.35
612.841	8913
613.198	8913.23
613.554	8932.43
613.911	8940.57
614.267	8957.29
614.624	8936.28
614.98	8858.09
615.337	8889.72
615.693	8906.45
616.05	8899.67
616.406	8926.79
616.762	8896.05
617.118	8950.51
617.475	9018.53
617.831	8934.02
618.187	8944.41
618.543	8887.24
618.899	8933.56
619.255	8993.9
619.611	9008.36
619.967	9022.15
620.323	9042.94
620.678	8967.24
621.034	8897.63
621.39	8924.3
621.746	9004.98
622.101	9076.16
622.457	8953.68
622.812	9005.65
623.168	9025.09
623.523	8961.59
623.879	9054.69
624.234	9013.56
624.589	8994.58
624.945	8990.74
625.3	9017.63
625.655	9037.97
626.01	9045.88
626.365	8966.33
626.72	8990.51
627.075	8984.41
627.43	8965.2
627.785	9020.34
628.14	8977.18
628.495	8961.13
628.85	8955.03
629.205	8958.2
629.559	8958.2
629.914	8894.24
630.269	8929.04
630.623	8938.76
630.978	8866.22
631.332	8892.21
631.687	8917.52
632.041	8881.81
632.396	8908.25
632.75	8856.05
633.104	8928.14
633.459	8866.22
633.813	8854.92
634.167	8847.47
634.521	8854.47
634.875	8816.05
635.229	8845.21
635.583	8771.31
635.937	8722.5
636.291	8773.12
636.645	8726.34
636.999	8760.91
637.352	8758.88
637.706	8694.25
638.06	8760.24
638.413	8719.33
638.767	8685.89
639.121	8667.58
639.474	8627.58
639.828	8646.34
640.181	8619.22
640.534	8636.62
640.888	8647.7
641.241	8596.4
641.594	8602.05
641.947	8593.91
642.301	8592.33
642.654	8529.51
643.007	8661.93
643.36	8620.8
643.713	8543.52
644.066	8622.39
644.419	8487.25
644.771	8492.45
645.124	8459.23
645.477	8389.4
645.83	8341.72
646.182	8321.83
646.535	8292.45
646.888	8218.56
647.24	8317.54
647.593	8332.22
647.945	8218.56
648.298	8248.84
648.65	8233.47
649.002	8294.71
649.355	8327.7
649.707	8271.44
650.059	8292.23
650.411	8412.22
650.763	8454.26
651.115	8513.69
651.467	8452.22
651.819	8460.58
652.171	8425.33
652.523	8415.16
652.875	8494.71
653.227	8481.83
653.578	8559.11
653.93	8493.8
654.282	8423.97
654.633	8425.33
654.985	8437.08
655.337	8498.77
655.688	8447.7
656.039	8454.03
656.391	8504.42
656.742	8442.5
657.094	8470.53
657.445	8471.2
657.796	8473.24
658.147	8483.86
658.498	8475.5
658.849	8491.54
659.2	8416.74
659.551	8442.28
659.902	8494.03
660.253	8435.5
660.604	8555.95
660.955	8468.94
661.306	8501.71
661.656	8510.52
662.007	8529.51
662.358	8509.62
662.708	8509.85
663.059	8557.76
663.409	8473.24
663.76	8522.05
664.11	8523.86
664.461	8480.92
664.811	8563.18
665.161	8536.51
665.511	8573.35
665.862	8539.68
666.212	8538.32
666.562	8452.45
666.912	8502.16
667.262	8502.16
667.612	8518.89
667.962	8515.72
668.312	8546
668.662	8531.99
669.011	8480.02
669.361	8499.45
669.711	8532.22
670.06	8507.14
670.41	8404.54
670.76	8508.49
671.109	8559.11
671.459	8444.54
671.808	8487.93
672.157	8490.64
672.507	8407.93
672.856	8401.6
673.205	8450.64
673.554	8498.77
673.904	8424.65
674.253	8483.63
674.602	8455.39
674.951	8283.64
675.3	8266.92
675.649	8383.52
675.998	8423.75
676.346	8397.99
676.695	8430.98
677.044	8356.86
677.393	8402.28
677.741	8387.59
678.09	8396.63
678.438	8263.07
678.787	8344.2
679.135	8322.28
679.484	8252.23
679.832	8288.38
680.181	8157.99
680.529	8279.12
680.877	8261.72
681.225	8181.04
681.573	8286.35
681.922	8192.34
682.27	8175.17
682.618	8178.33
682.966	8089.07
683.314	8200.02
683.661	8157.99
684.009	8096.07
684.357	8089.74
684.705	8068.5
685.053	8099.91
685.4	8082.97
685.748	8014.72
686.095	8098.78
686.443	7952.8
686.79	7972.01
687.138	7986.24
687.485	7975.17
687.832	7915.96
688.18	7935.4
688.527	7940.14
688.874	7884.1
689.221	7894.04
689.568	7840.94
689.915	7806.36
690.262	7766.59
690.609	7648.4
690.956	7751.67
691.303	7739.92
691.65	7694.5
691.997	7710.55
692.344	7653.15
692.69	7601.85
693.037	7631
693.383	7428.07
693.73	7539.48
694.077	7483.21
694.423	7501.06
694.769	7470.55
695.116	7466.26
695.462	7410.89
695.808	7379.93
696.155	7363.66
696.501	7278.69
696.847	7348.3
697.193	7240.73
697.539	7253.61
697.885	7230.56
698.231	7177.68
698.577	7205.25
698.923	7159.15
699.269	7130.22
699.614	7048.87
699.96	7057.46
700.306	6997.34
700.651	7002.32
700.997	7009.55
701.342	6968.87
701.688	6925.48
702.033	6928.87
702.379	6904.92
702.724	6811.81
703.069	6859.27
703.415	6797.35
703.76	6788.54
704.105	6759.84
704.45	6753.28
704.795	6729.78
705.14	6680.74
705.485	6747.18
705.83	6603.91
706.175	6670.57
706.52	6673.74
706.865	6638.94
707.209	6634.42
707.554	6562.55
707.899	6592.38
708.243	6501.54
708.588	6518.26
708.932	6513.29
709.277	6514.65
709.621	6485.04
709.966	6452.95
710.31	6459.28
710.654	6395.78
710.998	6424.25
711.342	6424.48
711.687	6365.5
712.031	6297.48
712.375	6322.56
712.719	6344.25
713.063	6355.78
713.407	6309.68
713.75	6315.1
714.094	6280.75
714.438	6280.75
714.782	6303.58
715.125	6245.27
715.469	6239.4
715.812	6247.53
716.156	6207.76
716.499	6145.84
716.843	6219.06
717.186	6171.38
717.53	6187.2
717.873	6190.81
718.216	6132.96
718.559	6142
718.902	6122.79
719.246	6082.57
719.589	6099.06
719.932	6086.86
720.275	6094.32
720.617	6095.22
720.96	6060.65
721.303	6098.16
721.646	6109.23
721.989	6003.92
722.331	6058.84
722.674	6110.36
723.016	6064.71
723.359	6059.97
723.701	6038.73
724.044	6022.45
724.386	5990.37
724.729	6035.79
725.071	5963.93
725.413	6018.16
725.755	5991.27
726.097	6003.47
726.439	5935.45
726.782	5965.73
727.124	5972.74
727.465	5991.04
727.807	5963.25
728.149	5967.54
728.491	5977.71
728.833	5953.98
729.175	5969.12
729.516	6000.53
729.858	5944.26
730.199	5963.47
730.541	5958.95
730.882	5983.81
731.224	5982.46
731.565	5963.93
731.906	5963.7
732.248	5941.33
732.589	5910.14
732.93	5958.5
733.271	5935.9
733.612	5981.1
733.953	5958.28
734.294	5919.63
734.635	5940.2
734.976	5955.11
735.317	5865.4
735.658	5946.3
735.999	6030.36
736.339	6006.41
736.68	6018.61
737.021	6002.79
737.361	5966.64
737.702	5985.62
738.042	5999.4
738.383	6014.09
738.723	6018.39
739.063	6013.87
739.404	6048.44
739.744	5965.51
740.084	6001.66
740.424	6063.36
740.764	6054.09
741.104	6104.71
741.444	6084.15
741.784	6131.83
742.124	6082.79
742.464	6112.4
742.804	6132.28
743.143	6131.6
743.483	6156.01
743.823	6165.28
744.162	6225.39
744.502	6256.57
744.841	6206.4
745.181	6313.97
745.52	6255.89
745.86	6372.28
746.199	6395.55
746.538	6433.29
746.877	6470.8
747.216	6536.34
747.556	6603.68
747.895	6578.82
748.234	6641.65
748.573	6705.37
748.911	6756.9
749.25	6842.77
749.589	6853.85
749.928	6887.74
750.267	6958.02
750.605	6998.7
750.944	7139.49
751.283	7169.09
751.621	7288.64
751.96	7348.3
752.298	7433.94
752.636	7484.56
752.975	7559.82
753.313	7639.14
753.651	7810.66
753.989	7958.45
754.327	8018.33
754.666	8096.75
755.004	8206.35
755.342	8393.47
755.679	8468.94
756.017	8606.34
756.355	8779.44
756.693	8847.69
757.031	9094.24
757.368	9141.24
757.706	9352.99
758.044	9466.66
758.381	9565.41
758.719	9751.62
759.056	9965.18
759.394	10036.81
759.731	10199.07
760.068	10413.07
760.405	10528.55
760.743	10626.18
761.08	10872.72
761.417	11037.92
761.754	11199.27
762.091	11412.14
762.428	11566.49
762.765	11640.39
763.102	11861.62
763.438	11978.91
763.775	12167.38
764.112	12442.17
764.449	12582.51
764.785	12697.31
765.122	12863.86
765.458	13026.11
765.795	13214.36
766.131	13431.53
766.467	13638.53
766.804	13646.21
767.14	13819.31
767.476	14029.48
767.812	14065.63
768.148	14283.93
768.485	14400.54
768.821	14610.7
769.157	14615.22
769.492	14785.39
769.828	14996
770.164	14975.89
770.5	15124.36
770.836	15330.46
771.171	15342.89
771.507	15516.22
771.842	15534.29
772.178	15659.94
772.513	15763.67
772.849	15858.35
773.184	15968.41
773.519	16110.78
773.855	16141.51
774.19	16182.41
774.525	16295.63
774.86	16511.22
775.195	16485
775.53	16573.14
775.865	16525.68
776.2	16553.25
776.535	16565.45
776.87	16783.53
777.205	16834.6
777.539	16857.42
777.874	16847.48
778.209	16691.1
778.543	17007.48
778.878	16926.12
779.212	16987.59
779.547	16952.56
779.881	17074.14
780.215	17087.47
780.55	17254.02
780.884	17167.47
781.218	17175.83
781.552	17281.14
781.886	17171.09
782.22	17225.32
782.554	17180.35
782.888	17104.2
783.222	17142.61
783.556	17105.1
783.889	17125.44
784.223	17132.45
784.557	17054.71
784.89	17203.63
785.224	17172.67
785.557	17012.22
785.891	17178.32
786.224	17125.44
786.558	17161.14
786.891	17040.7
787.224	17099.9
787.557	17060.36
787.891	17071.2
788.224	17140.13
788.557	17183.97
788.89	17066.23
789.223	17131.32
789.556	17018.1
789.888	17044.09
790.221	17014.26
790.554	16880.47
790.887	16929.51
791.219	16866.01
791.552	16934.48
791.884	16826.01
792.217	16809.06
792.549	16874.6
792.882	16708.28
793.214	16730.42
793.546	16853.13
793.879	16646.13
794.211	16570.65
794.543	16729.74
794.875	16616.98
795.207	16712.57
795.539	16623.31
795.871	16541.27
796.203	16461.95
796.535	16418.79
796.867	16391.9
797.198	16433.03
797.53	16348.96
797.862	16241.17
798.193	16284.11
798.525	16175.41
798.856	16293.6
799.188	16056.09
799.519	16211.57
799.85	15896.77
800.182	16034.62
800.513	16049.31
800.844	15913.49
801.175	16043.66
801.506	15969.09
801.837	15878.92
802.168	15837.11
802.499	15864
802.83	15710.56
803.161	15683.9
803.491	15740.84
803.822	15659.04
804.153	15668.08
804.483	15529.1
804.814	15522.54
805.145	15532.49
805.475	15513.5
805.805	15440.51
806.136	15529.1
806.466	15496.33
806.796	15459.49
807.126	15244.81
807.457	15284.81
807.787	15311.7
808.117	15251.59
808.447	15197.81
808.777	15326.39
809.107	15141.08
809.436	15111.48
809.766	15096.34
810.096	15019.05
810.426	14985.83
810.755	15104.02
811.085	15011.14
811.414	14966.85
811.744	14844.14
812.073	14880.53
812.403	14932.95
812.732	14871.26
813.061	14818.38
813.39	14776.35
813.719	14758.95
814.049	14808.21
814.378	14782.45
814.707	14716.01
815.036	14652.74
815.365	14655.45
815.693	14525.96
816.022	14564.83
816.351	14438.73
816.68	14418.17
817.008	14510.82
817.337	14325.06
817.665	14286.64
817.994	14386.08
818.322	14414.78
818.651	14292.07
818.979	14254.55
819.307	14341.33
819.636	14260.43
819.964	14272.63
820.292	14310.37
820.62	14293.65
820.948	14178.85
821.276	14251.62
821.604	14154.44
821.932	14251.39
822.259	14252.29
822.587	14258.17
822.915	14168.91
823.243	14198.28
823.57	14122.81
823.898	14223.59
824.225	14155.8
824.553	14219.98
824.88	14250.94
825.207	14290.71
825.535	14237.15
825.862	14241.9
826.189	14127.1
826.516	14255.68
826.843	14232.41
827.17	14276.7
827.497	14200.09
827.824	14233.54
828.151	14379.07
828.478	14250.49
828.805	14259.53
829.131	14223.59
829.458	14177.95
829.785	14139.98
830.111	14202.8
830.438	14252.07
830.764	14282.8
831.09	14288
831.417	14179.08
831.743	14264.95
832.069	14234.89
832.395	14139.53
832.722	14169.13
833.048	14202.13
833.374	14173.2
833.7	14102.69
834.026	14201.67
834.351	14133.88
834.677	14085.52
835.003	14165.29
835.329	14063.6
835.654	14029.7
835.98	14025.63
836.306	14017.72
836.631	14073.09
836.956	14141.79
837.282	14080.55
837.607	13979.76
837.932	13914.68
838.258	13904.96
838.583	13834
838.908	13860.67
839.233	13910.83
839.558	13882.81
839.883	13771.86
840.208	13774.34
840.533	13783.38
840.858	13734.79
841.182	13779.54
841.507	13719.88
841.832	13590.62
842.156	13634.68
842.481	13609.83
842.805	13598.98
843.13	13602.37
843.454	13594.46
843.778	13522.37
844.103	13513.33
844.427	13459.55
844.751	13443.5
845.075	13360.79
845.399	13329.16
845.723	13271.3
846.047	13380.23
846.371	13263.39
846.695	13264.75
847.019	13092.78
847.343	13114.7
847.666	12975.49
847.99	12938.43
848.313	12969.84
848.637	12922.84
848.96	12856.63
849.284	12723.52
849.607	12735.72
849.931	12646.69
850.254	12627.25
850.577	12512.23
850.9	12457.31
851.223	12523.07
851.546	12410.31
851.869	12318.11
852.192	12375.06
852.515	12282.86
852.838	12254.61
853.161	12199.92
853.483	12240.37
853.806	12075.85
854.129	12046.25
854.451	12042.64
854.774	11982.98
855.096	11897.78
855.419	11922.64
855.741	11927.16
856.063	11846.48
856.385	11916.54
856.708	11731.23
857.03	11747.28
857.352	11761.51
857.674	11727.84
857.996	11621.86
858.318	11607.62
858.64	11637.9
858.961	11593.83
859.283	11553.83
859.605	11493.05
859.926	11415.08
860.248	11425.48
860.57	11363.78
860.891	11331.92
861.212	11371.92
861.534	11311.58
861.855	11279.49
862.176	11267.74
862.498	11232.04
862.819	11231.13
863.14	11235.2
863.461	11143.9
863.782	11149.78
864.103	11041.31
864.424	11041.98
864.745	11120.4
865.065	11065.71
865.386	11021.42
865.707	11033.4
866.027	11036.56
866.348	10949.78
866.668	10878.6
866.989	11010.57
867.309	10866.62
867.63	10818.26
867.95	10879.73
868.27	10843.8
868.59	10785.95
868.91	10853.51
869.23	10881.76
869.55	10789.33
869.87	10757.7
870.19	10797.92
870.51	10813.29
870.83	10731.48
871.15	10727.87
871.469	10729.45
871.789	10710.24
872.109	10721.99
872.428	10611.03
872.748	10629.57
873.067	10553.63
873.386	10584.37
873.706	10630.92
874.025	10523.35
874.344	10557.93
874.663	10585.72
874.982	10525.61
875.301	10493.52
875.62	10417.14
875.939	10447.65
876.258	10491.04
876.577	10425.28
876.896	10482.45
877.214	10392.74
877.533	10381.66
877.852	10381.21
878.17	10316.13
878.489	10356.58
878.807	10307.54
879.125	10306.64
879.444	10254.21
879.762	10286.07
880.08	10318.61
880.398	10192.74
880.716	10238.84
881.034	10241.1
881.352	10262.57
881.67	10124.95
881.988	10164.27
882.306	10122.46
882.624	10089.69
882.941	10014.89
883.259	9991.84
883.577	10007.43
883.894	9975.8
884.212	10006.76
884.529	9980.54
884.846	9959.53
885.164	9901
885.481	9838.17
885.798	9898.96
886.115	9811.28
886.432	9782.13
886.75	9788.01
887.067	9766.31
887.383	9682.02
887.7	9764.5
888.017	9656.03
888.334	9719.31
888.651	9716.82
888.967	9694.67
889.284	9581.23
889.6	9614.22
889.917	9529.93
890.233	9574.45
890.55	9500.78
890.866	9548.92
891.182	9510.27
891.498	9386.66
891.815	9390.05
892.131	9361.58
892.447	9297.85
892.763	9234.57
893.079	9255.59
893.395	9218.3
893.71	9232.54
894.026	9177.4
894.342	9160.68
894.657	9084.07
894.973	8993.68
895.289	9090.17
895.604	9007.46
895.92	8939.67
896.235	8898.54
896.55	8907.8
896.865	8864.64
897.181	8878.88
897.496	8841.82
897.811	8826.9
898.126	8817.41
898.441	8691.54
898.756	8714.59
899.071	8649.73
899.386	8724.08
899.7	8621.26
900.015	8516.63
900.33	8513.24
900.644	8505.78
900.959	8496.97
901.273	8472.33
901.588	8449.74
901.902	8385.56
902.216	8339.68
902.531	8367.03
902.845	8302.39
903.159	8247.48
903.473	8228.27
903.787	8187.37
904.101	8145.56
904.415	8129.97
904.729	8150.08
905.042	8048.62
905.356	8028.5
905.67	8078.22
905.984	7969.07
906.297	7941.05
906.611	7958
906.924	7896.08
907.237	7910.09
907.551	7859.92
907.864	7885.23
908.177	7805.23
908.491	7800.04
908.804	7685.01
909.117	7704.44
909.43	7650.43
909.743	7543.77
910.056	7568.63
910.368	7574.05
910.681	7540.83
910.994	7473.94
911.307	7493.38
911.619	7463.55
911.932	7433.72
912.244	7322.53
912.557	7332.25
912.869	7255.87
913.181	7230.33
913.494	7227.39
913.806	7158.92
914.118	7213.61
914.43	7174.06
914.742	7174.51
915.054	7098.13
915.366	7081.18
915.678	7031.69
915.99	7033.05
916.302	6998.25
916.613	6986.27
916.925	6972.26
917.236	6887.52
917.548	6900.85
917.859	6857.01
918.171	6819.04
918.482	6749.67
918.794	6765.03
919.105	6746.05
919.416	6690.23
919.727	6708.76
920.038	6644.81
920.349	6601.87
920.66	6579.5
920.971	6598.71
921.282	6584.7
921.593	6487.3
921.903	6490.01
922.214	6470.13
922.525	6431.48
922.835	6451.37
923.146	6377.93
923.456	6391.48
923.767	6347.19
924.077	6346.06
924.387	6303.13
924.697	6260.19
925.008	6247.31
925.318	6211.15
925.628	6178.61
925.938	6184.03
926.248	6113.53
926.558	6132.51
926.867	6090.25
927.177	6085.5
927.487	6052.28
927.796	5980.87
928.106	5980.87
928.416	5998.95
928.725	5918.73
929.034	5918.73
929.344	5925.51
929.653	5912.85
929.962	5838.5
930.271	5796.7
930.581	5802.57
930.89	5789.01
931.199	5756.92
931.508	5742.91
931.817	5672.41
932.125	5747.89
932.434	5707.66
932.743	5682.12
933.051	5652.75
933.36	5606.19
933.669	5554.44
933.977	5626.53
934.286	5539.53
934.594	5519.42
934.902	5492.98
935.21	5428.57
935.519	5426.54
935.827	5431.96
936.135	5381.79
936.443	5368.46
936.751	5368.23
937.059	5308.8
937.367	5358.52
937.674	5323.94
937.982	5255.02
938.29	5198.97
938.597	5273.1
938.905	5156.49
939.213	5203.49
939.52	5154
939.827	5134.12
940.135	5091.63
940.442	5040.11
940.749	5076.04
941.056	5088.02
941.363	4994.91
941.67	4980
941.977	4931.18
942.284	4946.55
942.591	4905.2
942.898	4918.53
943.205	4914.01
943.511	4877.17
943.818	4842.6
944.125	4845.08
944.431	4806.67
944.738	4774.58
945.044	4752.43
945.35	4722.83
945.657	4708.59
945.963	4705.88
946.269	4672.66
946.575	4678.54
946.881	4635.15
947.187	4627.24
947.493	4613.9
947.799	4579.78
948.105	4539.1
948.41	4547.01
948.716	4517.86
949.022	4498.88
949.327	4529.39
949.633	4441.03
949.938	4470.86
950.244	4468.15
950.549	4356.51
950.854	4344.98
951.16	4381.82
951.465	4324.19
951.77	4340.24
952.075	4340.92
952.38	4286.91
952.685	4294.14
952.99	4280.58
953.294	4232.45
953.599	4202.16
953.904	4237.87
954.209	4192.45
954.513	4177.31
954.818	4118.78
955.122	4153.58
955.426	4117.42
955.731	4100.25
956.035	4069.51
956.339	4010.76
956.643	4044.65
956.948	3996.97
957.252	4041.49
957.556	3977.08
957.86	3989.06
958.163	3964.88
958.467	3966.24
958.771	3935.05
959.075	3946.8
959.378	3885.11
959.682	3876.75
959.985	3861.38
960.289	3847.82
960.592	3839.69
960.896	3830.2
961.199	3768.5
961.502	3765.11
961.805	3803.76
962.108	3734.83
962.411	3731.44
962.714	3702.97
963.017	3655.51
963.32	3711.55
963.623	3673.82
963.926	3648.73
964.228	3631.78
964.531	3576.64
964.833	3599.69
965.136	3570.99
965.438	3564.44
965.741	3560.15
966.043	3571.67
966.345	3512.69
966.648	3498.68
966.95	3512.01
967.252	3498.68
967.554	3440.38
967.856	3494.39
968.158	3384.33
968.46	3399.47
968.761	3393.15
969.063	3414.84
969.365	3355.41
969.666	3366.93
969.968	3358.57
970.269	3335.29
970.571	3319.25
970.872	3328.51
971.174	3298.01
971.475	3284.22
971.776	3281.06
972.077	3232.02
972.378	3207.39
972.679	3216.43
972.98	3205.58
973.281	3218.01
973.582	3225.69
973.883	3143.43
974.183	3115.86
974.484	3140.72
974.785	3102.76
975.085	3126.94
975.386	3113.6
975.686	3085.81
975.986	3052.36
976.287	3081.06
976.587	3018.92
976.887	3049.65
977.187	3022.08
977.487	2986.38
977.787	2981.4
978.087	3028.41
978.387	2979.37
978.687	2972.59
978.987	2938.24
979.286	2899.37
979.586	2912.71
979.885	2898.24
980.185	2872.48
980.484	2850.79
980.784	2866.83
981.083	2876.77
981.382	2845.14
981.682	2831.8
981.981	2849.2
982.28	2814.63
982.579	2811.69
982.878	2786.38
983.177	2746.61
983.475	2738.02
983.774	2736.89
984.073	2719.49
984.372	2710.45
984.67	2749.77
984.969	2693.05
985.267	2687.18
985.566	2685.82
985.864	2642.66
986.162	2642.88
986.461	2591.36
986.759	2648.76
987.057	2580.29
987.355	2582.32
987.653	2542.09
987.951	2595.43
988.249	2575.54
988.547	2559.49
988.844	2562.43
989.142	2533.96
989.44	2489.89
989.737	2501.87
990.035	2464.13
990.332	2488.76
990.63	2454.64
990.927	2404.02
991.224	2463.45
991.521	2430.46
991.819	2397.01
992.116	2396.11
992.413	2384.81
992.71	2375.54
993.006	2365.6
993.303	2348.65
993.6	2364.47
993.897	2292.84
994.193	2377.8
994.49	2315.66
994.787	2284.25
995.083	2284.47
995.379	2323.12
995.676	2298.26
995.972	2253.51
996.268	2263.91
996.565	2230.69
996.861	2240.63
997.157	2223.46
997.453	2213.74
997.749	2208.32
998.044	2198.6
998.34	2184.59
998.636	2141.43
998.932	2151.82
999.227	2152.05
999.523	2148.43
999.818	2128.77
1000.114	2119.05
1000.409	2123.8
1000.704	2064.37
1001	2088.55
1001.295	2055.55
1001.59	2050.81
1001.885	2024.14
1002.18	2037.93
1002.475	2024.59
1002.77	1986.4
1003.065	2024.59
1003.359	1985.72
1003.654	1979.4
1003.949	1968.1
1004.243	1959.96
1004.538	1920.42
1004.832	1952.73
1005.127	1944.82
1005.421	1902.56
1005.715	1902.79
1006.009	1901.66
1006.304	1849.01
1006.598	1868.44
1006.892	1867.31
1007.186	1856.46
1007.48	1839.74
1007.773	1829.57
1008.067	1815.11
1008.361	1793.19
1008.655	1786.18
1008.948	1774.88
1009.242	1782.34
1009.535	1784.15
1009.829	1755
1010.122	1745.73
1010.415	1763.58
1010.708	1723.36
1011.001	1724.94
1011.295	1726.07
1011.588	1728.1
1011.881	1681.1
1012.173	1674.32
1012.466	1681.55
1012.759	1672.06
1013.052	1682.68
1013.344	1662.34
1013.637	1630.03
1013.93	1625.96
1014.222	1597.03
1014.514	1590.71
1014.807	1573.31
1015.099	1585.96
1015.391	1581.89
1015.683	1567.88
1015.976	1570.37
1016.268	1554.78
1016.56	1554.78
1016.851	1547.77
1017.143	1514.55
1017.435	1498.28
1017.727	1448.11
1018.018	1499.41
1018.31	1491.5
1018.602	1461.9
1018.893	1440.88
1019.185	1449.92
1019.476	1444.72
1019.767	1452.41
1020.058	1405.63
1020.35	1393.2
1020.641	1393.65
1020.932	1392.07
1021.223	1399.07
1021.514	1395.46
1021.804	1368.34
1022.095	1367.66
1022.386	1359.75
1022.677	1345.52
1022.967	1332.86
1023.258	1306.19
1023.548	1333.31
1023.839	1313.43
1024.129	1262.58
1024.419	1287.89
1024.709	1293.09
1025	1257.16
1025.29	1253.09
1025.58	1273.65
1025.87	1250.15
1026.16	1261.68
1026.449	1235.69
1026.739	1214.9
1027.029	1217.16
1027.319	1229.81
1027.608	1223.94
1027.898	1183.26
1028.187	1180.77
1028.477	1168.12
1028.766	1146.65
1029.055	1154.11
1029.344	1140.78
1029.634	1129.7
1029.923	1137.16
1030.212	1139.42
1030.501	1138.29
1030.79	1098.52
1031.078	1108.69
1031.367	1109.59
1031.656	1121.79
1031.945	1087.44
1032.233	1094.45
1032.522	1077.5
1032.81	1061.68
1033.099	1065.3
1033.387	1062.36
1033.675	1058.52
1033.963	1039.53
1034.251	1034.11
1034.54	1040.66
1034.828	1016.71
1035.116	988.91
1035.403	1006.54
1035.691	981.46
1035.979	1005.86
1036.267	994.11
1036.554	994.34
1036.842	955.47
1037.129	985.07
1037.417	961.34
1037.704	971.97
1037.992	962.02
1038.279	951.4
1038.566	929.03
1038.853	929.03
1039.14	929.03
