Data from hue_170_FLMS001491_00083.txt Node
Date: Tue Feb 07 16:49:18 GMT 2017
User: dcchb
Spectrometer: FLMS00149
Trigger mode: 0
Integration Time (sec): 2.000000E-2
Scans to average: 10
Electric dark correction enabled: true
Nonlinearity correction enabled: false
Boxcar width: 0
XAxis mode: Wavelengths
Number of Pixels in Spectrum: 2048
>>>>>Begin Spectral Data<<<<<
341.393	-11.92
341.776	-11.92
342.16	-11.92
342.543	-65.7
342.927	-58.25
343.31	-93.27
343.693	-67.29
344.077	-68.19
344.46	-47.85
344.843	-43.33
345.226	-45.82
345.61	-43.78
345.993	-2.43
346.376	13.39
346.759	-4.92
347.142	19.49
347.525	38.02
347.908	53.39
348.291	82.99
348.674	99.04
349.057	110.56
349.44	127.96
349.823	129.54
350.206	173.39
350.588	216.55
350.971	219.26
351.354	231.69
351.737	236.66
352.119	241.63
352.502	258.13
352.884	287.28
353.267	278.02
353.65	299.03
354.032	306.04
354.414	326.6
354.797	309.2
355.179	313.72
355.562	328.41
355.944	330.22
356.326	318.24
356.709	352.36
357.091	349.43
357.473	342.42
357.855	342.87
358.238	343.32
358.62	345.36
359.002	338.13
359.384	340.61
359.766	342.19
360.148	331.12
360.53	328.86
360.912	330.22
361.294	310.56
361.676	346.94
362.057	341.52
362.439	323.89
362.821	325.25
363.203	336.54
363.584	319.14
363.966	318.69
364.348	330.22
364.729	336.77
365.111	309.65
365.493	321.63
365.874	322.08
366.256	323.66
366.637	312.59
367.019	323.89
367.4	302.2
367.781	320.5
368.163	305.59
368.544	318.92
368.925	310.1
369.306	343.32
369.688	332.93
370.069	331.8
370.45	322.31
370.831	327.05
371.212	302.87
371.593	320.05
371.974	318.92
372.355	313.95
372.736	331.8
373.117	340.84
373.498	317.79
373.879	331.8
374.26	326.6
374.641	299.26
375.021	307.85
375.402	311.01
375.783	322.53
376.163	298.13
376.544	327.96
376.925	339.03
377.305	329.54
377.686	338.35
378.066	325.47
378.447	351.69
378.827	351.46
379.208	339.93
379.588	318.24
379.968	335.87
380.349	335.87
380.729	338.35
381.109	344.91
381.489	345.13
381.87	341.52
382.25	333.61
382.63	334.74
383.01	359.37
383.39	360.72
383.77	347.39
384.15	359.14
384.53	346.94
384.91	360.95
385.29	340.16
385.67	347.39
386.049	353.04
386.429	358.01
386.809	341.74
387.189	350.78
387.568	350.78
387.948	386.49
388.328	367.28
388.707	354.4
389.087	377.67
389.466	378.8
389.846	354.17
390.225	365.24
390.605	386.04
390.984	397.33
391.363	387.16
391.743	374.74
392.122	387.39
392.501	383.1
392.881	381.29
393.26	373.83
393.639	372.93
394.018	371.57
394.397	391.68
394.776	378.13
395.155	406.15
395.534	403.21
395.913	398.24
396.292	409.54
396.671	387.62
397.05	420.84
397.429	412.93
397.808	403.89
398.186	401.18
398.565	414.73
398.944	409.09
399.323	416.54
399.701	390.78
400.08	411.8
400.458	405.47
400.837	419.03
401.215	424.68
401.594	421.74
401.972	425.13
402.351	437.79
402.729	436.88
403.107	421.51
403.486	445.47
403.864	431.01
404.242	436.43
404.62	441.85
404.999	434.17
405.377	443.43
405.755	429.2
406.133	448.86
406.511	454.51
406.889	462.87
407.267	474.39
407.645	482.76
408.023	502.19
408.401	471.91
408.779	482.53
409.156	511
409.534	504.22
409.912	507.16
410.29	506.94
410.667	499.03
411.045	492.92
411.422	499.93
411.8	521.17
412.178	547.39
412.555	520.27
412.933	528.86
413.31	544.22
413.687	541.74
414.065	551
414.442	570.21
414.819	572.47
415.197	544
415.574	554.84
415.951	582.87
416.328	573.15
416.705	585.58
417.082	583.77
417.46	606.37
417.837	605.92
418.214	586.03
418.591	613.37
418.967	606.37
419.344	609.08
419.721	595.97
420.098	613.83
420.475	623.99
420.852	642.75
421.228	667.61
421.605	660.83
421.982	668.74
422.358	658.57
422.735	684.11
423.111	671.68
423.488	703.99
423.864	687.95
424.241	704.22
424.617	696.31
424.994	696.99
425.37	730.88
425.746	721.17
426.123	732.69
426.499	742.64
426.875	749.19
427.251	747.16
427.627	740.83
428.003	765.01
428.379	780.37
428.756	798.68
429.132	775.86
429.507	815.4
429.883	827.83
430.259	831.9
430.635	816.76
431.011	820.6
431.387	855.85
431.763	832.8
432.138	855.85
432.514	886.81
432.89	881.39
433.265	866.93
433.641	897.21
434.016	922.52
434.392	927.94
434.767	974.49
435.143	938.34
435.518	962.29
435.894	949.64
436.269	989.41
436.644	979.69
437.02	986.25
437.395	1011.56
437.77	1033.48
438.145	1039.35
438.52	1057.2
438.895	1070.31
439.271	1104.21
439.646	1092.01
440.021	1099.01
440.395	1097.88
440.77	1077.77
441.145	1139.24
441.52	1161.83
441.895	1137.65
442.27	1173.81
442.645	1169.29
443.019	1176.97
443.394	1181.04
443.769	1206.35
444.143	1159.35
444.518	1220.82
444.892	1199.35
445.267	1233.92
445.641	1219.46
446.016	1231.66
446.39	1252.68
446.764	1283.64
447.139	1296.97
447.513	1271.66
447.887	1268.27
448.262	1301.04
448.636	1311.66
449.01	1328.16
449.384	1324.77
449.758	1340.81
450.132	1365.22
450.506	1382.84
450.88	1380.13
451.254	1367.7
451.628	1399.79
452.002	1424.65
452.376	1437.76
452.75	1431.88
453.123	1452
453.497	1469.85
453.871	1462.62
454.244	1520.69
454.618	1536.06
454.992	1539.9
455.365	1525.67
455.739	1599.56
456.112	1572.9
456.486	1599.56
456.859	1659.9
457.232	1635.95
457.606	1654.93
457.979	1689.28
458.352	1689.5
458.725	1723.63
459.099	1758.2
459.472	1812.21
459.845	1791.42
460.218	1809.05
460.591	1790.29
460.964	1844.08
461.337	1898.54
461.71	1953.45
462.083	1965.2
462.456	1957.97
462.829	1959.55
463.201	2026.22
463.574	2026.22
463.947	2067.57
464.32	2094.92
464.692	2143.5
465.065	2163.39
465.438	2220.79
465.81	2235.7
466.183	2282.48
466.555	2326.55
466.928	2316.83
467.3	2317.96
467.672	2370.39
468.045	2443.38
468.417	2476.15
468.789	2510.5
469.161	2538.07
469.534	2587.56
469.906	2639.99
470.278	2666.65
470.65	2723.83
471.022	2800.21
471.394	2829.36
471.766	2820.32
472.138	2888.12
472.51	2955.46
472.882	3008.11
473.253	3100.09
473.625	3135.57
473.997	3213.98
474.369	3264.83
474.74	3318.84
475.112	3404.03
475.484	3452.85
475.855	3522.68
476.227	3583.69
476.598	3727.42
476.97	3734.2
477.341	3854.19
477.713	3939.16
478.084	3975.77
478.455	4098.71
478.827	4202.66
479.198	4311.13
479.569	4360.62
479.94	4533.5
480.311	4583.21
480.682	4722.19
481.053	4833.15
481.424	4966.71
481.795	5006.25
482.166	5148.62
482.537	5189.75
482.908	5356.53
483.279	5493.92
483.65	5651.43
484.021	5706.57
484.391	5909.28
484.762	5976.17
485.133	6062.27
485.503	6150.18
485.874	6356.27
486.244	6423.62
486.615	6579.77
486.985	6743.38
487.356	6864.06
487.726	6907.22
488.097	7189.47
488.467	7255.01
488.837	7418.62
489.207	7541.55
489.578	7675.56
489.948	7802.56
490.318	7966.4
490.688	8024.93
491.058	8246.62
491.428	8335.66
491.798	8435.31
492.168	8716.89
492.538	8729.77
492.908	8830.78
493.278	9018.12
493.648	9080.04
494.017	9263.99
494.387	9333.82
494.757	9440.94
495.126	9508.73
495.496	9621.27
495.866	9786.69
496.235	9880.93
496.605	9956.86
496.974	10100.81
497.344	10215.83
497.713	10283.4
498.082	10365.66
498.452	10510.97
498.821	10570.17
499.19	10604.75
499.559	10713.45
499.928	10869.38
500.298	10925.64
500.667	11075.92
501.036	11060.56
501.405	11204.96
501.774	11171.74
502.143	11316.6
502.512	11341
502.88	11450.38
503.249	11378.06
503.618	11560.43
503.987	11613.76
504.356	11680.88
504.724	11766.3
505.093	11776.92
505.462	11854.66
505.83	11951.15
506.199	11959.97
506.567	12058.04
506.936	12170.81
507.304	12241.09
507.672	12222.56
508.041	12304.37
508.409	12456.23
508.777	12464.81
509.145	12521.31
509.514	12509.56
509.882	12667.29
510.25	12657.58
510.618	12703.9
510.986	12696.9
511.354	12849.89
511.722	12858.7
512.09	12937.34
512.458	12874.75
512.826	13048.98
513.193	13005.82
513.561	13035.42
513.929	13088.53
514.297	13161.29
514.664	13255.3
515.032	13275.64
515.4	13280.16
515.767	13351.12
516.135	13327.39
516.502	13380.5
516.869	13454.62
517.237	13378.69
517.604	13446.48
517.972	13521.51
518.339	13580.04
518.706	13568.51
519.073	13600.38
519.44	13647.38
519.808	13638.79
520.175	13639.47
520.542	13820.71
520.909	13807.15
521.276	13734.61
521.643	13847.6
522.009	13935.74
522.376	13893.48
522.743	13982.74
523.11	13981.16
523.477	14091.44
523.843	14116.75
524.21	14216.86
524.577	14177.31
524.943	14190.87
525.31	14186.12
525.676	14275.84
526.043	14229.74
526.409	14309.06
526.776	14443.52
527.142	14278.33
527.508	14388.83
527.874	14509.28
528.241	14484.42
528.607	14352
528.973	14465.44
529.339	14387.7
529.705	14408.04
530.071	14502.95
530.437	14484.87
530.803	14448.94
531.169	14470.86
531.535	14433.58
531.901	14502.5
532.267	14454.14
532.632	14516.74
532.998	14465.66
533.364	14386.12
533.73	14453.46
534.095	14446.23
534.461	14376.63
534.826	14383.86
535.192	14351.09
535.557	14380.92
535.923	14338.44
536.288	14314.71
536.653	14315.84
537.019	14246.91
537.384	14224.77
537.749	14288.04
538.114	14234.26
538.479	14065.68
538.845	14167.14
539.21	14058.44
539.575	14148.16
539.94	14065.9
540.305	14051.66
540.67	13954.49
541.034	13927.15
541.399	13911.33
541.764	13838.34
542.129	13858.68
542.494	13784.1
542.858	13721.28
543.223	13681.28
543.587	13712.01
543.952	13760.37
544.316	13669.98
544.681	13619.59
545.045	13652.8
545.41	13565.35
545.774	13544.79
546.138	13575.74
546.503	13491.23
546.867	13465.24
547.231	13455.52
547.595	13302.53
547.959	13380.04
548.324	13374.62
548.688	13326.94
549.052	13189.77
549.416	13242.42
549.779	13143.67
550.143	13056.21
550.507	13182.31
550.871	13157.22
551.235	12965.37
551.599	13062.54
551.962	12948.19
552.326	12966.04
552.689	12977.12
553.053	12876.55
553.417	12925.59
553.78	13006.95
554.143	12901.19
554.507	12830.45
554.87	12784.35
555.234	12807.4
555.597	12757.46
555.96	12847.85
556.323	12743.22
556.686	12683.56
557.05	12721.98
557.413	12805.82
557.776	12682.43
558.139	12737.57
558.502	12731.02
558.865	12685.37
559.228	12758.14
559.59	12641.98
559.953	12708.2
560.316	12709.1
560.679	12725.15
561.041	12731.7
561.404	12728.08
561.767	12772.6
562.129	12646.73
562.492	12783.68
562.854	12659.84
563.217	12617.35
563.579	12688.31
563.941	12743.45
564.304	12687.63
564.666	12762.43
565.028	12636.79
565.39	12745.26
565.753	12728.54
566.115	12773.28
566.477	12752.04
566.839	12784.13
567.201	12893.05
567.563	12792.49
567.925	12877.23
568.287	12889.89
568.648	12900.96
569.01	12913.16
569.372	12926.72
569.734	12845.82
570.095	12890.57
570.457	12980.96
570.819	12925.14
571.18	12901.86
571.542	12968.76
571.903	12943.44
572.265	13003.33
572.626	13000.39
572.987	12990.9
573.349	12954.52
573.71	13002.65
574.071	12903.22
574.432	12991.35
574.794	13159.48
575.155	13108.41
575.516	12987.96
575.877	13044.69
576.238	13098.02
576.599	13027.51
576.96	13060.28
577.32	13062.54
577.681	13116.55
578.042	13064.12
578.403	13049.2
578.763	13061.63
579.124	12976.44
579.485	13076.77
579.845	13178.24
580.206	13042.65
580.566	13027.06
580.927	13098.47
581.287	13045.59
581.648	13067.28
582.008	13047.4
582.368	13034.52
582.728	13093.95
583.089	12930.79
583.449	13006.04
583.809	13048.3
584.169	12990
584.529	13018.25
584.889	13057.57
585.249	12992.48
585.609	12955.2
585.969	13028.19
586.329	12970.79
586.688	13030.9
587.048	12918.59
587.408	12911.36
587.768	12961.07
588.127	12905.25
588.487	12941.64
588.846	13019.6
589.206	12818.48
589.565	12907.74
589.925	12958.36
590.284	12898.93
590.643	12868.42
591.003	12898.25
591.362	12903.22
591.721	12860.28
592.08	12822.77
592.44	12926.72
592.799	12906.16
593.158	12845.59
593.517	12788.19
593.876	12762.21
594.235	12768.08
594.593	12804.47
594.952	12846.95
595.311	12671.59
595.67	12756.11
596.029	12786.84
596.387	12754.07
596.746	12816.67
597.104	12763.11
597.463	12756.33
597.822	12841.98
598.18	12685.82
598.538	12741.42
598.897	12775.77
599.255	12696.45
599.613	12827.29
599.972	12775.77
600.33	12782.09
600.688	12712.26
601.046	12729.89
601.404	12809.89
601.762	12691.47
602.12	12783.68
602.478	12762.66
602.836	12760.17
603.194	12760.17
603.552	12740.06
603.91	12748.65
604.268	12695.54
604.625	12686.73
604.983	12801.3
605.341	12726.95
605.698	12761.75
606.056	12826.84
606.413	12781.19
606.771	12829.78
607.128	12881.75
607.485	12648.31
607.843	12732.38
608.2	12800.4
608.557	12802.21
608.914	12766.95
609.272	12844.69
609.629	12835.43
609.986	12997.23
610.343	12849.21
610.7	12931.24
611.057	12875.2
611.414	12915.42
611.771	12871.81
612.127	12929.43
612.484	12901.86
612.841	12892.15
613.198	12853.28
613.554	12947.96
613.911	12978.02
614.267	12960.62
614.624	12898.47
614.98	12883.11
615.337	13046.04
615.693	12970.79
616.05	12942.09
616.406	13106.38
616.762	12947.74
617.118	13008.08
617.475	13071.13
617.831	12995.2
618.187	13048.75
618.543	12957.46
618.899	13128.75
619.255	13013.27
619.611	12954.97
619.967	13070.9
620.323	13107.51
620.678	13129.2
621.034	12977.12
621.39	13044.69
621.746	13013.5
622.101	13121.75
622.457	13075.64
622.812	13171.24
623.168	13148.19
623.523	13181.63
623.879	13187.28
624.234	13072.48
624.589	13049.2
624.945	13125.59
625.3	13101.63
625.655	13148.64
626.01	13128.75
626.365	13117.23
626.72	13054.85
627.075	13022.31
627.43	12972.6
627.785	13025.7
628.14	13062.54
628.495	13038.58
628.85	13034.52
629.205	13033.39
629.559	13062.76
629.914	12990.9
630.269	12980.73
630.623	12937.12
630.978	12956.33
631.332	13022.76
631.687	13015.53
632.041	12949.55
632.396	13061.86
632.75	12921.07
633.104	12904.35
633.459	12868.87
633.813	12925.37
634.167	12793.17
634.521	12838.81
634.875	12785.48
635.229	12849.44
635.583	12773.73
635.937	12733.73
636.291	12725.6
636.645	12756.11
636.999	12694.19
637.352	12788.65
637.706	12685.6
638.06	12808.99
638.413	12638.37
638.767	12638.59
639.121	12669.55
639.474	12616.9
639.828	12545.72
640.181	12609.67
640.534	12592.27
640.888	12497.81
641.241	12480.63
641.594	12525.15
641.947	12591.82
642.301	12577.58
642.654	12512.95
643.007	12506.62
643.36	12481.08
643.713	12469.56
644.066	12558.82
644.419	12436.79
644.771	12437.02
645.124	12323.57
645.477	12279.06
645.83	12183.69
646.182	12178.49
646.535	12095.56
646.888	12114.31
647.24	12010.36
647.593	12119.74
647.945	12087.65
648.298	11995.9
648.65	11928.33
649.002	11960.19
649.355	12036.12
649.707	12056.24
650.059	12077.25
650.411	12239.28
650.763	12234.54
651.115	12371.93
651.467	12270.02
651.819	12341.2
652.171	12242.45
652.523	12284.03
652.875	12280.19
653.227	12246.97
653.578	12273.86
653.93	12243.8
654.282	12314.76
654.633	12256.23
654.985	12223.01
655.337	12250.81
655.688	12304.82
656.039	12384.82
656.391	12152.28
656.742	12321.09
657.094	12346.85
657.445	12373.06
657.796	12299.39
658.147	12310.02
658.498	12204.26
658.849	12295.33
659.2	12276.34
659.551	12274.99
659.902	12377.81
660.253	12324.25
660.604	12270.47
660.955	12251.03
661.306	12286.97
661.656	12316.34
662.007	12421.88
662.358	12334.65
662.708	12295.33
663.059	12329
663.409	12206.52
663.76	12332.84
664.11	12430.92
664.461	12355.44
664.811	12384.36
665.161	12380.52
665.511	12314.31
665.862	12357.02
666.212	12385.49
666.562	12425.94
666.912	12421.2
667.262	12452.38
667.612	12422.55
667.962	12295.33
668.312	12414.19
668.662	12512.04
669.011	12363.8
669.361	12353.4
669.711	12327.87
670.06	12365.16
670.41	12383.23
670.76	12281.09
671.109	12378.26
671.459	12397.02
671.808	12248.55
672.157	12301.43
672.507	12234.31
672.856	12258.94
673.205	12205.84
673.554	12354.31
673.904	12274.54
674.253	12332.39
674.602	12248.77
674.951	12097.82
675.3	12081.32
675.649	12170.81
675.998	12168.1
676.346	12205.39
676.695	12212.84
677.044	12130.58
677.393	12150.92
677.741	12165.61
678.09	12105.5
678.438	12080.42
678.787	12050.36
679.135	12072.73
679.484	12008.33
679.832	12037.25
680.181	11985.28
680.529	12049.91
680.877	11970.59
681.225	11993.64
681.573	12065.5
681.922	11989.8
682.27	11906.86
682.618	11835.23
682.966	11869.35
683.314	11764.04
683.661	11787.09
684.009	11779.41
684.357	11734.44
684.705	11686.98
685.053	11782.12
685.4	11659.18
685.748	11550.26
686.095	11663.93
686.443	11574.44
686.79	11503.26
687.138	11586.87
687.485	11619.64
687.832	11500.55
688.18	11492.64
688.527	11490.15
688.874	11442.24
689.221	11389.36
689.568	11398.85
689.915	11302.81
690.262	11306.2
690.609	11278.63
690.956	11221.46
691.303	11178.75
691.65	11112.08
691.997	11239.31
692.344	11065.75
692.69	11061.01
693.037	11047.68
693.383	10935.59
693.73	11054.91
694.077	10950.95
694.423	10871.18
694.769	10862.37
695.116	10739.21
695.462	10823.73
695.808	10714.13
696.155	10793.67
696.501	10716.61
696.847	10692.43
697.193	10647.01
697.539	10585.77
697.885	10561.59
698.231	10528.59
698.577	10463.06
698.923	10444.53
699.269	10411.31
699.614	10297.86
699.96	10256.96
700.306	10257.87
700.651	10277.3
700.997	10284.08
701.342	10200.69
701.688	10138.1
702.033	10082.28
702.379	9992.56
702.724	10021.71
703.069	10032.79
703.415	9909.85
703.76	9946.69
704.105	9948.27
704.45	9928.83
704.795	9832.34
705.14	9804.77
705.485	9733.81
705.83	9725
706.175	9670.08
706.52	9720.03
706.865	9647.03
707.209	9628.96
707.554	9592.12
707.899	9604.55
708.243	9608.17
708.588	9513.03
708.932	9452.24
709.277	9484.55
709.621	9469.41
709.966	9433.25
710.31	9423.76
710.654	9381.28
710.998	9354.84
711.342	9394.61
711.687	9312.81
712.031	9256.31
712.375	9190.32
712.719	9253.82
713.063	9228.97
713.407	9252.47
713.75	9176.76
714.094	9197.33
714.438	9165.24
714.782	9189.42
715.125	9108.07
715.469	9093.15
715.812	9052.47
716.156	9041.63
716.499	9087.28
716.843	9098.35
717.186	8984.9
717.53	9042.53
717.873	9043.66
718.216	9019.03
718.559	8905.81
718.902	8897.68
719.246	8920.73
719.589	8874.85
719.932	8873.95
720.275	8839.37
720.617	8843.89
720.96	8865.13
721.303	8830.33
721.646	8831.91
721.989	8763.22
722.331	8866.72
722.674	8824.91
723.016	8770.22
723.359	8807.96
723.701	8803.44
724.044	8731.58
724.386	8713.73
724.729	8711.01
725.071	8680.51
725.413	8770.9
725.755	8739.49
726.097	8656.78
726.439	8595.54
726.782	8643.22
727.124	8681.64
727.465	8659.04
727.807	8672.82
728.149	8674.86
728.491	8660.39
728.833	8661.52
729.175	8621.07
729.516	8645.03
729.858	8662.2
730.199	8594.41
730.541	8620.17
730.882	8568.42
731.224	8627.4
731.565	8593.95
731.906	8583.56
732.248	8578.14
732.589	8524.58
732.93	8556.89
733.271	8588.31
733.612	8585.37
733.953	8589.66
734.294	8574.75
734.635	8564.8
734.976	8569.1
735.317	8547.85
735.658	8530.45
735.999	8535.88
736.339	8617.68
736.68	8609.55
737.021	8583.33
737.361	8559.61
737.702	8576.55
738.042	8530.45
738.383	8600.73
738.723	8605.93
739.063	8621.3
739.404	8650.45
739.744	8658.36
740.084	8585.37
740.424	8631.69
740.764	8671.24
741.104	8714.63
741.444	8672.14
741.784	8672.37
742.124	8756.21
742.464	8717.79
742.804	8725.02
743.143	8706.27
743.483	8773.84
743.823	8817.23
744.162	8812.93
744.502	8814.74
744.841	8805.93
745.181	8945.81
745.52	8933.61
745.86	8989.2
746.199	9028.52
746.538	9093.6
746.877	9126.6
747.216	9145.58
747.556	9121.85
747.895	9262.41
748.234	9311.22
748.573	9250.89
748.911	9386.25
749.25	9432.8
749.589	9475.51
749.928	9533.82
750.267	9627.6
750.605	9677.32
750.944	9753.02
751.283	9802.74
751.621	9885.9
751.96	9923.64
752.298	10079.34
752.636	10154.37
752.975	10216.74
753.313	10335.83
753.651	10549.84
753.989	10478.43
754.327	10642.04
754.666	10782.15
755.004	10837.96
755.342	11050.39
755.679	11169.25
756.017	11269.14
756.355	11439.3
756.693	11517.04
757.031	11716.36
757.368	11838.62
757.706	11942.34
758.044	12094.43
758.381	12252.39
758.719	12346.62
759.056	12618.26
759.394	12859.61
759.731	12855.31
760.068	12988.64
760.405	13150.67
760.743	13300.72
761.08	13551.34
761.417	13674.27
761.754	13834.49
762.091	13944.1
762.428	14138.67
762.765	14291.43
763.102	14474.03
763.438	14625.21
763.775	14772.78
764.112	14945.43
764.449	15161.92
764.785	15277.17
765.122	15379.54
765.458	15541.57
765.795	15762.58
766.131	15881.9
766.467	15953.08
766.804	16129.58
767.14	16249.8
767.476	16415.67
767.812	16544.71
768.148	16819.73
768.485	16852.95
768.821	16921.42
769.157	17064.47
769.492	17173.84
769.828	17348.98
770.164	17344.69
770.5	17398.24
770.836	17722.75
771.171	17680.95
771.507	17884.78
771.842	17832.13
772.178	17959.81
772.513	18042.29
772.849	18130.2
773.184	18126.59
773.519	18322.06
773.855	18309.41
774.19	18332.23
774.525	18394.6
774.86	18574.71
775.195	18659.23
775.53	18542.85
775.865	18599.57
776.2	18680.02
776.535	18669.17
776.87	18704.65
777.205	18759.79
777.539	18767.02
777.874	18965.66
778.209	18878.2
778.543	18903.51
778.878	18983.29
779.212	18938.32
779.547	18906.68
779.881	19172.66
780.215	18945.32
780.55	19146.22
780.884	19011.08
781.218	19127.92
781.552	19088.37
781.886	19167.69
782.22	19074.81
782.554	19056.05
782.888	19018.31
783.222	18952.78
783.556	18851.09
783.889	19006.34
784.223	18894.25
784.557	18925.89
784.89	18995.49
785.224	18901.48
785.557	18863.74
785.891	18903.06
786.224	18857.41
786.558	18968.15
786.891	18814.93
787.224	18688.83
787.557	18772.22
787.891	18834.82
788.224	18684.08
788.557	18780.58
788.89	18728.15
789.223	18800.24
789.556	18640.7
789.888	18622.17
790.221	18533.13
790.554	18533.81
790.887	18449.51
791.219	18524.09
791.552	18491.55
791.884	18403.87
792.217	18319.57
792.549	18281.61
792.882	18240.71
793.214	18207.71
793.546	18148.96
793.879	18271.67
794.211	18054.72
794.543	18225.57
794.875	18058.56
795.207	18144.66
795.539	18106.47
795.871	18042.75
796.203	17932.69
796.535	17891.56
796.867	17912.58
797.198	17739.93
797.53	17797.1
797.862	17699.25
798.193	17763.21
798.525	17611.34
798.856	17706.94
799.188	17595.07
799.519	17445.7
799.85	17372.48
800.182	17391.24
800.513	17452.48
800.844	17352.59
801.175	17409.99
801.506	17377
801.837	17247.74
802.168	17226.95
802.499	17155.31
802.83	17061.98
803.161	17145.82
803.491	17044.58
803.822	17106.73
804.153	16974.07
804.483	16932.27
804.814	16913.96
805.145	16814.98
805.475	16877.13
805.805	16811.37
806.136	16667.64
806.466	16903.57
806.796	16841.42
807.126	16586.74
807.457	16643.23
807.787	16520.75
808.117	16589
808.447	16419.74
808.777	16532.5
809.107	16474.2
809.436	16389.68
809.766	16417.48
810.096	16402.34
810.426	16260.65
810.755	16243.25
811.085	16379.29
811.414	16151.95
811.744	16219.52
812.073	16083.93
812.403	16157.37
812.732	16087.77
813.061	16076.47
813.39	15908.79
813.719	15932.52
814.049	16018.84
814.378	15807.55
814.707	15922.35
815.036	15854.33
815.365	15773.65
815.693	15589.93
816.022	15721.23
816.351	15646.2
816.68	15679.42
817.008	15675.35
817.337	15525.07
817.665	15562.36
817.994	15514.9
818.322	15456.83
818.651	15487.33
818.979	15376.15
819.307	15414.11
819.636	15319.88
819.964	15306.55
820.292	15363.49
820.62	15361.46
820.948	15255.02
821.276	15332.76
821.604	15297.73
821.932	15340.9
822.259	15299.09
822.587	15286.89
822.915	15276.26
823.243	15321.91
823.57	15258.41
823.898	15265.19
824.225	15228.36
824.553	15213.67
824.88	15312.2
825.207	15277.85
825.535	15330.27
825.862	15429.26
826.189	15271.97
826.516	15360.78
826.843	15410.05
827.17	15281.91
827.497	15349.71
827.824	15270.16
828.151	15356.49
828.478	15318.52
828.805	15340.67
829.131	15276.49
829.458	15307.45
829.785	15234.91
830.111	15295.93
830.438	15354.91
830.764	15286.89
831.09	15388.8
831.417	15235.81
831.743	15269.71
832.069	15308.13
832.395	15213.89
832.722	15348.35
833.048	15166.21
833.374	15208.24
833.7	15056.16
834.026	15143.39
834.351	15275.59
834.677	15184.06
835.003	15258.19
835.329	15143.61
835.654	15084.41
835.98	15108.36
836.306	15106.1
836.631	15094.57
836.956	15115.14
837.282	15108.81
837.607	15070.85
837.932	15059.1
838.258	14954.92
838.583	15056.61
838.908	14874.24
839.233	14955.37
839.558	14893.45
839.883	14813.68
840.208	14743.17
840.533	14837.86
840.858	14818.42
841.182	14789.5
841.507	14746.79
841.832	14712.89
842.156	14582.72
842.481	14702.95
842.805	14676.05
843.13	14640.35
843.454	14617.07
843.778	14462.73
844.103	14532.56
844.427	14434.03
844.751	14407.59
845.075	14379.79
845.399	14381.83
845.723	14280.58
846.047	14237.42
846.371	14143.87
846.695	14231.09
847.019	14032.68
847.343	14107.93
847.666	13941.84
847.99	13839.01
848.313	13890.99
848.637	13807.38
848.96	13712.92
849.284	13752.24
849.607	13583.88
849.931	13594.95
850.254	13492.81
850.577	13492.13
850.9	13376.88
851.223	13347.28
851.546	13300.05
851.869	13167.17
852.192	13268.41
852.515	13114.97
852.838	13081.29
853.161	13100.73
853.483	12988.87
853.806	13013.73
854.129	12984.12
854.451	12917.91
854.774	12878.81
855.096	12761.98
855.419	12724.24
855.741	12725.82
856.063	12674.98
856.385	12645.15
856.708	12669.33
857.03	12557.47
857.352	12569.67
857.674	12456.23
857.996	12533.29
858.318	12410.13
858.64	12367.19
858.961	12356.79
859.283	12319.96
859.605	12242.67
859.926	12265.95
860.248	12253.29
860.57	12208.1
860.891	12197.93
861.212	12198.15
861.534	12105.95
861.855	12059.17
862.176	12042.9
862.498	12035.22
862.819	12024.37
863.14	11940.31
863.461	11946.41
863.782	11928.33
864.103	11984.83
864.424	11892.17
864.745	11929.91
865.065	11775.79
865.386	11822.12
865.707	11777.83
866.027	11849.01
866.348	11761.78
866.668	11654.21
866.989	11740.31
867.309	11598.17
867.63	11684.5
867.95	11654.21
868.27	11559.53
868.59	11587.55
868.91	11566.76
869.23	11529.47
869.55	11526.31
869.87	11588
870.19	11399.98
870.51	11587.77
870.83	11505.52
871.15	11467.1
871.469	11452.86
871.789	11541.22
872.109	11440.43
872.428	11409.02
872.748	11433.2
873.067	11291.06
873.386	11342.36
873.706	11402.02
874.025	11291.29
874.344	11295.13
874.663	11292.87
874.982	11246.54
875.301	11252.42
875.62	11247.9
875.939	11200.44
876.258	11194.11
876.577	11183.27
876.896	11103.95
877.214	11127.67
877.533	11047
877.852	11045.87
878.17	11076.15
878.489	11171.06
878.807	11095.36
879.125	11023.04
879.444	10996.83
879.762	10996.83
880.08	10990.28
880.398	10843.39
880.716	10968.81
881.034	10918.87
881.352	10874.12
881.67	10829.83
881.988	10862.14
882.306	10869.15
882.624	10765.65
882.941	10672.32
883.259	10654.24
883.577	10693.11
883.894	10705.09
884.212	10677.74
884.529	10592.55
884.846	10639.55
885.164	10631.64
885.481	10637.74
885.798	10464.19
886.115	10387.35
886.432	10505.77
886.75	10432.32
887.067	10449.73
887.383	10402.72
887.7	10412.44
888.017	10348.26
888.334	10362.27
888.651	10276.62
888.967	10234.14
889.284	10261.93
889.6	10175.16
889.917	10108.27
890.233	10127.93
890.55	10117.53
890.866	10084.54
891.182	10088.83
891.498	10055.61
891.815	10034.14
892.131	9988.04
892.447	9963.64
892.763	9889.97
893.079	9840.93
893.395	9866.01
893.71	9892.45
894.026	9765.22
894.342	9785.11
894.657	9739.01
894.973	9689.52
895.289	9721.16
895.604	9686.81
895.92	9629.86
896.235	9522.52
896.55	9613.59
896.865	9506.93
897.181	9475.74
897.496	9519.58
897.811	9422.41
898.126	9411.56
898.441	9311.45
898.756	9341.96
899.071	9268.06
899.386	9253.82
899.7	9176.76
900.015	9170.66
900.33	9093.15
900.644	9096.54
900.959	9175.18
901.273	9040.72
901.588	8973.15
901.902	8990.33
902.216	8987.16
902.531	8925.25
902.845	8906.49
903.159	8881.86
903.473	8770
903.787	8812.03
904.101	8747.62
904.415	8727.06
904.729	8707.17
905.042	8586.5
905.356	8595.76
905.67	8605.93
905.984	8592.6
906.297	8506.73
906.611	8501.75
906.924	8510.34
907.237	8462.43
907.551	8447.07
907.864	8378.14
908.177	8350.57
908.491	8336.11
908.804	8213.63
909.117	8233.29
909.43	8102.44
909.743	8094.98
910.056	8071.71
910.368	8107.64
910.681	8064.03
910.994	7995.78
911.307	7985.38
911.619	7824.48
911.932	7934.09
912.244	7901.09
912.557	7843.47
912.869	7818.38
913.181	7780.19
913.494	7778.61
913.806	7691.15
914.118	7755.33
914.43	7635.11
914.742	7681.44
915.054	7553.08
915.366	7563.93
915.678	7536.58
915.99	7552.63
916.302	7470.59
916.613	7421.1
916.925	7417.49
917.236	7404.38
917.548	7424.27
917.859	7377.04
918.171	7264.72
918.482	7228.79
918.794	7191.96
919.105	7265.18
919.416	7138.4
919.727	7142.47
920.038	7059.98
920.349	7081.68
920.66	7039.65
920.971	7075.58
921.282	6984.51
921.593	6945.18
921.903	6987.22
922.214	6976.82
922.525	6842.14
922.835	6794.45
923.146	6823.15
923.456	6809.59
923.767	6771.4
924.077	6758.07
924.387	6799.88
924.697	6642.82
925.008	6665.64
925.318	6606.21
925.628	6591.75
925.938	6578.87
926.248	6540.45
926.558	6523.5
926.867	6523.73
927.177	6494.57
927.487	6429.94
927.796	6427.68
928.106	6444.18
928.416	6370.51
928.725	6315.6
929.034	6308.14
929.344	6305.43
929.653	6243.28
929.962	6251.64
930.271	6193.34
930.581	6159.44
930.89	6108.82
931.199	6098.65
931.508	6122.61
931.817	6116.28
932.125	6055.72
932.434	6060.01
932.743	5996.28
933.051	5971.65
933.36	5916.29
933.669	5943.86
933.977	5901.14
934.286	5929.39
934.594	5878.09
934.902	5821.15
935.21	5824.76
935.519	5796.06
935.827	5768.49
936.135	5741.83
936.443	5732.34
936.751	5699.34
937.059	5670.42
937.367	5680.59
937.674	5652.79
937.982	5604.2
938.29	5581.15
938.597	5589.29
938.905	5469.74
939.213	5489.86
939.52	5433.36
939.827	5502.74
940.135	5425.45
940.442	5382.97
940.749	5408.73
941.056	5413.25
941.363	5319.01
941.67	5276.3
941.977	5213.7
942.284	5263.87
942.591	5284.66
942.898	5264.78
943.205	5197.21
943.511	5182.75
943.818	5163.76
944.125	5131.9
944.431	5124.44
944.738	5075.4
945.044	5041.73
945.35	5014.39
945.657	4999.02
945.963	5019.13
946.269	4957.67
946.575	5020.49
946.881	4965.58
947.187	4952.92
947.493	4913.83
947.799	4879.93
948.105	4874.28
948.41	4856.88
948.716	4842.64
949.022	4851.91
949.327	4822.3
949.633	4736.66
949.938	4735.07
950.244	4759.48
950.549	4652.36
950.854	4660.95
951.16	4629.99
951.465	4624.34
951.77	4623.44
952.075	4604
952.38	4603.33
952.685	4562.65
952.99	4520.39
953.294	4533.95
953.599	4522.2
953.904	4449.88
954.209	4486.27
954.513	4460.73
954.818	4384.57
955.122	4381.86
955.426	4355.87
955.731	4335.99
956.035	4365.82
956.339	4287.18
956.643	4291.7
956.948	4255.31
957.252	4276.78
957.556	4271.58
957.86	4206.73
958.163	4231.36
958.467	4231.36
958.771	4183.22
959.075	4192.26
959.378	4170.57
959.682	4131.47
959.985	4123.56
960.289	4066.16
960.592	4054.64
960.896	4075.66
961.199	4082.21
961.502	4048.09
961.805	3966.05
962.108	3990.46
962.411	3963.12
962.714	3923.34
963.017	3967.86
963.32	3972.83
963.623	3857.81
963.926	3891.93
964.228	3906.17
964.531	3844.7
964.833	3866.85
965.136	3816.45
965.438	3782.1
965.741	3787.3
966.043	3785.95
966.345	3770.58
966.648	3740.98
966.95	3742.33
967.252	3721.54
967.554	3705.72
967.856	3663.91
968.158	3630.92
968.46	3611.03
968.761	3632.5
969.063	3629.79
969.365	3583.01
969.666	3571.49
969.968	3563.58
970.269	3539.4
970.571	3553.86
970.872	3494.88
971.174	3497.82
971.475	3479.96
971.776	3483.13
972.077	3460.08
972.378	3440.42
972.679	3451.04
972.98	3416.69
973.281	3422.11
973.582	3383.7
973.883	3394.09
974.183	3349.57
974.484	3380.53
974.785	3310.93
975.085	3328.56
975.386	3358.39
975.686	3277.48
975.986	3306.64
976.287	3306.18
976.587	3226.86
976.887	3220.08
977.187	3254.66
977.487	3190.03
977.787	3166.98
978.087	3149.13
978.387	3148.9
978.687	3187.54
978.987	3145.51
979.286	3131.73
979.586	3130.37
979.885	3094.89
980.185	3053.08
980.484	3039.07
980.784	3039.3
981.083	3049.02
981.382	2983.03
981.682	2986.87
981.981	2989.36
982.28	2986.19
982.579	2951.62
982.878	2957.49
983.177	2912.97
983.475	2935.8
983.774	2907.55
984.073	2886.99
984.372	2892.41
984.67	2854.9
984.969	2878.17
985.267	2830.94
985.566	2829.81
985.864	2789.14
986.162	2807.44
986.461	2773.32
986.759	2751.62
987.057	2757.05
987.355	2731.74
987.653	2740.78
987.951	2745.75
988.249	2741.23
988.547	2699.19
988.844	2692.42
989.142	2688.35
989.44	2679.99
989.737	2673.43
990.035	2603.38
990.332	2632.53
990.63	2622.13
990.927	2628.24
991.224	2591.4
991.521	2562.02
991.819	2571.29
992.116	2544.85
992.413	2512.53
992.71	2561.8
993.006	2519.31
993.303	2511.63
993.6	2493.32
993.897	2488.58
994.193	2465.98
994.49	2478.64
994.787	2456.04
995.083	2457.39
995.379	2422.59
995.676	2441.12
995.972	2418.75
996.268	2403.61
996.565	2377.4
996.861	2350.73
997.157	2359.99
997.453	2338.98
997.749	2351.18
998.044	2335.36
998.34	2319.54
998.636	2296.49
998.932	2298.98
999.227	2272.09
999.523	2254.23
999.818	2274.35
1000.114	2254.23
1000.409	2240
1000.704	2241.81
1001	2207.68
1001.295	2223.27
1001.59	2186.21
1001.885	2190.73
1002.18	2156.38
1002.475	2156.16
1002.77	2160.9
1003.065	2100.79
1003.359	2104.18
1003.654	2090.17
1003.949	2070.06
1004.243	2072.77
1004.538	2042.71
1004.832	2057.86
1005.127	2048.82
1005.421	2022.83
1005.715	1996.39
1006.009	1995.26
1006.304	1986.22
1006.598	1938.76
1006.892	1953.68
1007.186	1943.06
1007.48	1944.41
1007.773	1955.26
1008.067	1902.38
1008.361	1924.3
1008.655	1889.72
1008.948	1902.15
1009.242	1880.23
1009.535	1878.43
1009.829	1851.31
1010.122	1822.16
1010.415	1844.53
1010.708	1817.64
1011.001	1822.83
1011.295	1797.98
1011.588	1774.02
1011.881	1774.93
1012.173	1765.43
1012.466	1734.93
1012.759	1746
1013.052	1740.8
1013.344	1708.49
1013.637	1731.31
1013.93	1707.36
1014.222	1708.26
1014.514	1692.67
1014.807	1692.89
1015.099	1670.07
1015.391	1651.76
1015.683	1692.89
1015.976	1655.61
1016.268	1653.12
1016.56	1646.34
1016.851	1607.7
1017.143	1606.12
1017.435	1603.4
1017.727	1594.14
1018.018	1574.03
1018.31	1588.26
1018.602	1569.73
1018.893	1548.72
1019.185	1516.4
1019.476	1534.71
1019.767	1530.19
1020.058	1499.45
1020.35	1482.05
1020.641	1513.91
1020.932	1481.37
1021.223	1462.62
1021.514	1458.78
1021.804	1447.48
1022.095	1444.54
1022.386	1433.69
1022.677	1415.16
1022.967	1398.89
1023.258	1410.19
1023.548	1375.84
1023.839	1385.33
1024.129	1371.77
1024.419	1363.64
1024.709	1333.58
1025	1337.87
1025.29	1327.93
1025.58	1343.75
1025.87	1311.43
1026.16	1332
1026.449	1322.73
1026.739	1305.11
1027.029	1279.57
1027.319	1298.55
1027.608	1267.82
1027.898	1275.05
1028.187	1243.41
1028.477	1250.19
1028.766	1250.87
1029.055	1237.76
1029.344	1222.17
1029.634	1228.95
1029.923	1202.28
1030.212	1202.28
1030.501	1182.85
1030.79	1195.05
1031.078	1166.35
1031.367	1167.94
1031.656	1147.6
1031.945	1127.48
1032.233	1138.33
1032.522	1144.43
1032.81	1138.33
1033.099	1137.65
1033.387	1100.14
1033.675	1108.05
1033.963	1112.12
1034.251	1080.25
1034.54	1108.28
1034.828	1060.82
1035.116	1073.25
1035.403	1081.84
1035.691	1059.46
1035.979	1057.88
1036.267	1043.87
1036.554	1041.84
1036.842	1028.73
1037.129	1040.93
1037.417	1012.69
1037.704	977.66
1037.992	1033.25
1038.279	986.25
1038.566	976.08
1038.853	976.08
1039.14	976.08
