Data from hue_24_FLMS001491_00069.txt Node
Date: Tue Feb 07 17:12:36 GMT 2017
User: dcchb
Spectrometer: FLMS00149
Trigger mode: 0
Integration Time (sec): 2.000000E-2
Scans to average: 10
Electric dark correction enabled: true
Nonlinearity correction enabled: false
Boxcar width: 0
XAxis mode: Wavelengths
Number of Pixels in Spectrum: 2048
>>>>>Begin Spectral Data<<<<<
341.393	-15.27
341.776	-15.27
342.16	-15.27
342.543	-75.38
342.927	-61.37
343.31	-92.1
343.693	-80.8
344.077	-58.43
344.46	-59.56
344.843	-36.96
345.226	-51.88
345.61	-27.47
345.993	-31.09
346.376	1.45
346.759	12.08
347.142	24.28
347.525	55.01
347.908	65.63
348.291	78.97
348.674	99.31
349.057	101.57
349.44	128.01
349.823	150.83
350.206	163.48
350.588	202.13
350.971	208.23
351.354	216.36
351.737	245.06
352.119	266.53
352.502	282.58
352.884	281
353.267	264.72
353.65	301.56
354.032	302.69
354.414	296.36
354.797	333.88
355.179	326.87
355.562	313.31
355.944	337.72
356.326	330.94
356.709	342.46
357.091	332.07
357.473	355.34
357.855	344.95
358.238	346.53
358.62	336.14
359.002	371.84
359.384	365.06
359.766	365.51
360.148	342.91
360.53	360.54
360.912	328.68
361.294	344.95
361.676	351.95
362.057	361.45
362.439	341.11
362.821	336.14
363.203	321.45
363.584	335.01
363.966	329.13
364.348	339.98
364.729	346.53
365.111	328.23
365.493	341.78
365.874	329.81
366.256	312.41
366.637	308.57
367.019	345.85
367.4	309.7
367.781	310.37
368.163	321.67
368.544	348.34
368.925	347.43
369.306	319.19
369.688	344.04
370.069	334.33
370.45	324.61
370.831	301.56
371.212	324.84
371.593	342.24
371.974	330.49
372.355	333.2
372.736	333.88
373.117	314.67
373.498	329.81
373.879	337.04
374.26	332.07
374.641	319.86
375.021	316.47
375.402	323.25
375.783	347.89
376.163	334.78
376.544	365.29
376.925	344.5
377.305	331.16
377.686	333.2
378.066	324.61
378.447	363.71
378.827	365.96
379.208	368.22
379.588	343.37
379.968	347.89
380.349	359.64
380.729	356.25
381.109	365.74
381.489	362.8
381.87	369.35
382.25	351.5
382.63	367.55
383.01	353.76
383.39	360.77
383.77	355.34
384.15	363.71
384.53	356.25
384.91	373.2
385.29	351.28
385.67	355.57
386.049	370.48
386.429	372.29
386.809	369.13
387.189	367.09
387.568	386.98
387.948	366.42
388.328	370.94
388.707	375.91
389.087	367.55
389.466	391.5
389.846	390.37
390.225	369.58
390.605	396.92
390.984	397.38
391.363	375.23
391.743	391.5
392.122	411.61
392.501	389.92
392.881	375.46
393.26	389.24
393.639	403.25
394.018	403.25
394.397	417.04
394.776	415
395.155	403.93
395.534	406.42
395.913	424.49
396.292	406.19
396.671	397.38
397.05	402.8
397.429	415.91
397.808	435.34
398.186	428.79
398.565	410.03
398.944	430.14
399.323	411.84
399.701	428.56
400.08	443.25
400.458	431.73
400.837	453.87
401.215	431.73
401.594	459.3
401.972	428.11
402.351	448.9
402.729	443.93
403.107	474.44
403.486	451.16
403.864	490.03
404.242	463.14
404.62	447.32
404.999	458.62
405.377	450.93
405.755	471.05
406.133	492.52
406.511	480.54
406.889	492.06
407.267	495
407.645	480.54
408.023	472.18
408.401	473.08
408.779	503.36
409.156	515.11
409.534	510.37
409.912	504.72
410.29	506.98
410.667	514.21
411.045	525.51
411.422	525.73
411.8	529.58
412.178	530.48
412.555	538.62
412.933	542.01
413.31	558.28
413.687	560.31
414.065	550.14
414.442	554.89
414.819	561.44
415.197	572.74
415.574	546.07
415.951	566.64
416.328	578.84
416.705	571.84
417.082	598.95
417.46	556.69
417.837	593.98
418.214	587.43
418.591	580.2
418.967	594.89
419.344	597.82
419.721	592.63
420.098	599.63
420.475	629.01
420.852	618.84
421.228	629.23
421.605	641.44
421.982	652.51
422.358	620.42
422.735	668.1
423.111	636.92
423.488	648.44
423.864	641.44
424.241	673.08
424.617	685.73
424.994	662.45
425.37	666.3
425.746	674.21
426.123	666.07
426.499	674.88
426.875	676.92
427.251	703.58
427.627	701.78
428.003	697.48
428.379	723.24
428.756	716.69
429.132	707.2
429.507	732.73
429.883	749.91
430.259	758.95
430.635	744.49
431.011	765.95
431.387	772.51
431.763	777.71
432.138	788.1
432.514	789
432.89	793.75
433.265	804.15
433.641	820.19
434.016	826.74
434.392	833.3
434.767	868.1
435.143	825.61
435.518	868.1
435.894	870.13
436.269	862.9
436.644	874.2
437.02	881.21
437.395	892.28
437.77	911.49
438.145	903.13
438.52	901.77
438.895	902.45
439.271	908.55
439.646	931.37
440.021	927.98
440.395	945.84
440.77	954.2
441.145	957.81
441.52	977.7
441.895	986.97
442.27	991.49
442.645	967.31
443.019	980.64
443.394	965.5
443.769	1004.14
444.143	1008.43
444.518	1015.21
444.892	1033.29
445.267	1024.7
445.641	1029
446.016	1010.69
446.39	1042.33
446.764	1041.2
447.139	1035.78
447.513	1031.26
447.887	1064.03
448.262	1073.52
448.636	1066.74
449.01	1073.07
449.384	1094.08
449.758	1119.62
450.132	1150.8
450.506	1111.03
450.88	1140.63
451.254	1093.63
451.628	1128.66
452.002	1156.23
452.376	1172.5
452.75	1184.47
453.123	1188.77
453.497	1192.61
453.871	1193.74
454.244	1186.73
454.618	1216.11
454.992	1230.57
455.365	1248.88
455.739	1271.03
456.112	1288.2
456.486	1294.53
456.859	1299.05
457.232	1341.76
457.606	1336.11
457.979	1341.76
458.352	1380.18
458.725	1369.1
459.099	1381.76
459.472	1400.29
459.845	1418.14
460.218	1445.03
460.591	1449.1
460.964	1452.26
461.337	1504.47
461.71	1530
462.083	1515.54
462.456	1523.22
462.829	1531.58
463.201	1553.05
463.574	1563.45
463.947	1587.4
464.32	1600.51
464.692	1664.46
465.065	1641.86
465.438	1659.26
465.81	1700.17
466.183	1719.38
466.555	1748.98
466.928	1751.69
467.3	1770.9
467.672	1767.74
468.045	1842.76
468.417	1838.02
468.789	1841.18
469.161	1860.84
469.534	1892.48
469.906	1947.84
470.278	1956.88
470.65	1991.01
471.022	2007.73
471.394	2081.17
471.766	2068.97
472.138	2101.74
472.51	2140.38
472.882	2194.39
473.253	2198.91
473.625	2217.67
473.997	2280.04
474.369	2287.04
474.74	2348.96
475.112	2396.65
475.484	2426.02
475.855	2470.54
476.227	2503.08
476.598	2549.18
476.97	2630.99
477.341	2629.86
477.713	2734.94
478.084	2715.28
478.455	2784.66
478.827	2801.61
479.198	2927.03
479.569	2898.78
479.94	2999.79
480.311	3055.16
480.682	3136.51
481.053	3204.08
481.424	3252.67
481.795	3288.83
482.166	3338.77
482.537	3418.99
482.908	3514.13
483.279	3551.42
483.65	3593.22
484.021	3656.27
484.391	3725.2
484.762	3744.63
485.133	3807.23
485.503	3906.89
485.874	3977.17
486.244	4006.77
486.615	4115.24
486.985	4162.7
487.356	4210.16
487.726	4343.94
488.097	4383.26
488.467	4416.71
488.837	4508.23
489.207	4552.07
489.578	4652.86
489.948	4745.51
490.318	4779.41
490.688	4798.39
491.058	4951.38
491.428	4940.53
491.798	5069.34
492.168	5144.37
492.538	5202.67
492.908	5263.46
493.278	5361.54
493.648	5354.76
494.017	5455.32
494.387	5489.22
494.757	5542.78
495.126	5617.58
495.496	5585.26
495.866	5652.61
496.235	5813.51
496.605	5833.39
496.974	5820.96
497.344	5914.52
497.713	5955.65
498.082	6024.12
498.452	6109.54
498.821	6152.03
499.19	6133.27
499.559	6191.12
499.928	6244.45
500.298	6289.88
500.667	6359.48
501.036	6374.62
501.405	6425.24
501.774	6443.77
502.143	6564.9
502.512	6560.38
502.88	6599.93
503.249	6600.83
503.618	6634.95
503.987	6761.28
504.356	6773.71
504.724	6791.56
505.093	6808.51
505.462	6852.8
505.83	6905.23
506.199	6954.49
506.567	6982.97
506.936	7031.78
507.304	7096.41
507.672	7104.09
508.041	7194.94
508.409	7256.41
508.777	7268.16
509.145	7375.95
509.514	7324.65
509.882	7345.89
510.25	7397.19
510.618	7491.2
510.986	7459.34
511.354	7580.92
511.722	7657.52
512.09	7640.8
512.458	7690.29
512.826	7688.48
513.193	7771.19
513.561	7733
513.929	7897.29
514.297	7946.33
514.664	7969.83
515.032	8023.62
515.4	8053.9
515.767	8064.75
516.135	8062.94
516.502	8078.3
516.869	8184.06
517.237	8159.88
517.604	8189.49
517.972	8288.92
518.339	8332.31
518.706	8344.74
519.073	8404.17
519.44	8467.67
519.808	8522.13
520.175	8463.61
520.542	8546.54
520.909	8654.33
521.276	8605.07
521.643	8722.58
522.009	8724.16
522.376	8809.36
522.743	8904.05
523.11	8907.89
523.477	8987.21
523.843	9092.97
524.21	9143.59
524.577	9156.24
524.943	9178.84
525.31	9225.62
525.676	9314.88
526.043	9357.37
526.409	9413.18
526.776	9509.45
527.142	9531.83
527.508	9555.55
527.874	9585.84
528.241	9655.89
528.607	9687.08
528.973	9816.79
529.339	9759.62
529.705	9885.94
530.071	10017.01
530.437	10024.92
530.803	10032.83
531.169	10090.23
531.535	10098.36
531.901	10149.66
532.267	10182.88
532.632	10255.87
532.998	10326.83
533.364	10339.26
533.73	10362.54
534.095	10456.1
534.461	10485.92
534.826	10527.73
535.192	10581.29
535.557	10705.58
535.923	10698.35
536.288	10771.79
536.653	10856.08
537.019	10807.27
537.384	10835.97
537.749	10840.27
538.114	10958.23
538.479	10980.83
538.845	11064.89
539.21	11008.4
539.575	11059.24
539.94	11098.11
540.305	11251.1
540.67	11147.38
541.034	11262.85
541.399	11360.03
541.764	11298.56
542.129	11432.34
542.494	11421.27
542.858	11480.02
543.223	11445
543.587	11498.33
543.952	11539.23
544.316	11633.24
544.681	11683.63
545.045	11726.57
545.41	11823.74
545.774	11861.71
546.138	11907.81
546.503	11833.46
546.867	11880.24
547.231	11981.48
547.595	12031.42
547.959	12126.79
548.324	12113.9
548.688	12114.36
549.052	12137.18
549.416	12188.48
549.779	12209.5
550.143	12296.05
550.507	12379.43
550.871	12346.44
551.235	12377.4
551.599	12551.18
551.962	12541.46
552.326	12557.96
552.689	12624.63
553.053	12598.19
553.417	12684.51
553.78	12757.96
554.143	12681.12
554.507	12868.46
554.87	12901.68
555.234	12989.36
555.597	12937.84
555.96	12973.32
556.323	12984.84
556.686	12991.85
557.05	13154.78
557.413	13158.85
557.776	13197.49
558.139	13373.76
558.502	13372.85
558.865	13263.7
559.228	13423.7
559.59	13459.86
559.953	13500.31
560.316	13649.01
560.679	13605.62
561.041	13755.67
561.404	13735.1
561.767	13903.24
562.129	13813.07
562.492	13993.18
562.854	13946.62
563.217	13863.46
563.579	14001.99
563.941	14104.59
564.304	14175.32
564.666	14195.43
565.028	14182.78
565.39	14265.26
565.753	14416.22
566.115	14379.83
566.477	14384.35
566.839	14458.02
567.201	14540.73
567.563	14590.9
567.925	14646.49
568.287	14647.85
568.648	14634.29
569.01	14776.43
569.372	14965.58
569.734	14815.98
570.095	14966.71
570.457	15037.67
570.819	15100.04
571.18	15154.05
571.542	15245.8
571.903	15299.13
572.265	15359.47
572.626	15375.74
572.987	15424.55
573.349	15551.1
573.71	15585.68
574.071	15808.27
574.432	15768.72
574.794	15860.92
575.155	15823.19
575.516	15906.35
575.877	16006.23
576.238	16126
576.599	16337.97
576.96	16308.37
577.32	16447.35
577.681	16547.69
578.042	16742.94
578.403	16708.36
578.763	16865.19
579.124	17008.47
579.485	17057.28
579.845	17318.51
580.206	17357.83
580.566	17526.87
580.927	17652.97
581.287	17849.35
581.648	17986.07
582.008	18150.36
582.368	18120.3
582.728	18454.98
583.089	18606.39
583.449	18786.95
583.809	18986.72
584.169	19185.36
584.529	19285.24
584.889	19734.27
585.249	19798.67
585.609	19950.08
585.969	20335.84
586.329	20464.19
586.688	20800.46
587.048	20945.99
587.408	21171.29
587.768	21439.76
588.127	21758.4
588.487	21924.27
588.846	22373.07
589.206	22563.57
589.565	22795.66
589.925	23198.58
590.284	23479.26
590.643	23785.69
591.003	24029.07
591.362	24370.76
591.721	24645.78
592.08	24933.45
592.44	25385.65
592.799	25676.94
593.158	25981.56
593.517	26314.21
593.876	26641.88
594.235	26879.39
594.593	27271.25
594.952	27625.36
595.311	27924.79
595.67	28203.2
596.029	28690.87
596.387	29001.14
596.746	29406.11
597.104	29567.23
597.463	29882.03
597.822	30359.98
598.18	30638.62
598.538	30812.85
598.897	31460.51
599.255	31477.24
599.613	32252.13
599.972	32393.6
600.33	32820.93
600.688	32924.88
601.046	33413.23
601.404	33722.6
601.762	34050.05
602.12	34489.59
602.478	34654.55
602.836	34952.63
603.194	35242.79
603.552	35511.71
603.91	35788.54
604.268	36202.54
604.625	36372.02
604.983	36798.91
605.341	36979.24
605.698	37350.98
606.056	37762.72
606.413	37901.48
606.771	38162.94
607.128	38687.9
607.485	38620.1
607.843	38819.42
608.2	39402.68
608.557	39627.98
608.914	39792.27
609.272	40051.7
609.629	40474.06
609.986	40892.58
610.343	40731.46
610.7	41293.7
611.057	41335.96
611.414	41608.95
611.771	41707.48
612.127	42111.08
612.484	42273.79
612.841	42543.61
613.198	42551.75
613.554	42722.82
613.911	43123.03
614.267	43237.83
614.624	43449.35
614.98	43715.33
615.337	44016.79
615.693	44123.23
616.05	44209.11
616.406	44631.47
616.762	44538.59
617.118	44871.91
617.475	44972.25
617.831	45129.31
618.187	45310.32
618.543	45417.66
618.899	45835.05
619.255	45804.54
619.611	45945.56
619.967	46259.45
620.323	46271.2
620.678	46297.86
621.034	46291.54
621.39	46397.07
621.746	46425.77
622.101	47054.45
622.457	46757.74
622.812	46941.69
623.168	47057.84
623.523	47277.27
623.879	47498.51
624.234	47070.27
624.589	47463.03
624.945	47636.81
625.3	47660.99
625.655	47717.49
626.01	47719.3
626.365	47802.23
626.72	47760.2
627.075	47842.91
627.43	47977.37
627.785	47949.8
628.14	48125.84
628.495	48209.9
628.85	48120.64
629.205	48007.88
629.559	48369.67
629.914	48158.15
630.269	48287.87
630.623	48244.25
630.978	48275.89
631.332	48498.71
631.687	48456
632.041	48504.59
632.396	48554.08
632.75	48344.36
633.104	48473.17
633.459	48375.1
633.813	48390.24
634.167	48464.36
634.521	48569.22
634.875	48647.41
635.229	48631.59
635.583	48401.09
635.937	48424.81
636.291	48448.54
636.645	48493.51
636.999	48343.91
637.352	48535.32
637.706	48249
638.06	48584.58
638.413	48461.65
638.767	48371.71
639.121	48394.31
639.474	48272.28
639.828	48426.62
640.181	48296.23
640.534	48320.41
640.888	48286.74
641.241	48186.63
641.594	48389.79
641.947	48358.15
642.301	48225.27
642.654	48280.19
643.007	48411.26
643.36	48282.45
643.713	48173.3
644.066	48310.02
644.419	48230.24
644.771	47831.84
645.124	47532.63
645.477	47537.15
645.83	47350.27
646.182	47183.72
646.535	47069.6
646.888	47256.03
647.24	47047.68
647.593	47245.41
647.945	47162.93
648.298	46940.79
648.65	47035.25
649.002	47043.38
649.355	47006.32
649.707	47101.91
650.059	47233.66
650.411	47679.3
650.763	47643.59
651.115	48078.38
651.467	47930.14
651.819	47849.91
652.171	47717.71
652.523	47703.25
652.875	47858.95
653.227	47603.37
653.578	47780.99
653.93	47773.53
654.282	47576.7
654.633	47559.53
654.985	47638.85
655.337	47672.29
655.688	47633.42
656.039	47807.66
656.391	47377.61
656.742	47552.29
657.094	47565.63
657.445	47682.46
657.796	47600.88
658.147	47497.83
658.498	47510.26
658.849	47693.99
659.2	47563.82
659.551	47506.65
659.902	47641.11
660.253	47502.8
660.604	47627.55
660.955	47417.84
661.306	47516.82
661.656	47572.86
662.007	47541.22
662.358	47462.13
662.708	47465.74
663.059	47523.82
663.409	47259.87
663.76	47516.14
664.11	47383.03
664.461	47575.35
664.811	47498.06
665.161	47431.62
665.511	47334.45
665.862	47359.53
666.212	47453.09
666.562	47438.63
666.912	47172.42
667.262	47392.07
667.612	47383.03
667.962	47486.99
668.312	47383.26
668.662	47478.85
669.011	47280.89
669.361	47298.97
669.711	47323.37
670.06	47235.24
670.41	47147.11
670.76	47105.75
671.109	47302.81
671.459	47188.91
671.808	47126.09
672.157	47194.11
672.507	47000.22
672.856	47024.4
673.205	46972.65
673.554	47171.74
673.904	46962.03
674.253	47193.43
674.602	47172.87
674.951	46491.76
675.3	46370.63
675.649	47029.14
675.998	46831.86
676.346	46989.82
676.695	47068.01
677.044	46600.46
677.393	46955.47
677.741	46778.3
678.09	46790.51
678.438	46717.51
678.787	46879.77
679.135	46794.35
679.484	46615.6
679.832	46780.34
680.181	46444.53
680.529	46593
680.877	46414.92
681.225	46371.76
681.573	46630.96
681.922	46442.72
682.27	46184.2
682.618	46342.38
682.966	46252.44
683.314	46398.2
683.661	45963.18
684.009	45907.37
684.357	45845
684.705	45756.86
685.053	45885.67
685.4	45862.62
685.748	45596.64
686.095	45542.4
686.443	45371.56
686.79	45435.29
687.138	45477.77
687.485	45441.84
687.832	45327.95
688.18	45277.78
688.527	45108.97
688.874	45141.28
689.221	45080.72
689.568	44903.32
689.915	44927.51
690.262	44963.44
690.609	44635.99
690.956	44577.91
691.303	44650.9
691.65	44235.77
691.997	44400.06
692.344	44123.23
692.69	43975.67
693.037	44188.99
693.383	43753.52
693.73	43879.17
694.077	43739.51
694.423	43864.48
694.769	43536.81
695.116	43568.67
695.462	43556.47
695.808	43363.93
696.155	43263.14
696.501	43100.66
696.847	43079.42
697.193	42688.02
697.539	42999.42
697.885	42671.97
698.231	42596.94
698.577	42540.45
698.923	42586.55
699.269	42478.08
699.614	42210.97
699.96	42048.26
700.306	42108.37
700.651	41884.42
700.997	41879.9
701.342	41831.32
701.688	41718.78
702.033	41571.44
702.379	41488.73
702.724	41307.71
703.069	41439.46
703.415	40957.21
703.76	40980.49
704.105	40982.07
704.45	40891.68
704.795	40771.91
705.14	40674.51
705.485	40589.31
705.83	40422.09
706.175	40429.77
706.52	40378.47
706.865	40352.26
707.209	40149.78
707.554	40154.75
707.899	40176.9
708.243	39940.74
708.588	39936.22
708.932	39724.93
709.277	39832.27
709.621	39678.6
709.966	39435.67
710.31	39490.13
710.654	39189.35
710.998	39309.57
711.342	39209.24
711.687	39121.56
712.031	39083.59
712.375	38928.79
712.719	39009.24
713.063	38895.57
713.407	39000.43
713.75	38789.14
714.094	38719.98
714.438	38564.96
714.782	38486.77
715.125	38412.87
715.469	38584.17
715.812	38289.26
716.156	38178.08
716.499	38081.13
716.843	38110.06
717.186	37969.04
717.53	37988.03
717.873	38022.38
718.216	37911.42
718.559	37682.95
718.902	37457.19
719.246	37654.93
719.589	37452.9
719.932	37325.22
720.275	37247.48
720.617	37284.77
720.96	37237.54
721.303	37247.26
721.646	37311.21
721.989	36950.99
722.331	37069.18
722.674	37010.65
723.016	37054.04
723.359	36895.63
723.701	36921.61
724.044	36754.61
724.386	36623.32
724.729	36720.94
725.071	36815.18
725.413	36605.92
725.755	36508.07
726.097	36356.43
726.439	36116.66
726.782	36252.25
727.124	36344.23
727.465	36165.25
727.807	36133.84
728.149	36080.28
728.491	35899.04
728.833	36033.5
729.175	35887.06
729.516	35844.81
729.858	35717.35
730.199	35819.5
730.541	35622.44
730.882	35736.79
731.224	35830.8
731.565	35424.25
731.906	35472.61
732.248	35480.52
732.589	35339.51
732.93	35244.82
733.271	35264.48
733.612	35292.96
733.953	35256.12
734.294	35059.29
734.635	34976.13
734.976	35102
735.317	34867.2
735.658	34893.42
735.999	34883.02
736.339	34964.83
736.68	34977.71
737.021	34836.47
737.361	34810.93
737.702	34832.63
738.042	34657.04
738.383	34543.15
738.723	34699.07
739.063	34575.46
739.404	34530.26
739.744	34473.99
740.084	34317.84
740.424	34272.87
740.764	34322.13
741.104	34313.09
741.444	34142.25
741.784	33940.68
742.124	34149.03
742.464	34175.25
742.804	33966.89
743.143	34013.89
743.483	33935.03
743.823	33792.43
744.162	33758.31
744.502	34039.66
744.841	33701.36
745.181	33918.08
745.52	33611.64
745.86	33637.18
746.199	33515.15
746.538	33628.14
746.877	33619.55
747.216	33511.31
747.556	33391.09
747.895	33589.72
748.234	33453.46
748.573	33269.28
748.911	33321.93
749.25	33227.47
749.589	33069.74
749.928	33174.14
750.267	33112.67
750.605	33024.99
750.944	32977.76
751.283	32865.9
751.621	32940.7
751.96	32728.73
752.298	32912.23
752.636	32885.11
752.975	32622.29
753.313	32513.37
753.651	32720.14
753.989	32477.44
754.327	32443.31
754.666	32319.25
755.004	32356.31
755.342	32418
755.679	32198.35
756.017	32042.19
756.355	32092.81
756.693	31987.73
757.031	31990.67
757.368	31812.37
757.706	31906.83
758.044	31683.56
758.381	31691.02
758.719	31595.43
759.056	31705.48
759.394	31611.7
759.731	31190.24
760.068	31253.29
760.405	31143.23
760.743	30976.46
761.08	31157.02
761.417	30966.97
761.754	30929.23
762.091	30973.07
762.428	30777.37
762.765	30541.89
763.102	30663.7
763.438	30452.41
763.775	30349.13
764.112	30478.62
764.449	30334.44
764.785	30304.84
765.122	30043.83
765.458	29816.26
765.795	29832.08
766.131	29832.31
766.467	29755.7
766.804	29602.48
767.14	29503.5
767.476	29543.28
767.812	29306.9
768.148	29382.15
768.485	29022.39
768.821	29017.41
769.157	28982.39
769.492	28912.11
769.828	28850.87
770.164	28619.69
770.5	28471.67
770.836	28502.17
771.171	28370.43
771.507	28268.73
771.842	28085.01
772.178	28150.09
772.513	27906.48
772.849	28017.89
773.184	27902.42
773.519	27782.65
773.855	27598.7
774.19	27514.18
774.525	27400.96
774.86	27426.5
775.195	27420.17
775.53	27248.65
775.865	27071.93
776.2	26930.46
776.535	26801.65
776.87	26788.77
777.205	26700.87
777.539	26473.98
777.874	26687.76
778.209	26393.53
778.543	26290.03
778.878	26259.07
779.212	26141.11
779.547	26004.84
779.881	26036.48
780.215	25878.29
780.55	25815.24
780.884	25718.97
781.218	25576.83
781.552	25541.35
781.886	25478.75
782.22	25252.09
782.554	25284.18
782.888	25022.49
783.222	24995.6
783.556	24887.58
783.889	24862.95
784.223	24701.82
784.557	24598.1
784.89	24714.7
785.224	24482.62
785.557	24278.1
785.891	24333.24
786.224	24309.52
786.558	24154.49
786.891	24043.99
787.224	24029.75
787.557	23801.96
787.891	23795.18
788.224	23773.03
788.557	23842.41
788.89	23628.18
789.223	23662.3
789.556	23476.09
789.888	23292.37
790.221	23231.13
790.554	23119.94
790.887	23135.31
791.219	23027.52
791.552	22822.32
791.884	22789.56
792.217	22828.65
792.549	22647.41
792.882	22605.83
793.214	22481.09
793.546	22453.97
793.879	22334.43
794.211	22259.63
794.543	22258.27
794.875	22210.81
795.207	22258.04
795.539	22165.62
795.871	22007.2
796.203	21980.99
796.535	21725.86
796.867	21670.49
797.198	21776.93
797.53	21635.46
797.862	21531.06
798.193	21578.29
798.525	21392.98
798.856	21388.92
799.188	21145.08
799.519	21139.66
799.85	20947.12
800.182	20922.03
800.513	21089.49
800.844	20782.6
801.175	20966.78
801.506	20917.74
801.837	20792.09
802.168	20758.88
802.499	20545.55
802.83	20515.94
803.161	20431.2
803.491	20445.44
803.822	20353.24
804.153	20355.04
804.483	20160.02
804.814	20064.88
805.145	20073.24
805.475	20027.59
805.805	19991.89
806.136	19902.85
806.466	19936.3
806.796	19932.68
807.126	19685.91
807.457	19663.31
807.787	19739.01
808.117	19645.46
808.447	19579.47
808.777	19535.63
809.107	19409.98
809.436	19468.29
809.766	19439.59
810.096	19309.65
810.426	19247.28
810.755	19243.43
811.085	19215.19
811.414	19156.66
811.744	19033.27
812.073	19004.57
812.403	18938.36
812.732	18813.84
813.061	18860.17
813.39	18716.67
813.719	18767.74
814.049	18767.29
814.378	18649.78
814.707	18577.92
815.036	18549.67
815.365	18568.65
815.693	18383.8
816.022	18415.21
816.351	18197.36
816.68	18186.97
817.008	18315.1
817.337	18126.85
817.665	18071.26
817.994	18122.79
818.322	18145.84
818.651	17900.65
818.979	17895.9
819.307	18036.01
819.636	17975.45
819.964	17913.3
820.292	17860.87
820.62	17850.93
820.948	17714.21
821.276	17926.41
821.604	17758.95
821.932	17740.42
822.259	17824.71
822.587	17763.7
822.915	17630.82
823.243	17746.98
823.57	17713.08
823.898	17721.21
824.225	17649.8
824.553	17680.31
824.88	17687.54
825.207	17677.83
825.535	17661.78
825.862	17711.27
826.189	17574.55
826.516	17693.87
826.843	17667.43
827.17	17668.33
827.497	17769.58
827.824	17656.58
828.151	17800.31
828.478	17600.77
828.805	17780.87
829.131	17734.55
829.458	17610.26
829.785	17487.55
830.111	17620.43
830.438	17707.88
830.764	17600.77
831.09	17634.21
831.417	17564.16
831.743	17650.26
832.069	17649.35
832.395	17495.01
832.722	17550.15
833.048	17478.51
833.374	17490.71
833.7	17447.55
834.026	17509.47
834.351	17459.98
834.677	17331.17
835.003	17419.98
835.329	17375.24
835.654	17377.27
835.98	17318.74
836.306	17353.77
836.631	17370.72
836.956	17321.45
837.282	17334.33
837.607	17250.49
837.932	17282.81
838.258	17223.6
838.583	17209.82
838.908	17012.98
839.233	17102.93
839.558	17134.34
839.883	16905.87
840.208	16882.59
840.533	16829.94
840.858	16873.1
841.182	16874.23
841.507	16879.43
841.832	16877.85
842.156	16721.69
842.481	16847.57
842.805	16750.62
843.13	16711.75
843.454	16580
843.778	16586.78
844.103	16527.8
844.427	16535.03
844.751	16481.7
845.075	16445.32
845.399	16363.28
845.723	16298.2
846.047	16249.39
846.371	16137.75
846.695	16214.14
847.019	16037.42
847.343	15963.07
847.666	15847.82
847.99	15798.55
848.313	15860.02
848.637	15668.84
848.96	15659.8
849.284	15613.25
849.607	15482.63
849.931	15525.11
850.254	15353.14
850.577	15336.42
850.9	15229.08
851.223	15260.49
851.546	15125.12
851.869	15006.71
852.192	15048.74
852.515	14974.39
852.838	14871.35
853.161	14934.4
853.483	14813.04
853.806	14728.07
854.129	14758.81
854.451	14632.48
854.774	14529.43
855.096	14494.63
855.419	14536.44
855.741	14505.71
856.063	14386.84
856.385	14332.6
856.708	14295.54
857.03	14279.72
857.352	14238.82
857.674	14255.09
857.996	14143.68
858.318	14102.55
858.64	14097.81
858.961	14071.37
859.283	13964.93
859.605	14005.15
859.926	13969.9
860.248	14032.05
860.57	13925.83
860.891	13877.47
861.212	13841.54
861.534	13798.15
861.855	13674.77
862.176	13689.68
862.498	13662.11
862.819	13659.4
863.14	13649.01
863.461	13569.69
863.782	13557.48
864.103	13585.5
864.424	13453.3
864.745	13572.17
865.065	13516.81
865.386	13384.15
865.707	13379.41
866.027	13373.98
866.348	13324.04
866.668	13332.4
866.989	13326.3
867.309	13196.59
867.63	13204.72
867.95	13234.1
868.27	13199.3
868.59	13194.33
868.91	13150.04
869.23	13092.41
869.55	13069.36
869.87	13124.5
870.19	13091.96
870.51	13094.9
870.83	13094.9
871.15	12983.26
871.469	13051.06
871.789	13108
872.109	12978.51
872.428	12891.74
872.748	12855.35
873.067	12873.66
873.386	12867.78
873.706	12857.84
874.025	12819.2
874.344	12734.45
874.663	12796.6
874.982	12766.54
875.301	12706.88
875.62	12714.11
875.939	12621.46
876.258	12643.38
876.577	12657.85
876.896	12632.99
877.214	12573.1
877.533	12578.3
877.852	12572.88
878.17	12562.48
878.489	12589.37
878.807	12482.71
879.125	12558.41
879.444	12436.83
879.762	12435.7
880.08	12437.06
880.398	12418.53
880.716	12364.97
881.034	12322.49
881.352	12382.37
881.67	12233.9
881.988	12302.15
882.306	12223.28
882.624	12251.08
882.941	12096.28
883.259	12132.21
883.577	12068.03
883.894	12065.32
884.212	12052.21
884.529	12023.51
884.846	12051.99
885.164	12013.34
885.481	11964.98
885.798	11987.13
886.115	11840.01
886.432	11859.22
886.75	11827.81
887.067	11805.44
887.383	11752.56
887.7	11879.56
888.017	11745.33
888.334	11785.33
888.651	11694.48
888.967	11680.47
889.284	11652
889.6	11565.22
889.917	11515.73
890.233	11477.31
890.55	11450.87
890.866	11494.49
891.182	11451.78
891.498	11404.09
891.815	11412.23
892.131	11360.03
892.447	11331.78
892.763	11226.02
893.079	11205.23
893.395	11215.4
893.71	11188.05
894.026	11180.37
894.342	11137.21
894.657	10989.19
894.973	11001.62
895.289	11067.83
895.604	10986.93
895.92	10878.91
896.235	10825.8
896.55	10893.15
896.865	10860.38
897.181	10762.3
897.496	10801.85
897.811	10711.91
898.126	10705.81
898.441	10664.68
898.756	10561.86
899.071	10511.69
899.386	10539.71
899.7	10450.22
900.015	10414.29
900.33	10405.7
900.644	10321.86
900.959	10342.65
901.273	10288.87
901.588	10252.71
901.902	10163.45
902.216	10238.47
902.531	10144.24
902.845	10086.16
903.159	9995.32
903.473	9987.18
903.787	9989.67
904.101	9970.01
904.415	9930.91
904.729	9846.17
905.042	9778.6
905.356	9777.02
905.67	9807.07
905.984	9770.69
906.297	9701.09
906.611	9642.56
906.924	9669.45
907.237	9651.37
907.551	9511.49
907.864	9465.16
908.177	9452.96
908.491	9464.93
908.804	9403.69
909.117	9323.7
909.43	9240.31
909.743	9235.34
910.056	9224.49
910.368	9172.74
910.681	9198.05
910.994	9135.45
911.307	9137.49
911.619	9057.94
911.932	9115.79
912.244	8977.94
912.557	9005.51
912.869	8940.43
913.181	8844.39
913.494	8822.24
913.806	8810.49
914.118	8789.25
914.43	8741.79
914.742	8748.57
915.054	8677.16
915.366	8600.32
915.678	8630.15
915.99	8595.81
916.302	8509.93
916.613	8393.55
916.925	8494.34
917.236	8493.89
917.548	8329.82
917.859	8321.01
918.171	8346.77
918.482	8286.21
918.794	8256.15
919.105	8263.61
919.416	8170.96
919.727	8110.85
920.038	8095.25
920.349	8071.75
920.66	8064.52
920.971	8067.46
921.282	8047.12
921.593	7934.13
921.903	7900.23
922.214	7931.87
922.525	7785.88
922.835	7789.5
923.146	7757.41
923.456	7774.81
923.767	7681.7
924.077	7740.46
924.387	7616.85
924.697	7569.17
925.008	7565.55
925.318	7562.39
925.628	7482.39
925.938	7447.81
926.248	7375.95
926.558	7399.23
926.867	7342.73
927.177	7269.96
927.487	7337.76
927.796	7217.54
928.106	7188.61
928.416	7180.02
928.725	7146.35
929.034	7109.29
929.344	7096.18
929.653	7129.63
929.962	7034.72
930.271	6987.03
930.581	6963.08
930.89	6910.65
931.199	6867.71
931.508	6888.73
931.817	6930.76
932.125	6815.74
932.434	6816.42
932.743	6720.37
933.051	6784.1
933.36	6719.24
933.669	6655.74
933.977	6658.91
934.286	6669.98
934.594	6611.22
934.902	6548.4
935.21	6498.69
935.519	6546.37
935.827	6459.14
936.135	6464.56
936.443	6428.63
936.751	6425.92
937.059	6377.78
937.367	6376.88
937.674	6375.52
937.982	6315.19
938.29	6217.79
938.597	6240.84
938.905	6201.29
939.213	6195.87
939.52	6119.71
939.827	6170.11
940.135	6128.53
940.442	6070.67
940.749	6071.58
941.056	6066.15
941.363	6008.98
941.67	5982.77
941.977	5959.49
942.284	5878.81
942.591	5933.95
942.898	5822.77
943.205	5885.59
943.511	5839.04
943.818	5804.92
944.125	5798.36
944.431	5744.13
944.738	5691.7
945.044	5716.78
945.35	5633.17
945.657	5621.42
945.963	5590.01
946.269	5563.12
946.575	5565.83
946.881	5522.89
947.187	5523.12
947.493	5559.95
947.799	5512.95
948.105	5454.42
948.41	5396.12
948.716	5401.31
949.022	5336.23
949.327	5336.23
949.633	5310.24
949.938	5358.83
950.244	5312.28
950.549	5237.93
950.854	5236.8
951.16	5253.52
951.465	5171.04
951.77	5154.77
952.075	5090.13
952.38	5112.28
952.685	5109.12
952.99	5036.12
953.294	5087.65
953.599	4998.39
953.904	4970.82
954.209	4995.45
954.513	4985.5
954.818	4922.68
955.122	4931.04
955.426	4887.88
955.731	4897.15
956.035	4862.34
956.339	4811.72
956.643	4835.9
956.948	4770.82
957.252	4772.63
957.556	4740.09
957.86	4695.34
958.163	4719.3
958.467	4638.17
958.771	4707.77
959.075	4637.04
959.378	4632.97
959.682	4586.64
959.985	4594.78
960.289	4598.62
960.592	4551.39
960.896	4537.15
961.199	4516.14
961.502	4514.78
961.805	4472.3
962.108	4459.87
962.411	4435.69
962.714	4416.03
963.017	4360.21
963.32	4386.88
963.623	4363.37
963.926	4335.8
964.228	4296.71
964.531	4282.7
964.833	4293.09
965.136	4246.77
965.438	4240.89
965.741	4205.86
966.043	4188.92
966.345	4142.59
966.648	4148.69
966.95	4166.54
967.252	4145.3
967.554	4133.32
967.856	4056.49
968.158	4031.86
968.46	4051.52
968.761	4060.56
969.063	4018.75
969.365	3984.63
969.666	3970.62
969.968	3944.63
970.269	3934.91
970.571	3932.42
970.872	3914.57
971.174	3877.51
971.475	3877.96
971.776	3835.03
972.077	3844.52
972.378	3848.81
972.679	3796.38
972.98	3808.81
973.281	3788.93
973.582	3774.46
973.883	3724.07
974.183	3693.34
974.484	3704.86
974.785	3652.21
975.085	3669.83
975.386	3603.39
975.686	3636.39
975.986	3629.16
976.287	3589.83
976.587	3562.72
976.887	3585.32
977.187	3607.24
977.487	3554.81
977.787	3566.33
978.087	3518.2
978.387	3486.33
978.687	3477.3
978.987	3482.04
979.286	3474.81
979.586	3407.24
979.885	3403.85
980.185	3383.96
980.484	3392.55
980.784	3379.45
981.083	3368.37
981.382	3376.96
981.682	3305.1
981.981	3328.82
982.28	3312.33
982.579	3301.93
982.878	3269.39
983.177	3262.16
983.475	3247.7
983.774	3233.91
984.073	3221.26
984.372	3186.23
984.67	3177.19
984.969	3200.47
985.267	3171.31
985.566	3152.33
985.864	3130.41
986.162	3121.15
986.461	3088.61
986.759	3084.54
987.057	3038.66
987.355	3009.51
987.653	3054.93
987.951	3007.03
988.249	2998.89
988.547	3024.2
988.844	2966.57
989.142	3010.42
989.44	2968.61
989.737	2926.8
990.035	2903.75
990.332	2925.67
990.63	2928.38
990.927	2891.55
991.224	2847.03
991.521	2886.12
991.819	2850.42
992.116	2821.49
992.413	2818.33
992.71	2788.95
993.006	2812.91
993.303	2776.98
993.6	2784.66
993.897	2742.85
994.193	2732.23
994.49	2735.62
994.787	2715.06
995.083	2675.51
995.379	2694.27
995.676	2686.58
995.972	2648.84
996.268	2610.88
996.565	2646.13
996.861	2632.12
997.157	2605.23
997.453	2600.03
997.749	2564.78
998.044	2564.1
998.34	2548.51
998.636	2556.42
998.932	2508.28
999.227	2535.4
999.523	2510.54
999.818	2459.7
1000.114	2500.37
1000.409	2503.31
1000.704	2448.17
1001	2428.96
1001.295	2400.49
1001.59	2397.32
1001.885	2409.53
1002.18	2390.77
1002.475	2356.42
1002.77	2373.82
1003.065	2372.01
1003.359	2327.04
1003.654	2341.28
1003.949	2304.9
1004.243	2276.42
1004.538	2252.47
1004.832	2261.06
1005.127	2278.01
1005.421	2268.97
1005.715	2242.53
1006.009	2209.31
1006.304	2184
1006.598	2197.1
1006.892	2203.2
1007.186	2174.05
1007.48	2139.48
1007.773	2137.44
1008.067	2121.63
1008.361	2111.46
1008.655	2113.49
1008.948	2091.34
1009.242	2071.23
1009.535	2086.82
1009.829	2065.81
1010.122	2072.13
1010.415	2040.27
1010.708	2018.35
1011.001	1990.56
1011.295	1996.66
1011.588	1990.56
1011.881	1956.21
1012.173	1937.45
1012.466	1966.37
1012.759	1939.26
1013.052	1915.53
1013.344	1907.85
1013.637	1903.55
1013.93	1899.26
1014.222	1879.37
1014.514	1903.1
1014.807	1836.66
1015.099	1819.49
1015.391	1847.06
1015.683	1828.98
1015.976	1818.58
1016.268	1781.29
1016.56	1780.17
1016.851	1776.1
1017.143	1788.75
1017.435	1744.23
1017.727	1762.31
1018.018	1750.56
1018.31	1743.1
1018.602	1715.08
1018.893	1718.02
1019.185	1718.92
1019.476	1679.6
1019.767	1704.46
1020.058	1673.05
1020.35	1621.07
1020.641	1636.44
1020.932	1642.32
1021.223	1596.89
1021.514	1607.74
1021.804	1607.97
1022.095	1574.07
1022.386	1605.71
1022.677	1567.06
1022.967	1564.58
1023.258	1542.43
1023.548	1538.14
1023.839	1535.88
1024.129	1521.41
1024.419	1515.99
1024.709	1519.61
1025	1487.52
1025.29	1461.08
1025.58	1465.82
1025.87	1463.11
1026.16	1452.94
1026.449	1465.82
1026.739	1421.53
1027.029	1401.19
1027.319	1406.39
1027.608	1415.65
1027.898	1374.53
1028.187	1403.68
1028.477	1385.83
1028.766	1363.23
1029.055	1356
1029.344	1350.35
1029.634	1324.58
1029.923	1310.12
1030.212	1325.71
1030.501	1294.98
1030.79	1276.68
1031.078	1294.75
1031.367	1291.59
1031.656	1248.43
1031.945	1272.16
1032.233	1274.42
1032.522	1224.7
1032.81	1225.6
1033.099	1226.51
1033.387	1221.76
1033.675	1212.27
1033.963	1195.77
1034.251	1193.97
1034.54	1170.46
1034.828	1183.12
1035.116	1171.37
1035.403	1173.4
1035.691	1163.46
1035.979	1129.11
1036.267	1140.41
1036.554	1131.82
1036.842	1118.71
1037.129	1111.71
1037.417	1101.09
1037.704	1083.01
1037.992	1086.62
1038.279	1103.12
1038.566	1084.14
1038.853	1084.14
1039.14	1084.14
