Data from hue_250_FLMS001491_00042.txt Node
Date: Tue Feb 07 16:01:01 GMT 2017
User: dcchb
Spectrometer: FLMS00149
Trigger mode: 0
Integration Time (sec): 2.000000E-2
Scans to average: 10
Electric dark correction enabled: true
Nonlinearity correction enabled: false
Boxcar width: 0
XAxis mode: Wavelengths
Number of Pixels in Spectrum: 2048
>>>>>Begin Spectral Data<<<<<
341.393	-6.33
341.776	-6.33
342.16	-6.33
342.543	-40.45
342.927	-97.17
343.31	-69.38
343.693	-76.38
344.077	-65.31
344.46	-42.94
344.843	-54.46
345.226	-38.87
345.61	-22.6
345.993	-34.8
346.376	9.94
346.759	0.68
347.142	23.5
347.525	41.58
347.908	58.76
348.291	55.82
348.674	96.72
349.057	117.74
349.44	125.19
349.823	143.73
350.206	155.7
350.588	195.25
350.971	182.82
351.354	222.59
351.737	223.95
352.119	243.38
352.502	262.82
352.884	276.38
353.267	264.63
353.65	292.2
354.032	285.19
354.414	311.18
354.797	316.83
355.179	310.27
355.562	302.36
355.944	310.05
356.326	320.67
356.709	310.27
357.091	343.49
357.473	339.2
357.855	315.7
358.238	347.56
358.62	339.43
359.002	331.74
359.384	348.24
359.766	316.38
360.148	326.55
360.53	335.81
360.912	307.79
361.294	322.25
361.676	311.86
362.057	305.08
362.439	306.66
362.821	319.54
363.203	318.41
363.584	317.05
363.966	304.85
364.348	310.5
364.729	294.68
365.111	308.47
365.493	317.73
365.874	306.88
366.256	310.05
366.637	328.58
367.019	307.11
367.4	310.73
367.781	303.04
368.163	330.39
368.544	317.96
368.925	286.32
369.306	291.52
369.688	307.56
370.069	283.38
370.45	308.24
370.831	281.35
371.212	298.75
371.593	314.34
371.974	301.01
372.355	302.59
372.736	308.47
373.117	311.63
373.498	316.83
373.879	310.05
374.26	295.13
374.641	312.99
375.021	314.57
375.402	313.89
375.783	317.96
376.163	316.15
376.544	312.53
376.925	349.82
377.305	322.25
377.686	330.39
378.066	316.83
378.447	324.29
378.827	325.87
379.208	336.26
379.588	312.31
379.968	346.43
380.349	326.09
380.729	336.04
381.109	328.13
381.489	307.56
381.87	319.31
382.25	322.93
382.63	343.27
383.01	325.19
383.39	330.39
383.77	345.08
384.15	333.1
384.53	342.36
384.91	328.58
385.29	346.43
385.67	369.93
386.049	344.62
386.429	345.75
386.809	371.29
387.189	361.12
387.568	360.22
387.948	358.18
388.328	332.42
388.707	350.5
389.087	346.88
389.466	361.35
389.846	352.08
390.225	352.08
390.605	364.51
390.984	370.16
391.363	352.53
391.743	371.29
392.122	370.61
392.501	364.51
392.881	363.15
393.26	370.39
393.639	384.85
394.018	367
394.397	363.61
394.776	380.78
395.155	385.07
395.534	380.78
395.913	385.98
396.292	363.38
396.671	387.11
397.05	392.08
397.429	393.66
397.808	373.32
398.186	376.26
398.565	397.05
398.944	400.89
399.323	400.89
399.701	390.5
400.08	408.58
400.458	406.77
400.837	406.54
401.215	420.33
401.594	415.13
401.972	409.93
402.351	407.9
402.729	412.64
403.107	434.79
403.486	427.56
403.864	439.76
404.242	419.2
404.62	441.57
404.999	442.93
405.377	437.28
405.755	434.34
406.133	439.99
406.511	431.63
406.889	462.59
407.267	485.41
407.645	481.57
408.023	453.1
408.401	447.9
408.779	484.51
409.156	476.6
409.534	485.86
409.912	492.87
410.29	522.25
410.667	515.92
411.045	505.98
411.422	516.14
411.8	517.27
412.178	519.76
412.555	543.49
412.933	542.81
413.31	543.26
413.687	555.47
414.065	563.15
414.442	544.84
414.819	575.58
415.197	576.03
415.574	608.12
415.951	581
416.328	597.05
416.705	601.11
417.082	609.93
417.46	639.08
417.837	613.77
418.214	629.36
418.591	651.28
418.967	637.05
419.344	644.5
419.721	639.31
420.098	665.75
420.475	659.19
420.852	683.6
421.228	675.46
421.605	673.43
421.982	687.21
422.358	722.24
422.735	749.13
423.111	722.01
423.488	739.19
423.864	761.56
424.241	773.31
424.617	749.13
424.994	762.69
425.37	751.62
425.746	777.83
426.123	790.94
426.499	805.85
426.875	809.92
427.251	842.24
427.627	831.84
428.003	831.39
428.379	850.83
428.756	871.16
429.132	860.09
429.507	917.72
429.883	909.13
430.259	904.83
430.635	934.89
431.011	943.93
431.387	936.47
431.763	953.87
432.138	927.21
432.514	988.22
432.89	1005.62
433.265	989.13
433.641	992.97
434.016	1031.16
434.392	1037.94
434.767	1062.57
435.143	1069.35
435.518	1092.63
435.894	1107.54
436.269	1101.21
436.644	1171.04
437.02	1140.76
437.395	1155
437.77	1173.3
438.145	1208.56
438.52	1199.97
438.895	1218.95
439.271	1235.67
439.646	1268.22
440.021	1251.94
440.395	1269.12
440.77	1277.03
441.145	1284.71
441.52	1329.23
441.895	1330.81
442.27	1360.64
442.645	1316.58
443.019	1336.91
443.394	1344.37
443.769	1363.13
444.143	1385.5
444.518	1386.4
444.892	1402.67
445.267	1437.48
445.641	1433.18
446.016	1481.99
446.39	1481.09
446.764	1428.89
447.139	1491.49
447.513	1480.19
447.887	1535.33
448.262	1501.43
448.636	1504.14
449.01	1500.75
449.384	1522.9
449.758	1541.65
450.132	1566.51
450.506	1558.83
450.88	1576.91
451.254	1581.2
451.628	1630.24
452.002	1617.13
452.376	1613.29
452.75	1650.13
453.123	1649.9
453.497	1687.19
453.871	1696.45
454.244	1725.83
454.618	1717.24
454.992	1745.72
455.365	1728.32
455.739	1781.2
456.112	1832.04
456.486	1820.07
456.859	1830.01
457.232	1844.7
457.606	1848.76
457.979	1882.89
458.352	1954.52
458.725	1939.61
459.099	1952.94
459.472	1962.66
459.845	1991.81
460.218	2000.4
460.591	2039.72
460.964	2008.99
461.337	2083.34
461.71	2145.25
462.083	2137.57
462.456	2113.84
462.829	2150.68
463.201	2169.89
463.574	2175.54
463.947	2214.86
464.32	2262.54
464.692	2267.96
465.065	2291.01
465.438	2286.49
465.81	2358.58
466.183	2379.15
466.555	2418.47
466.928	2422.08
467.3	2454.62
467.672	2452.36
468.045	2510.44
468.417	2540.95
468.789	2527.17
469.161	2573.49
469.534	2580.05
469.906	2614.85
470.278	2647.39
470.65	2680.38
471.022	2705.92
471.394	2762.19
471.766	2792.47
472.138	2877.66
472.51	2875.86
472.882	2902.3
473.253	2890.55
473.625	3010.54
473.997	3053.71
474.369	3051.67
474.74	3042.18
475.112	3116.53
475.484	3139.35
475.855	3208.5
476.227	3220.03
476.598	3323.75
476.97	3291.44
477.341	3381.83
477.713	3425.22
478.084	3451.66
478.455	3517.42
478.827	3552.45
479.198	3647.59
479.569	3650.98
479.94	3739.11
480.311	3761.26
480.682	3847.36
481.053	3903.63
481.424	3990.63
481.795	4003.06
482.166	4054.13
482.537	4111.76
482.908	4144.98
483.279	4179.33
483.65	4277.85
484.021	4320.34
484.391	4374.57
484.762	4364.63
485.133	4438.53
485.503	4461.8
485.874	4599.88
486.244	4599.43
486.615	4709.48
486.985	4687.11
487.356	4796.48
487.726	4837.16
488.097	4913.32
488.467	4858.4
488.837	5054.56
489.207	5032.18
489.578	5135.46
489.948	5214.1
490.318	5244.61
490.688	5224.72
491.058	5314.21
491.428	5352.18
491.798	5363.25
492.168	5484.6
492.538	5503.13
492.908	5556.92
493.278	5623.13
493.648	5606.63
494.017	5701.77
494.387	5754.42
494.757	5777.48
495.126	5815.89
495.496	5837.59
495.866	5854.99
496.235	5920.52
496.605	5941.54
496.974	5944.7
497.344	6003.91
497.713	6058.15
498.082	6101.99
498.452	6186.5
498.821	6215.2
499.19	6154.19
499.559	6234.86
499.928	6204.36
500.298	6295.43
500.667	6270.57
501.036	6263.56
501.405	6360.74
501.774	6353.73
502.143	6433.96
502.512	6391.02
502.88	6481.19
503.249	6431.7
503.618	6491.13
503.987	6558.25
504.356	6568.64
504.724	6586.49
505.093	6607.51
505.462	6646.38
505.83	6634.85
506.199	6709.88
506.567	6703.1
506.936	6699.71
507.304	6789.2
507.672	6852.25
508.041	6824.68
508.409	6859.71
508.777	6897.9
509.145	6917.33
509.514	6972.7
509.882	6975.64
510.25	6928.63
510.618	7019.02
510.986	6975.18
511.354	7051.57
511.722	7077.55
512.09	7104.67
512.458	7099.47
512.826	7151.45
513.193	7118.46
513.561	7108.51
513.929	7207.95
514.297	7292.69
514.664	7290.88
515.032	7240.71
515.4	7336.53
515.767	7302.86
516.135	7338.79
516.502	7307.38
516.869	7376.53
517.237	7439.8
517.604	7363.87
517.972	7441.16
518.339	7462.4
518.706	7406.13
519.073	7525.23
519.44	7457.43
519.808	7568.39
520.175	7487.94
520.542	7622.4
520.909	7583.3
521.276	7610.42
521.643	7701.94
522.009	7694.71
522.376	7691.78
522.743	7739.23
523.11	7748.27
523.477	7828.49
523.843	7736.97
524.21	7822.62
524.577	7832.79
524.943	7885.89
525.31	7904.65
525.676	7959.11
526.043	7917.08
526.409	7980.36
526.776	7986
527.142	7981.26
527.508	8044.53
527.874	8072.1
528.241	8067.81
528.607	8077.98
528.973	8145.77
529.339	8132.22
529.705	8173.8
530.071	8193
530.437	8252.44
530.803	8195.72
531.169	8232.33
531.535	8230.07
531.901	8274.13
532.267	8250.86
532.632	8294.7
532.998	8265.77
533.364	8310.52
533.73	8284.75
534.095	8317.97
534.461	8271.19
534.826	8310.06
535.192	8344.19
535.557	8326.11
535.923	8343.51
536.288	8316.84
536.653	8360.91
537.019	8289.5
537.384	8310.97
537.749	8362.27
538.114	8320.01
538.479	8331.98
538.845	8321.82
539.21	8290.86
539.575	8320.01
539.94	8385.54
540.305	8368.59
540.67	8297.18
541.034	8338.54
541.399	8414.24
541.764	8283.17
542.129	8355.26
542.494	8369.05
542.858	8379.89
543.223	8351.87
543.587	8320.91
543.952	8334.24
544.316	8323.17
544.681	8360.01
545.045	8323.62
545.41	8399.78
545.774	8280.46
546.138	8413.11
546.503	8278.88
546.867	8317.3
547.231	8406.33
547.595	8355.26
547.959	8314.36
548.324	8286.34
548.688	8317.75
549.052	8388.93
549.416	8309.84
549.779	8327.01
550.143	8323.4
550.507	8353.68
550.871	8376.73
551.235	8360.68
551.599	8387.8
551.962	8385.77
552.326	8351.19
552.689	8370.18
553.053	8361.59
553.417	8329.05
553.78	8349.16
554.143	8372.66
554.507	8321.36
554.87	8385.09
555.234	8435.03
555.597	8439.1
555.96	8445.65
556.323	8482.26
556.686	8431.87
557.05	8481.13
557.413	8435.48
557.776	8480.45
558.139	8535.82
558.502	8542.15
558.865	8528.14
559.228	8535.59
559.59	8569.94
559.953	8588.25
560.316	8615.37
560.679	8566.55
561.041	8613.33
561.404	8647
561.767	8715.03
562.129	8667.57
562.492	8720.67
562.854	8771.52
563.217	8744.18
563.579	8712.31
563.941	8773.55
564.304	8763.84
564.666	8915.47
565.028	8855.13
565.39	8860.56
565.753	8915.7
566.115	8938.52
566.477	8976.49
566.839	8964.51
567.201	8996.6
567.563	8991.63
567.925	9074.56
568.287	9033.66
568.648	9023.72
569.01	9086.54
569.372	9143.26
569.734	9165.63
570.095	9165.41
570.457	9216.03
570.819	9217.84
571.18	9284.05
571.542	9241.11
571.903	9218.51
572.265	9289.47
572.626	9331.05
572.987	9389.81
573.349	9385.06
573.71	9403.82
574.071	9409.7
574.432	9524.95
574.794	9513.87
575.155	9487.43
575.516	9478.85
575.877	9512.74
576.238	9570.37
576.599	9560.43
576.96	9562.91
577.32	9559.3
577.681	9630.93
578.042	9662.34
578.403	9613.76
578.763	9688.11
579.124	9655.57
579.485	9685.4
579.845	9787.09
580.206	9727.65
580.566	9774.66
580.927	9739.4
581.287	9789.8
581.648	9793.19
582.008	9892.62
582.368	9869.35
582.728	9848.55
583.089	9806.3
583.449	9805.84
583.809	9880.19
584.169	9926.74
584.529	9900.98
584.889	10000.64
585.249	9925.39
585.609	9916.12
585.969	9945.95
586.329	9968.33
586.688	10003.58
587.048	9983.01
587.408	9914.09
587.768	9978.49
588.127	10037.93
588.487	9997.25
588.846	10098.49
589.206	10000.42
589.565	10039.06
589.925	10180.98
590.284	10099.62
590.643	10117.47
591.003	10147.08
591.362	10158.6
591.721	10146.17
592.08	10150.02
592.44	10201.99
592.799	10250.35
593.158	10276.79
593.517	10187.98
593.876	10234.31
594.235	10240.63
594.593	10145.5
594.952	10258.26
595.311	10217.58
595.67	10292.84
596.029	10298.26
596.387	10280.86
596.746	10385.04
597.104	10294.87
597.463	10250.35
597.822	10362.44
598.18	10255.78
598.538	10245.83
598.897	10365.38
599.255	10259.39
599.613	10382.78
599.972	10319.5
600.33	10340.07
600.688	10359.73
601.046	10385.94
601.404	10375.32
601.762	10408.99
602.12	10340.52
602.478	10375.77
602.836	10478.37
603.194	10311.14
603.552	10393.4
603.91	10331.25
604.268	10362.67
604.625	10372.61
604.983	10437.92
605.341	10391.37
605.698	10490.12
606.056	10486.73
606.413	10378.03
606.771	10429.33
607.128	10497.35
607.485	10439.95
607.843	10535.09
608.2	10529.21
608.557	10567.41
608.914	10501.87
609.272	10501.87
609.629	10561.53
609.986	10545.03
610.343	10546.16
610.7	10605.14
611.057	10643.79
611.414	10551.14
611.771	10616.44
612.127	10652.38
612.484	10612.15
612.841	10633.84
613.198	10606.5
613.554	10585.03
613.911	10734.63
614.267	10670.68
614.624	10583.9
614.98	10746.16
615.337	10732.37
615.693	10699.83
616.05	10741.19
616.406	10787.96
616.762	10760.17
617.118	10708.19
617.475	10707.06
617.831	10790
618.187	10720.62
618.543	10763.78
618.899	10746.61
619.255	10808.76
619.611	10793.39
619.967	10853.5
620.323	10859.83
620.678	10791.81
621.034	10768.76
621.39	10758.59
621.746	10796.55
622.101	10924.46
622.457	10784.12
622.812	10812.6
623.168	10844.23
623.523	10853.73
623.879	10817.34
624.234	10766.27
624.589	10780.06
624.945	10846.72
625.3	10771.24
625.655	10808.76
626.01	10827.51
626.365	10871.8
626.72	10861.18
627.075	10834.97
627.43	10799.04
627.785	10828.87
628.14	10744.58
628.495	10745.25
628.85	10829.32
629.205	10676.33
629.559	10861.41
629.914	10662.09
630.269	10807.17
630.623	10794.52
630.978	10671.13
631.332	10705.71
631.687	10758.81
632.041	10708.64
632.396	10679.04
632.75	10750
633.104	10662.32
633.459	10645.82
633.813	10599.72
634.167	10607.86
634.521	10528.08
634.875	10603.79
635.229	10623.45
635.583	10576.22
635.937	10603.56
636.291	10629.78
636.645	10491.48
636.999	10532.6
637.352	10541.64
637.706	10507.29
638.06	10508.42
638.413	10515.43
638.767	10486.5
639.121	10477.24
639.474	10382.55
639.828	10462.1
640.181	10438.14
640.534	10509.33
640.888	10380.52
641.241	10337.13
641.594	10360.63
641.947	10366.96
642.301	10392.27
642.654	10354.98
643.007	10353.85
643.36	10346.17
643.713	10314.08
644.066	10336.45
644.419	10299.16
644.771	10260.52
645.124	10107.76
645.477	10145.27
645.83	10053.29
646.182	10037.7
646.535	10006.97
646.888	9931.94
647.24	9818.05
647.593	10025.5
647.945	9884.71
648.298	9949.79
648.65	9900.53
649.002	9899.17
649.355	9949.57
649.707	9949.12
650.059	9968.55
650.411	10084.93
650.763	10117.7
651.115	10231.14
651.467	10117.47
651.819	10192.5
652.171	10211.26
652.523	10160.41
652.875	10148.43
653.227	10030.24
653.578	10086.74
653.93	10111.37
654.282	10104.59
654.633	10109.79
654.985	10076.12
655.337	10100.53
655.688	10064.14
656.039	10116.12
656.391	10096.68
656.742	10059.4
657.094	10065.05
657.445	10149.56
657.796	10108.89
658.147	10083.58
658.498	10078.83
658.849	10092.84
659.2	10082.9
659.551	10090.36
659.902	10124.48
660.253	10036.35
660.604	10115.21
660.955	10001.32
661.306	10078.83
661.656	10096.46
662.007	10026.18
662.358	10062.56
662.708	10086.97
663.059	10023.24
663.409	9984.82
663.76	10085.84
664.11	10173.52
664.461	10147.3
664.811	10082.9
665.161	10069.79
665.511	10056.46
665.862	10091.03
666.212	10161.31
666.562	10069.11
666.912	10062.33
667.262	10078.15
667.612	10050.36
667.962	10020.98
668.312	10087.87
668.662	10065.5
669.011	9994.31
669.361	9983.24
669.711	10046.29
670.06	10011.49
670.41	10003.35
670.76	9971.04
671.109	10098.27
671.459	10028.44
671.808	9965.61
672.157	9976.46
672.507	9995.44
672.856	9957.93
673.205	9977.59
673.554	9965.39
673.904	9975.1
674.253	10027.31
674.602	9963.81
674.951	9854.2
675.3	9769.91
675.649	9919.97
675.998	9925.84
676.346	9875.22
676.695	9916.58
677.044	9840.42
677.393	9891.94
677.741	9875.9
678.09	9799.29
678.438	9841.78
678.787	9830.7
679.135	9848.55
679.484	9768.33
679.832	9767.65
680.181	9702.8
680.529	9814.88
680.877	9681.78
681.225	9745.05
681.573	9787.31
681.922	9672.97
682.27	9736.02
682.618	9654.21
682.966	9662.8
683.314	9721.78
683.661	9599.97
684.009	9620.99
684.357	9537.15
684.705	9581.67
685.053	9512.07
685.4	9563.14
685.748	9463.71
686.095	9520.2
686.443	9418.51
686.79	9485.4
687.138	9395.69
687.485	9369.92
687.832	9407.44
688.18	9403.59
688.527	9354.33
688.874	9346.42
689.221	9277.04
689.568	9283.6
689.915	9323.14
690.262	9303.48
690.609	9297.61
690.956	9177.84
691.303	9188.46
691.65	9188.23
691.997	9139.42
692.344	9079.76
692.69	9084.51
693.037	9079.31
693.383	9000.44
693.73	9038.41
694.077	8880.22
694.423	8880.67
694.769	8887.22
695.116	8870.95
695.462	8855.59
695.808	8764.29
696.155	8820.79
696.501	8720.67
696.847	8740.11
697.193	8672.09
697.539	8689.72
697.885	8651.3
698.231	8633.45
698.577	8647.23
698.923	8649.04
699.269	8539.44
699.614	8520.91
699.96	8472.77
700.306	8474.58
700.651	8444.52
700.997	8387.8
701.342	8327.01
701.688	8354.81
702.033	8359.55
702.379	8280.23
702.724	8329.95
703.069	8278.88
703.415	8183.29
703.76	8200.01
704.105	8194.81
704.45	8127.02
704.795	8101.03
705.14	8061.03
705.485	8092.22
705.83	8038.88
706.175	7991.65
706.52	7969.51
706.865	7955.05
707.209	7956.17
707.554	7909.4
707.899	7967.02
708.243	7864.65
708.588	7857.42
708.932	7835.95
709.277	7831.43
709.621	7854.03
709.966	7819.68
710.31	7742.62
710.654	7690.87
710.998	7779
711.342	7759.12
711.687	7655.39
712.031	7679.12
712.375	7739.91
712.719	7718.22
713.063	7670.31
713.407	7666.01
713.75	7604.55
714.094	7633.47
714.438	7589.63
714.782	7572.46
715.125	7472.8
715.469	7600.93
715.812	7531.78
716.156	7433.48
716.499	7442.52
716.843	7429.18
717.186	7397.09
717.53	7532.01
717.873	7383.53
718.216	7424.44
718.559	7377.89
718.902	7355.51
719.246	7324.78
719.589	7367.94
719.932	7341.05
720.275	7302.41
720.617	7317.1
720.96	7290.88
721.303	7365.46
721.646	7272.35
721.989	7248.17
722.331	7260.37
722.674	7218.12
723.016	7254.05
723.359	7144.22
723.701	7231.9
724.044	7178.79
724.386	7141.96
724.729	7196.87
725.071	7240.94
725.413	7193.03
725.755	7226.7
726.097	7115.29
726.439	7085.46
726.782	7159.36
727.124	7143.32
727.465	7150.09
727.807	7124.11
728.149	7115.52
728.491	7099.93
728.833	7137.67
729.175	7084.56
729.516	7045.01
729.858	7047.72
730.199	7107.16
730.541	7074.62
730.882	7077.33
731.224	7064
731.565	7070.77
731.906	7117.1
732.248	7102.86
732.589	7053.6
732.93	7043.88
733.271	7012.7
733.612	7033.04
733.953	7049.76
734.294	7042.98
734.635	7009.99
734.976	7044.79
735.317	6994.17
735.658	6990.32
735.999	7029.42
736.339	7039.81
736.68	7036.43
737.021	7045.92
737.361	6979.25
737.702	7014.5
738.042	6979.48
738.383	6980.83
738.723	7026.48
739.063	6979.48
739.404	7077.33
739.744	7037.1
740.084	7020.38
740.424	7052.02
740.764	7070.77
741.104	7060.38
741.444	7041.62
741.784	7014.5
742.124	7084.11
742.464	7120.26
742.804	7111.68
743.143	7110.1
743.483	7087.72
743.823	7085.01
744.162	7108.51
744.502	7167.95
744.841	7132.47
745.181	7185.12
745.52	7182.18
745.86	7221.73
746.199	7214.5
746.538	7179.47
746.877	7185.57
747.216	7320.26
747.556	7280.03
747.895	7346.25
748.234	7289.53
748.573	7375.4
748.911	7402.29
749.25	7454.49
749.589	7433.25
749.928	7510.76
750.267	7572.23
750.605	7609.97
750.944	7718.22
751.283	7696.52
751.621	7762.73
751.96	7791.66
752.298	7863.3
752.636	7886.57
752.975	7913.69
753.313	8033.01
753.651	8043.18
753.989	8150.75
754.327	8239.33
754.666	8242.95
755.004	8307.35
755.342	8435.71
755.679	8507.35
756.017	8567.91
756.355	8655.59
756.693	8697.17
757.031	8839.09
757.368	8856.72
757.706	8952.76
758.044	9075.92
758.381	9124.73
758.719	9259.87
759.056	9384.16
759.394	9400.2
759.731	9505.29
760.068	9591.61
760.405	9725.39
760.743	9765.84
761.08	9845.84
761.417	9952.96
761.754	10024.37
762.091	10157.02
762.428	10207.42
762.765	10240.41
763.102	10481.98
763.438	10508.88
763.775	10520.63
764.112	10682.66
764.449	10771.69
764.785	10840.84
765.122	10962.2
765.458	11081.29
765.795	11136.88
766.131	11266.37
766.467	11246.71
766.804	11442.19
767.14	11430.21
767.476	11487.16
767.812	11550.66
768.148	11660.94
768.485	11626.59
768.821	11712.46
769.157	11873.59
769.492	11929.4
769.828	11965.79
770.164	12037.2
770.5	12113.13
770.836	12146.12
771.171	12171.43
771.507	12287.59
771.842	12316.29
772.178	12351.09
772.513	12413.91
772.849	12393.35
773.184	12402.84
773.519	12559.22
773.855	12549.73
774.19	12552.66
774.525	12598.76
774.86	12597.18
775.195	12668.14
775.53	12757.86
775.865	12643.51
776.2	12615.26
776.535	12675.15
776.87	12661.81
777.205	12659.33
777.539	12716.5
777.874	12737.97
778.209	12666.79
778.543	12678.54
778.878	12646.9
779.212	12737.97
779.547	12639.89
779.881	12768.25
780.215	12723.96
780.55	12801.25
780.884	12742.04
781.218	12652.32
781.552	12768.7
781.886	12645.32
782.22	12672.66
782.554	12690.06
782.888	12569.61
783.222	12627.24
783.556	12572.78
783.889	12568.71
784.223	12473.12
784.557	12533.23
784.89	12665.2
785.224	12502.5
785.557	12478.09
785.891	12522.61
786.224	12491.2
786.558	12463.63
786.891	12399.45
787.224	12331.2
787.557	12367.13
787.891	12400.13
788.224	12377.98
788.557	12381.82
788.89	12337.3
789.223	12337.75
789.556	12236.51
789.888	12245.55
790.221	12282.84
790.554	12179.79
790.887	12188.38
791.219	12128.95
791.552	12131.21
791.884	12105.67
792.217	12145.9
792.549	12088.72
792.882	12007.82
793.214	11941.15
793.546	11997.88
793.879	11933.7
794.211	11922.17
794.543	11857.77
794.875	11880.59
795.207	11905.9
795.539	11895.05
795.871	11826.36
796.203	11742.97
796.535	11735.74
796.867	11697.55
797.198	11643.54
797.53	11694.38
797.862	11535.74
798.193	11641.5
798.525	11603.54
798.856	11566.48
799.188	11430.66
799.519	11492.81
799.85	11407.16
800.182	11389.76
800.513	11456.42
800.844	11341.62
801.175	11397.21
801.506	11299.14
801.837	11295.52
802.168	11282.64
802.499	11206.03
802.83	11168.29
803.161	11173.04
803.491	11172.81
803.822	11203.1
804.153	11108.86
804.483	11006.26
804.814	11050.33
805.145	11008.98
805.475	11007.39
805.805	10952.03
806.136	10887.4
806.466	11000.16
806.796	10872.03
807.126	10845.14
807.457	10873.61
807.787	10842.88
808.117	10734.63
808.447	10733.05
808.777	10774.86
809.107	10770.79
809.436	10716.33
809.766	10698.48
810.096	10602.43
810.426	10592.94
810.755	10694.18
811.085	10631.58
811.414	10638.82
811.744	10518.37
812.073	10524.02
812.403	10540.29
812.732	10444.7
813.061	10476.79
813.39	10403.34
813.719	10345.49
814.049	10449.89
814.378	10321.76
814.707	10355.89
815.036	10349.78
815.365	10280.63
815.693	10226.62
816.022	10200.64
816.351	10219.39
816.68	10197.7
817.008	10187.75
817.337	10070.92
817.665	10114.08
817.994	10071.37
818.322	10136.46
818.651	10066.4
818.979	10077.02
819.307	10095.55
819.636	10020.98
819.964	9947.31
820.292	10090.81
820.62	10081.54
820.948	9923.13
821.276	10036.12
821.604	9948.44
821.932	9959.51
822.259	10027.98
822.587	9940.98
822.915	9939.17
823.243	9922
823.57	9983.24
823.898	9981.21
824.225	9985.05
824.553	9928.55
824.88	9944.6
825.207	9956.57
825.535	9937.82
825.862	10043.8
826.189	9937.14
826.516	10008.1
826.843	10046.06
827.17	9997.93
827.497	10009.45
827.824	10001.09
828.151	10008.1
828.478	9934.65
828.805	10000.87
829.131	9976.01
829.458	9994.77
829.785	9942.11
830.111	9945.95
830.438	9992.73
830.764	9994.99
831.09	9992.05
831.417	9957.03
831.743	9984.37
832.069	9971.26
832.395	9875.45
832.722	9966.52
833.048	9965.16
833.374	9922
833.7	9885.16
834.026	9927.42
834.351	9951.15
834.677	9871.38
835.003	9932.62
835.329	9930.81
835.654	9947.54
835.98	9825.05
836.306	9856.92
836.631	9807.65
836.956	9885.39
837.282	9832.74
837.607	9792.96
837.932	9771.04
838.258	9792.28
838.583	9667.09
838.908	9728.33
839.233	9743.02
839.558	9748.22
839.883	9665.96
840.208	9614.44
840.533	9622.8
840.858	9700.99
841.182	9669.58
841.507	9634.32
841.832	9557.49
842.156	9535.34
842.481	9558.62
842.805	9553.87
843.13	9463.25
843.454	9476.59
843.778	9430.94
844.103	9444.95
844.427	9430.03
844.751	9454.89
845.075	9388.68
845.399	9349.13
845.723	9360.43
846.047	9317.95
846.371	9202.47
846.695	9208.57
847.019	9181.23
847.343	9147.56
847.666	9049.03
847.99	9117.27
848.313	9015.36
848.637	8995.24
848.96	9066.65
849.284	8930.39
849.607	8908.01
849.931	8910.5
850.254	8816.27
850.577	8779.2
850.9	8699.88
851.223	8744.4
851.546	8697.17
851.869	8671.41
852.192	8676.61
852.515	8571.53
852.838	8563.84
853.161	8544.18
853.483	8538.76
853.806	8513.67
854.129	8491.75
854.451	8480.91
854.774	8440.91
855.096	8437.97
855.419	8324.53
855.741	8360.01
856.063	8349.61
856.385	8302.61
856.708	8230.74
857.03	8239.11
857.352	8243.17
857.674	8189.62
857.996	8140.35
858.318	8092.44
858.64	8121.14
858.961	8113.23
859.283	8074.36
859.605	8021.48
859.926	8026.91
860.248	8038.66
860.57	7990.07
860.891	8023.29
861.212	7922.96
861.534	7939.23
861.855	7847.48
862.176	7944.2
862.498	7946.91
862.819	7940.58
863.14	7854.48
863.461	7868.95
863.782	7849.74
864.103	7827.82
864.424	7829.17
864.745	7812.68
865.065	7744.2
865.386	7734.71
865.707	7680.02
866.027	7779.23
866.348	7741.27
866.668	7724.77
866.989	7721.83
867.309	7640.93
867.63	7715.28
867.95	7678.44
868.27	7583.98
868.59	7661.04
868.91	7597.54
869.23	7631.89
869.55	7630.53
869.87	7613.36
870.19	7593.7
870.51	7653.81
870.83	7598.44
871.15	7578.11
871.469	7496.75
871.789	7594.38
872.109	7536.53
872.428	7485.9
872.748	7506.47
873.067	7506.47
873.386	7495.17
873.706	7482.74
874.025	7442.97
874.344	7339.47
874.663	7456.08
874.982	7411.33
875.301	7400.94
875.62	7356.19
875.939	7410.43
876.258	7340.37
876.577	7290.43
876.896	7319.58
877.214	7344.67
877.533	7368.17
877.852	7284.33
878.17	7276.42
878.489	7264.67
878.807	7305.57
879.125	7263.54
879.444	7228.74
879.762	7201.39
880.08	7210.43
880.398	7174.73
880.716	7233.93
881.034	7161.62
881.352	7192.81
881.67	7109.42
881.988	7108.06
882.306	7099.47
882.624	7096.31
882.941	7020.38
883.259	7014.05
883.577	7020.15
883.894	7022.19
884.212	7013.37
884.529	7005.01
884.846	6932.7
885.164	6976.09
885.481	6957.56
885.798	6992.81
886.115	6922.08
886.432	6881.85
886.75	6880.05
887.067	6975.86
887.383	6872.36
887.7	6807.05
888.017	6828.75
888.334	6784.45
888.651	6834.4
888.967	6804.57
889.284	6728.64
889.6	6726.6
889.917	6670.11
890.233	6683.21
890.55	6729.54
890.866	6688.64
891.182	6678.92
891.498	6616.55
891.815	6618.58
892.131	6603.44
892.447	6556.21
892.763	6500.62
893.079	6514.4
893.395	6485.03
893.71	6508.98
894.026	6477.12
894.342	6509.21
894.657	6429.44
894.973	6361.19
895.289	6434.86
895.604	6358.93
895.92	6353.51
896.235	6342.66
896.55	6334.07
896.865	6305.6
897.181	6290.68
897.496	6259.04
897.811	6255.2
898.126	6226.5
898.441	6196
898.756	6229.89
899.071	6172.95
899.386	6141.99
899.7	6074.87
900.015	6037.81
900.33	6033.51
900.644	6083.23
900.959	6021.76
901.273	5979.28
901.588	5981.31
901.902	5938.6
902.216	5900.64
902.531	5903.12
902.845	5948.77
903.159	5820.41
903.473	5863.35
903.787	5808.66
904.101	5809.56
904.415	5769.79
904.729	5763.69
905.042	5713.75
905.356	5746.06
905.67	5758.94
905.984	5703.13
906.297	5633.07
906.611	5659.51
906.924	5659.96
907.237	5649.12
907.551	5588.78
907.864	5591.94
908.177	5546.07
908.491	5478.5
908.804	5484.15
909.117	5514.43
909.43	5496.35
909.743	5470.36
910.056	5402.12
910.368	5378.84
910.681	5410.48
910.994	5343.14
911.307	5331.84
911.619	5297.71
911.932	5333.19
912.244	5290.48
912.557	5252.07
912.869	5225.4
913.181	5233.76
913.494	5228.79
913.806	5131.39
914.118	5169.81
914.43	5122.35
914.742	5103.82
915.054	5067.89
915.366	5078.74
915.678	5044.16
915.99	5048
916.302	4974.11
916.613	4988.12
916.925	4934.79
917.236	4994.22
917.548	4877.84
917.859	4911.28
918.171	4879.87
918.482	4873.77
918.794	4878.97
919.105	4799.65
919.416	4821.12
919.727	4784.73
920.038	4785.18
920.349	4681.23
920.66	4748.35
920.971	4705.64
921.282	4711.97
921.593	4717.16
921.903	4646.88
922.214	4594.91
922.525	4638.52
922.835	4584.29
923.146	4540.22
923.456	4557.17
923.767	4574.57
924.077	4518.98
924.387	4538.19
924.697	4485.76
925.008	4456.38
925.318	4435.14
925.628	4457.06
925.938	4426.78
926.248	4380.22
926.558	4386.55
926.867	4387.68
927.177	4357.63
927.487	4330.51
927.796	4315.82
928.106	4287.34
928.416	4288.25
928.725	4256.61
929.034	4231.3
929.344	4241.24
929.653	4247.35
929.962	4248.93
930.271	4180.23
930.581	4172.77
930.89	4173.45
931.199	4139.1
931.508	4118.54
931.817	4057.07
932.125	4092.1
932.434	4042.61
932.743	4031.31
933.051	4067.46
933.36	4031.98
933.669	4000.57
933.977	3994.92
934.286	3974.58
934.594	3938.88
934.902	3931.87
935.21	3889.84
935.519	3906.34
935.827	3875.15
936.135	3853.01
936.443	3860.46
936.751	3832.22
937.059	3856.62
937.367	3815.04
937.674	3794.25
937.982	3781.14
938.29	3751.77
938.597	3807.58
938.905	3732.33
939.213	3709.73
939.52	3725.1
939.827	3728.94
940.135	3683.29
940.442	3631.54
940.749	3662.5
941.056	3619.34
941.363	3562.17
941.67	3590.64
941.977	3602.84
942.284	3561.94
942.591	3542.73
942.898	3537.76
943.205	3547.7
943.511	3517.2
943.818	3493.24
944.125	3460.93
944.431	3457.08
944.738	3423.64
945.044	3422.73
945.35	3429.29
945.657	3425.9
945.963	3415.96
946.269	3371.89
946.575	3385.9
946.881	3329.4
947.187	3347.71
947.493	3306.13
947.799	3320.82
948.105	3259.35
948.41	3255.06
948.716	3279.24
949.022	3272.91
949.327	3241.5
949.633	3194.49
949.938	3246.24
950.244	3233.59
950.549	3170.31
950.854	3187.26
951.16	3175.06
951.465	3153.82
951.77	3165.34
952.075	3160.37
952.38	3105.91
952.685	3098.22
952.99	3079.24
953.294	3061.84
953.599	3036.53
953.904	3039.69
954.209	3019.81
954.513	2993.82
954.818	3004.44
955.122	3000.15
955.426	2967.15
955.731	2946.82
956.035	2993.82
956.339	2967.83
956.643	2959.47
956.948	2873.82
957.252	2908.17
957.556	2912.24
957.86	2896.42
958.163	2862.98
958.467	2895.52
958.771	2842.64
959.075	2797.67
959.378	2795.18
959.682	2811.9
959.985	2791.57
960.289	2819.59
960.592	2792.47
960.896	2776.88
961.199	2757.67
961.502	2754.28
961.805	2753.6
962.108	2703.21
962.411	2705.69
962.714	2677.44
963.017	2695.3
963.32	2678.8
963.623	2653.72
963.926	2655.75
964.228	2661.85
964.531	2649.87
964.833	2627.28
965.136	2590.21
965.438	2590.21
965.741	2582.3
966.043	2591.12
966.345	2566.26
966.648	2549.76
966.95	2550.89
967.252	2515.64
967.554	2523.55
967.856	2502.99
968.158	2483.78
968.46	2514.51
968.761	2521.74
969.063	2459.82
969.365	2471.12
969.666	2441.74
969.968	2446.72
970.269	2449.88
970.571	2423.67
970.872	2420.95
971.174	2395.64
971.475	2394.97
971.776	2417.79
972.077	2375.53
972.378	2373.95
972.679	2357.45
972.98	2332.14
973.281	2339.83
973.582	2323.1
973.883	2360.62
974.183	2295.98
974.484	2297.79
974.785	2308.87
975.085	2288.3
975.386	2300.28
975.686	2252.6
975.986	2268.41
976.287	2232.71
976.587	2246.27
976.887	2212.82
977.187	2220.51
977.487	2186.61
977.787	2171.69
978.087	2160.62
978.387	2187.06
978.687	2171.02
978.987	2147.51
979.286	2178.25
979.586	2166.72
979.885	2132.15
980.185	2094.41
980.484	2108.87
980.784	2117.01
981.083	2087.63
981.382	2090.11
981.682	2084.46
981.981	2095.99
982.28	2043.56
982.579	2067.29
982.878	2055.77
983.177	2046.05
983.475	2013.96
983.774	2026.61
984.073	1981.42
984.372	2004.02
984.67	1999.27
984.969	2004.92
985.267	1990.68
985.566	1954.75
985.864	1982.09
986.162	1958.59
986.461	1952.49
986.759	1926.95
987.057	1897.8
987.355	1964.92
987.653	1907.75
987.951	1892.61
988.249	1876.56
988.547	1912.49
988.844	1865.26
989.142	1906.84
989.44	1814.19
989.737	1871.82
990.035	1877.01
990.332	1856.9
990.63	1834.53
990.927	1820.97
991.224	1801.76
991.521	1804.25
991.819	1805.83
992.116	1814.87
992.413	1793.63
992.71	1790.69
993.006	1783
993.303	1787.52
993.6	1766.51
993.897	1752.95
994.193	1739.84
994.49	1714.08
994.787	1732.61
995.083	1694.64
995.379	1720.86
995.676	1695.77
995.972	1695.55
996.268	1708.66
996.565	1661.43
996.861	1658.94
997.157	1667.53
997.453	1629.34
997.749	1641.09
998.044	1625.27
998.34	1615.55
998.636	1637.92
998.932	1587.08
999.227	1595.21
999.523	1602.9
999.818	1599.73
1000.114	1570.81
1000.409	1559.51
1000.704	1572.16
1001	1567.87
1001.295	1529.45
1001.59	1549.79
1001.885	1528.55
1002.18	1524.71
1002.475	1512.73
1002.77	1499.17
1003.065	1524.48
1003.359	1524.93
1003.654	1451.71
1003.949	1467.53
1004.243	1473.63
1004.538	1456.01
1004.832	1472.73
1005.127	1451.26
1005.421	1450.58
1005.715	1443.58
1006.009	1429.34
1006.304	1422.79
1006.598	1434.54
1006.892	1420.98
1007.186	1412.39
1007.48	1403.58
1007.773	1350.25
1008.067	1384.14
1008.361	1357.7
1008.655	1340.3
1008.948	1335.11
1009.242	1342.79
1009.535	1334.88
1009.829	1349.12
1010.122	1344.15
1010.415	1317.93
1010.708	1307.31
1011.001	1315.9
1011.295	1290.59
1011.588	1285.62
1011.881	1274.54
1012.173	1270.25
1012.466	1277.03
1012.759	1269.8
1013.052	1263.7
1013.344	1259.4
1013.637	1261.44
1013.93	1258.5
1014.222	1220.98
1014.514	1225.5
1014.807	1189.8
1015.099	1218.5
1015.391	1208.78
1015.683	1188.67
1015.976	1216.24
1016.268	1181.44
1016.56	1177.82
1016.851	1161.33
1017.143	1163.59
1017.435	1160.87
1017.727	1165.39
1018.018	1142.57
1018.31	1132.85
1018.602	1126.75
1018.893	1099.63
1019.185	1111.16
1019.476	1126.98
1019.767	1098.28
1020.058	1103.02
1020.35	1096.24
1020.641	1073.42
1020.932	1081.33
1021.223	1075.23
1021.514	1098.95
1021.804	1063.93
1022.095	1040.2
1022.386	1044.94
1022.677	1071.84
1022.967	1033.19
1023.258	1053.31
1023.548	1039.75
1023.839	1000.88
1024.129	1015.11
1024.419	1028.9
1024.709	978.51
1025	985.96
1025.29	978.96
1025.58	980.31
1025.87	983.7
1026.16	948.68
1026.449	950.94
1026.739	967.66
1027.029	956.36
1027.319	954.1
1027.608	915.46
1027.898	966.98
1028.187	940.31
1028.477	923.14
1028.766	930.82
1029.055	915
1029.344	918.62
1029.634	900.09
1029.923	899.41
1030.212	895.57
1030.501	882.91
1030.79	877.72
1031.078	887.89
1031.367	879.75
1031.656	879.75
1031.945	846.53
1032.233	865.51
1032.522	850.15
1032.81	868.68
1033.099	847.66
1033.387	865.06
1033.675	847.89
1033.963	844.95
1034.251	835.46
1034.54	818.28
1034.828	824.84
1035.116	811.28
1035.403	826.64
1035.691	790.04
1035.979	786.42
1036.267	787.55
1036.554	796.36
1036.842	780.54
1037.129	780.54
1037.417	773.31
1037.704	789.58
1037.992	787.55
1038.279	762.69
1038.566	760.43
1038.853	760.43
1039.14	760.43
