Data from hue_100_FLMS001491_00071.txt Node
Date: Tue Feb 07 17:03:37 GMT 2017
User: dcchb
Spectrometer: FLMS00149
Trigger mode: 0
Integration Time (sec): 2.000000E-2
Scans to average: 10
Electric dark correction enabled: true
Nonlinearity correction enabled: false
Boxcar width: 0
XAxis mode: Wavelengths
Number of Pixels in Spectrum: 2048
>>>>>Begin Spectral Data<<<<<
341.393	-11.16
341.776	-11.16
342.16	-11.16
342.543	-30.59
342.927	-67.88
343.31	-73.08
343.693	-67.2
344.077	-62.46
344.46	-51.61
344.843	-42.12
345.226	-51.83
345.61	-32.63
345.993	-9.58
346.376	-6.19
346.759	23.87
347.142	15.96
347.525	27.03
347.908	63.42
348.291	76.98
348.674	103.42
349.057	86.01
349.44	115.62
349.823	136.86
350.206	174.15
350.588	186.58
350.971	220.7
351.354	230.64
351.737	224.54
352.119	263.19
352.502	263.64
352.884	263.41
353.267	276.52
353.65	285.56
354.032	297.08
354.414	312
354.797	304.31
355.179	308.38
355.562	328.49
355.944	323.52
356.326	336.18
356.709	344.09
357.091	327.82
357.473	341.83
357.855	340.25
358.238	341.38
358.62	327.82
359.002	338.66
359.384	331.66
359.766	350.41
360.148	324.2
360.53	357.65
360.912	323.3
361.294	343.18
361.676	328.04
362.057	323.97
362.439	329.85
362.821	326.69
363.203	336.63
363.584	356.74
363.966	324.43
364.348	342.96
364.729	311.77
365.111	343.86
365.493	329.4
365.874	333.47
366.256	337.08
366.637	318.32
367.019	333.69
367.4	322.62
367.781	327.59
368.163	316.52
368.544	331.43
368.925	314.48
369.306	329.17
369.688	327.82
370.069	313.58
370.45	318.55
370.831	316.29
371.212	312.45
371.593	334.14
371.974	332.11
372.355	345.89
372.736	344.99
373.117	318.1
373.498	311.09
373.879	305.22
374.26	321.04
374.641	322.39
375.021	325.33
375.402	329.4
375.783	319.68
376.163	340.7
376.544	356.29
376.925	321.71
377.305	327.82
377.686	367.14
378.066	329.62
378.447	345.44
378.827	336.18
379.208	352
379.588	357.87
379.968	349.28
380.349	320.58
380.729	327.36
381.109	353.58
381.489	349.51
381.87	354.03
382.25	356.29
382.63	346.12
383.01	364.88
383.39	351.09
383.77	362.84
384.15	349.51
384.53	354.03
384.91	356.97
385.29	367.36
385.67	354.26
386.049	395.16
386.429	366.91
386.809	362.17
387.189	379.11
387.568	350.19
387.948	360.58
388.328	372.56
388.707	367.36
389.087	364.65
389.466	371.88
389.846	378.89
390.225	376.18
390.605	378.44
390.984	389.96
391.363	387.93
391.743	373.24
392.122	403.29
392.501	385.22
392.881	391.77
393.26	396.06
393.639	384.09
394.018	394.03
394.397	403.97
394.776	403.29
395.155	388.61
395.534	400.81
395.913	387.02
396.292	417.98
396.671	412.56
397.05	417.76
397.429	397.42
397.808	395.39
398.186	417.98
398.565	432.45
398.944	413.01
399.323	425.67
399.701	409.62
400.08	416.18
400.458	448.72
400.837	415.5
401.215	429.51
401.594	444.42
401.972	428.83
402.351	440.81
402.729	431.09
403.107	453.69
403.486	447.59
403.864	436.74
404.242	447.14
404.62	445.33
404.999	431.32
405.377	457.53
405.755	444.2
406.133	455.27
406.511	463.63
406.889	475.38
407.267	471.99
407.645	477.87
408.023	466.34
408.401	482.84
408.779	478.32
409.156	484.2
409.534	475.83
409.912	498.89
410.29	493.01
410.667	509.05
411.045	485.78
411.422	531.65
411.8	514.48
412.178	509.73
412.555	533.23
412.933	524.87
413.31	535.72
413.687	512.22
414.065	541.82
414.442	518.55
414.819	522.39
415.197	531.65
415.574	559.22
415.951	553.57
416.328	556.06
416.705	548.83
417.082	561.03
417.46	563.52
417.837	573.01
418.214	580.69
418.591	576.17
418.967	575.27
419.344	576.85
419.721	603.74
420.098	598.09
420.475	607.13
420.852	593.8
421.228	628.83
421.605	610.07
421.982	599.67
422.358	608.26
422.735	619.79
423.111	615.49
423.488	624.98
423.864	631.99
424.241	623.4
424.617	640.12
424.994	614.81
425.37	652.1
425.746	641.71
426.123	661.14
426.499	657.53
426.875	642.38
427.251	689.39
427.627	672.89
428.003	688.48
428.379	685.55
428.756	701.14
429.132	701.14
429.507	717.86
429.883	693.68
430.259	721.03
430.635	732.55
431.011	730.29
431.387	742.72
431.763	750.4
432.138	758.54
432.514	761.48
432.89	766.45
433.265	801.02
433.641	777.3
434.016	782.27
434.392	793.57
434.767	815.94
435.143	812.1
435.518	813.91
435.894	842.6
436.269	821.81
436.644	810.74
437.02	828.37
437.395	854.36
437.77	852.32
438.145	888.03
438.52	860.23
438.895	893
439.271	895.48
439.646	913.56
440.021	888.93
440.395	918.31
440.77	909.27
441.145	910.63
441.52	927.12
441.895	946.11
442.27	950.62
442.645	922.83
443.019	940.46
443.394	955.6
443.769	953.34
444.143	973.22
444.518	1002.37
444.892	981.36
445.267	998.76
445.641	983.17
446.016	1012.54
446.39	1021.58
446.764	1032.88
447.139	1037.85
447.513	1016.84
447.887	1038.31
448.262	1035.59
448.636	1023.17
449.01	1065.2
449.384	1060.45
449.758	1068.81
450.132	1083.73
450.506	1095.48
450.88	1121.24
451.254	1099.1
451.628	1089.83
452.002	1109.94
452.376	1100
452.75	1124.41
453.123	1160.34
453.497	1174.12
453.871	1189.49
454.244	1196.95
454.618	1213.44
454.992	1189.71
455.365	1201.47
455.739	1243.27
456.112	1262.03
456.486	1246.66
456.859	1287.79
457.232	1263.61
457.606	1306.32
457.979	1323.95
458.352	1383.16
458.725	1360.33
459.099	1359.65
459.472	1418.41
459.845	1386.09
460.218	1408.47
460.591	1456.83
460.964	1471.06
461.337	1483.72
461.71	1499.76
462.083	1543.6
462.456	1538.18
462.829	1533.66
463.201	1565.07
463.574	1576.14
463.947	1607.33
464.32	1625.41
464.692	1662.47
465.065	1666.31
465.438	1698.85
465.81	1713.99
466.183	1749.25
466.555	1794.67
466.928	1798.29
467.3	1810.72
467.672	1824.27
468.045	1863.14
468.417	1914.22
468.789	1919.19
469.161	1951.73
469.534	1998.51
469.906	2038.05
470.278	2104.72
470.65	2126.41
471.022	2165.96
471.394	2209.12
471.766	2222.46
472.138	2244.15
472.51	2339.74
472.882	2349.91
473.253	2384.94
473.625	2452.28
473.997	2492.28
474.369	2532.28
474.74	2583.12
475.112	2652.5
475.484	2709.22
475.855	2803.46
476.227	2803.91
476.598	2932.95
476.97	2966.39
477.341	3059.5
477.713	3143.79
478.084	3191.92
478.455	3325.48
478.827	3373.61
479.198	3480.73
479.569	3473.5
479.94	3656.32
480.311	3734.28
480.682	3859.93
481.053	3929.53
481.424	4090.2
481.795	4126.59
482.166	4272.57
482.537	4382.4
482.908	4488.38
483.279	4567.93
483.65	4708.49
484.021	4829.17
484.391	4936.96
484.762	5046.79
485.133	5170.85
485.503	5263.05
485.874	5451.98
486.244	5538.98
486.615	5719.54
486.985	5836.15
487.356	6005.86
487.726	6138.06
488.097	6356.36
488.467	6428.45
488.837	6556.35
489.207	6738.27
489.578	6879.73
489.948	7044.48
490.318	7227.52
490.688	7311.36
491.058	7529.66
491.428	7724.01
491.798	7808.07
492.168	8039.7
492.538	8142.07
492.908	8288.06
493.278	8444.21
493.648	8517.66
494.017	8677.65
494.387	8891.88
494.757	9064.76
495.126	9229.73
495.496	9291.2
495.866	9423.62
496.235	9593.56
496.605	9710.17
496.974	9878.07
497.344	9979.99
497.713	10118.97
498.082	10300.89
498.452	10429.47
498.821	10463.59
499.19	10600.31
499.559	10796.47
499.928	10903.36
500.298	11001.21
500.667	11146.06
501.036	11122.56
501.405	11372.05
501.774	11394.19
502.143	11574.98
502.512	11624.92
502.88	11779.94
503.249	11787.18
503.618	11948.53
503.987	12061.29
504.356	12171.57
504.724	12249.76
505.093	12323.66
505.462	12353.26
505.83	12560.49
506.199	12731.33
506.567	12760.71
506.936	12828.05
507.304	13023.75
507.672	12970.2
508.041	13060.14
508.409	13207.93
508.777	13333.8
509.145	13374.7
509.514	13384.42
509.882	13578.09
510.25	13573.12
510.618	13609.95
510.986	13694.92
511.354	13828.25
511.722	13917.06
512.09	14060.56
512.458	13991.86
512.826	14209.26
513.193	14263.5
513.561	14322.48
513.929	14347.56
514.297	14384.85
514.664	14509.82
515.032	14561.11
515.4	14614.45
515.767	14727.21
516.135	14753.88
516.502	14662.13
516.869	14841.56
517.237	14937.6
517.604	14825.74
517.972	15047.66
518.339	15051.5
518.706	15097.6
519.073	15059.41
519.44	15125.85
519.808	15231.15
520.175	15238.61
520.542	15323.13
520.909	15436.35
521.276	15356.12
521.643	15500.52
522.009	15502.56
522.376	15609.9
522.743	15619.39
523.11	15826.39
523.477	15815.77
523.843	15881.76
524.21	16029.32
524.577	16052.37
524.943	16118.14
525.31	16103.45
525.676	16225.7
526.043	16219.38
526.409	16198.59
526.776	16400.84
527.142	16350.9
527.508	16370.56
527.874	16440.16
528.241	16491.23
528.607	16434.74
528.973	16566.49
529.339	16519.93
529.705	16673.38
530.071	16751.11
530.437	16646.71
530.803	16757.67
531.169	16828.4
531.535	16619.14
531.901	16658.01
532.267	16650.1
532.632	16763.77
532.998	16692.58
533.364	16810.55
533.73	16784.56
534.095	16801.06
534.461	16814.39
534.826	16721.28
535.192	16830.43
535.557	16831.11
535.923	16702.53
536.288	16792.24
536.653	16791.11
537.019	16722.64
537.384	16678.8
537.749	16726.93
538.114	16676.54
538.479	16686.93
538.845	16656.65
539.21	16599.93
539.575	16673.6
539.94	16643.55
540.305	16658.46
540.67	16642.42
541.034	16515.64
541.399	16578.24
541.764	16521.29
542.129	16538.01
542.494	16547.28
542.858	16462.99
543.223	16472.02
543.587	16544.34
543.952	16386.38
544.316	16347.06
544.681	16375.53
545.045	16359.71
545.41	16405.59
545.774	16305.25
546.138	16289.43
546.503	16314.74
546.867	16160.85
547.231	16231.8
547.595	16253.05
547.959	16247.85
548.324	16042.43
548.688	16133.95
549.052	16119.49
549.416	16003.56
549.779	16121.3
550.143	16015.77
550.507	16047.85
550.871	16008.76
551.235	15964.47
551.599	16060.06
551.962	15956.11
552.326	15900.97
552.689	16032.49
553.053	15829.78
553.417	15813.28
553.78	15970.12
554.143	15849.44
554.507	15874.98
554.87	15895.09
555.234	15990.46
555.597	15893.28
555.96	15822.78
556.323	15859.61
556.686	15716.11
557.05	15915.2
557.413	15806.28
557.776	15810.8
558.139	15933.96
558.502	15866.39
558.865	15766.05
559.228	15840.85
559.59	15796.79
559.953	15871.59
560.316	15961.08
560.679	15896.22
561.041	15871.14
561.404	16059.83
561.767	16047.63
562.129	15961.08
562.492	16056.89
562.854	15943.68
563.217	15941.87
563.579	15964.69
563.941	16006.5
564.304	16060.06
564.666	16152.48
565.028	16052.83
565.39	16133.95
565.753	16236.32
566.115	16139.6
566.477	16292.59
566.839	16233.84
567.201	16333.27
567.563	16369.88
567.925	16306.83
568.287	16269.09
568.648	16330.56
569.01	16402.42
569.372	16455.53
569.734	16356.77
570.095	16481.97
570.457	16471.8
570.819	16461.63
571.18	16494.85
571.542	16477
571.903	16530.78
572.265	16584.34
572.626	16530.55
572.987	16681.96
573.349	16623.21
573.71	16695.07
574.071	16575.98
574.432	16684.9
574.794	16775.52
575.155	16752.92
575.516	16632.02
575.877	16756.99
576.238	16692.58
576.599	16773.49
576.96	16734.84
577.32	16697.33
577.681	16815.52
578.042	16808.74
578.403	16778.46
578.763	16731.45
579.124	16793.6
579.485	16790.89
579.845	16883.77
580.206	16828.17
580.566	16742.98
580.927	16787.27
581.287	16881.51
581.648	16819.13
582.008	16835.18
582.368	16776.42
582.728	16908.62
583.089	16846.48
583.449	16792.02
583.809	16804.22
584.169	16713.6
584.529	16734.16
584.889	16806.93
585.249	16732.13
585.609	16719.25
585.969	16818
586.329	16712.24
586.688	16771.23
587.048	16754.28
587.408	16616.43
587.768	16669.08
588.127	16620.95
588.487	16690.32
588.846	16726.26
589.206	16640.61
589.565	16581.17
589.925	16693.49
590.284	16586.15
590.643	16572.81
591.003	16689.87
591.362	16666.6
591.721	16638.8
592.08	16566.03
592.44	16685.8
592.799	16645.58
593.158	16573.26
593.517	16554.28
593.876	16505.24
594.235	16533.04
594.593	16573.72
594.952	16517.67
595.311	16499.14
595.67	16561.51
596.029	16693.49
596.387	16508.41
596.746	16658.91
597.104	16539.59
597.463	16465.92
597.822	16701.4
598.18	16480.84
598.538	16635.41
598.897	16684.45
599.255	16411.91
599.613	16741.4
599.972	16461.18
600.33	16571.68
600.688	16562.87
601.046	16555.19
601.404	16583.21
601.762	16579.37
602.12	16662.75
602.478	16535.3
602.836	16617.33
603.194	16543.89
603.552	16618.01
603.91	16491.46
604.268	16623.21
604.625	16512.93
604.983	16588.41
605.341	16517.22
605.698	16533.49
606.056	16586.82
606.413	16566.49
606.771	16668.4
607.128	16640.38
607.485	16539.14
607.843	16506.37
608.2	16643.09
608.557	16662.75
608.914	16593.6
609.272	16711.79
609.629	16751.57
609.986	16737.33
610.343	16639.25
610.7	16792.02
611.057	16772.13
611.414	16711.11
611.771	16738.46
612.127	16829.3
612.484	16880.83
612.841	16912.92
613.198	16767.84
613.554	16857.33
613.911	16913.82
614.267	16901.39
614.624	16851.9
614.98	16837.89
615.337	16935.06
615.693	16992.01
616.05	16928.51
616.406	17054.38
616.762	16972.35
617.118	16991.33
617.475	16933.71
617.831	17045.57
618.187	17026.81
618.543	16965.8
618.899	17112.46
619.255	17056.42
619.611	17100.93
619.967	17173.7
620.323	17127.6
620.678	17030.65
621.034	17033.37
621.39	17131.89
621.746	17046.47
622.101	17310.65
622.457	17085.34
622.812	17099.8
623.168	17058.9
623.523	17088.96
623.879	17165.57
624.234	17085.34
624.589	17242.85
624.945	17097.54
625.3	17160.82
625.655	17137.32
626.01	17188.16
626.365	17048.73
626.72	17173.93
627.075	17057.55
627.43	17086.25
627.785	17009.19
628.14	17025
628.495	17067.49
628.85	16977.55
629.205	16936.42
629.559	17063.65
629.914	17073.36
630.269	17027.04
630.623	17085.79
630.978	16911.33
631.332	16895.97
631.687	16946.81
632.041	16880.38
632.396	16953.59
632.75	16926.02
633.104	16934.39
633.459	16923.76
633.813	16744.79
634.167	16871.11
634.521	16788.4
634.875	16814.16
635.229	16851.68
635.583	16738.91
635.937	16672.7
636.291	16697.33
636.645	16643.77
636.999	16626.6
637.352	16642.19
637.706	16562.42
638.06	16655.3
638.413	16540.27
638.767	16601.96
639.121	16542.98
639.474	16491.23
639.828	16570.33
640.181	16534.17
640.534	16562.42
640.888	16449.65
641.241	16402.87
641.594	16365.36
641.947	16423.21
642.301	16405.81
642.654	16346.6
643.007	16489.65
643.36	16387.73
643.713	16368.07
644.066	16426.15
644.419	16236.78
644.771	16213.05
645.124	16158.81
645.477	15992.94
645.83	15985.03
646.182	15899.61
646.535	15852.61
646.888	15868.42
647.24	15668.66
647.593	15894.86
647.945	15720.63
648.298	15764.02
648.65	15694.19
649.002	15634.31
649.355	15770.57
649.707	15847.18
650.059	15940.29
650.411	16077.68
650.763	16061.64
651.115	16165.14
651.467	16087.63
651.819	16139.15
652.171	16093.28
652.523	16095.54
652.875	16054.63
653.227	16145.03
653.578	16204.23
653.93	16089.44
654.282	16023
654.633	16044.01
654.985	16189.09
655.337	16051.02
655.688	16039.49
656.039	16190.9
656.391	16018.25
656.742	16106.84
657.094	16065.48
657.445	16197.91
657.796	16088.31
658.147	16173.05
658.498	16132.82
658.849	16182.09
659.2	16147.51
659.551	16083.11
659.902	16190.45
660.253	16112.49
660.604	16168.76
660.955	16071.81
661.306	16168.98
661.656	16150.68
662.007	16105.48
662.358	16140.06
662.708	16135.99
663.059	16089.66
663.409	16133.5
663.76	16191.35
664.11	16157.68
664.461	16174.18
664.811	16152.26
665.161	16061.41
665.511	16105.48
665.862	16095.09
666.212	16245.14
666.562	16145.48
666.912	16170.79
667.262	16089.66
667.612	16138.25
667.962	16078.59
668.312	16111.58
668.662	16178.92
669.011	16236.55
669.361	16030.91
669.711	16093.5
670.06	16102.77
670.41	16033.84
670.76	16091.02
671.109	16175.31
671.459	16118.81
671.808	16040.17
672.157	16115.42
672.507	16040.17
672.856	15945.03
673.205	15973.96
673.554	16108.87
673.904	15913.17
674.253	16101.64
674.602	16008.99
674.951	15786.84
675.3	15695.1
675.649	15894.41
675.998	15825.04
676.346	15908.88
676.695	15900.51
677.044	15809.22
677.393	15853.74
677.741	15888.54
678.09	15817.35
678.438	15820.52
678.787	15739.16
679.135	15792.72
679.484	15684.93
679.832	15802.89
680.181	15655.77
680.529	15598.6
680.877	15607.41
681.225	15527.42
681.573	15751.37
681.922	15530.81
682.27	15544.14
682.618	15505.95
682.966	15459.4
683.314	15428.21
683.661	15446.74
684.009	15369.23
684.357	15287.65
684.705	15272.51
685.053	15348.89
685.4	15274.54
685.748	15161.32
686.095	15143.47
686.443	15191.38
686.79	15135.34
687.138	15202
687.485	15243.13
687.832	15042.46
688.18	15063.7
688.527	15057.15
688.874	14978.28
689.221	14949.35
689.568	14906.64
689.915	14900.99
690.262	14835.91
690.609	14813.76
690.956	14732.18
691.303	14773.09
691.65	14649.02
691.997	14596.37
692.344	14523.38
692.69	14502.36
693.037	14459.87
693.383	14452.19
693.73	14445.19
694.077	14268.69
694.423	14314.57
694.769	14239.99
695.116	14229.6
695.462	14132.43
695.808	14087.45
696.155	14130.62
696.501	14007.91
696.847	14017.4
697.193	13847.91
697.539	13973.11
697.885	13772.89
698.231	13680.91
698.577	13777.18
698.923	13683.4
699.269	13652.44
699.614	13573.8
699.96	13490.18
700.306	13493.35
700.651	13400.47
700.997	13414.25
701.342	13346.01
701.688	13355.72
702.033	13210.42
702.379	13239.12
702.724	13143.98
703.069	13186.69
703.415	13046.35
703.76	13024.43
704.105	13056.75
704.45	13080.02
704.795	12946.02
705.14	12849.52
705.485	12830.54
705.83	12820.37
706.175	12804.1
706.52	12711.22
706.865	12754.16
707.209	12688.62
707.554	12673.48
707.899	12598.23
708.243	12497.67
708.588	12485.24
708.932	12354.62
709.277	12380.83
709.621	12432.36
709.966	12262.64
710.31	12342.64
710.654	12260.84
710.998	12255.86
711.342	12251.8
711.687	12172.7
712.031	12141.06
712.375	12112.59
712.719	12042.54
713.063	12086.15
713.407	12175.64
713.75	12028.98
714.094	12014.29
714.438	11989.66
714.782	11901.52
715.125	11925.93
715.469	11984.91
715.812	11912.82
716.156	11823.79
716.499	11769.32
716.843	11820.17
717.186	11753.05
717.53	11822.88
717.873	11784.46
718.216	11713.96
718.559	11717.35
718.902	11645.48
719.246	11626.05
719.589	11592.15
719.932	11593.51
720.275	11518.93
720.617	11595.54
720.96	11580.63
721.303	11588.99
721.646	11578.14
721.989	11440.52
722.331	11527.97
722.674	11506.51
723.016	11452.27
723.359	11498.6
723.701	11513.96
724.044	11382.44
724.386	11376.57
724.729	11488.88
725.071	11401.65
725.413	11376.57
725.755	11481.2
726.097	11304.93
726.439	11294.08
726.782	11354.64
727.124	11350.35
727.465	11276.23
727.807	11261.77
728.149	11364.59
728.491	11215.44
728.833	11280.75
729.175	11252.5
729.516	11213.86
729.858	11192.62
730.199	11223.57
730.541	11178.15
730.882	11249.11
731.224	11309
731.565	11142.67
731.906	11187.64
732.248	11259.28
732.589	11166.63
732.93	11154.2
733.271	11141.09
733.612	11170.92
733.953	11194.2
734.294	11177.7
734.635	11097.93
734.976	11203.69
735.317	11163.01
735.658	11098.38
735.999	11194.2
736.339	11146.97
736.68	11268.09
737.021	11143.13
737.361	11140.64
737.702	11265.38
738.042	11254.08
738.383	11131.6
738.723	11201.2
739.063	11119.62
739.404	11286.62
739.744	11298.38
740.084	11207.53
740.424	11266.29
740.764	11163.46
741.104	11306.28
741.444	11167.53
741.784	11220.64
742.124	11273.29
742.464	11287.08
742.804	11331.59
743.143	11322.78
743.483	11342.22
743.823	11298.15
744.162	11327.98
744.502	11374.31
744.841	11391.93
745.181	11550.12
745.52	11524.58
745.86	11535.21
746.199	11583.11
746.538	11652.04
746.877	11782.88
747.216	11668.53
747.556	11727.06
747.895	11833.5
748.234	11824.69
748.573	11838.7
748.911	11941.75
749.25	12019.94
749.589	11965.48
749.928	12136.55
750.267	12225.58
750.605	12317.33
750.944	12334.28
751.283	12389.42
751.621	12579.47
751.96	12597.78
752.298	12733.59
752.636	12763.42
752.975	12886.81
753.313	12943.08
753.651	13129.29
753.989	13184.43
754.327	13300.58
754.666	13327.25
755.004	13495.83
755.342	13690.18
755.679	13802.04
756.017	13830.74
756.355	14008.59
756.693	14156.15
757.031	14314.12
757.368	14537.16
757.706	14576.48
758.044	14779.64
758.381	14935.57
758.719	15047.2
759.056	15277.93
759.394	15403.13
759.731	15542.56
760.068	15641.76
760.405	15777.13
760.743	15896.9
761.08	16136.89
761.417	16253.95
761.754	16392.93
762.091	16580.04
762.428	16733.26
762.765	16871.11
763.102	17059.35
763.438	17167.15
763.775	17285.34
764.112	17494.14
764.449	17648.26
764.785	17805.1
765.122	17770.97
765.458	18043.06
765.795	18176.16
766.131	18355.59
766.467	18436.94
766.804	18701.8
767.14	18725.52
767.476	18855.24
767.812	18893.88
768.148	19100.2
768.485	19194.44
768.821	19120.54
769.157	19312.85
769.492	19475.56
769.828	19586.74
770.164	19584.71
770.5	19819.96
770.836	19877.13
771.171	19802.78
771.507	20000.07
771.842	19983.12
772.178	20122.1
772.513	20238.93
772.849	20325.71
773.184	20294.3
773.519	20382.66
773.855	20450.45
774.19	20433.5
774.525	20595.08
774.86	20594.63
775.195	20657.23
775.53	20558.24
775.865	20567.06
776.2	20550.34
776.535	20513.27
776.87	20679.37
777.205	20775.41
777.539	20654.74
777.874	20838.46
778.209	20638.47
778.543	20752.82
778.878	20746.94
779.212	20804.34
779.547	20774.06
779.881	20844.11
780.215	20792.81
780.55	20838.01
780.884	20804.11
781.218	20804.57
781.552	20841.63
781.886	20789.2
782.22	20711.01
782.554	20715.53
782.888	20678.24
783.222	20582.2
783.556	20624.91
783.889	20633.05
784.223	20489.77
784.557	20515.76
784.89	20635.08
785.224	20486.38
785.557	20479.15
785.891	20442.09
786.224	20464.46
786.558	20408.19
786.891	20342.21
787.224	20245.94
787.557	20272.83
787.891	20243
788.224	20243
788.557	20203.45
788.89	20207.97
789.223	20223.34
789.556	20086.39
789.888	20059.73
790.221	20021.54
790.554	19895.21
790.887	19904.93
791.219	19867.64
791.552	19814.08
791.884	19803.69
792.217	19802.33
792.549	19759.85
792.882	19527.76
793.214	19539.97
793.546	19560.98
793.879	19530.48
794.211	19383.59
794.543	19499.52
794.875	19377.48
795.207	19565.95
795.539	19331.84
795.871	19391.04
796.203	19219.3
796.535	19076.48
796.867	19168
797.198	19043.26
797.53	19066.53
797.862	18956.93
798.193	19013.65
798.525	18950.38
798.856	18824.28
799.188	18718.29
799.519	18671.06
799.85	18521.69
800.182	18642.14
800.513	18677.84
800.844	18496.83
801.175	18685.75
801.506	18570.95
801.837	18492.76
802.168	18375.03
802.499	18318.08
802.83	18376.61
803.161	18208.93
803.491	18213
803.822	18276.72
804.153	18213.22
804.483	17962.83
804.814	17993.34
805.145	18025.88
805.475	17989.05
805.805	17888.48
806.136	17933.46
806.466	17932.55
806.796	17804.42
807.126	17679
807.457	17655.5
807.787	17728.04
808.117	17626.34
808.447	17532.56
808.777	17574.59
809.107	17515.16
809.436	17429.51
809.766	17418.21
810.096	17431.55
810.426	17262.74
810.755	17352.68
811.085	17289.63
811.414	17300.25
811.744	17129.41
812.073	17136.41
812.403	17072.46
812.732	17104.78
813.061	16974.16
813.39	16965.8
813.719	16973.25
814.049	16980.94
814.378	16858.46
814.707	16841.73
815.036	16859.36
815.365	16688.74
815.693	16659.59
816.022	16737.1
816.351	16625.24
816.68	16487.84
817.008	16545.24
817.337	16519.48
817.665	16363.55
817.994	16371.69
818.322	16332.82
818.651	16357.68
818.979	16323.33
819.307	16379.82
819.636	16291.69
819.964	16186.61
820.292	16284.91
820.62	16276.32
820.948	16194.97
821.276	16219.83
821.604	16244.91
821.932	16287.17
822.259	16224.8
822.587	16220.51
822.915	16270.9
823.243	16314.97
823.57	16205.59
823.898	16205.82
824.225	16109.77
824.553	16129.89
824.88	16194.07
825.207	16192.71
825.535	16171.92
825.862	16152.03
826.189	16135.76
826.516	16216.66
826.843	16207.17
827.17	16294.63
827.497	16195.42
827.824	16218.02
828.151	16214.18
828.478	16197.23
828.805	16252.14
829.131	16144.8
829.458	16142.54
829.785	16122.66
830.111	16126.27
830.438	16190.22
830.764	16138.93
831.09	16168.3
831.417	16102.77
831.743	16209.21
832.069	16161.07
832.395	15981.42
832.722	16199.49
833.048	16092.83
833.374	16071.13
833.7	16010.12
834.026	16078.81
834.351	16064.13
834.677	15964.02
835.003	16023.67
835.329	16019.61
835.654	15968.99
835.98	15931.25
836.306	16008.99
836.631	15892.6
836.956	15943.9
837.282	15916.11
837.607	15820.52
837.932	15781.42
838.258	15808.54
838.583	15837.69
838.908	15737.35
839.233	15699.16
839.558	15629.79
839.883	15686.73
840.208	15565.38
840.533	15659.62
840.858	15531.03
841.182	15602.89
841.507	15491.03
841.832	15417.59
842.156	15430.7
842.481	15350.92
842.805	15470.02
843.13	15367.65
843.454	15422.33
843.778	15257.59
844.103	15218.72
844.427	15255.11
844.751	15190.48
845.075	15187.31
845.399	15050.59
845.723	15020.76
846.047	15083.81
846.371	14988.22
846.695	14984.15
847.019	14877.94
847.343	14831.39
847.666	14707.1
847.99	14724.05
848.313	14647.89
848.637	14519.99
848.96	14502.36
849.284	14439.08
849.607	14347.79
849.931	14438.18
850.254	14238.18
850.577	14141.24
850.9	14024.18
851.223	14036.61
851.546	14038.64
851.869	13919.1
852.192	13880.23
852.515	13855.37
852.838	13769.95
853.161	13782.38
853.483	13706.9
853.806	13639.1
854.129	13630.29
854.451	13591.2
854.774	13516.17
855.096	13530.86
855.419	13492.67
855.741	13431.65
856.063	13304.88
856.385	13378.32
856.708	13250.87
857.03	13158.67
857.352	13221.71
857.674	13128.38
857.996	13122.51
858.318	13025.79
858.64	13053.36
858.961	13092
859.283	12949.86
859.605	12899.46
859.926	12973.36
860.248	12914.38
860.57	12812.69
860.891	12850.2
861.212	12743.53
861.534	12798.45
861.855	12790.77
862.176	12755.96
862.498	12767.72
862.819	12681.84
863.14	12667.83
863.461	12592.8
863.782	12550.77
864.103	12571.79
864.424	12478.23
864.745	12536.31
865.065	12478.01
865.386	12525.69
865.707	12397.56
866.027	12440.72
866.348	12378.57
866.668	12429.42
866.989	12310.55
867.309	12172.25
867.63	12261.51
867.95	12277.56
868.27	12256.54
868.59	12257.22
868.91	12186.26
869.23	12100.84
869.55	12174.74
869.87	12226.71
870.19	12149.88
870.51	12134.96
870.83	12144.45
871.15	12028.07
871.469	12011.8
871.789	12077.56
872.109	12058.81
872.428	11967.74
872.748	12009.77
873.067	11958.92
873.386	11973.39
873.706	11962.09
874.025	11885.93
874.344	11842.77
874.663	11849.1
874.982	11816.33
875.301	11844.58
875.62	11760.06
875.939	11770.23
876.258	11775.88
876.577	11714.41
876.896	11709.44
877.214	11707.18
877.533	11706.95
877.852	11618.82
878.17	11628.54
878.489	11708.53
878.807	11573.62
879.125	11611.59
879.444	11552.61
879.762	11494.53
880.08	11532.49
880.398	11474.87
880.716	11455.89
881.034	11473.96
881.352	11405.94
881.67	11388.77
881.988	11439.39
882.306	11383.34
882.624	11307.87
882.941	11254.53
883.259	11240.52
883.577	11202.56
883.894	11243.91
884.212	11211.6
884.529	11136.35
884.846	11111.94
885.164	11136.12
885.481	11074.88
885.798	11099.96
886.115	11039.17
886.432	10986.52
886.75	11014.99
887.067	11026.29
887.383	10972.51
887.7	10948.78
888.017	10899.06
888.334	10899.52
888.651	10877.37
888.967	10823.13
889.284	10731.61
889.6	10770.48
889.917	10635.34
890.233	10697.71
890.55	10651.16
890.866	10662.23
891.182	10594.66
891.498	10497.72
891.815	10511.96
892.131	10470.37
892.447	10468.11
892.763	10420.43
893.079	10404.61
893.395	10307.44
893.71	10344.28
894.026	10272.19
894.342	10215.47
894.657	10225.64
894.973	10203.94
895.289	10228.35
895.604	10205.07
895.92	10055.02
896.235	10002.82
896.55	10058.41
896.865	10032.19
897.181	9962.37
897.496	9930.28
897.811	9929.15
898.126	9857.06
898.441	9855.02
898.756	9768.25
899.071	9719.66
899.386	9770.51
899.7	9732.09
900.015	9610.51
900.33	9633.11
900.644	9601.02
900.959	9590.85
901.273	9519.66
901.588	9495.26
901.902	9434.92
902.216	9339.33
902.531	9397.18
902.845	9347.01
903.159	9302.5
903.473	9248.03
903.787	9215.04
904.101	9140.47
904.415	9220.46
904.729	9078.77
905.042	9071.54
905.356	9102.05
905.67	9068.83
905.984	9007.36
906.297	9009.17
906.611	8917.87
906.924	8923.07
907.237	8858.67
907.551	8789.51
907.864	8795.16
908.177	8800.36
908.491	8753.81
908.804	8743.41
909.117	8635.85
909.43	8571.67
909.743	8533.93
910.056	8514.49
910.368	8518.79
910.681	8489.86
910.994	8411.45
911.307	8478.11
911.619	8329.19
911.932	8352.69
912.244	8304.56
912.557	8317.66
912.869	8255.74
913.181	8187.72
913.494	8190.66
913.806	8116.31
914.118	8048.29
914.43	8085.8
914.742	8073.15
915.054	8035.18
915.366	7966.03
915.678	7953.6
915.99	7894.62
916.302	7835.87
916.613	7824.34
916.925	7850.56
917.236	7778.02
917.548	7753.38
917.859	7696.66
918.171	7687.62
918.482	7654.4
918.794	7643.78
919.105	7645.14
919.416	7498.02
919.727	7513.84
920.038	7558.13
920.349	7427.74
920.66	7459.61
920.971	7436.1
921.282	7460.28
921.593	7271.14
921.903	7262.78
922.214	7301.19
922.525	7279.27
922.835	7176.9
923.146	7176
923.456	7145.26
923.767	7068.2
924.077	7093.74
924.387	7077.02
924.697	7024.82
925.008	6986.62
925.318	6947.3
925.628	6954.53
925.938	6969
926.248	6912.5
926.558	6831.37
926.867	6787.99
927.177	6838.15
927.487	6791.83
927.796	6673.41
928.106	6729.46
928.416	6725.84
928.725	6670.47
929.034	6587.99
929.344	6613.75
929.653	6568.1
929.962	6525.17
930.271	6474.32
930.581	6482.91
930.89	6431.16
931.199	6400.88
931.508	6425.73
931.817	6420.76
932.125	6380.54
932.434	6350.93
932.743	6269.81
933.051	6330.37
933.36	6232.07
933.669	6213.09
933.977	6179.64
934.286	6206.31
934.594	6180.54
934.902	6084.73
935.21	6068.68
935.519	6064.84
935.827	6043.82
936.135	6028.91
936.443	5985.29
936.751	5983.71
937.059	5959.53
937.367	5920.21
937.674	5868.91
937.982	5883.6
938.29	5870.95
938.597	5840.44
938.905	5786.2
939.213	5785.98
939.52	5728.8
939.827	5753.21
940.135	5710.73
940.442	5698.75
940.749	5670.73
941.056	5638.86
941.363	5602.25
941.67	5572.88
941.977	5545.98
942.284	5510.96
942.591	5510.28
942.898	5434.57
943.205	5472.99
943.511	5438.19
943.818	5418.53
944.125	5425.99
944.431	5362.71
944.738	5351.86
945.044	5296.27
945.35	5297.18
945.657	5283.39
945.963	5204.98
946.269	5199.55
946.575	5204.07
946.881	5176.73
947.187	5138.76
947.493	5103.51
947.799	5114.13
948.105	5099.89
948.41	5061.03
948.716	5059.67
949.022	5033.23
949.327	5002.72
949.633	4993.68
949.938	4974.02
950.244	4937.19
950.549	4908.26
950.854	4882.27
951.16	4874.14
951.465	4868.94
951.77	4822.16
952.075	4773.8
952.38	4816.06
952.685	4765.21
952.99	4719.11
953.294	4757.76
953.599	4731.09
953.904	4670.07
954.209	4642.51
954.513	4647.02
954.818	4620.58
955.122	4590.3
955.426	4565.22
955.731	4574.71
956.035	4512.56
956.339	4523.86
956.643	4532.9
956.948	4505.33
957.252	4450.65
957.556	4424.43
957.86	4411.55
958.163	4424.43
958.467	4389.18
958.771	4361.61
959.075	4359.35
959.378	4338.56
959.682	4295.62
959.985	4336.3
960.289	4299.92
960.592	4223.08
960.896	4254.94
961.199	4251.33
961.502	4219.92
961.805	4217.66
962.108	4158.68
962.411	4138.11
962.714	4107.6
963.017	4096.98
963.32	4071.22
963.623	4099.47
963.926	4070.09
964.228	4068.73
964.531	4005.23
964.833	4005.91
965.136	3979.25
965.438	3952.81
965.741	3898.34
966.043	3915.97
966.345	3923.65
966.648	3888.4
966.95	3921.62
967.252	3852.02
967.554	3816.09
967.856	3835.75
968.158	3828.74
968.46	3818.57
968.761	3799.36
969.063	3775.41
969.365	3706.48
969.666	3721.4
969.968	3690.89
970.269	3727.95
970.571	3694.28
970.872	3693.83
971.174	3650.44
971.475	3607.28
971.776	3639.82
972.077	3588.75
972.378	3586.49
972.679	3593.72
972.98	3559.14
973.281	3528.18
973.582	3549.2
973.883	3522.08
974.183	3464.91
974.484	3483.44
974.785	3486.38
975.085	3440.28
975.386	3477.79
975.686	3431.01
975.986	3381.75
976.287	3390.11
976.587	3391.69
976.887	3356.66
977.187	3391.24
977.487	3319.15
977.787	3320.96
978.087	3294.29
978.387	3275.76
978.687	3280.73
978.987	3317.57
979.286	3174.3
979.586	3230.11
979.885	3212.71
980.185	3216.55
980.484	3183.79
980.784	3169.32
981.083	3153.73
981.382	3141.3
981.682	3120.74
981.981	3090
982.28	3115.31
982.579	3093.17
982.878	3100.62
983.177	3030.57
983.475	3062.89
983.774	3017.69
984.073	3028.99
984.372	2963.68
984.67	2997.35
984.969	3015.66
985.267	2982.66
985.566	2976.11
985.864	2929.56
986.162	2915.32
986.461	2919.39
986.759	2875.77
987.057	2878.94
987.355	2876.45
987.653	2876.9
987.951	2848.88
988.249	2840.07
988.547	2828.99
988.844	2815.21
989.142	2786.06
989.44	2756.45
989.737	2734.76
990.035	2746.28
990.332	2767.3
990.63	2722.56
990.927	2728.88
991.224	2708.77
991.521	2686.4
991.819	2674.42
992.116	2683.46
992.413	2629.45
992.71	2638.26
993.006	2631.71
993.303	2642.78
993.6	2608.21
993.897	2602.56
994.193	2562.11
994.49	2582.9
994.787	2551.71
995.083	2558.27
995.379	2545.39
995.676	2527.31
995.972	2477.59
996.268	2530.24
996.565	2490.02
996.861	2464.71
997.157	2427.2
997.453	2427.42
997.749	2404.37
998.044	2392.39
998.34	2448.21
998.636	2420.87
998.932	2408.21
999.227	2369.8
999.523	2380.42
999.818	2351.49
1000.114	2297.26
1000.409	2319.85
1000.704	2299.97
1001	2289.8
1001.295	2284.6
1001.59	2285.05
1001.885	2289.8
1002.18	2214.77
1002.475	2248.9
1002.77	2203.7
1003.065	2196.92
1003.359	2193.3
1003.654	2205.73
1003.949	2179.74
1004.243	2158.95
1004.538	2114.89
1004.832	2132.06
1005.127	2146.75
1005.421	2087.77
1005.715	2082.57
1006.009	2125.51
1006.304	2046.42
1006.598	2056.81
1006.892	2041.67
1007.186	2034.89
1007.48	2022.46
1007.773	1997.38
1008.067	2010.48
1008.361	1997.38
1008.655	1952.41
1008.948	1957.15
1009.242	1939.75
1009.535	1931.16
1009.829	1918.73
1010.122	1920.32
1010.415	1935.01
1010.708	1891.62
1011.001	1902.46
1011.295	1897.72
1011.588	1840.54
1011.881	1825.63
1012.173	1858.4
1012.466	1832.86
1012.759	1824.95
1013.052	1825.18
1013.344	1791.51
1013.637	1785.63
1013.93	1778.63
1014.222	1763.26
1014.514	1745.18
1014.807	1768
1015.099	1747.67
1015.391	1772.3
1015.683	1697.95
1015.976	1711.73
1016.268	1690.04
1016.56	1692.75
1016.851	1666.76
1017.143	1665.18
1017.435	1674.9
1017.727	1647.78
1018.018	1662.92
1018.31	1627.67
1018.602	1601
1018.893	1633.54
1019.185	1555.58
1019.476	1585.86
1019.767	1569.59
1020.058	1575.69
1020.35	1544.51
1020.641	1517.16
1020.932	1538.41
1021.223	1513.1
1021.514	1517.62
1021.804	1485.75
1022.095	1469.03
1022.386	1506.77
1022.677	1479.88
1022.967	1462.93
1023.258	1432.65
1023.548	1436.04
1023.839	1470.61
1024.129	1422.48
1024.419	1398.07
1024.709	1412.31
1025	1372.08
1025.29	1411.63
1025.58	1369.82
1025.87	1350.39
1026.16	1338.19
1026.449	1365.3
1026.739	1337.28
1027.029	1330.28
1027.319	1303.84
1027.608	1294.34
1027.898	1299.54
1028.187	1305.64
1028.477	1316.04
1028.766	1300.45
1029.055	1264.29
1029.344	1274.46
1029.634	1263.84
1029.923	1239.88
1030.212	1224.52
1030.501	1228.36
1030.79	1219.54
1031.078	1225.87
1031.367	1172.77
1031.656	1215.48
1031.945	1169.83
1032.233	1188.81
1032.522	1163.27
1032.81	1150.39
1033.099	1168.47
1033.387	1169.6
1033.675	1140
1033.963	1154.01
1034.251	1122.82
1034.54	1142.26
1034.828	1119.21
1035.116	1116.5
1035.403	1076.05
1035.691	1086.67
1035.979	1083.95
1036.267	1092.09
1036.554	1089.15
1036.842	1060.23
1037.129	1060.45
1037.417	1045.09
1037.704	1056.38
1037.992	1023.84
1038.279	1031.98
1038.566	1025.88
1038.853	1025.88
1039.14	1025.88
