Data from hue_28_FLMS001491_00052.txt Node
Date: Tue Feb 07 17:17:27 GMT 2017
User: dcchb
Spectrometer: FLMS00149
Trigger mode: 0
Integration Time (sec): 2.000000E-2
Scans to average: 10
Electric dark correction enabled: true
Nonlinearity correction enabled: false
Boxcar width: 0
XAxis mode: Wavelengths
Number of Pixels in Spectrum: 2048
>>>>>Begin Spectral Data<<<<<
341.393	-18.7
341.776	-18.7
342.16	-18.7
342.543	-70.22
342.927	-66.38
343.31	-65.7
343.693	-77.68
344.077	-77.23
344.46	-57.34
344.843	-39.04
345.226	-39.26
345.61	-37.23
345.993	8.87
346.376	-14.18
346.759	-5.59
347.142	36.44
347.525	42.99
347.908	71.24
348.291	69.21
348.674	87.51
349.057	97
349.44	127.06
349.823	129.54
350.206	166.61
350.588	206.38
350.971	219.94
351.354	259.26
351.737	238.69
352.119	256.32
352.502	259.26
352.884	285.25
353.267	286.15
353.65	309.43
354.032	292.93
354.414	305.36
354.797	316.43
355.179	323.89
355.562	334.74
355.944	351.69
356.326	362.31
356.709	347.62
357.091	358.92
357.473	341.52
357.855	342.87
358.238	352.82
358.62	346.04
359.002	350.78
359.384	336.54
359.766	331.57
360.148	344
360.53	344.91
360.912	336.09
361.294	350.1
361.676	352.82
362.057	346.94
362.439	340.16
362.821	349.88
363.203	343.1
363.584	343.1
363.966	335.64
364.348	340.16
364.729	326.15
365.111	325.92
365.493	308.97
365.874	309.88
366.256	304.68
366.637	304.68
367.019	313.04
367.4	301.07
367.781	322.08
368.163	332.93
368.544	312.59
368.925	332.7
369.306	328.86
369.688	312.36
370.069	310.1
370.45	319.37
370.831	312.59
371.212	307.39
371.593	291.57
371.974	314.62
372.355	315.08
372.736	337.67
373.117	315.53
373.498	333.61
373.879	309.88
374.26	316.66
374.641	330.22
375.021	288.41
375.402	333.38
375.783	327.05
376.163	326.83
376.544	314.4
376.925	320.5
377.305	320.05
377.686	334.74
378.066	353.49
378.447	343.78
378.827	343.32
379.208	350.78
379.588	339.26
379.968	335.87
380.349	326.38
380.729	343.32
381.109	348.3
381.489	345.58
381.87	359.14
382.25	344.91
382.63	329.99
383.01	328.64
383.39	342.65
383.77	351.01
384.15	332.03
384.53	352.36
384.91	348.75
385.29	357.56
385.67	351.46
386.049	343.32
386.429	349.65
386.809	364.79
387.189	356.43
387.568	362.76
387.948	352.82
388.328	367.5
388.707	381.29
389.087	355.08
389.466	370.22
389.846	376.09
390.225	341.97
390.605	362.98
390.984	370.67
391.363	379.26
391.743	355.53
392.122	363.89
392.501	375.64
392.881	371.12
393.26	360.95
393.639	375.19
394.018	371.8
394.397	370.44
394.776	370.67
395.155	372.02
395.534	392.59
395.913	395.3
396.292	405.92
396.671	410.44
397.05	384.91
397.429	379.93
397.808	387.62
398.186	390.1
398.565	402.53
398.944	408.41
399.323	410.67
399.701	391.91
400.08	376.09
400.458	393.49
400.837	393.94
401.215	402.31
401.594	407.73
401.972	391.68
402.351	413.15
402.729	395.75
403.107	401.63
403.486	419.93
403.864	412.02
404.242	430.33
404.62	421.97
404.999	411.35
405.377	402.08
405.755	414.06
406.133	429.42
406.511	430.33
406.889	426.03
407.267	423.77
407.645	426.71
408.023	441.63
408.401	438.46
408.779	431.46
409.156	446.6
409.534	434.62
409.912	445.69
410.29	444.11
410.667	428.29
411.045	457.45
411.422	449.08
411.8	451.34
412.178	463.55
412.555	462.87
412.933	460.16
413.31	475.07
413.687	477.78
414.065	479.14
414.442	478.91
414.819	496.31
415.197	494.96
415.574	472.81
415.951	477.56
416.328	491.34
416.705	487.28
417.082	488.18
417.46	482.08
417.837	476.43
418.214	494.96
418.591	494.51
418.967	494.73
419.344	477.56
419.721	490.21
420.098	507.39
420.475	504
420.852	528.4
421.228	529.76
421.605	507.16
421.982	522.3
422.358	500.61
422.735	502.19
423.111	532.7
423.488	542.64
423.864	532.02
424.241	563.66
424.617	559.82
424.994	555.3
425.37	548.29
425.746	550.1
426.123	563.88
426.499	558.91
426.875	555.52
427.251	555.52
427.627	559.14
428.003	576.76
428.379	589.19
428.756	590.78
429.132	574.05
429.507	584.9
429.883	610.89
430.259	601.17
430.635	589.42
431.011	611.79
431.387	615.41
431.763	629.87
432.138	610.44
432.514	616.54
432.89	604.56
433.265	640.94
433.641	668.74
434.016	641.85
434.392	632.58
434.767	659.47
435.143	635.29
435.518	669.42
435.894	665.35
436.269	661.96
436.644	667.16
437.02	685.01
437.395	695.86
437.77	693.37
438.145	704.22
438.52	708.06
438.895	689.08
439.271	710.32
439.646	715.52
440.021	715.07
440.395	719.36
440.77	713.71
441.145	716.65
441.52	723.65
441.895	723.65
442.27	737.66
442.645	750.77
443.019	728.17
443.394	721.39
443.769	748.06
444.143	743.31
444.518	769.98
444.892	774.05
445.267	790.54
445.641	763.2
446.016	786.25
446.39	789.19
446.764	771.79
447.139	792.8
447.513	791.9
447.887	817.21
448.262	800.94
448.636	799.36
449.01	812.01
449.384	832.58
449.758	837.1
450.132	825.57
450.506	832.13
450.88	828.74
451.254	843.2
451.628	843.65
452.002	857.66
452.376	835.29
452.75	850.66
453.123	884.1
453.497	887.26
453.871	912.8
454.244	910.09
454.618	899.69
454.992	910.99
455.365	889.98
455.739	926.81
456.112	965
456.486	940.82
456.859	960.94
457.232	951.44
457.606	972.46
457.979	972.23
458.352	1006.36
458.725	972.91
459.099	1006.58
459.472	1026.7
459.845	1028.28
460.218	1022.63
460.591	1037.32
460.964	1025.57
461.337	1086.58
461.71	1085.45
462.083	1086.13
462.456	1077.54
462.829	1064.44
463.201	1117.99
463.574	1116.86
463.947	1114.83
464.32	1175.62
464.692	1143.53
465.065	1191.89
465.438	1195.28
465.81	1193.47
466.183	1208.39
466.555	1237.99
466.928	1236.86
467.3	1247.71
467.672	1259.91
468.045	1288.16
468.417	1296.75
468.789	1311.66
469.161	1352.56
469.534	1323.86
469.906	1362.28
470.278	1399.57
470.65	1373.35
471.022	1421.04
471.394	1443.18
471.766	1470.07
472.138	1473.01
472.51	1528.6
472.882	1555.5
473.253	1570.64
473.625	1579.68
473.997	1615.83
474.369	1618.55
474.74	1650.18
475.112	1686.57
475.484	1722.27
475.855	1755.04
476.227	1780.35
476.598	1783.06
476.97	1840.46
477.341	1874.36
477.713	1913
478.084	1931.53
478.455	1997.97
478.827	2013.56
479.198	2057.18
479.569	2081.81
479.94	2147.57
480.311	2171.98
480.682	2204.97
481.053	2310.28
481.424	2349.15
481.795	2400.22
482.166	2410.84
482.537	2479.77
482.908	2515.47
483.279	2535.13
483.65	2618.29
484.021	2678.63
484.391	2716.82
484.762	2768.35
485.133	2779.87
485.503	2849.47
485.874	2925.63
486.244	2962.24
486.615	3060.77
486.985	3084.72
487.356	3164.04
487.726	3187.32
488.097	3240.65
488.467	3291.5
488.837	3394.32
489.207	3426.18
489.578	3479.06
489.948	3499.85
490.318	3599.96
490.688	3620.98
491.058	3717.25
491.428	3768.77
491.798	3856.68
492.168	3885.38
492.538	3930.57
492.908	3951.82
493.278	4047.18
493.648	4048.31
494.017	4149.33
494.387	4225.93
494.757	4217.35
495.126	4309.32
495.496	4339.38
495.866	4358.13
496.235	4406.49
496.605	4465.7
496.974	4547.96
497.344	4581.18
497.713	4614.85
498.082	4645.36
498.452	4705.92
498.821	4697.56
499.19	4767.61
499.559	4799.48
499.928	4808.52
500.298	4919.48
500.667	4967.38
501.036	4921.06
501.405	5001.73
501.774	5031.34
502.143	5067.72
502.512	5074.27
502.88	5111.56
503.249	5146.81
503.618	5173.48
503.987	5214.83
504.356	5246.25
504.724	5290.31
505.093	5341.61
505.462	5315.17
505.83	5434.72
506.199	5442.63
506.567	5480.36
506.936	5513.36
507.304	5552
507.672	5564.88
508.041	5622.06
508.409	5644.43
508.777	5684.88
509.145	5669.74
509.514	5686.46
509.882	5789.28
510.25	5726.91
510.618	5791.54
510.986	5773.46
511.354	5827.02
511.722	5916.74
512.09	5966.91
512.458	5907.02
512.826	5963.29
513.193	6015.72
513.561	6017.53
513.929	6068.6
514.297	6109.73
514.664	6138.2
515.032	6114.02
515.4	6155.6
515.767	6182.72
516.135	6217.29
516.502	6239.44
516.869	6274.69
517.237	6305.88
517.604	6300.23
517.972	6361.7
518.339	6350.62
518.706	6393.56
519.073	6460.68
519.44	6437.4
519.808	6423.16
520.175	6484.63
520.542	6579.09
520.909	6558.3
521.276	6601.69
521.643	6568.02
522.009	6639.2
522.376	6608.47
522.743	6751.74
523.11	6747
523.477	6794
523.843	6832.87
524.21	6864.06
524.577	6894.34
524.943	6935.02
525.31	6945.64
525.676	7072.41
526.043	7023.15
526.409	7088.46
526.776	7124.84
527.142	7135.46
527.508	7143.6
527.874	7181.79
528.241	7256.59
528.607	7284.38
528.973	7325.29
529.339	7362.35
529.705	7397.83
530.071	7453.65
530.437	7520.54
530.803	7530.71
531.169	7611.61
531.535	7606.64
531.901	7632.4
532.267	7596.92
532.632	7656.13
532.998	7680.98
533.364	7791.49
533.73	7750.59
534.095	7829.23
534.461	7907.87
534.826	7908.78
535.192	7967.3
535.557	8044.82
535.923	8007.3
536.288	8006.4
536.653	8040.52
537.019	8080.75
537.384	8077.81
537.749	8186.73
538.114	8163.68
538.479	8210.69
538.845	8226.96
539.21	8178.82
539.575	8305.83
539.94	8296.11
540.305	8351.48
540.67	8360.51
541.034	8405.71
541.399	8449.55
541.764	8443.45
542.129	8569.55
542.494	8563.9
542.858	8593.5
543.223	8547.18
543.587	8698.36
543.952	8687.96
544.316	8709.88
544.681	8746.95
545.045	8782.2
545.41	8844.8
545.774	8910.1
546.138	8873.5
546.503	8877.79
546.867	8941.06
547.231	9079.14
547.595	9028.97
547.959	9092.92
548.324	9049.08
548.688	9140.83
549.052	9139.7
549.416	9149.87
549.779	9187.61
550.143	9242.3
550.507	9282.75
550.871	9280.49
551.235	9293.82
551.599	9408.62
551.962	9359.13
552.326	9399.36
552.689	9480.94
553.053	9466.93
553.417	9484.55
553.78	9647.49
554.143	9494.27
554.507	9588.73
554.87	9583.99
555.234	9742.4
555.597	9663.53
555.96	9688.16
556.323	9749.4
556.686	9803.64
557.05	9821.27
557.413	9776.75
557.776	9880.93
558.139	9907.82
558.502	9934.48
558.865	9977.65
559.228	10046.57
559.59	10048.61
559.953	10052
560.316	10252.44
560.679	10134.71
561.041	10198.21
561.404	10197.75
561.767	10262.84
562.129	10283.63
562.492	10342.38
562.854	10466.67
563.217	10362.5
563.579	10405.21
563.941	10455.37
564.304	10384.42
564.666	10527.92
565.028	10617.18
565.39	10624.41
565.753	10669.38
566.115	10639.78
566.477	10694.69
566.839	10818.98
567.201	10810.39
567.563	10818.76
567.925	10902.82
568.287	10917.74
568.648	10973.33
569.01	11009.03
569.372	11104.62
569.734	11045.64
570.095	11122.7
570.457	11090.61
570.819	11219.42
571.18	11288.8
571.542	11329.25
571.903	11376.25
572.265	11473.65
572.626	11459.19
572.987	11546.65
573.349	11595.01
573.71	11675.91
574.071	11642.01
574.432	11752.97
574.794	11825.06
575.155	11869.12
575.516	11987.54
575.877	12067.54
576.238	12193.18
576.599	12331.71
576.96	12378.26
577.32	12410.13
577.681	12552.72
578.042	12666.84
578.403	12706.84
578.763	12786.16
579.124	13038.81
579.485	13109.54
579.845	13275.41
580.206	13368.07
580.566	13450.1
580.927	13653.71
581.287	13825.23
581.648	13968.05
582.008	14107.48
582.368	14237.87
582.728	14534.59
583.089	14654.13
583.449	14873.56
583.809	15047.8
584.169	15276.72
584.529	15408.92
584.889	15729.36
585.249	15981.78
585.609	16044.15
585.969	16419.96
586.329	16657.7
586.688	16952.38
587.048	17049.33
587.408	17346.72
587.768	17565.24
588.127	17855.41
588.487	18114.83
588.846	18633.01
589.206	18743.52
589.565	19029.84
589.925	19292.88
590.284	19536.04
590.643	20025.74
591.003	20245.85
591.362	20677.48
591.721	20903.46
592.08	21241.53
592.44	21553.39
592.799	21832.02
593.158	22233.37
593.517	22537.77
593.876	22938.89
594.235	23222.04
594.593	23441.25
594.952	23860.22
595.311	24178.86
595.67	24544.72
596.029	25059.28
596.387	25373.85
596.746	25655.43
597.104	25948.53
597.463	26115.08
597.822	26727.26
598.18	26809.3
598.538	27254.93
598.897	27850.62
599.255	27775.6
599.613	28621
599.972	28580.77
600.33	28931.05
600.688	29225.5
601.046	29634.08
601.404	30079.94
601.762	30216.44
602.12	30597.67
602.478	31025.46
602.836	31295.05
603.194	31429.51
603.552	31832.89
603.91	31908.14
604.268	32483.95
604.625	32640.55
604.983	33053.2
605.341	33165.96
605.698	33459.97
606.056	33689.57
606.413	34005.72
606.771	34367.06
607.128	34675.98
607.485	34870.1
607.843	35128.62
608.2	35365
608.557	35728.83
608.914	35751.43
609.272	36266.9
609.629	36492.66
609.986	36860.33
610.343	36856.26
610.7	37398.4
611.057	37466.19
611.414	37688.11
611.771	37851.72
612.127	38216.68
612.484	38426.39
612.841	38658.48
613.198	38744.12
613.554	39020.27
613.911	39302.3
614.267	39306.37
614.624	39528.28
614.98	39907.71
615.337	40068.16
615.693	40164.65
616.05	40290.97
616.406	40523.06
616.762	40708.36
617.118	40815.25
617.475	41015.25
617.831	41151.52
618.187	41361.91
618.543	41422.02
618.899	41936.58
619.255	41834.44
619.611	41806.64
619.967	42097.93
620.323	42342.45
620.678	42352.62
621.034	42390.13
621.39	42494.98
621.746	42476.68
622.101	43055.87
622.457	42794.19
622.812	43099.94
623.168	43020.85
623.523	43366.83
623.879	43443.21
624.234	43212.93
624.589	43429.2
624.945	43554.39
625.3	43804.33
625.655	43813.59
626.01	43857.89
626.365	43934.04
626.72	43946.25
627.075	43969.52
627.43	43946.7
627.785	43904.21
628.14	44146.47
628.495	44212.91
628.85	44242.06
629.205	44216.75
629.559	44473.46
629.914	44411.32
630.269	44483.63
630.623	44393.24
630.978	44297.2
631.332	44630.07
631.687	44689.05
632.041	44593.91
632.396	44708.71
632.75	44623.29
633.104	44723.4
633.459	44598.21
633.813	44671.88
634.167	44673.91
634.521	44570.18
634.875	44842.04
635.229	44735.38
635.583	44525.67
635.937	44614.48
636.291	44679.33
636.645	44709.84
636.999	44706.23
637.352	44796.17
637.706	44421.94
638.06	44838.2
638.413	44678.66
638.767	44523.63
639.121	44743.96
639.474	44528.6
639.828	44472.56
640.181	44621.93
640.534	44534.03
640.888	44508.72
641.241	44304.43
641.594	44542.61
641.947	44672.33
642.301	44578.55
642.654	44595.49
643.007	44582.16
643.36	44439.11
643.713	44418.78
644.066	44600.69
644.419	44441.37
644.771	44188.05
645.124	43706.03
645.477	43726.14
645.83	43363.66
646.182	43384.45
646.535	43187.4
646.888	43317.34
647.24	43127.74
647.593	43559.82
647.945	43234.85
648.298	43177.9
648.65	43114.18
649.002	42972.49
649.355	43153.5
649.707	43184.23
650.059	43335.87
650.411	43846.36
650.763	43773.37
651.115	44283.19
651.467	44001.84
651.819	44049.75
652.171	44065.11
652.523	43957.32
652.875	43965
653.227	43821.73
653.578	44272.56
653.93	43951.9
654.282	43761.84
654.633	43782.86
654.985	43781.73
655.337	43915.51
655.688	43700.6
656.039	43991.44
656.391	43534.51
656.742	43738.12
657.094	43858.56
657.445	43896.53
657.796	43864.44
658.147	43764.56
658.498	43809.53
658.849	43755.52
659.2	43803.42
659.551	43664.45
659.902	43879.58
660.253	43673.94
660.604	43736.76
660.955	43580.83
661.306	43759.36
661.656	43713.03
662.007	43642.3
662.358	43693.37
662.708	43654.5
663.059	43591.9
663.409	43461.74
663.76	43697.21
664.11	43741.51
664.461	43702.18
664.811	43631.23
665.161	43703.54
665.511	43543.32
665.862	43606.82
666.212	43772.92
666.562	43718
666.912	43642.07
667.262	43559.82
667.612	43630.1
667.962	43593.03
668.312	43521.4
668.662	43774.5
669.011	43596.88
669.361	43436.2
669.711	43536.31
670.06	43510.55
670.41	43416.32
670.76	43327.73
671.109	43436.2
671.459	43418.12
671.808	43318.47
672.157	43486.14
672.507	43198.24
672.856	43043.22
673.205	43212.93
673.554	43478.91
673.904	43169.99
674.253	43504.9
674.602	43306.26
674.951	42727.97
675.3	42559.84
675.649	43207.96
675.998	43180.16
676.346	43248.64
676.695	43224.23
677.044	42866.73
677.393	43038.7
677.741	43106.49
678.09	43045.03
678.438	42852.26
678.787	42941.75
679.135	42984.46
679.484	42693.17
679.832	42955.31
680.181	42616.79
680.529	42731.81
680.877	42780.85
681.225	42605.72
681.573	42845.03
681.922	42613.4
682.27	42482.33
682.618	42510.8
682.966	42387.42
683.314	42482.56
683.661	42327.98
684.009	42199.4
684.357	41963.92
684.705	41965.05
685.053	42143.58
685.4	42028.33
685.748	41866.53
686.095	41784.27
686.443	41765.74
686.79	41678.73
687.138	41799.41
687.485	41722.12
687.832	41584.95
688.18	41490.04
688.527	41307.22
688.874	41269.03
689.221	41297.05
689.568	41321
689.915	41154.91
690.262	41127.11
690.609	41074.91
690.956	40893.9
691.303	40815.71
691.65	40638.31
691.997	40586.56
692.344	40351.76
692.69	40407.58
693.037	40403.51
693.383	40146.12
693.73	40190.86
694.077	40071.09
694.423	39872
694.769	39937.09
695.116	39913.13
695.462	39856.64
695.808	39573.71
696.155	39729.41
696.501	39493.03
696.847	39385.46
697.193	39068.41
697.539	39338.68
697.885	39085.81
698.231	38903.44
698.577	38912.03
698.923	38871.12
699.269	38620.74
699.614	38391.14
699.96	38513.39
700.306	38484.47
700.651	38307.52
700.997	38193.18
701.342	38157.25
701.688	38095.33
702.033	37995.89
702.379	37910.92
702.724	37902.79
703.069	37928.32
703.415	37535.11
703.76	37653.76
704.105	37657.82
704.45	37519.52
704.795	37303.03
705.14	37158.85
705.485	37119.31
705.83	37061
706.175	37167.67
706.52	36906.43
706.865	36880.89
707.209	36764.74
707.554	36622.37
707.899	36572.65
708.243	36397.07
708.588	36481.36
708.932	36255.15
709.277	36134.25
709.621	36236.84
709.966	35891.32
710.31	36122.72
710.654	35801.6
710.998	35895.61
711.342	35900.36
711.687	35677.31
712.031	35619.91
712.375	35541.04
712.719	35539.69
713.063	35529.97
713.407	35543.53
713.75	35360.48
714.094	35381.5
714.438	35112.35
714.782	35142.18
715.125	35021.06
715.469	35088.17
715.812	34894.51
716.156	34686.38
716.499	34777.9
716.843	34712.36
717.186	34565.7
717.53	34778.13
717.873	34777.45
718.216	34454.52
718.559	34411.81
718.902	34193.73
719.246	34332.94
719.589	34055.43
719.932	34116.45
720.275	34074.64
720.617	34071.25
720.96	33972.5
721.303	33912.84
721.646	33966.62
721.989	33776.12
722.331	33919.39
722.674	33727.08
723.016	33761.43
723.359	33687.53
723.701	33784.48
724.044	33535.9
724.386	33275.34
724.729	33575.44
725.071	33406.64
725.413	33372.51
725.755	33356.24
726.097	33058.17
726.439	33010.26
726.782	33006.87
727.124	33217.71
727.465	33010.04
727.807	32937.5
728.149	32726.65
728.491	32846.2
728.833	32906.08
729.175	32760.78
729.516	32683.94
729.858	32553.78
730.199	32641.23
730.541	32574.12
730.882	32422.03
731.224	32587
731.565	32440.56
731.906	32372.76
732.248	32361.69
732.589	32238.98
732.93	32168.93
733.271	32265.2
733.612	32233.56
733.953	32264.07
734.294	32053.68
734.635	31988.59
734.976	32062.04
735.317	31880.8
735.658	31891.65
735.999	31861.37
736.339	31770.97
736.68	31898.43
737.021	31669.96
737.361	31560.36
737.702	31740.24
738.042	31581.82
738.383	31512.45
738.723	31603.07
739.063	31488.04
739.404	31531.66
739.744	31514.26
740.084	31377.54
740.424	31374.82
740.764	31324.88
741.104	31354.03
741.444	31103.42
741.784	31086.92
742.124	31110.42
742.464	31052.57
742.804	30952.46
743.143	30897.78
743.483	30923.31
743.823	30739.81
744.162	30822.97
744.502	30862.07
744.841	30717.21
745.181	30819.36
745.52	30618.23
745.86	30604.22
746.199	30557.9
746.538	30568.74
746.877	30550.21
747.216	30551.12
747.556	30594.05
747.895	30471.8
748.234	30425.25
748.573	30286.94
748.911	30117.23
749.25	30270
749.589	30053.28
749.928	30152.48
750.267	30186.38
750.605	30014.63
750.944	29943.45
751.283	29852.83
751.621	30100.96
751.96	29800.85
752.298	29773.06
752.636	29787.07
752.975	29555.44
753.313	29594.08
753.651	29657.13
753.989	29453.75
754.327	29479.06
754.666	29289
755.004	29360.41
755.342	29375.1
755.679	29333.52
756.017	29191.61
756.355	29200.19
756.693	28967.88
757.031	29050.37
757.368	28882.23
757.706	28880.43
758.044	28726.98
758.381	28817.83
758.719	28652.64
759.056	28688.34
759.394	28607.21
759.731	28440.89
760.068	28346.88
760.405	28316.83
760.743	28254
761.08	28219.43
761.417	28078.19
761.754	28062.6
762.091	27975.82
762.428	28011.07
762.765	27816.95
763.102	27846.1
763.438	27662.15
763.775	27590.97
764.112	27660.12
764.449	27526.11
764.785	27537.41
765.122	27206.12
765.458	27145.56
765.795	27263.97
766.131	27158.44
766.467	26995.96
766.804	26936.52
767.14	26723.42
767.476	26736.53
767.812	26668.28
768.148	26751.44
768.485	26419.93
768.821	26388.29
769.157	26254.28
769.492	26105.81
769.828	26241.63
770.164	25988.98
770.5	25882.99
770.836	25991.92
771.171	25782.2
771.507	25712.83
771.842	25535.88
772.178	25541.53
772.513	25560.97
772.849	25305.83
773.184	25295.89
773.519	25266.74
773.855	25116.46
774.19	24998.72
774.525	25043.92
774.86	24883.7
775.195	24845.05
775.53	24716.47
775.865	24647.54
776.2	24459.53
776.535	24292.98
776.87	24322.81
777.205	24234
777.539	24077.84
777.874	24095.47
778.209	23874.68
778.543	23953.78
778.878	23662.26
779.212	23560.79
779.547	23556.95
779.881	23602.83
780.215	23497.97
780.55	23467.91
780.884	23403.96
781.218	23211.88
781.552	23256.39
781.886	23095.27
782.22	22993.58
782.554	22927.14
782.888	22796.29
783.222	22560.37
783.556	22599.91
783.889	22497.77
784.223	22394.04
784.557	22282.18
784.89	22363.08
785.224	22147.04
785.557	22177.33
785.891	22122.86
786.224	21950.21
786.558	21954.28
786.891	21789.99
787.224	21650.56
787.557	21611.92
787.891	21486.27
788.224	21517
788.557	21586.61
788.89	21320.4
789.223	21380.51
789.556	21295.54
789.888	21183.68
790.221	21053.51
790.554	20834.31
790.887	20853.52
791.219	20841.99
791.552	20782.11
791.884	20604.03
792.217	20656.01
792.549	20540.08
792.882	20441.33
793.214	20432.06
793.546	20340.76
793.879	20247.66
794.211	20011.28
794.543	20270.03
794.875	20124.27
795.207	20167.44
795.539	20133.31
795.871	20087.89
796.203	19870.49
796.535	19729.93
796.867	19745.3
797.198	19675.02
797.53	19768.12
797.862	19527.23
798.193	19612.2
798.525	19425.31
798.856	19470.73
799.188	19168.14
799.519	19194.58
799.85	19093.79
800.182	19072.32
800.513	19035.04
800.844	18959.33
801.175	19035.94
801.506	18983.29
801.837	18840.24
802.168	18790.3
802.499	18714.59
802.83	18678.89
803.161	18554.6
803.491	18594.14
803.822	18617.87
804.153	18423.75
804.483	18287.49
804.814	18199.8
805.145	18357.54
805.475	18224.89
805.805	18064.67
806.136	18119.58
806.466	18131.11
806.796	17993.26
807.126	17946.03
807.457	17889.53
807.787	17918
808.117	17727.95
808.447	17792.13
808.777	17831
809.107	17601.4
809.436	17644.79
809.766	17608.63
810.096	17472.37
810.426	17410.22
810.755	17479.37
811.085	17374.74
811.414	17376.77
811.744	17280.05
812.073	17217.46
812.403	17233.05
812.732	17084.81
813.061	17189.89
813.39	17009.78
813.719	16974.07
814.049	17019.04
814.378	16888.43
814.707	16842.55
815.036	16881.42
815.365	16859.27
815.693	16608.89
816.022	16667.19
816.351	16629.45
816.68	16553.07
817.008	16549
817.337	16373.41
817.665	16337.93
817.994	16343.36
818.322	16389.46
818.651	16276.46
818.979	16219.07
819.307	16336.12
819.636	16203.25
819.964	16049.13
820.292	16140.42
820.62	16200.08
820.948	16055
821.276	16229.46
821.604	16030.37
821.932	16087.09
822.259	16079.18
822.587	16046.64
822.915	16056.36
823.243	16119.18
823.57	16020.88
823.898	16053.87
824.225	15985.17
824.553	15956.7
824.88	16017.04
825.207	16014.32
825.535	15924.61
825.862	15994.44
826.189	15891.84
826.516	15978.17
826.843	16031.5
827.17	16028.34
827.497	16029.24
827.824	15978.62
828.151	16038.28
828.478	15985.4
828.805	16014.55
829.131	15921.22
829.458	15906.08
829.785	15926.19
830.111	15960.54
830.438	16017.71
830.764	16028.34
831.09	15970.26
831.417	15862.24
831.743	15985.85
832.069	15983.37
832.395	15858.62
832.722	15818.17
833.048	15885.97
833.374	15928
833.7	15735.69
834.026	15838.51
834.351	15800.54
834.677	15812.75
835.003	15861.56
835.329	15848
835.654	15878.74
835.98	15697.27
836.306	15729.59
836.631	15656.14
836.956	15686.88
837.282	15683.49
837.607	15612.08
837.932	15573.21
838.258	15497.05
838.583	15516.71
838.908	15421.35
839.233	15483.27
839.558	15389.71
839.883	15401.46
840.208	15375.47
840.533	15401.23
840.858	15324.4
841.182	15255.02
841.507	15297.96
841.832	15173.89
842.156	15105.42
842.481	15205.31
842.805	15135.25
843.13	15050.96
843.454	15124.86
843.778	15022.94
844.103	14999.66
844.427	14960.79
844.751	14978.65
845.075	14893.22
845.399	14909.95
845.723	14766
846.047	14747.47
846.371	14661.37
846.695	14642.16
847.019	14543.18
847.343	14467.02
847.666	14430.41
847.99	14350.87
848.313	14377.53
848.637	14304.31
848.96	14327.14
849.284	14199.23
849.607	14061.38
849.931	14087.37
850.254	14017.32
850.577	13855.74
850.9	13777.32
851.223	13739.81
851.546	13657.78
851.869	13575.52
852.192	13655.29
852.515	13581.62
852.838	13546.37
853.161	13462.75
853.483	13419.14
853.806	13343.21
854.129	13343.21
854.451	13253.72
854.774	13208.3
855.096	13135.98
855.419	13141.18
855.741	13142.08
856.063	13099.37
856.385	13005.82
856.708	13022.54
857.03	12999.49
857.352	12997.23
857.674	12893.5
857.996	12835.2
858.318	12790.91
858.64	12830.23
858.961	12728.31
859.283	12618.26
859.605	12651.48
859.926	12658.25
860.248	12615.54
860.57	12604.02
860.891	12613.51
861.212	12512.27
861.534	12540.52
861.855	12411.03
862.176	12443.12
862.498	12422.1
862.819	12347.75
863.14	12405.38
863.461	12436.79
863.782	12356.34
864.103	12315.44
864.424	12268.43
864.745	12296.68
865.065	12164.71
865.386	12148.89
865.707	12100.3
866.027	12128.1
866.348	12070.93
866.668	12071.15
866.989	12118.38
867.309	12054.65
867.63	12045.62
867.95	12013.53
868.27	11931.04
868.59	11919.29
868.91	11966.52
869.23	11870.7
869.55	11898.27
869.87	11920.42
870.19	11964.04
870.51	11837.03
870.83	11877.94
871.15	11778.05
871.469	11733.53
871.789	11857.6
872.109	11757.49
872.428	11710.03
872.748	11681.11
873.067	11692.63
873.386	11682.01
873.706	11720.43
874.025	11634.55
874.344	11609.47
874.663	11613.76
874.982	11567.44
875.301	11579.41
875.62	11478.62
875.939	11501.9
876.258	11554.1
876.577	11407.21
876.896	11432.75
877.214	11407.21
877.533	11457.83
877.852	11395.69
878.17	11418.97
878.489	11394.33
878.807	11388.46
879.125	11239.53
879.444	11329.25
879.762	11310.04
880.08	11263.49
880.398	11283.15
880.716	11293.54
881.034	11195.69
881.352	11230.95
881.67	11137.16
881.988	11102.59
882.306	11125.19
882.624	11099.65
882.941	10982.59
883.259	11053.1
883.577	10960.45
883.894	10984.4
884.212	10987.11
884.529	10953.67
884.846	10931.52
885.164	10875.02
885.481	10871.18
885.798	10894.01
886.115	10739.44
886.432	10734.92
886.75	10758.19
887.067	10755.25
887.383	10662.6
887.7	10685.88
888.017	10662.15
888.334	10649.72
888.651	10546.9
888.967	10574.47
889.284	10497.18
889.6	10488.14
889.917	10427.8
890.233	10400.24
890.55	10402.27
890.866	10325.43
891.182	10358.43
891.498	10333.57
891.815	10267.58
892.131	10244.08
892.447	10178.77
892.763	10142.84
893.079	10188.49
893.395	10120.47
893.71	10127.25
894.026	10110.75
894.342	10025.78
894.657	9938.1
894.973	9951.66
895.289	9937.87
895.604	9962.28
895.92	9863.53
896.235	9876.41
896.55	9904.2
896.865	9837.54
897.181	9757.54
897.496	9723.42
897.811	9759.35
898.126	9649.07
898.441	9641.16
898.756	9624.89
899.071	9580.6
899.386	9593.02
899.7	9559.81
900.015	9443.65
900.33	9360.94
900.644	9393.26
900.959	9380.83
901.273	9325.01
901.588	9326.82
901.902	9252.92
902.216	9188.06
902.531	9199.81
902.845	9190.55
903.159	9076.2
903.473	9064.22
903.787	9035.3
904.101	9008.86
904.415	9030.55
904.729	8961.4
905.042	8912.14
905.356	8857.9
905.67	8831.91
905.984	8843.67
906.297	8791.24
906.611	8734.52
906.924	8723.67
907.237	8718.47
907.551	8629.43
907.864	8680.28
908.177	8615.88
908.491	8581.75
908.804	8532.94
909.117	8432.15
909.43	8470.12
909.743	8382.43
910.056	8395.32
910.368	8339.05
910.681	8271.48
910.994	8286.62
911.307	8285.49
911.619	8193.29
911.932	8242.33
912.244	8066.51
912.557	8096.57
912.869	8067.19
913.181	8084.82
913.494	8025.61
913.806	7998.94
914.118	7958.04
914.43	7880.53
914.742	7882.56
915.054	7841.43
915.366	7828.1
915.678	7842.34
915.99	7787.87
916.302	7711.27
916.613	7638.5
916.925	7613.42
917.236	7634.88
917.548	7586.75
917.859	7551.04
918.171	7532.97
918.482	7509.69
918.794	7481.22
919.105	7435.34
919.416	7405.74
919.727	7419.07
920.038	7365.74
920.349	7296.81
920.66	7223.14
920.971	7288.45
921.282	7243.93
921.593	7188.12
921.903	7143.6
922.214	7101.56
922.525	7066.31
922.835	7070.61
923.146	7001.45
923.456	6961.91
923.767	6981.34
924.077	6979.53
924.387	6931.4
924.697	6857.96
925.008	6859.99
925.318	6803.95
925.628	6854.11
925.938	6744.96
926.248	6673.1
926.558	6681.46
926.867	6681.69
927.177	6643.27
927.487	6569.83
927.796	6573.22
928.106	6551.97
928.416	6550.84
928.725	6559.88
929.034	6452.09
929.344	6419.32
929.653	6441.02
929.962	6366.89
930.271	6306.11
930.581	6364.63
930.89	6297.74
931.199	6253
931.508	6260.46
931.817	6252.1
932.125	6201.25
932.434	6208.25
932.743	6124.19
933.051	6089.39
933.36	6096.85
933.669	6043.06
933.977	5999.22
934.286	6002.38
934.594	5977.53
934.902	5948.6
935.21	5986.57
935.519	5947.02
935.827	5930.52
936.135	5888.49
936.443	5835.61
936.751	5789.73
937.059	5805.1
937.367	5811.2
937.674	5813.91
937.982	5735.05
938.29	5725.56
938.597	5737.53
938.905	5606.24
939.213	5647.82
939.52	5601.94
939.827	5595.84
940.135	5570.98
940.442	5515.84
940.749	5554.26
941.056	5530.53
941.363	5458.67
941.67	5416.64
941.977	5422.51
942.284	5359.01
942.591	5372.34
942.898	5318.11
943.205	5317.43
943.511	5299.8
943.818	5300.26
944.125	5236.3
944.431	5213.48
944.738	5212.35
945.044	5180.49
945.35	5145.01
945.657	5065.01
945.963	5159.47
946.269	5053.26
946.575	5078.12
946.881	5012.13
947.187	5008.29
947.493	4955.63
947.799	4964.9
948.105	4974.84
948.41	4884.45
948.716	4915.41
949.022	4926.93
949.327	4844.45
949.633	4814.17
949.938	4846.71
950.244	4819.36
950.549	4785.92
950.854	4780.5
951.16	4733.72
951.465	4728.07
951.77	4688.75
952.075	4696.43
952.38	4696.66
952.685	4685.13
952.99	4631.12
953.294	4589.54
953.599	4596.77
953.904	4546.38
954.209	4531.69
954.513	4562.2
954.818	4515.42
955.122	4515.19
955.426	4499.37
955.731	4434.97
956.035	4412.6
956.339	4440.39
956.643	4407.17
956.948	4360.17
957.252	4356.55
957.556	4335.31
957.86	4305.48
958.163	4331.47
958.467	4296.21
958.771	4244.92
959.075	4235.43
959.378	4190.45
959.682	4224.58
959.985	4189.1
960.289	4150.91
960.592	4124.69
960.896	4129.44
961.199	4111.59
961.502	4057.35
961.805	4073.62
962.108	4040.85
962.411	4007.41
962.714	3992.95
963.017	4050.57
963.32	3999.95
963.623	3977.13
963.926	3964.25
964.228	3934.64
964.531	3938.71
964.833	3884.7
965.136	3888.77
965.438	3868.2
965.741	3876.56
966.043	3851.03
966.345	3834.31
966.648	3791.14
966.95	3795.66
967.252	3777.81
967.554	3744.36
967.856	3770.13
968.158	3713.63
968.46	3670.47
968.761	3685.38
969.063	3680.41
969.365	3630.24
969.666	3646.97
969.968	3599.06
970.269	3615.55
970.571	3589.79
970.872	3561.09
971.174	3557.25
971.475	3509.34
971.776	3500.98
972.077	3490.36
972.378	3484.48
972.679	3449.91
972.98	3490.81
973.281	3440.19
973.582	3444.49
973.883	3466.41
974.183	3393.87
974.484	3381.66
974.785	3365.62
975.085	3407.88
975.386	3359.06
975.686	3323.81
975.986	3308.22
976.287	3277.48
976.587	3290.59
976.887	3283.59
977.187	3294.43
977.487	3260.76
977.787	3197.49
978.087	3203.36
978.387	3166.3
978.687	3166.3
978.987	3158.17
979.286	3139.63
979.586	3170.82
979.885	3136.02
980.185	3100.77
980.484	3032.52
980.784	3094.21
981.083	3076.81
981.382	3071.84
981.682	3023.93
981.981	3054.21
982.28	3016.47
982.579	3027.32
982.878	2998.4
983.177	2974.89
983.475	2962.69
983.774	2967.21
984.073	2971.05
984.372	2923.37
984.67	2886.31
984.969	2893.77
985.267	2905.52
985.566	2896.03
985.864	2847.21
986.162	2861.68
986.461	2824.61
986.759	2844.5
987.057	2795.24
987.355	2818.97
987.653	2788.01
987.951	2755.46
988.249	2769.25
988.547	2751.85
988.844	2740.78
989.142	2740.78
989.44	2712.3
989.737	2712.53
990.035	2702.58
990.332	2668.69
990.63	2611.06
990.927	2623.94
991.224	2661
991.521	2631.17
991.819	2628.69
992.116	2597.05
992.413	2571.51
992.71	2583.27
993.006	2568.35
993.303	2524.51
993.6	2545.3
993.897	2512.08
994.193	2523.15
994.49	2492.87
994.787	2504.17
995.083	2458.52
995.379	2457.84
995.676	2461.23
995.972	2441.12
996.268	2471.4
996.565	2392.76
996.861	2403.61
997.157	2399.99
997.453	2391.18
997.749	2357.28
998.044	2367
998.34	2342.14
998.636	2335.36
998.932	2330.62
999.227	2298.3
999.523	2308.24
999.818	2267.34
1000.114	2268.25
1000.409	2293.78
1000.704	2240.22
1001	2243.84
1001.295	2227.34
1001.59	2225.76
1001.885	2206.55
1002.18	2155.71
1002.475	2160.45
1002.77	2138.98
1003.065	2163.62
1003.359	2114.58
1003.654	2144.86
1003.949	2102.6
1004.243	2116.16
1004.538	2106.89
1004.832	2071.41
1005.127	2075.48
1005.421	2048.36
1005.715	2064.86
1006.009	2035.94
1006.304	2028.25
1006.598	2034.81
1006.892	2005.65
1007.186	2021.02
1007.48	1990.29
1007.773	1991.19
1008.067	1957.29
1008.361	1930.85
1008.655	1934.02
1008.948	1934.02
1009.242	1927.24
1009.535	1911.87
1009.829	1896.5
1010.122	1894.47
1010.415	1880.91
1010.708	1865.77
1011.001	1837.07
1011.295	1839.78
1011.588	1833.45
1011.881	1806.11
1012.173	1827.81
1012.466	1803.85
1012.759	1798.43
1013.052	1787.58
1013.344	1765.21
1013.637	1769.73
1013.93	1715.72
1014.222	1731.76
1014.514	1725.43
1014.807	1706.68
1015.099	1728.37
1015.391	1693.57
1015.683	1673.91
1015.976	1674.36
1016.268	1667.13
1016.56	1655.15
1016.851	1651.99
1017.143	1686.11
1017.435	1621.93
1017.727	1597.98
1018.018	1595.49
1018.31	1588.26
1018.602	1567.47
1018.893	1593.23
1019.185	1577.64
1019.476	1529.73
1019.767	1538.1
1020.058	1557.98
1020.35	1539.68
1020.641	1500.36
1020.932	1517.53
1021.223	1497.19
1021.514	1504.2
1021.804	1452.22
1022.095	1441.83
1022.386	1474.37
1022.677	1450.41
1022.967	1423.3
1023.258	1435.95
1023.548	1421.26
1023.839	1426.01
1024.129	1386.23
1024.419	1384.43
1024.709	1405.22
1025	1365.44
1025.29	1347.59
1025.58	1350.08
1025.87	1331.55
1026.16	1328.61
1026.449	1355.95
1026.739	1350.3
1027.029	1313.47
1027.319	1293.58
1027.608	1297.88
1027.898	1248.39
1028.187	1263.3
1028.477	1249.29
1028.766	1276.63
1029.055	1229.18
1029.344	1249.97
1029.634	1237.76
1029.923	1240.7
1030.212	1209.74
1030.501	1193.92
1030.79	1184.21
1031.078	1188.95
1031.367	1198.44
1031.656	1185.11
1031.945	1183.08
1032.233	1149.18
1032.522	1154.15
1032.81	1140.14
1033.099	1120.48
1033.387	1146.24
1033.675	1131.55
1033.963	1104.89
1034.251	1103.08
1034.54	1109.41
1034.828	1105.56
1035.116	1071.67
1035.403	1089.75
1035.691	1090.2
1035.979	1084.1
1036.267	1052.23
1036.554	1062.85
1036.842	1058.79
1037.129	1047.94
1037.417	1036.19
1037.704	1038.9
1037.992	1017.2
1038.279	1020.37
1038.566	1007.26
1038.853	1007.26
1039.14	1007.26
