Data from hue_260_FLMS001491_00019.txt Node
Date: Tue Feb 07 15:58:39 GMT 2017
User: dcchb
Spectrometer: FLMS00149
Trigger mode: 0
Integration Time (sec): 2.000000E-2
Scans to average: 10
Electric dark correction enabled: true
Nonlinearity correction enabled: false
Boxcar width: 0
XAxis mode: Wavelengths
Number of Pixels in Spectrum: 2048
>>>>>Begin Spectral Data<<<<<
341.393	-4.97
341.776	-4.97
342.16	-4.97
342.543	-54.01
342.927	-57.85
343.31	-75.25
343.693	-55.59
344.077	-64.18
344.46	-57.63
344.843	-63.05
345.226	-50.62
345.61	-32.54
345.993	-7.68
346.376	6.1
346.759	17.85
347.142	14.46
347.525	32.99
347.908	60.79
348.291	83.61
348.674	73.22
349.057	117.51
349.44	124.97
349.823	147.11
350.206	131.3
350.588	192.76
350.971	217.62
351.354	232.31
351.737	215.36
352.119	244.74
352.502	252.2
352.884	272.08
353.267	268.69
353.65	291.07
354.032	282.7
354.414	281.8
354.797	291.74
355.179	316.15
355.562	304.17
355.944	324.29
356.326	317.28
356.709	329.03
357.091	324.96
357.473	336.49
357.855	333.78
358.238	334.68
358.62	334.68
359.002	337.17
359.384	324.96
359.766	320.67
360.148	352.53
360.53	341.69
360.912	337.62
361.294	308.92
361.676	329.03
362.057	306.43
362.439	317.51
362.821	327.22
363.203	312.99
363.584	323.16
363.966	314.34
364.348	309.14
364.729	324.74
365.111	327.67
365.493	327.9
365.874	299.43
366.256	307.56
366.637	303.95
367.019	309.14
367.4	331.52
367.781	300.78
368.163	307.79
368.544	308.69
368.925	305.53
369.306	291.74
369.688	301.24
370.069	310.05
370.45	301.01
370.831	305.53
371.212	306.88
371.593	320.22
371.974	299.88
372.355	304.4
372.736	302.14
373.117	312.08
373.498	305.75
373.879	297.62
374.26	294.68
374.641	311.63
375.021	315.47
375.402	317.51
375.783	317.28
376.163	308.69
376.544	308.24
376.925	324.29
377.305	327
377.686	332.87
378.066	315.25
378.447	330.84
378.827	334.23
379.208	302.59
379.588	327.67
379.968	318.86
380.349	337.39
380.729	333.32
381.109	325.42
381.489	309.6
381.87	333.55
382.25	328.13
382.63	338.75
383.01	327.67
383.39	323.83
383.77	350.5
384.15	355.02
384.53	334.45
384.91	343.27
385.29	341.91
385.67	360.44
386.049	345.98
386.429	336.26
386.809	338.75
387.189	328.58
387.568	364.74
387.948	349.82
388.328	366.09
388.707	364.74
389.087	365.41
389.466	351.4
389.846	350.05
390.225	366.32
390.605	359.76
390.984	349.14
391.363	356.15
391.743	366.77
392.122	362.02
392.501	351.86
392.881	347.34
393.26	381.01
393.639	373.32
394.018	379.43
394.397	385.98
394.776	391.18
395.155	382.36
395.534	387.56
395.913	372.87
396.292	392.98
396.671	390.95
397.05	369.26
397.429	408.35
397.808	393.44
398.186	401.12
398.565	385.07
398.944	399.31
399.323	386.88
399.701	421.01
400.08	400.67
400.458	408.8
400.837	403.83
401.215	428.01
401.594	412.19
401.972	394.79
402.351	435.24
402.729	414
403.107	423.72
403.486	425.53
403.864	437.73
404.242	452.64
404.62	445.41
404.999	434.56
405.377	452.87
405.755	443.38
406.133	450.84
406.511	463.04
406.889	453.55
407.267	465.07
407.645	479.76
408.023	477.95
408.401	469.14
408.779	487.44
409.156	489.03
409.534	508.24
409.912	514.56
410.29	498.52
410.667	514.34
411.045	525.64
411.422	537.84
411.8	542.13
412.178	511.4
412.555	540.1
412.933	553.21
413.31	568.12
413.687	564.73
414.065	573.32
414.442	571.28
414.819	591.85
415.197	585.07
415.574	594.11
415.951	603.83
416.328	613.77
416.705	627.33
417.082	607.89
417.46	641.11
417.837	612.64
418.214	641.34
418.591	667.55
418.967	665.07
419.344	661
419.721	681.11
420.098	671.39
420.475	690.38
420.852	724.5
421.228	731.96
421.605	729.25
421.982	731.96
422.358	745.97
422.735	752.97
423.111	746.65
423.488	763.37
423.864	780.32
424.241	767.66
424.617	792.52
424.994	791.17
425.37	833.42
425.746	818.28
426.123	852.18
426.499	845.18
426.875	841.79
427.251	866.42
427.627	889.69
428.003	901.67
428.379	900.32
428.756	895.8
429.132	915.68
429.507	915.68
429.883	955.46
430.259	946.19
430.635	961.78
431.011	958.84
431.387	998.17
431.763	997.26
432.138	1002.23
432.514	1036.13
432.89	1042.46
433.265	1085.17
433.641	1083.59
434.016	1086.07
434.392	1088.78
434.767	1123.13
435.143	1157.03
435.518	1137.82
435.894	1145.05
436.269	1167.2
436.644	1218.95
437.02	1217.82
437.395	1240.19
437.77	1240.65
438.145	1259.18
438.52	1262.57
438.895	1312.96
439.271	1277.93
439.646	1314.77
440.021	1342.11
440.395	1382.11
440.77	1363.58
441.145	1382.11
441.52	1394.54
441.895	1418.72
442.27	1440.64
442.645	1421.43
443.019	1465.5
443.394	1458.94
443.769	1489.9
444.143	1490.36
444.518	1545.5
444.892	1512.95
445.267	1514.54
445.641	1521.54
446.016	1541.65
446.39	1601.99
446.764	1555.44
447.139	1540.3
447.513	1611.03
447.887	1579.85
448.262	1599.73
448.636	1620.97
449.01	1655.55
449.384	1676.11
449.758	1639.5
450.132	1684.02
450.506	1675.21
450.88	1693.29
451.254	1694.64
451.628	1726.73
452.002	1736.68
452.376	1728.32
452.75	1767.86
453.123	1751.37
453.497	1764.25
453.871	1840.4
454.244	1829.78
454.618	1862.78
454.992	1859.84
455.365	1872.04
455.739	1929.44
456.112	1930.34
456.486	1964.92
456.859	1957.01
457.232	1988.42
457.606	1992.72
457.979	2028.87
458.352	2016.67
458.725	2064.58
459.099	2079.49
459.472	2142.54
459.845	2087.63
460.218	2163.11
460.591	2186.84
460.964	2200.62
461.337	2225.25
461.71	2257.34
462.083	2272.26
462.456	2280.84
462.829	2319.04
463.201	2324.91
463.574	2336.89
463.947	2349.99
464.32	2427.51
464.692	2416.43
465.065	2445.59
465.438	2469.77
465.81	2509.09
466.183	2516.09
466.555	2571.01
466.928	2593.83
467.3	2580.72
467.672	2665.92
468.045	2664.34
468.417	2714.5
468.789	2708.63
469.161	2739.81
469.534	2742.3
469.906	2804.9
470.278	2798.8
470.65	2851.45
471.022	2913.6
471.394	2956.53
471.766	3032.69
472.138	3037.89
472.51	3050.32
472.882	3063.87
473.253	3103.87
473.625	3178.9
473.997	3264.55
474.369	3254.6
474.74	3299.8
475.112	3334.38
475.484	3396.07
475.855	3439.01
476.227	3450.3
476.598	3512.68
476.97	3552.67
477.341	3655.5
477.713	3667.47
478.084	3692.56
478.455	3756.06
478.827	3773.69
479.198	3905.66
479.569	3915.83
479.94	4019.78
480.311	4022.04
480.682	4126.22
481.053	4163.96
481.424	4211.41
481.795	4214.35
482.166	4291.41
482.537	4358.53
482.908	4442.14
483.279	4500.45
483.65	4536.83
484.021	4615.92
484.391	4676.71
484.762	4663.83
485.133	4766.2
485.503	4795.81
485.874	4840.32
486.244	4884.62
486.615	4946.08
486.985	5013.65
487.356	5074.44
487.726	5174.33
488.097	5201.45
488.467	5256.13
488.837	5309.46
489.207	5387.43
489.578	5420.42
489.948	5485.96
490.318	5525.28
490.688	5565.73
491.058	5617.03
491.428	5685.5
491.798	5755.55
492.168	5850.47
492.538	5824.03
492.908	5879.62
493.278	5955.78
493.648	5934.53
494.017	6077.81
494.387	6083
494.757	6064.7
495.126	6164.13
495.496	6128.65
495.866	6192.83
496.235	6216.11
496.605	6303.56
496.974	6378.14
497.344	6401.41
497.713	6412.26
498.082	6478.25
498.452	6467.17
498.821	6538.81
499.19	6470.79
499.559	6536.55
499.928	6621.29
500.298	6551.92
500.667	6685.25
501.036	6678.92
501.405	6726.15
501.774	6708.75
502.143	6878.69
502.512	6784.23
502.88	6863.55
503.249	6823.32
503.618	6882.53
503.987	6923.89
504.356	6899.71
504.724	6910.55
505.093	6963.88
505.462	6999.59
505.83	7007.5
506.199	7055.86
506.567	7070.32
506.936	7063.32
507.304	7203.65
507.672	7188.74
508.041	7140.38
508.409	7211.79
508.777	7293.37
509.145	7264.22
509.514	7248.85
509.882	7362.97
510.25	7381.05
510.618	7343.76
510.986	7361.84
511.354	7379.02
511.722	7431.89
512.09	7475.74
512.458	7464.21
512.826	7461.5
513.193	7529.52
513.561	7511.21
513.929	7565.22
514.297	7597.31
514.664	7589.18
515.032	7652
515.4	7718.67
515.767	7641.83
516.135	7701.72
516.502	7591.21
516.869	7729.74
517.237	7724.09
517.604	7656.3
517.972	7781.49
518.339	7761.83
518.706	7740.81
519.073	7755.05
519.44	7865.33
519.808	7872.79
520.175	7800.47
520.542	7886.57
520.909	7919.57
521.276	7928.83
521.643	7983.07
522.009	7973.8
522.376	7948.72
522.743	8031.2
523.11	8049.05
523.477	8080.92
523.843	8062.39
524.21	8106
524.577	8148.49
524.943	8183.06
525.31	8120.69
525.676	8188.26
526.043	8233.23
526.409	8191.2
526.776	8231.65
527.142	8311.87
527.508	8251.99
527.874	8350.51
528.241	8311.87
528.607	8380.8
528.973	8366.11
529.339	8359.55
529.705	8400.91
530.071	8394.81
530.437	8384.86
530.803	8493.11
531.169	8469.16
531.535	8408.59
531.901	8432.77
532.267	8496.95
532.632	8479.55
532.998	8474.81
533.364	8479.1
533.73	8514.58
534.095	8557.06
534.461	8522.71
534.826	8559.32
535.192	8482.49
535.557	8522.04
535.923	8527.69
536.288	8506.44
536.653	8554.8
537.019	8469.61
537.384	8503.05
537.749	8529.27
538.114	8486.78
538.479	8404.75
538.845	8543.05
539.21	8459.21
539.575	8470.96
539.94	8512.54
540.305	8522.04
540.67	8486.56
541.034	8507.35
541.399	8581.24
541.764	8515.26
542.129	8487.46
542.494	8470.96
542.858	8439.1
543.223	8455.82
543.587	8404.52
543.952	8411.98
544.316	8461.25
544.681	8457.86
545.045	8517.52
545.41	8511.64
545.774	8464.64
546.138	8473
546.503	8416.73
546.867	8388.71
547.231	8465.77
547.595	8499.44
547.959	8458.31
548.324	8447.24
548.688	8409.04
549.052	8446.11
549.416	8414.24
549.779	8448.37
550.143	8387.58
550.507	8408.82
550.871	8365.2
551.235	8447.24
551.599	8423.73
551.962	8349.16
552.326	8398.88
552.689	8433.68
553.053	8362.49
553.417	8273.45
553.78	8462.6
554.143	8360.68
554.507	8401.59
554.87	8349.61
555.234	8453.11
555.597	8412.43
555.96	8428.25
556.323	8416.5
556.686	8380.8
557.05	8467.12
557.413	8474.81
557.776	8480.23
558.139	8508.93
558.502	8538.53
558.865	8508.25
559.228	8514.13
559.59	8494.24
559.953	8492.21
560.316	8580.57
560.679	8611.3
561.041	8589.38
561.404	8643.16
561.767	8621.69
562.129	8590.06
562.492	8653.56
562.854	8698.53
563.217	8642.71
563.579	8663.73
563.941	8691.3
564.304	8722.93
564.666	8733.78
565.028	8826.89
565.39	8768.13
565.753	8794.8
566.115	8833.44
566.477	8805.64
566.839	8850.39
567.201	8811.29
567.563	8845.87
567.925	8939.65
568.287	8901.46
568.648	8908.24
569.01	8967.45
569.372	8974.91
569.734	9040.21
570.095	9058.97
570.457	9065.98
570.819	9072.76
571.18	9010.61
571.542	9099.2
571.903	9104.39
572.265	9119.53
572.626	9189.81
572.987	9231.85
573.349	9230.04
573.71	9273.43
574.071	9281.79
574.432	9353.43
574.794	9322.69
575.155	9333.99
575.516	9331.73
575.877	9357.27
576.238	9393.88
576.599	9379.64
576.96	9450.82
577.32	9439.53
577.681	9498.96
578.042	9521.33
578.403	9502.8
578.763	9519.75
579.124	9480.88
579.485	9604.95
579.845	9616.47
580.206	9571.73
580.566	9623.02
580.927	9582.12
581.287	9701.67
581.648	9611.95
582.008	9675
582.368	9694.66
582.728	9691.5
583.089	9721.1
583.449	9682.91
583.809	9726.98
584.169	9840.42
584.529	9789.57
584.889	9842
585.249	9765.17
585.609	9763.81
585.969	9886.75
586.329	9842
586.688	9902.11
587.048	9837.71
587.408	9835.67
587.768	9841.55
588.127	9853.75
588.487	9869.12
588.846	9923.35
589.206	9919.51
589.565	9946.18
589.925	9966.52
590.284	9968.78
590.643	9990.7
591.003	10004.71
591.362	10050.81
591.721	10085.38
592.08	9973.98
592.44	10137.59
592.799	10106.63
593.158	10078.15
593.517	10030.47
593.876	10093.29
594.235	10077.93
594.593	10079.73
594.952	10135.1
595.311	10080.19
595.67	10179.62
596.029	10204.7
596.387	10155.67
596.746	10230.24
597.104	10108.89
597.463	10147.3
597.822	10298.71
598.18	10187.75
598.538	10152.28
598.897	10209.68
599.255	10162.67
599.613	10249.45
599.972	10218.94
600.33	10318.37
600.688	10240.63
601.046	10192.95
601.404	10299.84
601.762	10294.19
602.12	10333.51
602.478	10265.04
602.836	10338.94
603.194	10324.7
603.552	10294.87
603.91	10298.94
604.268	10291.71
604.625	10315.21
604.983	10250.13
605.341	10304.14
605.698	10287.87
606.056	10381.42
606.413	10353.17
606.771	10429.1
607.128	10366.06
607.485	10362.67
607.843	10344.36
608.2	10385.49
608.557	10403.57
608.914	10388.65
609.272	10406.96
609.629	10479.5
609.986	10446.73
610.343	10428.2
610.7	10502.77
611.057	10519.27
611.414	10441.31
611.771	10508.88
612.127	10606.73
612.484	10498.26
612.841	10598.14
613.198	10515.2
613.554	10479.5
613.911	10566.28
614.267	10602.89
614.624	10540.51
614.98	10583.22
615.337	10643.79
615.693	10592.49
616.05	10602.66
616.406	10686.5
616.762	10604.47
617.118	10638.59
617.475	10600.85
617.831	10672.94
618.187	10723.79
618.543	10689.66
618.899	10777.34
619.255	10716.1
619.611	10669.78
619.967	10679.72
620.323	10726.95
620.678	10722.2
621.034	10724.01
621.39	10657.57
621.746	10680.17
622.101	10792.94
622.457	10607.63
622.812	10718.59
623.168	10721.3
623.523	10728.76
623.879	10835.87
624.234	10733.96
624.589	10700.06
624.945	10711.36
625.3	10792.26
625.655	10692.37
626.01	10697.35
626.365	10729.44
626.72	10669.55
627.075	10735.54
627.43	10704.35
627.785	10660.51
628.14	10720.62
628.495	10705.26
628.85	10736.44
629.205	10546.84
629.559	10667.29
629.914	10601.08
630.269	10679.72
630.623	10579.16
630.978	10606.05
631.332	10679.49
631.687	10632.26
632.041	10535.32
632.396	10663.9
632.75	10559.04
633.104	10521.76
633.459	10486.05
633.813	10534.86
634.167	10518.59
634.521	10416.68
634.875	10466.39
635.229	10493.06
635.583	10406.05
635.937	10408.77
636.291	10404.25
636.645	10376.68
636.999	10361.99
637.352	10395.21
637.706	10356.11
638.06	10411.03
638.413	10418.71
638.767	10303.01
639.121	10395.88
639.474	10305.49
639.828	10277.02
640.181	10265.27
640.534	10306.62
640.888	10245.61
641.241	10221.43
641.594	10192.5
641.947	10299.39
642.301	10243.57
642.654	10227.75
643.007	10286.96
643.36	10225.49
643.713	10198.38
644.066	10206.96
644.419	10147.53
644.771	10123.8
645.124	10039.06
645.477	10052.39
645.83	10015.78
646.182	9900.3
646.535	9863.92
646.888	9963.35
647.24	9836.35
647.593	9852.17
647.945	9866.86
648.298	9814.66
648.65	9757.71
649.002	9778.73
649.355	9846.75
649.707	9851.94
650.059	9873.64
650.411	10051.71
650.763	10008.1
651.115	10143.01
651.467	10102.79
651.819	10029.11
652.171	10051.94
652.523	10065.27
652.875	10055.55
653.227	10053.75
653.578	10050.36
653.93	10101.43
654.282	10009.68
654.633	9983.01
654.985	10027.98
655.337	10039.06
655.688	10060.98
656.039	10019.17
656.391	9979.85
656.742	9975.33
657.094	10053.07
657.445	10040.19
657.796	9965.39
658.147	10042.9
658.498	10067.31
658.849	10002.9
659.2	9987.53
659.551	9880.19
659.902	10036.57
660.253	9992.96
660.604	9981.43
660.955	9972.17
661.306	10006.06
661.656	9982.79
662.007	10020.3
662.358	10078.83
662.708	10034.31
663.059	10019.62
663.409	10012.17
663.76	10042
664.11	10090.58
664.461	10050.58
664.811	10026.85
665.161	10014.43
665.511	10060.3
665.862	9964.26
666.212	10063.92
666.562	10053.07
666.912	10013.52
667.262	9983.47
667.612	9990.92
667.962	10045.84
668.312	9978.04
668.662	10097.59
669.011	10000.64
669.361	9981.66
669.711	10019.85
670.06	9944.15
670.41	9937.82
670.76	9972.39
671.109	9992.28
671.459	9982.11
671.808	9914.77
672.157	9987.99
672.507	9895.11
672.856	9965.16
673.205	9918.16
673.554	9913.64
673.904	9921.77
674.253	9946.41
674.602	9881.32
674.951	9710.93
675.3	9740.08
675.649	9864.37
675.998	9864.6
676.346	9901.21
676.695	9829.35
677.044	9747.09
677.393	9849.68
677.741	9797.71
678.09	9818.5
678.438	9724.49
678.787	9826.41
679.135	9769.69
679.484	9697.15
679.832	9776.69
680.181	9734.66
680.529	9706.64
680.877	9671.84
681.225	9668.45
681.573	9763.81
681.922	9655.57
682.27	9613.98
682.618	9571.05
682.966	9584.61
683.314	9599.97
683.661	9640.88
684.009	9496.93
684.357	9526.76
684.705	9473.65
685.053	9502.58
685.4	9484.04
685.748	9504.83
686.095	9458.28
686.443	9422.8
686.79	9403.14
687.138	9377.61
687.485	9432.97
687.832	9373.09
688.18	9329.92
688.527	9233.66
688.874	9266.87
689.221	9215.8
689.568	9141.45
689.915	9223.94
690.262	9190.04
690.609	9160.89
690.956	9114.79
691.303	9072.53
691.65	9074.11
691.997	8957.96
692.344	9043.38
692.69	8979.42
693.037	8956.83
693.383	8917.73
693.73	8920.9
694.077	8755.25
694.423	8815.59
694.769	8807.68
695.116	8785.53
695.462	8765.65
695.808	8705.99
696.155	8727.45
696.501	8630.73
696.847	8658.53
697.193	8542.15
697.539	8576.05
697.885	8539.44
698.231	8487.91
698.577	8489.04
698.923	8511.41
699.269	8446.33
699.614	8379.89
699.96	8331.76
700.306	8375.15
700.651	8379.21
700.997	8321.59
701.342	8246.79
701.688	8245.66
702.033	8224.87
702.379	8187.13
702.724	8165.66
703.069	8230.07
703.415	8071.2
703.76	8139.22
704.105	8022.16
704.45	8062.61
704.795	8024.2
705.14	8004.76
705.485	7936.29
705.83	7949.17
706.175	7943.07
706.52	7988.49
706.865	7921.15
707.209	7827.36
707.554	7803.41
707.899	7835.95
708.243	7845.44
708.588	7802.96
708.932	7626.92
709.277	7709.85
709.621	7698.78
709.966	7635.96
710.31	7657.65
710.654	7551.21
710.998	7596.86
711.342	7603.19
711.687	7568.61
712.031	7528.84
712.375	7505.57
712.719	7517.77
713.063	7541.72
713.407	7538.33
713.75	7407.49
714.094	7491.55
714.438	7447.49
714.782	7428.96
715.125	7393.48
715.469	7415.17
715.812	7358.45
716.156	7342.63
716.499	7435.06
716.843	7366.13
717.186	7343.31
717.53	7386.92
717.873	7347.83
718.216	7296.76
718.559	7306.7
718.902	7214.95
719.246	7222.18
719.589	7249.3
719.932	7201.62
720.275	7189.19
720.617	7262.86
720.96	7226.25
721.303	7201.17
721.646	7214.27
721.989	7137.44
722.331	7171.56
722.674	7170.43
723.016	7135.41
723.359	7164.11
723.701	7169.3
724.044	7119.81
724.386	7085.46
724.729	7117.33
725.071	7099.7
725.413	7079.81
725.755	7046.14
726.097	7102.41
726.439	7074.62
726.782	7066.48
727.124	7124.33
727.465	7013.37
727.807	7082.75
728.149	7082.3
728.491	7038.68
728.833	7076.65
729.175	7040.04
729.516	6999.82
729.858	7063.09
730.199	7054.73
730.541	7081.62
730.882	6977.67
731.224	7041.4
731.565	7048.63
731.906	7013.15
732.248	7023.09
732.589	6953.72
732.93	6980.38
733.271	6989.87
733.612	6972.47
733.953	6934.28
734.294	6955.3
734.635	6970.44
734.976	6944.68
735.317	6937.67
735.658	6938.57
735.999	6967.5
736.339	6975.86
736.68	7002.53
737.021	6989.65
737.361	6958.46
737.702	6946.48
738.042	6974.28
738.383	6963.43
738.723	6933.83
739.063	6961.62
739.404	6975.86
739.744	7024.22
740.084	6992.36
740.424	7045.01
740.764	7037.33
741.104	7064.45
741.444	6955.75
741.784	7022.41
742.124	7075.29
742.464	7032.13
742.804	7056.09
743.143	7071.68
743.483	7150.32
743.823	7087.5
744.162	7115.52
744.502	7172.69
744.841	7101.51
745.181	7147.83
745.52	7202.52
745.86	7164.56
746.199	7183.99
746.538	7250.43
746.877	7309.86
747.216	7358
747.556	7376.98
747.895	7364.33
748.234	7399.13
748.573	7416.08
748.911	7464.89
749.25	7498.11
749.589	7518.9
749.928	7619.23
750.267	7703.98
750.605	7730.42
750.944	7758.67
751.283	7827.82
751.621	7938.77
751.96	7943.97
752.298	8029.62
752.636	8130.63
752.975	8208.15
753.313	8213.8
753.651	8351.87
753.989	8401.14
754.327	8475.48
754.666	8575.14
755.004	8618.53
755.342	8738.53
755.679	8800.67
756.017	8853.33
756.355	9042.25
756.693	9116.6
757.031	9223.03
757.368	9348.23
757.706	9425.51
758.044	9494.44
758.381	9636.58
758.719	9760.65
759.056	9901.21
759.394	9967.2
759.731	10098.04
760.068	10211.93
760.405	10219.17
760.743	10406.28
761.08	10624.58
761.417	10642.88
761.754	10820.96
762.091	10895.98
762.428	11021.63
762.765	11079.03
763.102	11354.28
763.438	11412.36
763.775	11448.74
764.112	11676.08
764.449	11834.72
764.785	11956.75
765.122	11914.49
765.458	12082.17
765.795	12247.81
766.131	12347.47
766.467	12432.67
766.804	12501.59
767.14	12596.5
767.476	12719.89
767.812	12859.55
768.148	12884.63
768.485	12980.9
768.821	13149.71
769.157	13162.37
769.492	13234.68
769.828	13342.47
770.164	13371.85
770.5	13442.81
770.836	13564.16
771.171	13477.61
771.507	13625.4
771.842	13603.48
772.178	13779.52
772.513	13885.51
772.849	13863.36
773.184	13902.46
773.519	14027.65
773.855	14095.22
774.19	14080.31
774.525	14112.17
774.86	14232.62
775.195	14250.02
775.53	14261.09
775.865	14203.69
776.2	14198.5
776.535	14292.28
776.87	14327.98
777.205	14396.23
777.539	14340.19
777.874	14433.74
778.209	14327.53
778.543	14392.39
778.878	14391.03
779.212	14407.76
779.547	14382.9
779.881	14498.83
780.215	14540.18
780.55	14483.69
780.884	14501.54
781.218	14515.78
781.552	14535.89
781.886	14467.42
782.22	14356.68
782.554	14402.56
782.888	14299.06
783.222	14396.46
783.556	14362.11
783.889	14425.84
784.223	14307.87
784.557	14365.5
784.89	14313.75
785.224	14307.42
785.557	14311.49
785.891	14351.04
786.224	14269.68
786.558	14301.32
786.891	14202.56
787.224	14196.91
787.557	14189.91
787.891	14151.04
788.224	14162.34
788.557	14195.33
788.89	14151.27
789.223	14266.52
789.556	14085.05
789.888	14038.5
790.221	14087.99
790.554	13969.8
790.887	13993.98
791.219	13989.91
791.552	13945.85
791.884	13835.79
792.217	13860.88
792.549	13837.83
792.882	13825.4
793.214	13723.25
793.546	13851.61
793.879	13708.34
794.211	13587.21
794.543	13683.26
794.875	13665.4
795.207	13676.02
795.539	13622.92
795.871	13734.33
796.203	13593.09
796.535	13443.04
796.867	13521.9
797.198	13450.27
797.53	13462.24
797.862	13351.06
798.193	13311.97
798.525	13287.33
798.856	13357.84
799.188	13236.71
799.519	13139.32
799.85	13066.78
800.182	13140.9
800.513	13145.64
800.844	13129.82
801.175	13139.99
801.506	13139.54
801.837	13086.44
802.168	12984.52
802.499	12987.46
802.83	12968.47
803.161	12884.41
803.491	12969.38
803.822	12889.6
804.153	12864.29
804.483	12742.72
804.814	12754.69
805.145	12702.94
805.475	12711.98
805.805	12601.25
806.136	12676.28
806.466	12699.1
806.796	12620.91
807.126	12569.61
807.457	12489.62
807.787	12479.67
808.117	12463.18
808.447	12391.99
808.777	12450.52
809.107	12410.07
809.436	12343.18
809.766	12431.54
810.096	12357.64
810.426	12288.72
810.755	12277.19
811.085	12290.52
811.414	12238.55
811.744	12114.71
812.073	12094.37
812.403	12136.63
812.732	12110.42
813.061	12079
813.39	12050.76
813.719	11963.3
814.049	12050.08
814.378	12075.61
814.707	11991.32
815.036	11974.15
815.365	11876.07
815.693	11786.81
816.022	11813.7
816.351	11803.76
816.68	11728.51
817.008	11747.04
817.337	11711.78
817.665	11622.52
817.994	11657.32
818.322	11581.84
818.651	11653.03
818.979	11599.47
819.307	11557.21
819.636	11611.22
819.964	11517.21
820.292	11606.02
820.62	11604.67
820.948	11483.31
821.276	11545.01
821.604	11547.27
821.932	11576.64
822.259	11609.64
822.587	11560.6
822.915	11535.29
823.243	11518.34
823.57	11452.35
823.898	11557.21
824.225	11500.04
824.553	11474.73
824.88	11486.93
825.207	11561.5
825.535	11484.22
825.862	11528.06
826.189	11417.55
826.516	11556.53
826.843	11542.52
827.17	11583.88
827.497	11538.68
827.824	11548.85
828.151	11594.27
828.478	11563.54
828.805	11549.98
829.131	11481.51
829.458	11485.35
829.785	11481.05
830.111	11564.22
830.438	11588.4
830.764	11534.84
831.09	11463.43
831.417	11408.29
831.743	11586.36
832.069	11550.2
832.395	11491.68
832.722	11530.09
833.048	11448.74
833.374	11448.06
833.7	11386.82
834.026	11487.16
834.351	11442.86
834.677	11430.89
835.003	11462.3
835.329	11431.11
835.654	11424.78
835.98	11378.01
836.306	11373.49
836.631	11358.35
836.956	11375.29
837.282	11306.37
837.607	11295.97
837.932	11275.64
838.258	11293.71
838.583	11232.92
838.908	11215.98
839.233	11218.69
839.558	11214.39
839.883	11172.81
840.208	11131.23
840.533	11111.8
840.858	11172.59
841.182	11145.02
841.507	11147.05
841.832	11106.83
842.156	11016.66
842.481	11074.06
842.805	11023.21
843.13	10992.03
843.454	10979.37
843.778	10938.92
844.103	10950.67
844.427	10952.25
844.751	10841.3
845.075	10859.15
845.399	10827.29
845.723	10757.46
846.047	10765.37
846.371	10656.89
846.695	10606.73
847.019	10629.55
847.343	10557.69
847.666	10465.71
847.99	10508.42
848.313	10505.26
848.637	10335.55
848.96	10418.48
849.284	10344.59
849.607	10328.99
849.931	10207.19
850.254	10196.57
850.577	10160.86
850.9	10122.45
851.223	10049.68
851.546	9987.08
851.869	9993.86
852.192	10038.83
852.515	9906.86
852.838	9837.26
853.161	9943.92
853.483	9842.91
853.806	9797.03
854.129	9771.72
854.451	9770.82
854.774	9738.95
855.096	9645.85
855.419	9609.69
855.741	9641.78
856.063	9557.71
856.385	9564.72
856.708	9526.3
857.03	9473.88
857.352	9516.36
857.674	9421.67
857.996	9458.96
858.318	9365.18
858.64	9355.46
858.961	9397.04
859.283	9239.53
859.605	9207.22
859.926	9280.43
860.248	9258.06
860.57	9202.24
860.891	9214.22
861.212	9141
861.534	9083.83
861.855	9139.87
862.176	9118.18
862.498	9128.57
862.819	9049.71
863.14	9141.45
863.461	9075.24
863.782	9124.05
864.103	9063.94
864.424	8955.24
864.745	9026.43
865.065	9034.34
865.386	8949.6
865.707	8905.75
866.027	8983.27
866.348	8862.14
866.668	8862.14
866.989	8882.48
867.309	8830.05
867.63	8821.01
867.95	8862.37
868.27	8769.94
868.59	8806.1
868.91	8780.11
869.23	8773.78
869.55	8765.42
869.87	8780.11
870.19	8787.34
870.51	8745.08
870.83	8769.26
871.15	8672.54
871.469	8610.17
871.789	8638.42
872.109	8688.81
872.428	8634.12
872.748	8618.08
873.067	8620.79
873.386	8693.78
873.706	8645.87
874.025	8545.31
874.344	8557.52
874.663	8562.03
874.982	8542.37
875.301	8498.31
875.62	8522.71
875.939	8506.44
876.258	8469.16
876.577	8457.18
876.896	8421.02
877.214	8403.39
877.533	8409.27
877.852	8362.72
878.17	8447.69
878.489	8419.89
878.807	8383.73
879.125	8308.93
879.444	8402.04
879.762	8289.05
880.08	8263.96
880.398	8263.74
880.716	8288.82
881.034	8228.48
881.352	8281.59
881.67	8254.92
881.988	8266.68
882.306	8184.19
882.624	8164.31
882.941	8179.9
883.259	8172.67
883.577	8128.6
883.894	8054.93
884.212	8075.04
884.529	8048.6
884.846	8015.16
885.164	8022.84
885.481	7943.97
885.798	8000.02
886.115	7912.56
886.432	7943.52
886.75	7940.81
887.067	7933.58
887.383	7919.79
887.7	7910.98
888.017	7828.72
888.334	7794.82
888.651	7813.13
888.967	7786.69
889.284	7777.65
889.6	7782.62
889.917	7687.03
890.233	7723.86
890.55	7701.49
890.866	7691.78
891.182	7631.89
891.498	7590.76
891.815	7597.09
892.131	7572.91
892.447	7577.43
892.763	7541.72
893.079	7550.08
893.395	7495.4
893.71	7501.27
894.026	7468.5
894.342	7394.38
894.657	7385.12
894.973	7347.6
895.289	7304.89
895.604	7407.49
895.92	7215.18
896.235	7284.33
896.55	7252.46
896.865	7227.15
897.181	7207.04
897.496	7223.99
897.811	7192.35
898.126	7148.96
898.441	7097.21
898.756	7047.72
899.071	7050.44
899.386	7025.58
899.7	7004.79
900.015	6948.29
900.33	6922.98
900.644	6913.04
900.959	6889.99
901.273	6931.57
901.588	6795.3
901.902	6770.22
902.216	6749.2
902.531	6791.91
902.845	6791.69
903.159	6666.72
903.473	6696.32
903.787	6629.2
904.101	6631.69
904.415	6664.68
904.729	6556.21
905.042	6524.8
905.356	6558.7
905.67	6520.51
905.984	6568.87
906.297	6526.61
906.611	6469.43
906.924	6413.84
907.237	6463.11
907.551	6431.47
907.864	6369.1
908.177	6304.92
908.491	6326.39
908.804	6358.25
909.117	6260.4
909.43	6224.24
909.743	6195.77
910.056	6176.33
910.368	6120.74
910.681	6181.76
910.994	6100.4
911.307	6140.86
911.619	6020.41
911.932	6065.6
912.244	5993.29
912.557	6021.99
912.869	5995.55
913.181	5932.05
913.494	5911.26
913.806	5897.7
914.118	5892.95
914.43	5798.27
914.742	5847.98
915.054	5807.76
915.366	5792.62
915.678	5794.2
915.99	5699.51
916.302	5683.47
916.613	5647.54
916.925	5687.53
917.236	5618.84
917.548	5627.87
917.859	5608.89
918.171	5605.95
918.482	5557.37
918.794	5529.35
919.105	5533.64
919.416	5474.88
919.727	5497.71
920.038	5454.55
920.349	5452.06
920.66	5373.64
920.971	5375.9
921.282	5416.81
921.593	5329.58
921.903	5294.55
922.214	5270.6
922.525	5301.1
922.835	5276.92
923.146	5211.39
923.456	5208.22
923.767	5204.61
924.077	5150.15
924.387	5106.98
924.697	5148.34
925.008	5123.26
925.318	5093.65
925.628	5081
925.938	5044.39
926.248	5037.38
926.558	4999.64
926.867	5015.01
927.177	4956.48
927.487	4960.55
927.796	4929.59
928.106	4914.22
928.416	4885.97
928.725	4904.28
929.034	4835.81
929.344	4892.53
929.653	4822.02
929.962	4787.22
930.271	4751.29
930.581	4754.68
930.89	4766.65
931.199	4705.86
931.508	4691.63
931.817	4672.65
932.125	4666.77
932.434	4656.6
932.743	4594
933.051	4591.29
933.36	4547.23
933.669	4554.91
933.977	4569.37
934.286	4488.7
934.594	4479.43
934.902	4491.41
935.21	4421.13
935.519	4487.57
935.827	4428.58
936.135	4398.75
936.443	4372.77
936.751	4366.21
937.059	4372.09
937.367	4306.33
937.674	4340.45
937.982	4339.55
938.29	4279.89
938.597	4277.4
938.905	4243.73
939.213	4243.28
939.52	4236.72
939.827	4211.87
940.135	4183.84
940.442	4151.98
940.749	4141.13
941.056	4128.48
941.363	4121.93
941.67	4117.18
941.977	4062.94
942.284	4072.66
942.591	4032.89
942.898	4018.65
943.205	4017.07
943.511	3962.38
943.818	3983.17
944.125	3913.57
944.431	3947.01
944.738	3917.64
945.044	3911.08
945.35	3900.69
945.657	3861.59
945.963	3865.66
946.269	3826.79
946.575	3830.18
946.881	3784.08
947.187	3826.11
947.493	3799.45
947.799	3743.86
948.105	3744.31
948.41	3715.16
948.716	3748.15
949.022	3705.21
949.327	3686.91
949.633	3621.6
949.938	3627.02
950.244	3686.68
950.549	3590.19
950.854	3599.91
951.16	3580.02
951.465	3537.99
951.77	3563.52
952.075	3548.61
952.38	3553.8
952.685	3532.79
952.99	3464.99
953.294	3493.92
953.599	3452.34
953.904	3405.33
954.209	3411.44
954.513	3462.51
954.818	3402.85
955.122	3417.09
955.426	3392.68
955.731	3385.9
956.035	3357.43
956.339	3332.79
956.643	3353.58
956.948	3304.09
957.252	3291.44
957.556	3272.23
957.86	3285.34
958.163	3272.91
958.467	3218.67
958.771	3266.13
959.075	3222.51
959.378	3194.49
959.682	3191.78
959.985	3174.38
960.289	3139.35
960.592	3144.32
960.896	3154.95
961.199	3130.99
961.502	3132.35
961.805	3101.16
962.108	3036.08
962.411	3093.93
962.714	3088.28
963.017	3034.72
963.32	3030.65
963.623	3024.1
963.926	2984.1
964.228	3023.2
964.531	2987.72
964.833	2988.85
965.136	2955.63
965.438	2940.26
965.741	2935.74
966.043	2914.95
966.345	2902.3
966.648	2893.71
966.95	2902.07
967.252	2870.43
967.554	2856.87
967.856	2873.37
968.158	2857.55
968.46	2808.06
968.761	2822.52
969.063	2798.57
969.365	2749.53
969.666	2770.55
969.968	2765.13
970.269	2767.84
970.571	2727.16
970.872	2714.73
971.174	2727.84
971.475	2715.63
971.776	2702.53
972.077	2698.69
972.378	2657.33
972.679	2670.66
972.98	2663.88
973.281	2634.06
973.582	2648.29
973.883	2600.84
974.183	2605.81
974.484	2555.19
974.785	2585.47
975.085	2595.64
975.386	2566.03
975.686	2547.05
975.986	2539.82
976.287	2563.55
976.587	2533.27
976.887	2495.98
977.187	2498.92
977.487	2490.56
977.787	2489.2
978.087	2477.9
978.387	2460.05
978.687	2461.63
978.987	2433.83
979.286	2414.63
979.586	2408.52
979.885	2405.59
980.185	2408.3
980.484	2330.11
980.784	2405.13
981.083	2338.92
981.382	2380.05
981.682	2378.92
981.981	2331.69
982.28	2319.94
982.579	2340.05
982.878	2288.08
983.177	2299.83
983.475	2293.27
983.774	2266.16
984.073	2257.34
984.372	2288.75
984.67	2258.7
984.969	2236.1
985.267	2213.28
985.566	2186.84
985.864	2192.71
986.162	2176.89
986.461	2179.6
986.759	2193.39
987.057	2154.75
987.355	2168.53
987.653	2165.14
987.951	2143.45
988.249	2124.24
988.547	2093.05
988.844	2135.99
989.142	2115.65
989.44	2053.51
989.737	2084.24
990.035	2035.88
990.332	2067.52
990.63	2070.91
990.927	2058.25
991.224	2044.92
991.521	2027.07
991.819	2015.77
992.116	2016.22
992.413	1998.59
992.71	1990.23
993.006	1980.96
993.303	1976.22
993.6	1950.23
993.897	1967.18
994.193	1928.31
994.49	1939.84
994.787	1925.37
995.083	1906.62
995.379	1898.48
995.676	1905.94
995.972	1884.92
996.268	1897.58
996.565	1884.02
996.861	1863.45
997.157	1871.36
997.453	1832.04
997.749	1841.31
998.044	1829.1
998.34	1807.86
998.636	1823
998.932	1812.83
999.227	1840.18
999.523	1796.56
999.818	1763.8
1000.114	1776.9
1000.409	1716.34
1000.704	1717.92
1001	1734.64
1001.295	1735.77
1001.59	1725.6
1001.885	1730.35
1002.18	1684.48
1002.475	1684.48
1002.77	1698.03
1003.065	1684.7
1003.359	1664.36
1003.654	1635.66
1003.949	1643.35
1004.243	1654.19
1004.538	1622.78
1004.832	1634.53
1005.127	1641.31
1005.421	1594.53
1005.715	1591.6
1006.009	1592.5
1006.304	1585.72
1006.598	1561.09
1006.892	1583.01
1007.186	1546.85
1007.48	1549.11
1007.773	1542.11
1008.067	1519.06
1008.361	1514.31
1008.655	1503.92
1008.948	1503.24
1009.242	1510.69
1009.535	1481.32
1009.829	1461.88
1010.122	1451.26
1010.415	1474.09
1010.708	1435.22
1011.001	1453.3
1011.295	1442.9
1011.588	1442
1011.881	1409.45
1012.173	1428.21
1012.466	1410.58
1012.759	1395.9
1013.052	1411.71
1013.344	1426.4
1013.637	1404.71
1013.93	1349.8
1014.222	1362.9
1014.514	1356.12
1014.807	1397.48
1015.099	1342.56
1015.391	1345.5
1015.683	1335.56
1015.976	1317.03
1016.268	1290.59
1016.56	1288.78
1016.851	1304.82
1017.143	1278.16
1017.435	1273.86
1017.727	1257.82
1018.018	1276.35
1018.31	1251.04
1018.602	1264.37
1018.893	1251.27
1019.185	1239.29
1019.476	1253.53
1019.767	1225.28
1020.058	1204.71
1020.35	1198.16
1020.641	1180.31
1020.932	1198.39
1021.223	1179.4
1021.514	1190.48
1021.804	1183.92
1022.095	1146.64
1022.386	1151.83
1022.677	1147.31
1022.967	1134.66
1023.258	1163.36
1023.548	1121.55
1023.839	1119.07
1024.129	1148.44
1024.419	1115.9
1024.709	1094.89
1025	1091.72
1025.29	1082.23
1025.58	1075.68
1025.87	1063.02
1026.16	1068.22
1026.449	1084.04
1026.739	1070.03
1027.029	1069.12
1027.319	1058.96
1027.608	1054.66
1027.898	1030.71
1028.187	1041.78
1028.477	1025.28
1028.766	1028.45
1029.055	991.61
1029.344	999.97
1029.634	986.41
1029.923	977.6
1030.212	989.58
1030.501	966.3
1030.79	966.98
1031.078	978.28
1031.367	947.09
1031.656	948
1031.945	957.49
1032.233	938.51
1032.522	939.64
1032.81	938.51
1033.099	911.39
1033.387	892.63
1033.675	885.63
1033.963	906.19
1034.251	912.52
1034.54	864.16
1034.828	893.08
1035.116	891.73
1035.403	870.49
1035.691	860.09
1035.979	863.25
1036.267	855.57
1036.554	864.61
1036.842	859.86
1037.129	861.22
1037.417	828.9
1037.704	833.65
1037.992	844.27
1038.279	826.19
1038.566	819.41
1038.853	819.41
1039.14	819.41
