Data from hue_110_FLMS001491_00022.txt Node
Date: Tue Feb 07 17:01:05 GMT 2017
User: dcchb
Spectrometer: FLMS00149
Trigger mode: 0
Integration Time (sec): 2.000000E-2
Scans to average: 10
Electric dark correction enabled: true
Nonlinearity correction enabled: false
Boxcar width: 0
XAxis mode: Wavelengths
Number of Pixels in Spectrum: 2048
>>>>>Begin Spectral Data<<<<<
341.393	-22.53
341.776	-22.53
342.16	-22.53
342.543	-67.72
342.927	-88.74
343.31	-88.29
343.693	-80.15
344.077	-69.53
344.46	-56.43
344.843	-58.23
345.226	-29.53
345.61	-38.12
345.993	-8.52
346.376	7.3
346.759	8.66
347.142	12.95
347.525	41.2
347.908	76.9
348.291	80.52
348.674	78.03
349.057	123.23
349.44	123.68
349.823	144.25
350.206	174.08
350.588	188.31
350.971	200.07
351.354	228.77
351.737	237.58
352.119	254.08
352.502	273.51
352.884	292.04
353.267	278.03
353.65	280.74
354.032	297.01
354.414	308.09
354.797	299.72
355.179	314.19
355.562	332.72
355.944	319.38
356.326	324.36
356.709	328.2
357.091	358.03
357.473	354.86
357.855	341.76
358.238	353.06
358.62	357.58
359.002	324.81
359.384	343.56
359.766	340.63
360.148	337.01
360.53	354.41
360.912	337.91
361.294	337.69
361.676	334.75
362.057	334.75
362.439	326.62
362.821	347.18
363.203	348.76
363.584	336.11
363.966	316.45
364.348	317.8
364.729	318.71
365.111	330.23
365.493	338.14
365.874	322.32
366.256	321.64
366.637	317.58
367.019	314.86
367.4	333.62
367.781	303.57
368.163	304.24
368.544	331.59
368.925	320.29
369.306	332.04
369.688	312.83
370.069	318.71
370.45	316.22
370.831	330.01
371.212	317.8
371.593	307.18
371.974	308.99
372.355	333.85
372.736	338.59
373.117	316.9
373.498	308.31
373.879	307.63
374.26	329.33
374.641	328.88
375.021	328.2
375.402	317.8
375.783	307.41
376.163	313.06
376.544	311.93
376.925	319.16
377.305	345.15
377.686	348.08
378.066	322.77
378.447	347.18
378.827	330.23
379.208	328.88
379.588	333.85
379.968	332.49
380.349	339.5
380.729	333.62
381.109	350.34
381.489	342.66
381.87	333.62
382.25	338.59
382.63	344.02
383.01	337.24
383.39	345.82
383.77	334.98
384.15	347.63
384.53	346.73
384.91	338.82
385.29	352.83
385.67	351.93
386.049	367.29
386.429	353.28
386.809	363.9
387.189	357.12
387.568	353.51
387.948	347.63
388.328	339.27
388.707	371.59
389.087	344.47
389.466	353.06
389.846	367.29
390.225	372.72
390.605	368.2
390.984	362.32
391.363	365.48
391.743	379.04
392.122	380.4
392.501	375.43
392.881	379.5
393.26	385.15
393.639	370.23
394.018	381.08
394.397	370.46
394.776	403
395.155	374.3
395.534	377.01
395.913	365.71
396.292	365.03
396.671	372.04
397.05	398.48
397.429	396.22
397.808	387.86
398.186	399.16
398.565	393.73
398.944	387.86
399.323	384.02
399.701	389.44
400.08	385.37
400.458	395.77
400.837	411.59
401.215	410.23
401.594	414.07
401.972	396.44
402.351	404.13
402.729	384.69
403.107	395.54
403.486	396.67
403.864	392.83
404.242	404.13
404.62	418.59
404.999	428.76
405.377	402.32
405.755	387.63
406.133	405.71
406.511	410.91
406.889	402.32
407.267	423.34
407.645	423.56
408.023	420.4
408.401	424.01
408.779	440.51
409.156	435.54
409.534	450.45
409.912	438.48
410.29	443.45
410.667	461.08
411.045	448.65
411.422	444.13
411.8	453.39
412.178	453.17
412.555	462.66
412.933	470.57
413.31	465.14
413.687	444.58
414.065	472.37
414.442	475.76
414.819	490.68
415.197	461.53
415.574	486.61
415.951	488.87
416.328	492.49
416.705	492.71
417.082	503.11
417.46	518.93
417.837	495.88
418.214	501.75
418.591	495.42
418.967	501.3
419.344	504.92
419.721	496.78
420.098	526.38
420.475	514.18
420.852	528.19
421.228	534.52
421.605	509.89
421.982	532.26
422.358	516.44
422.735	538.81
423.111	536.33
423.488	545.37
423.864	543.56
424.241	561.64
424.617	553.28
424.994	532.49
425.37	569.55
425.746	550.56
426.123	562.99
426.499	570.68
426.875	569.32
427.251	575.65
427.627	561.64
428.003	575.2
428.379	578.59
428.756	603.9
429.132	595.76
429.507	604.12
429.883	599.38
430.259	617.23
430.635	619.94
431.011	610
431.387	637.12
431.763	628.08
432.138	622.43
432.514	621.75
432.89	658.13
433.265	650.45
433.641	659.04
434.016	659.71
434.392	660.84
434.767	673.95
435.143	696.55
435.518	697.23
435.894	678.7
436.269	678.24
436.644	679.83
437.02	701.97
437.395	686.61
437.77	710.11
438.145	709.43
438.52	749.88
438.895	732.93
439.271	754.85
439.646	748.3
440.021	745.14
440.395	747.62
440.77	731.12
441.145	749.43
441.52	756.43
441.895	771.12
442.27	783.33
442.645	742.42
443.019	804.34
443.394	804.57
443.769	792.82
444.143	795.98
444.518	795.53
444.892	805.93
445.267	821.29
445.641	825.36
446.016	809.77
446.39	828.07
446.764	829.2
447.139	831.24
447.513	823.1
447.887	834.4
448.262	861.74
448.636	850.44
449.01	864.91
449.384	865.13
449.758	888.18
450.132	863.32
450.506	883.89
450.88	887.96
451.254	871.01
451.628	916.88
452.002	943.32
452.376	926.6
452.75	940.38
453.123	926.37
453.497	937.22
453.871	944.9
454.244	957.79
454.618	960.27
454.992	956.88
455.365	965.02
455.739	999.14
456.112	1013.83
456.486	1018.8
456.859	1009.76
457.232	1041.4
457.606	1044.56
457.979	1051.79
458.352	1064
458.725	1087.05
459.099	1088.4
459.472	1103.09
459.845	1095.41
460.218	1134.05
460.591	1153.26
460.964	1145.58
461.337	1149.87
461.71	1188.29
462.083	1196.2
462.456	1173.83
462.829	1193.49
463.201	1218.12
463.574	1240.49
463.947	1278.46
464.32	1278.91
464.692	1340.83
465.065	1323.88
465.438	1319.58
465.81	1356.19
466.183	1346.7
466.555	1399.13
466.928	1420.37
467.3	1429.41
467.672	1445.46
468.045	1464.89
468.417	1534.27
468.789	1522.06
469.161	1527.94
469.534	1569.97
469.906	1611.33
470.278	1616.07
470.65	1667.15
471.022	1707.14
471.394	1734.26
471.766	1741.95
472.138	1739.01
472.51	1797.09
472.882	1834.82
473.253	1869.85
473.625	1904.43
473.997	1992.56
474.369	2006.35
474.74	2087.93
475.112	2087.93
475.484	2143.97
475.855	2197.07
476.227	2268.49
476.598	2315.26
476.97	2382.38
477.341	2430.29
477.713	2495.15
478.084	2529.72
478.455	2626.67
478.827	2684.97
479.198	2791.18
479.569	2840.22
479.94	2911.63
480.311	2948.69
480.682	3073.66
481.053	3146.65
481.424	3248.35
481.795	3313.88
482.166	3432.07
482.537	3517.49
482.908	3592.52
483.279	3689.24
483.65	3820.08
484.021	4000.87
484.391	4028.44
484.762	4096.91
485.133	4211.26
485.503	4303.46
485.874	4487.41
486.244	4597.69
486.615	4753.84
486.985	4848.08
487.356	5008.75
487.726	5060.73
488.097	5240.61
488.467	5339.59
488.837	5523.54
489.207	5599.25
489.578	5736.19
489.948	5859.8
490.318	5998.56
490.688	6128.27
491.058	6327.14
491.428	6404.2
491.798	6554.93
492.168	6755.15
492.538	6865.88
492.908	7010.06
493.278	7098.19
493.648	7255.02
494.017	7364.17
494.387	7560.32
494.757	7631.51
495.126	7873.99
495.496	7939.3
495.866	8040.31
496.235	8226.75
496.605	8385.16
496.974	8450.24
497.344	8622.67
497.713	8691.37
498.082	8778.37
498.452	8988.76
498.821	9040.28
499.19	9158.02
499.559	9212.94
499.928	9415.19
500.298	9461.74
500.667	9667.16
501.036	9697.22
501.405	9805.69
501.774	9807.95
502.143	9986.25
502.512	10083.42
502.88	10253.59
503.249	10218.33
503.618	10321.61
503.987	10495.61
504.356	10464.88
504.724	10603.18
505.093	10658.1
505.462	10730.86
505.83	10797.98
506.199	10938.77
506.567	11092.43
506.936	11096.95
507.304	11233.45
507.672	11247.91
508.041	11367.46
508.409	11441.35
508.777	11548.02
509.145	11618.52
509.514	11633.44
509.882	11749.82
510.25	11808.57
510.618	11853.77
510.986	11854
511.354	11937.38
511.722	12025.74
512.09	12125.4
512.458	12067.1
512.826	12244.49
513.193	12254.21
513.561	12289.46
513.929	12425.28
514.297	12413.08
514.664	12593.41
515.032	12560.64
515.4	12666.18
515.767	12671.6
516.135	12667.31
516.502	12615.56
516.869	12830.69
517.237	12849
517.604	12827.98
517.972	12862.11
518.339	12948.43
518.706	12952.05
519.073	12896.91
519.44	13038.6
519.808	13082.66
520.175	13083.12
520.542	13186.84
520.909	13187.29
521.276	13182.77
521.643	13267.29
522.009	13336.9
522.376	13316.33
522.743	13385.48
523.11	13444.69
523.477	13567.4
523.843	13516.33
524.21	13684.91
524.577	13590.45
524.943	13686.72
525.31	13719.71
525.676	13764.91
526.043	13688.75
526.409	13820.95
526.776	13837.9
527.142	13929.42
527.508	13836.09
527.874	13893.72
528.241	13934.39
528.607	13937.56
528.973	13994.28
529.339	13910.21
529.705	14017.1
530.071	14063.2
530.437	14047.16
530.803	14084.67
531.169	14006.48
531.535	13987.05
531.901	13976.2
532.267	13995.18
532.632	14007.16
532.998	14006.71
533.364	14002.64
533.73	14000.83
534.095	14106.82
534.461	14062.75
534.826	13974.39
535.192	14068.85
535.557	13992.02
535.923	13887.16
536.288	13963.32
536.653	13968.97
537.019	13825.7
537.384	13873.15
537.749	13891
538.114	13785.02
538.479	13831.8
538.845	13738.92
539.21	13728.52
539.575	13776.66
539.94	13653.27
540.305	13771.69
540.67	13659.82
541.034	13680.61
541.399	13631.35
541.764	13583.67
542.129	13568.53
542.494	13531.24
542.858	13550.45
543.223	13477.91
543.587	13504.35
543.952	13383.9
544.316	13486.72
544.681	13408.31
545.045	13386.61
545.41	13386.39
545.774	13336.22
546.138	13368.08
546.503	13254.41
546.867	13222.77
547.231	13269.1
547.595	13203.11
547.959	13246.73
548.324	13158.14
548.688	13069.56
549.052	13032.04
549.416	13075.43
549.779	13072.72
550.143	13067.52
550.507	13021.65
550.871	13021.2
551.235	12876.57
551.599	12980.07
551.962	12867.08
552.326	12946.17
552.689	12903.23
553.053	12804.93
553.417	12724.48
553.78	12893.29
554.143	12709.57
554.507	12784.14
554.87	12703.24
555.234	12836.57
555.597	12719.28
555.96	12712.28
556.323	12693.97
556.686	12632.05
557.05	12702.79
557.413	12622.79
557.776	12559.97
558.139	12697.14
558.502	12712.73
558.865	12637.7
559.228	12654.65
559.59	12734.88
559.953	12616.46
560.316	12770.58
560.679	12735.78
561.041	12657.36
561.404	12706.63
561.767	12749.34
562.129	12646.29
562.492	12779.62
562.854	12657.82
563.217	12714.54
563.579	12685.84
563.941	12765.16
564.304	12788.89
564.666	12802.22
565.028	12736.23
565.39	12806.97
565.753	12880.64
566.115	12806.51
566.477	12814.87
566.839	12789.56
567.201	12927.41
567.563	12852.39
567.925	12955.89
568.287	12898.71
568.648	12869.11
569.01	12967.87
569.372	12969.67
569.734	12907.98
570.095	12898.71
570.457	12985.49
570.819	13017.58
571.18	12981.65
571.542	12932.61
571.903	12964.25
572.265	13056.45
572.626	13040.63
572.987	13002.44
573.349	13027.75
573.71	13065.04
574.071	13075.43
574.432	13086.73
574.794	13237.24
575.155	13149.1
575.516	13061.2
575.877	13032.27
576.238	13057.35
576.599	13204.92
576.96	13163.57
577.32	13160.18
577.681	13197.69
578.042	13249.21
578.403	13180.97
578.763	13141.42
579.124	13133.74
579.485	13185.49
579.845	13194.98
580.206	13148.65
580.566	13218.93
580.927	13148.65
581.287	13195.2
581.648	13132.15
582.008	13237.24
582.368	13166.28
582.728	13262.32
583.089	13112.72
583.449	13129.67
583.809	13177.58
584.169	13241.98
584.529	13061.2
584.889	13209.21
585.249	13040.18
585.609	13035.43
585.969	13136.45
586.329	13130.35
586.688	13109.78
587.048	13068.65
587.408	13064.36
587.768	12961.09
588.127	13001.99
588.487	12950.92
588.846	13159.5
589.206	12940.52
589.565	13017.36
589.925	13052.61
590.284	12993.85
590.643	12987.07
591.003	13024.81
591.362	13042.67
591.721	12971.93
592.08	13001.54
592.44	13047.86
592.799	12946.85
593.158	12953.85
593.517	12954.98
593.876	13015.1
594.235	12845.38
594.593	12896
594.952	12961.76
595.311	12914.76
595.67	12986.17
596.029	13004.47
596.387	12992.05
596.746	12981.2
597.104	12844.25
597.463	12879.51
597.822	12962.44
598.18	12751.6
598.538	12852.39
598.897	12929
599.255	12829.34
599.613	12992.27
599.972	12925.83
600.33	12872.95
600.688	12922.22
601.046	12879.28
601.404	12907.3
601.762	12829.79
602.12	12926.51
602.478	12963.8
602.836	12911.14
603.194	12772.16
603.552	12808.32
603.91	12874.31
604.268	12904.36
604.625	12860.07
604.983	12953.4
605.341	12821.2
605.698	12899.62
606.056	12934.65
606.413	12898.94
606.771	12982.1
607.128	12938.71
607.485	12856.68
607.843	12864.59
608.2	12928.09
608.557	12956.34
608.914	13012.84
609.272	13006.51
609.629	12976
609.986	13017.13
610.343	13037.24
610.7	13054.42
611.057	12999.95
611.414	13024.13
611.771	12994.53
612.127	13095.77
612.484	13029.78
612.841	13124.92
613.198	13091.93
613.554	13156.79
613.911	13152.72
614.267	13080.63
614.624	13114.75
614.98	13134.41
615.337	13173.06
615.693	13096.45
616.05	13093.06
616.406	13233.17
616.762	13169.67
617.118	13186.62
617.475	13246.73
617.831	13190.23
618.187	13179.61
618.543	13293.28
618.899	13308.87
619.255	13297.12
619.611	13191.59
619.967	13312.94
620.323	13310.91
620.678	13230.91
621.034	13248.08
621.39	13280.4
621.746	13181.19
622.101	13411.92
622.457	13237.01
622.812	13385.48
623.168	13392.71
623.523	13312.71
623.879	13374.18
624.234	13268.65
624.589	13304.81
624.945	13328.31
625.3	13329.21
625.655	13303.22
626.01	13361.08
626.365	13325.6
626.72	13320.85
627.075	13289.44
627.43	13293.51
627.785	13261.42
628.14	13280.17
628.495	13259.61
628.85	13325.82
629.205	13267.52
629.559	13304.81
629.914	13250.34
630.269	13252.83
630.623	13300.74
630.978	13193.4
631.332	13258.48
631.687	13214.86
632.041	13192.94
632.396	13172.61
632.75	13114.3
633.104	13170.12
633.459	13048.32
633.813	13171.7
634.167	13064.36
634.521	13146.62
634.875	13121.08
635.229	13127.64
635.583	13082.66
635.937	12987.3
636.291	13035.89
636.645	12961.54
636.999	12934.65
637.352	12931.93
637.706	12925.61
638.06	12950.24
638.413	12988.88
638.767	12873.63
639.121	12898.26
639.474	12816.23
639.828	12804.03
640.181	12808.1
640.534	12833.18
640.888	12842.22
641.241	12814.87
641.594	12781.88
641.947	12851.48
642.301	12807.42
642.654	12749.34
643.007	12779.62
643.36	12719.74
643.713	12719.51
644.066	12817.13
644.419	12682
644.771	12680.42
645.124	12496.69
645.477	12482.91
645.83	12449.01
646.182	12341.22
646.535	12374.21
646.888	12411.27
647.24	12251.73
647.593	12374.21
647.945	12386.19
648.298	12266.41
648.65	12212.18
649.002	12272.52
649.355	12279.97
649.707	12313.42
650.059	12392.97
650.411	12446.97
650.763	12474.54
651.115	12610.13
651.467	12644.94
651.819	12580.3
652.171	12620.3
652.523	12532.62
652.875	12550.48
653.227	12490.59
653.578	12636.8
653.93	12626.41
654.282	12580.53
654.633	12532.62
654.985	12581.66
655.337	12552.73
655.688	12599.97
656.039	12608.55
656.391	12606.74
656.742	12498.73
657.094	12561.32
657.445	12549.57
657.796	12641.09
658.147	12557.93
658.498	12549.35
658.849	12534.43
659.2	12572.62
659.551	12549.12
659.902	12566.97
660.253	12743.69
660.604	12628.21
660.955	12541.44
661.306	12595.9
661.656	12639.06
662.007	12693.75
662.358	12651.94
662.708	12652.62
663.059	12693.97
663.409	12634.54
663.76	12660.98
664.11	12731.04
664.461	12693.3
664.811	12635.22
665.161	12655.56
665.511	12661.21
665.862	12675.44
666.212	12643.81
666.562	12743.46
666.912	12630.7
667.262	12643.81
667.612	12626.86
667.962	12653.3
668.312	12571.72
668.662	12693.97
669.011	12627.31
669.361	12594.77
669.711	12609.23
670.06	12714.09
670.41	12601.1
670.76	12632.05
671.109	12579.17
671.459	12659.62
671.808	12572.62
672.157	12673.86
672.507	12585.73
672.856	12548.22
673.205	12495.34
673.554	12556.35
673.904	12591.15
674.253	12663.47
674.602	12676.12
674.951	12398.16
675.3	12310.93
675.649	12511.15
675.998	12501.44
676.346	12545.28
676.695	12520.42
677.044	12418.5
677.393	12468.44
677.741	12491.72
678.09	12468.67
678.438	12377.15
678.787	12378.95
679.135	12344.15
679.484	12376.69
679.832	12324.27
680.181	12281.78
680.529	12319.97
680.877	12267.09
681.225	12298.73
681.573	12289.69
681.922	12305.06
682.27	12190.71
682.618	12206.98
682.966	12135.12
683.314	12163.14
683.661	12130.37
684.009	12072.97
684.357	12056.25
684.705	11955.01
685.053	12058.74
685.4	12029.58
685.748	11984.61
686.095	11945.29
686.443	11842.92
686.79	11886.76
687.138	11862.58
687.485	11831.85
687.832	11878.4
688.18	11822.58
688.527	11734.45
688.874	11693.77
689.221	11675.92
689.568	11653.32
689.915	11577.85
690.262	11616.71
690.609	11591.4
690.956	11514.12
691.303	11552.76
691.65	11446.55
691.997	11436.61
692.344	11378.98
692.69	11332.2
693.037	11311.64
693.383	11228.7
693.73	11247.91
694.077	11222.15
694.423	11140.57
694.769	11115.94
695.116	11072.77
695.462	11038.88
695.808	11009.5
696.155	11056.96
696.501	10919.56
696.847	11011.31
697.193	10894.7
697.539	10834.14
697.885	10861.48
698.231	10804.98
698.577	10793.69
698.923	10708.49
699.269	10642.05
699.614	10637.08
699.96	10598.21
700.306	10599.34
700.651	10521.38
700.997	10541.71
701.342	10429.63
701.688	10409.97
702.033	10381.49
702.379	10367.93
702.724	10346.47
703.069	10317.77
703.415	10213.59
703.76	10155.51
704.105	10264.89
704.45	10193.47
704.795	10069.64
705.14	10088.17
705.485	9974.95
705.83	10006.14
706.175	10025.12
706.52	9903.09
706.865	9928.4
707.209	9855.63
707.554	9864.9
707.899	9847.04
708.243	9777.21
708.588	9784.45
708.932	9740.38
709.277	9718.23
709.621	9734.96
709.966	9674.39
710.31	9687.5
710.654	9630.33
710.998	9606.15
711.342	9593.04
711.687	9493.38
712.031	9531.57
712.375	9486.15
712.719	9492.48
713.063	9527.96
713.407	9492.7
713.75	9476.43
714.094	9451.35
714.438	9353.72
714.782	9431.91
715.125	9344.91
715.469	9344.68
715.812	9315.53
716.156	9236.21
716.499	9263.33
716.843	9290.22
717.186	9227.4
717.53	9317.57
717.873	9263.33
718.216	9222.43
718.559	9201.41
718.902	9126.38
719.246	9167.06
719.589	9186.5
719.932	9121.19
720.275	9102.88
720.617	9124.58
720.96	9122.54
721.303	9120.28
721.646	9097.23
721.989	8970.68
722.331	9059.72
722.674	9083.22
723.016	9102.43
723.359	9051.58
723.701	8975.65
724.044	9030.57
724.386	9055.43
724.729	8950.8
725.071	8998.48
725.413	8998.7
725.755	8956.45
726.097	8948.76
726.439	8902.66
726.782	8842.78
727.124	8965.03
727.465	8889.78
727.807	8940.63
728.149	8894.98
728.491	8838.03
728.833	8902.89
729.175	8895.2
729.516	8849.78
729.858	8849.78
730.199	8839.84
730.541	8894.75
730.882	8865.6
731.224	8889.55
731.565	8728.2
731.906	8805.71
732.248	8820.4
732.589	8822.21
732.93	8811.59
733.271	8848.2
733.612	8815.43
733.953	8851.82
734.294	8783.57
734.635	8808.65
734.976	8878.03
735.317	8843.23
735.658	8820.4
735.999	8797.13
736.339	8811.14
736.68	8881.64
737.021	8850.23
737.361	8836
737.702	8833.74
738.042	8887.97
738.383	8797.81
738.723	8857.46
739.063	8839.16
739.404	8946.73
739.744	8861.08
740.084	8897.24
740.424	8859.27
740.764	8954.41
741.104	8881.87
741.444	8971.81
741.784	8951.02
742.124	8937.91
742.464	8963.22
742.804	9006.61
743.143	8998.48
743.483	9065.37
743.823	9012.94
744.162	9120.73
744.502	9202.54
744.841	9108.76
745.181	9213.61
745.52	9227.4
745.86	9287.51
746.199	9243.67
746.538	9271.92
746.877	9301.97
747.216	9458.13
747.556	9406.38
747.895	9525.24
748.234	9554.17
748.573	9607.73
748.911	9668.29
749.25	9770.21
749.589	9786.25
749.928	9889.3
750.267	9953.93
750.605	10070.54
750.944	10075.51
751.283	10089.52
751.621	10227.6
751.96	10332.91
752.298	10379.23
752.636	10478.89
752.975	10608.38
753.313	10633.92
753.651	10839.11
753.989	10873.46
754.327	10945.55
754.666	11118.42
755.004	11266.67
755.342	11361.35
755.679	11443.39
756.017	11536.94
756.355	11752.08
756.693	11852.64
757.031	12048.34
757.368	12089.47
757.706	12266.87
758.044	12372.85
758.381	12515.67
758.719	12749.34
759.056	12891.03
759.394	12993.18
759.731	13078.82
760.068	13264.58
760.405	13387.29
760.743	13591.13
761.08	13813.27
761.417	13940.5
761.754	14081.06
762.091	14202.41
762.428	14350.2
762.765	14529.63
763.102	14726.69
763.438	14776.41
763.775	14958.32
764.112	15152.21
764.449	15361.02
764.785	15443.73
765.122	15596.04
765.458	15708.36
765.795	15913.55
766.131	16023.15
766.467	16113.55
766.804	16236.48
767.14	16398.96
767.476	16473.76
767.812	16624.94
768.148	16817.26
768.485	16839.18
768.821	17014.99
769.157	17069.68
769.492	17230.58
769.828	17370.91
770.164	17358.26
770.5	17493.17
770.836	17539.27
771.171	17619.49
771.507	17804.35
771.842	17713.05
772.178	17884.57
772.513	17956.43
772.849	18176.77
773.184	18036.21
773.519	18200.04
773.855	18175.86
774.19	18223.32
774.525	18297.44
774.86	18430.55
775.195	18415.86
775.53	18482.3
775.865	18437.55
776.2	18451.34
776.535	18424.9
776.87	18511.9
777.205	18493.6
777.539	18452.01
777.874	18675.06
778.209	18539.7
778.543	18672.8
778.878	18556.42
779.212	18593.93
779.547	18612.91
779.881	18698.79
780.215	18615.4
780.55	18697.88
780.884	18624.44
781.218	18651.56
781.552	18726.13
781.886	18717.77
782.22	18582.18
782.554	18733.82
782.888	18582.41
783.222	18508.06
783.556	18515.74
783.889	18529.07
784.223	18347.16
784.557	18447.04
784.89	18586.02
785.224	18391.23
785.557	18424.22
785.891	18424.9
786.224	18400.49
786.558	18412.47
786.891	18301.51
787.224	18334.73
787.557	18267.61
787.891	18279.59
788.224	18211.57
788.557	18261.96
788.89	18275.3
789.223	18284.79
789.556	18049.31
789.888	18200.04
790.221	18019.03
790.554	18082.08
790.887	18068.75
791.219	17932.03
791.552	17936.1
791.884	17891.35
792.217	17915.76
792.549	17877.11
792.882	17751.92
793.214	17763.67
793.546	17699.94
793.879	17652.26
794.211	17523
794.543	17662.43
794.875	17488.88
795.207	17612.26
795.539	17516.45
795.871	17483.45
796.203	17401.19
796.535	17262.22
796.867	17317.13
797.198	17181.99
797.53	17237.81
797.862	17161.2
798.193	17078.04
798.525	17078.94
798.856	17161.43
799.188	16908.1
799.519	16907.87
799.85	16864.26
800.182	16858.84
800.513	16819.06
800.844	16791.72
801.175	16860.19
801.506	16765.28
801.837	16709.46
802.168	16612.97
802.499	16661.33
802.83	16498.39
803.161	16501.11
803.491	16536.81
803.822	16576.81
804.153	16427.44
804.483	16308.57
804.814	16234.9
805.145	16305.86
805.475	16285.97
805.805	16241.45
806.136	16164.17
806.466	16184.28
806.796	16104.51
807.126	16002.81
807.457	16014.34
807.787	16061.57
808.117	15945.41
808.447	15953.32
808.777	15945.64
809.107	15883.72
809.436	15823.16
809.766	15849.82
810.096	15741.35
810.426	15693.22
810.755	15671.97
811.085	15617.74
811.414	15667.23
811.744	15532.09
812.073	15538.19
812.403	15477.4
812.732	15419.1
813.061	15417.52
813.39	15290.06
813.719	15317.41
814.049	15410.96
814.378	15357.18
814.707	15327.35
815.036	15250.52
815.365	15253.68
815.693	15079.22
816.022	15016.17
816.351	15066.34
816.68	15018.66
817.008	15036.74
817.337	15019.11
817.665	14869.28
817.994	14902.73
818.322	14860.7
818.651	14827.7
818.979	14843.07
819.307	14821.6
819.636	14767.82
819.964	14710.42
820.292	14826.12
820.62	14794.71
820.948	14742.06
821.276	14794.71
821.604	14679.01
821.932	14816.63
822.259	14745.22
822.587	14736.63
822.915	14730.76
823.243	14770.76
823.57	14698.89
823.898	14761.94
824.225	14576.86
824.553	14610.76
824.88	14635.17
825.207	14758.1
825.535	14805.56
825.862	14658.89
826.189	14576.64
826.516	14718.33
826.843	14721.49
827.17	14682.62
827.497	14711.77
827.824	14718.78
828.151	14773.24
828.478	14674.04
828.805	14782.73
829.131	14634.04
829.458	14697.54
829.785	14642.85
830.111	14636.3
830.438	14769.85
830.764	14682.62
831.09	14728.95
831.417	14635.84
831.743	14721.27
832.069	14686.69
832.395	14645.34
832.722	14643.08
833.048	14608.95
833.374	14628.39
833.7	14568.05
834.026	14592.23
834.351	14569.18
834.677	14510.42
835.003	14518.78
835.329	14574.15
835.654	14529.86
835.98	14531.21
836.306	14587.94
836.631	14453.7
836.956	14474.72
837.282	14416.64
837.607	14423.42
837.932	14445.11
838.258	14374.16
838.583	14377.55
838.908	14298
839.233	14279.02
839.558	14267.49
839.883	14262.97
840.208	14120.6
840.533	14161.51
840.858	14125.57
841.182	14210.09
841.507	14095.29
841.832	14160.15
842.156	14045.35
842.481	14104.33
842.805	14022.53
843.13	14013.71
843.454	13957.67
843.778	13884
844.103	13839.48
844.427	13753.61
844.751	13860.72
845.075	13804
845.399	13754.96
845.723	13581.18
846.047	13690.11
846.371	13590.22
846.695	13607.4
847.019	13479.49
847.343	13333.96
847.666	13396.78
847.99	13314.75
848.313	13290.79
848.637	13249.89
848.96	13148.65
849.284	13207.41
849.607	13048.09
849.931	13123.79
850.254	12990.69
850.577	12936.23
850.9	12772.16
851.223	12817.81
851.546	12782.56
851.869	12642.45
852.192	12749.11
852.515	12606.97
852.838	12607.2
853.161	12605.61
853.483	12496.47
853.806	12440.65
854.129	12414.89
854.451	12376.02
854.774	12263.48
855.096	12272.74
855.419	12217.15
855.741	12193.42
856.063	12148.45
856.385	12136.25
856.708	12127.66
857.03	12025.74
857.352	12085.18
857.674	11898.97
857.996	11941.68
858.318	11814.9
858.64	11832.3
858.961	11838.63
859.283	11784.85
859.605	11738.52
859.926	11798.86
860.248	11633.66
860.57	11681.12
860.891	11736.71
861.212	11649.26
861.534	11602.48
861.855	11566.09
862.176	11599.77
862.498	11556.83
862.819	11593.21
863.14	11388.47
863.461	11480.22
863.782	11453.33
864.103	11389.15
864.424	11324.29
864.745	11318.87
865.065	11263.28
865.386	11327.91
865.707	11348.02
866.027	11265.99
866.348	11252.2
866.668	11262.6
866.989	11145.77
867.309	11164.52
867.63	11146.22
867.95	11205.65
868.27	11074.13
868.59	11086.11
868.91	11155.94
869.23	11108.48
869.55	10997.07
869.87	11129.04
870.19	11009.95
870.51	10959.33
870.83	11056.96
871.15	10994.13
871.469	11007.92
871.789	10959.78
872.109	10904.64
872.428	10873.68
872.748	10851.31
873.067	10919.78
873.386	10816.96
873.706	10922.95
874.025	10832.55
874.344	10739
874.663	10768.6
874.982	10723.86
875.301	10821.26
875.62	10821.26
875.939	10683.86
876.258	10729.51
876.577	10652.22
876.896	10739.68
877.214	10576.74
877.533	10594.14
877.852	10628.04
878.17	10616.51
878.489	10553.01
878.807	10578.55
879.125	10619.23
879.444	10560.02
879.762	10560.47
880.08	10483.86
880.398	10384.88
880.716	10534.93
881.034	10428.5
881.352	10375.39
881.67	10402.06
881.988	10409.29
882.306	10346.69
882.624	10225.34
882.941	10236.19
883.259	10206.13
883.577	10239.58
883.894	10183.76
884.212	10217.43
884.529	10243.42
884.846	10173.59
885.164	10106.7
885.481	10029.41
885.798	10081.61
886.115	10017.66
886.432	9990.32
886.75	10008.17
887.067	9963.65
887.383	9908.96
887.7	9986.25
888.017	9806.37
888.334	9946.7
888.651	9915.52
888.967	9875.52
889.284	9765.69
889.6	9782.19
889.917	9727.5
890.233	9722.07
890.55	9674.39
890.866	9667.84
891.182	9664.68
891.498	9622.87
891.815	9603.89
892.131	9528.63
892.447	9579.93
892.763	9506.71
893.079	9441.86
893.395	9423.55
893.71	9432.14
894.026	9417.68
894.342	9399.37
894.657	9310.11
894.973	9294.06
895.289	9293.84
895.604	9217.91
895.92	9218.13
896.235	9176.33
896.55	9159.38
896.865	9099.49
897.181	9087.74
897.496	9096.78
897.811	9013.39
898.126	8982.66
898.441	8986.73
898.756	8973.85
899.071	8880.06
899.386	8879.16
899.7	8819.5
900.015	8789.67
900.33	8746.28
900.644	8700.63
900.959	8695.44
901.273	8645.27
901.588	8603.91
901.902	8570.24
902.216	8621.31
902.531	8551.94
902.845	8534.31
903.159	8490.47
903.473	8429.23
903.787	8403.92
904.101	8341.32
904.415	8384.03
904.729	8261.1
905.042	8284.6
905.356	8273.3
905.67	8257.48
905.984	8305.16
906.297	8211.61
906.611	8119.18
906.924	8145.17
907.237	8119.41
907.551	8132.96
907.864	8023.81
908.177	7964.15
908.491	7994.21
908.804	7870.37
909.117	7892.97
909.43	7798.06
909.743	7829.47
910.056	7802.8
910.368	7748.57
910.681	7758.51
910.994	7688.23
911.307	7676.03
911.619	7605.97
911.932	7597.16
912.244	7523.26
912.557	7537.73
912.869	7502.25
913.181	7521.68
913.494	7450.95
913.806	7399.88
914.118	7345.19
914.43	7301.57
914.742	7336.83
915.054	7330.5
915.366	7218.19
915.678	7189.03
915.99	7143.39
916.302	7121.92
916.613	7093.22
916.925	7103.16
917.236	7057.51
917.548	7029.72
917.859	7059.77
918.171	7036.72
918.482	6921.47
918.794	6988.36
919.105	6926.67
919.416	6859.78
919.727	6861.13
920.038	6843.73
920.349	6780.23
920.66	6744.75
920.971	6742.49
921.282	6703.62
921.593	6653
921.903	6653.45
922.214	6595.6
922.525	6620.24
922.835	6549.73
923.146	6547.92
923.456	6554.7
923.767	6490.97
924.077	6464.53
924.387	6473.12
924.697	6435.38
925.008	6363.07
925.318	6376.4
925.628	6318.32
925.938	6317.19
926.248	6331.66
926.558	6231.77
926.867	6229.51
927.177	6195.39
927.487	6125.56
927.796	6181.83
928.106	6161.26
928.416	6086.01
928.725	6068.39
929.034	6045.79
929.344	6035.17
929.653	5987.26
929.962	5960.14
930.271	5993.36
930.581	5926.47
930.89	5931.67
931.199	5853.93
931.508	5889.86
931.817	5820.48
932.125	5818.9
932.434	5858.67
932.743	5749.98
933.051	5696.42
933.36	5741.39
933.669	5679.24
933.977	5683.09
934.286	5670.2
934.594	5655.97
934.902	5561.96
935.21	5583.2
935.519	5596.08
935.827	5520.83
936.135	5481.06
936.443	5497.78
936.751	5461.17
937.059	5406.48
937.367	5409.19
937.674	5399.02
937.982	5402.41
938.29	5377.33
938.597	5314.06
938.905	5274.96
939.213	5251.68
939.52	5273.83
939.827	5202.42
940.135	5185.47
940.442	5198.13
940.749	5179.6
941.056	5156.09
941.363	5082.87
941.67	5122.42
941.977	5082.42
942.284	5023.67
942.591	5015.31
942.898	5008.07
943.205	5008.3
943.511	4954.74
943.818	4948.42
944.125	4953.39
944.431	4951.35
944.738	4898.25
945.044	4860.06
945.35	4766.72
945.657	4776.67
945.963	4795.65
946.269	4752.26
946.575	4771.02
946.881	4712.26
947.187	4707.74
947.493	4717.69
947.799	4665.03
948.105	4622.1
948.41	4614.19
948.716	4615.77
949.022	4596.33
949.327	4607.63
949.633	4521.08
949.938	4600.4
950.244	4541.19
950.549	4479.27
950.854	4503.46
951.16	4456.45
951.465	4438.15
951.77	4399.95
952.075	4409.45
952.38	4365.83
952.685	4385.49
952.99	4326.06
953.294	4305.49
953.599	4305.49
953.904	4290.58
954.209	4273.63
954.513	4274.31
954.818	4264.37
955.122	4205.84
955.426	4211.26
955.731	4160.19
956.035	4164.93
956.339	4175.78
956.643	4161.09
956.948	4072.96
957.252	4086.74
957.556	4064.6
957.86	4068.21
958.163	4052.17
958.467	4062.56
958.771	4022.79
959.075	4025.05
959.378	3941.44
959.682	3975.56
959.985	3905.96
960.289	3924.71
960.592	3904.15
960.896	3916.8
961.199	3893.53
961.502	3889.46
961.805	3813.53
962.108	3786.19
962.411	3818.73
962.714	3798.39
963.017	3766.3
963.32	3715.91
963.623	3695.79
963.926	3733.08
964.228	3707.54
964.531	3687.66
964.833	3685.4
965.136	3652.86
965.438	3638.39
965.741	3621.44
966.043	3607.89
966.345	3583.25
966.648	3556.14
966.95	3552.75
967.252	3538.73
967.554	3531.5
967.856	3517.94
968.158	3477.04
968.46	3468.45
968.761	3496.93
969.063	3497.38
969.365	3440.88
969.666	3438.85
969.968	3413.31
970.269	3348.46
970.571	3400.21
970.872	3383.48
971.174	3370.15
971.475	3341.9
971.776	3288.8
972.077	3319.98
972.378	3315.24
972.679	3284.5
972.98	3269.82
973.281	3265.52
973.582	3232.3
973.883	3243.38
974.183	3206.77
974.484	3169.48
974.785	3157.5
975.085	3193.66
975.386	3174.68
975.686	3151.4
975.986	3150.04
976.287	3113.66
976.587	3112.98
976.887	3072.08
977.187	3087.9
977.487	3081.35
977.787	3016.71
978.087	3002.25
978.387	3031.86
978.687	3037.5
978.987	2985.08
979.286	2948.69
979.586	2926.77
979.885	2962.48
980.185	2942.82
980.484	2922.48
980.784	2919.09
981.083	2934.91
981.382	2914.57
981.682	2881.12
981.981	2876.38
982.28	2862.37
982.579	2822.14
982.878	2832.31
983.177	2818.75
983.475	2782.37
983.774	2773.11
984.073	2777.62
984.372	2732.2
984.67	2712.77
984.969	2767.46
985.267	2782.14
985.566	2710.73
985.864	2682.26
986.162	2706.21
986.461	2676.84
986.759	2636.16
987.057	2641.36
987.355	2631.19
987.653	2617.85
987.951	2610.62
988.249	2591.41
988.547	2576.73
988.844	2593.45
989.142	2585.77
989.44	2566.78
989.737	2515.71
990.035	2523.17
990.332	2521.81
990.63	2523.62
990.927	2501.93
991.224	2482.72
991.521	2487.69
991.819	2447.46
992.116	2476.39
992.413	2454.24
992.71	2430.52
993.006	2439.1
993.303	2406.56
993.6	2423.51
993.897	2409.72
994.193	2389.16
994.49	2341.48
994.787	2358.2
995.083	2311.2
995.379	2326.11
995.676	2363.4
995.972	2319.33
996.268	2313.91
996.565	2257.64
996.861	2281.14
997.157	2252.67
997.453	2257.86
997.749	2207.92
998.044	2215.61
998.34	2204.76
998.636	2187.81
998.932	2204.53
999.227	2164.08
999.523	2169.96
999.818	2129.73
1000.114	2150.97
1000.409	2175.15
1000.704	2125.66
1001	2092.22
1001.295	2115.04
1001.59	2098.09
1001.885	2113.69
1002.18	2085.89
1002.475	2059
1002.77	2050.86
1003.065	2043.18
1003.359	2028.49
1003.654	1997.76
1003.949	2021.26
1004.243	1995.27
1004.538	2003.41
1004.832	1976.52
1005.127	1946.69
1005.421	1959.34
1005.715	1899.91
1006.009	1914.6
1006.304	1908.27
1006.598	1877.76
1006.892	1910.53
1007.186	1859.68
1007.48	1864.2
1007.773	1855.62
1008.067	1835.28
1008.361	1832.79
1008.655	1835.95
1008.948	1808.38
1009.242	1819.91
1009.535	1798.89
1009.829	1805.67
1010.122	1782.62
1010.415	1776.75
1010.708	1746.92
1011.001	1760.48
1011.295	1734.94
1011.588	1712.57
1011.881	1713.92
1012.173	1708.05
1012.466	1692.46
1012.759	1701.04
1013.052	1686.13
1013.344	1700.14
1013.637	1680.03
1013.93	1704.66
1014.222	1653.81
1014.514	1645.9
1014.807	1622.17
1015.099	1605.45
1015.391	1611.78
1015.683	1577.88
1015.976	1575.4
1016.268	1587.6
1016.56	1538.11
1016.851	1547.83
1017.143	1534.27
1017.435	1555.06
1017.727	1520.03
1018.018	1493.59
1018.31	1482.74
1018.602	1492.46
1018.893	1463.53
1019.185	1464.89
1019.476	1466.25
1019.767	1458.79
1020.058	1481.16
1020.35	1430.32
1020.641	1436.87
1020.932	1444.55
1021.223	1440.48
1021.514	1402.29
1021.804	1397.1
1022.095	1367.04
1022.386	1384.44
1022.677	1389.41
1022.967	1374.72
1023.258	1331.79
1023.548	1336.76
1023.839	1341.05
1024.129	1342.86
1024.419	1359.81
1024.709	1339.02
1025	1316.42
1025.29	1303.54
1025.58	1249.3
1025.87	1259.47
1026.16	1255.18
1026.449	1257.66
1026.739	1271.9
1027.029	1271
1027.319	1240.49
1027.608	1205.01
1027.898	1224.45
1028.187	1229.19
1028.477	1209.98
1028.766	1221.73
1029.055	1173.15
1029.344	1166.82
1029.634	1170.66
1029.923	1159.36
1030.212	1172.92
1030.501	1161.17
1030.79	1169.98
1031.078	1151.68
1031.367	1133.6
1031.656	1154.39
1031.945	1112.36
1032.233	1099.48
1032.522	1106.26
1032.81	1072.13
1033.099	1068.07
1033.387	1093.6
1033.675	1065.13
1033.963	1054.73
1034.251	1076.88
1034.54	1051.57
1034.828	1066.03
1035.116	1016.77
1035.403	1016.32
1035.691	1027.84
1035.979	1011.34
1036.267	1031.46
1036.554	1002.98
1036.842	996.88
1037.129	1012.02
1037.417	985.13
1037.704	986.03
1037.992	993.04
1038.279	958.46
1038.566	964.57
1038.853	964.57
1039.14	964.57
