Data from hue_60_FLMS001491_42.txt Node
Date: Mon Feb 06 15:17:26 GMT 2017
User: dcchb
Spectrometer: FLMS00149
Trigger mode: 0
Integration Time (sec): 2.000000E-2
Scans to average: 10
Electric dark correction enabled: true
Nonlinearity correction enabled: false
Boxcar width: 0
XAxis mode: Wavelengths
Number of Pixels in Spectrum: 2048
>>>>>Begin Spectral Data<<<<<
341.393	-26.19
341.776	-26.19
342.16	-26.19
342.543	-79.97
342.927	-74.77
343.31	-53.3
343.693	-80.87
344.077	-71.61
344.46	-61.67
344.843	-53.3
345.226	-34.77
345.61	-44.72
345.993	-25.73
346.376	11.33
346.759	-4.04
347.142	10.42
347.525	34.38
347.908	72.34
348.291	86.58
348.674	93.36
349.057	121.61
349.44	104.66
349.823	155.05
350.206	169.29
350.588	190.53
350.971	201.6
351.354	220.81
351.737	259.68
352.119	253.13
352.502	247.25
352.884	278.21
353.267	291.09
353.65	280.92
354.032	296.29
354.414	301.04
354.797	305.1
355.179	315.95
355.562	328.16
355.944	339.45
356.326	345.78
356.709	355.5
357.091	340.13
357.473	343.52
357.855	329.96
358.238	331.09
358.62	345.1
359.002	339.45
359.384	373.8
359.766	322.73
360.148	348.04
360.53	338.55
360.912	360.47
361.294	324.09
361.676	336.29
362.057	306.69
362.439	321.38
362.821	333.13
363.203	326.12
363.584	313.92
363.966	321.83
364.348	333.58
364.729	306.46
365.111	316.18
365.493	314.37
365.874	308.72
366.256	325.67
366.637	318.21
367.019	333.8
367.4	296.97
367.781	311.66
368.163	312.11
368.544	318.66
368.925	334.03
369.306	329.74
369.688	302.39
370.069	327.7
370.45	295.61
370.831	315.95
371.212	301.94
371.593	336.74
371.974	300.36
372.355	307.36
372.736	330.64
373.117	342.39
373.498	300.36
373.879	336.97
374.26	321.83
374.641	316.4
375.021	323.86
375.402	300.81
375.783	321.15
376.163	310.75
376.544	318.21
376.925	335.84
377.305	313.47
377.686	330.42
378.066	302.39
378.447	320.92
378.827	333.35
379.208	322.28
379.588	340.36
379.968	346.69
380.349	351.88
380.729	334.48
381.109	322.51
381.489	314.6
381.87	346.91
382.25	316.4
382.63	316.63
383.01	331.54
383.39	345.33
383.77	335.16
384.15	322.05
384.53	343.07
384.91	332.45
385.29	322.05
385.67	336.74
386.049	353.92
386.429	345.33
386.809	341.94
387.189	353.69
387.568	343.52
387.948	355.73
388.328	345.56
388.707	347.36
389.087	355.73
389.466	355.5
389.846	336.06
390.225	347.36
390.605	357.76
390.984	355.95
391.363	367.48
391.743	371.54
392.122	362.96
392.501	364.31
392.881	375.16
393.26	356.18
393.639	364.76
394.018	369.28
394.397	361.83
394.776	364.54
395.155	358.21
395.534	348.27
395.913	354.82
396.292	358.21
396.671	375.61
397.05	397.53
397.429	363.41
397.808	376.06
398.186	382.84
398.565	383.07
398.944	367.48
399.323	355.27
399.701	365.44
400.08	367.25
400.458	380.36
400.837	369.28
401.215	383.75
401.594	377.87
401.972	394.14
402.351	372.45
402.729	392.11
403.107	386.23
403.486	411.09
403.864	396.85
404.242	390.75
404.62	385.55
404.999	418.32
405.377	388.94
405.755	379.91
406.133	385.1
406.511	402.05
406.889	397.53
407.267	414.48
407.645	398.21
408.023	418.1
408.401	407.48
408.779	418.32
409.156	423.29
409.534	421.03
409.912	428.72
410.29	417.64
410.667	425.78
411.045	447.25
411.422	434.14
411.8	425.55
412.178	435.05
412.555	443.86
412.933	433.24
413.31	454.03
413.687	438.43
414.065	459.45
414.442	450.41
414.819	454.71
415.197	455.16
415.574	471.43
415.951	460.36
416.328	477.53
416.705	455.38
417.082	449.96
417.46	469.85
417.837	484.08
418.214	492.22
418.591	478.89
418.967	465.78
419.344	472.33
419.721	487.02
420.098	476.17
420.475	475.5
420.852	507.36
421.228	500.81
421.605	493.12
421.982	512.56
422.358	499.9
422.735	500.81
423.111	502.61
423.488	507.36
423.864	534.93
424.241	517.75
424.617	524.53
424.994	520.01
425.37	530.18
425.746	541.48
426.123	517.3
426.499	526.34
426.875	536.06
427.251	519.11
427.627	532.44
428.003	538.77
428.379	552.33
428.756	529.28
429.132	541.93
429.507	539.9
429.883	555.49
430.259	562.5
430.635	562.73
431.011	570.41
431.387	566.79
431.763	575.61
432.138	567.02
432.514	565.66
432.89	588.49
433.265	598.88
433.641	583.29
434.016	611.31
434.392	611.09
434.767	637.98
435.143	635.49
435.518	628.26
435.894	633.91
436.269	624.19
436.644	632.55
437.02	633.23
437.395	649.05
437.77	666
438.145	646.34
438.52	653.8
438.895	684.08
439.271	665.77
439.646	653.8
440.021	667.81
440.395	671.87
440.77	679.56
441.145	675.04
441.52	690.41
441.895	702.83
442.27	695.38
442.645	689.28
443.019	690.18
443.394	697.19
443.769	692.89
444.143	695.6
444.518	732.66
444.892	719.33
445.267	698.54
445.641	713.23
446.016	698.77
446.39	732.66
446.764	739.67
447.139	716.39
447.513	740.8
447.887	720.91
448.262	738.99
448.636	756.84
449.01	738.54
449.384	768.37
449.758	757.52
450.132	762.72
450.506	756.17
450.88	785.32
451.254	762.49
451.628	772.89
452.002	804.07
452.376	797.75
452.75	795.26
453.123	785.77
453.497	826.9
453.871	819.89
454.244	820.12
454.618	831.87
454.992	832.32
455.365	838.42
455.739	853.79
456.112	859.89
456.486	869.61
456.859	875.26
457.232	886.78
457.606	884.07
457.979	901.47
458.352	919.55
458.725	924.75
459.099	920
459.472	944.41
459.845	949.61
460.218	946.22
460.591	951.42
460.964	957.52
461.337	1006.78
461.71	995.48
462.083	1010.4
462.456	1032.77
462.829	993.45
463.201	1034.8
463.574	1031.64
463.947	1093.11
464.32	1091.07
464.692	1092.88
465.065	1082.26
465.438	1114.8
465.81	1164.74
466.183	1155.25
466.555	1147.79
466.928	1190.96
467.3	1196.83
467.672	1242.93
468.045	1223.95
468.417	1248.36
468.789	1285.64
469.161	1264.4
469.534	1305.3
469.906	1329.94
470.278	1370.84
470.65	1350.28
471.022	1407.22
471.394	1452.19
471.766	1460.55
472.138	1484.96
472.51	1511.63
472.882	1552.76
473.253	1568.8
473.625	1629.14
473.997	1671.4
474.369	1681.57
474.74	1721.56
475.112	1759.08
475.484	1786.65
475.855	1842.92
476.227	1897.38
476.598	1942.58
476.97	1997.04
477.341	2048.11
477.713	2049.69
478.084	2116.58
478.455	2212.17
478.827	2236.58
479.198	2371.04
479.569	2401.32
479.94	2466.86
480.311	2517.93
480.682	2598.15
481.053	2740.75
481.424	2765.38
481.795	2828.88
482.166	2942.1
482.537	3018.48
482.908	3111.58
483.279	3159.72
483.65	3260.28
484.021	3366.95
484.391	3448.53
484.762	3548.86
485.133	3604
485.503	3760.16
485.874	3917.21
486.244	4033.14
486.615	4085.34
486.985	4259.13
487.356	4356.98
487.726	4467.93
488.097	4619.34
488.467	4697.31
488.837	4876.51
489.207	4999.67
489.578	5128.25
489.948	5272.43
490.318	5437.85
490.688	5470.62
491.058	5617.28
491.428	5814.79
491.798	5950.15
492.168	6147.21
492.538	6186.53
492.908	6378.39
493.278	6518.5
493.648	6666.29
494.017	6813.41
494.387	6931.15
494.757	7078.94
495.126	7282.77
495.496	7361.42
495.866	7532.71
496.235	7700.62
496.605	7829.88
496.974	7986.26
497.344	8156.88
497.713	8246.37
498.082	8440.94
498.452	8604.77
498.821	8682.96
499.19	8777.2
499.559	9036.63
499.928	9180.35
500.298	9362.27
500.667	9514.58
501.036	9527.24
501.405	9717.06
501.774	9783.05
502.143	9956.15
502.512	10102.81
502.88	10308.01
503.249	10392.75
503.618	10464.84
503.987	10611.27
504.356	10754.32
504.724	10937.82
505.093	11024.6
505.462	11066.18
505.83	11285.83
506.199	11431.59
506.567	11654.86
506.936	11676.56
507.304	11868.64
507.672	11970.11
508.041	12131.46
508.409	12287.39
508.777	12411.68
509.145	12504.78
509.514	12622.52
509.882	12707.49
510.25	12857.09
510.618	13001.04
510.986	13120.81
511.354	13303.63
511.722	13456.85
512.09	13538.66
512.458	13626.79
512.826	13814.13
513.193	13924.86
513.561	14018.19
513.929	14170.5
514.297	14331.18
514.664	14486.2
515.032	14503.83
515.4	14697.49
515.767	14763.71
516.135	14949.47
516.502	14929.58
516.869	15284.15
517.237	15356.01
517.604	15287.08
517.972	15569.56
518.339	15673.06
518.706	15758.94
519.073	15895.43
519.44	16033.5
519.808	16201.86
520.175	16263.78
520.542	16434.85
520.909	16618.57
521.276	16668.29
521.643	16893.14
522.009	16951.67
522.376	17045.46
522.743	17152.8
523.11	17484.99
523.477	17601.15
523.843	17680.92
524.21	17887.47
524.577	18033.68
524.943	18144.41
525.31	18267.34
525.676	18493.1
526.043	18530.39
526.409	18629.82
526.776	18851.06
527.142	18889.93
527.508	19088.57
527.874	19282.69
528.241	19383.93
528.607	19403.81
528.973	19643.35
529.339	19697.14
529.705	19836.79
530.071	19957.02
530.437	20061.2
530.803	20223
531.169	20378.25
531.535	20334.63
531.901	20458.02
532.267	20539.38
532.632	20740.27
532.998	20876.09
533.364	21010.78
533.73	21013.94
534.095	21156.53
534.461	21291.22
534.826	21310.65
535.192	21434.27
535.557	21629.29
535.923	21635.17
536.288	21691.66
536.653	21822.96
537.019	21780.7
537.384	21921.71
537.749	22018.88
538.114	22077.19
538.479	22177.3
538.845	22327.35
539.21	22229.5
539.575	22374.58
539.94	22389.95
540.305	22643.73
540.67	22607.57
541.034	22638.08
541.399	22769.15
541.764	22824.96
542.129	22956.49
542.494	22980.44
542.858	23133.66
543.223	23130.04
543.587	23307.89
543.952	23267.67
544.316	23308.57
544.681	23499.75
545.045	23396.02
545.41	23632.85
545.774	23638.5
546.138	23710.59
546.503	23788.1
546.867	23777.26
547.231	24010.7
547.595	24014.99
547.959	24236.91
548.324	24168.66
548.688	24210.69
549.052	24297.24
549.416	24424.47
549.779	24431.93
550.143	24487.75
550.507	24587.63
550.871	24736.55
551.235	24677.35
551.599	24925.25
551.962	25134.96
552.326	25053.38
552.689	25295.41
553.053	25265.8
553.417	25197.78
553.78	25595.74
554.143	25475.52
554.507	25536.31
554.87	25671.67
555.234	25879.12
555.597	25777.43
555.96	25946.46
556.323	26029.4
556.686	26148.49
557.05	26252.22
557.413	26341.93
557.776	26380.13
558.139	26542.83
558.502	26656.05
558.865	26786.22
559.228	26992.09
559.59	27023.05
559.953	27034.12
560.316	27418.06
560.679	27264.4
561.041	27539.42
561.404	27650.15
561.767	27776.7
562.129	27679.3
562.492	28068.44
562.854	28075.22
563.217	28059.86
563.579	28284.71
563.941	28444.48
564.304	28561.31
564.666	28812.83
565.028	28706.84
565.39	28804.92
565.753	29074.74
566.115	29092.6
566.477	29206.94
566.839	29355.41
567.201	29506.6
567.563	29408.07
567.925	29680.83
568.287	29743.65
568.648	29904.78
569.01	30015.96
569.372	30252.57
569.734	30061.38
570.095	30343.86
570.457	30503.86
570.819	30448.27
571.18	30497.76
571.542	30678.77
571.903	30771.2
572.265	30794.02
572.626	30995.15
572.987	31077.86
573.349	31148.59
573.71	31245.08
574.071	31413.21
574.432	31434.91
574.794	31630.38
575.155	31656.15
575.516	31591.97
575.877	31652.53
576.238	31816.37
576.599	31899.3
576.96	31951.96
577.32	31966.19
577.681	32190.14
578.042	32178.39
578.403	32226.53
578.763	32258.16
579.124	32355.11
579.485	32488.67
579.845	32515.11
580.206	32518.72
580.566	32374.32
580.927	32594.2
581.287	32641.66
581.648	32609.34
582.008	32790.13
582.368	32620.87
582.728	32874.87
583.089	32728.43
583.449	32660.19
583.809	32875.55
584.169	32925.04
584.529	32739.05
584.889	33081.42
585.249	32866.73
585.609	32851.82
585.969	33028.31
586.329	32877.81
586.688	33028.99
587.048	32986.73
587.408	32881.42
587.768	32927.75
588.127	33003.45
588.487	33049.55
588.846	33077.58
589.206	32946.05
589.565	33042.32
589.925	33208.87
590.284	33115.54
590.643	33194.86
591.003	33301.07
591.362	33327.06
591.721	33241.41
592.08	33250.23
592.44	33289.32
592.799	33295.65
593.158	33351.02
593.517	33318.7
593.876	33361.64
594.235	33410.9
594.593	33545.81
594.952	33503.33
595.311	33367.74
595.67	33505.14
596.029	33675.98
596.387	33644.34
596.746	33651.35
597.104	33611.8
597.463	33590.56
597.822	33828.07
598.18	33695.87
598.538	33512.59
598.897	33911.45
599.255	33592.37
599.613	34160.94
599.972	33927.5
600.33	34094.72
600.688	33826.94
601.046	34139.7
601.404	34235.06
601.762	34064.67
602.12	34365.9
602.478	34238
602.836	34234.38
603.194	34101.96
603.552	34233.7
603.91	34058.34
604.268	34348.5
604.625	34242.97
604.983	34523.41
605.341	34350.31
605.698	34451.1
606.056	34516.18
606.413	34629.4
606.771	34680.47
607.128	34729.51
607.485	34553.47
607.843	34682.28
608.2	34826.91
608.557	34943.29
608.914	34846.8
609.272	35032.55
609.629	35132.21
609.986	35139.22
610.343	35141.03
610.7	35467.34
611.057	35400.23
611.414	35334.01
611.771	35461.92
612.127	35507.12
612.484	35571.75
612.841	35556.61
613.198	35465.31
613.554	35700.56
613.911	35806.09
614.267	35732.2
614.624	35783.27
614.98	35932.19
615.337	35967.9
615.693	35991.85
616.05	35971.29
616.406	36143.03
616.762	35985.07
617.118	36038.85
617.475	36011.74
617.831	36217.38
618.187	36184.39
618.543	36244.72
618.899	36571.5
619.255	36425.74
619.611	36455.57
619.967	36599.07
620.323	36571.27
620.678	36596.35
621.034	36431.39
621.39	36528.79
621.746	36484.04
622.101	37092.16
622.457	36607.88
622.812	36796.35
623.168	36929.9
623.523	36818.27
623.879	37072.73
624.234	36848.55
624.589	36760.64
624.945	36995.89
625.3	37030.24
625.655	37017.81
626.01	36992.5
626.365	37003.12
626.72	37037.47
627.075	36943.24
627.43	37117.47
627.785	36899.85
628.14	37070.24
628.495	36992.73
628.85	37183.68
629.205	36820.76
629.559	37178.49
629.914	36969.45
630.269	37100.07
630.623	37041.77
630.978	36931.03
631.332	37060.52
631.687	37041.99
632.041	36866.86
632.396	36984.14
632.75	36893.52
633.104	37016.91
633.459	36954.08
633.813	36799.74
634.167	36753.41
634.521	36803.35
634.875	36926.51
635.229	36817.14
635.583	36731.94
635.937	36744.82
636.291	36550.93
636.645	36651.72
636.999	36667.54
637.352	36738.5
637.706	36508.45
638.06	36625.96
638.413	36472.52
638.767	36536.92
639.121	36539.86
639.474	36301.67
639.828	36522.01
640.181	36451.05
640.534	36530.82
640.888	36354.33
641.241	36128.12
641.594	36212.64
641.947	36343.03
642.301	36236.59
642.654	36298.06
643.007	36287.44
643.36	36193.43
643.713	36131.51
644.066	36216.48
644.419	36110.94
644.771	35858.52
645.124	35571.07
645.477	35406.55
645.83	35195.04
646.182	35311.42
646.535	35225.77
646.888	35135.15
647.24	34941.03
647.593	35074.81
647.945	34967.92
648.298	34883.18
648.65	34763.86
649.002	34650.64
649.355	34882.27
649.707	34780.13
650.059	34974.02
650.411	35138.54
650.763	35318.42
651.115	35763.38
651.467	35673.44
651.819	35606.78
652.171	35617.4
652.523	35506.44
652.875	35418.76
653.227	35355.26
653.578	35574.23
653.93	35302.83
654.282	35345.09
654.633	35285.65
654.985	35342.15
655.337	35376.73
655.688	35290.85
656.039	35480.68
656.391	35065.32
656.742	35157.52
657.094	35186.45
657.445	35243.4
657.796	35218.76
658.147	35088.37
658.498	35120.46
658.849	35145.54
659.2	35202.49
659.551	35083.4
659.902	35153
660.253	35146.9
660.604	35204.53
660.955	35153.45
661.306	35103.74
661.656	35042.95
662.007	35076.39
662.358	34986.9
662.708	35146.67
663.059	34999.79
663.409	34742.39
663.76	35117.07
664.11	34989.39
664.461	35088.82
664.811	35063.97
665.161	35130.86
665.511	34934.48
665.862	34939.67
666.212	35067.58
666.562	35115.04
666.912	34919.56
667.262	34870.52
667.612	34941.26
667.962	34932.44
668.312	34874.59
668.662	34983.06
669.011	34939.45
669.361	34640.25
669.711	34880.24
670.06	34819.23
670.41	34712.11
670.76	34756.85
671.109	34783.75
671.459	34807.02
671.808	34795.5
672.157	34805.21
672.507	34567.48
672.856	34521.15
673.205	34555.73
673.554	34658.1
673.904	34560.93
674.253	34752.33
674.602	34666.46
674.951	34214.27
675.3	33880.95
675.649	34587.82
675.998	34522.96
676.346	34489.29
676.695	34676.4
677.044	34382.63
677.393	34431.89
677.741	34512.57
678.09	34384.66
678.438	34263.08
678.787	34410.65
679.135	34299.69
679.484	34152.12
679.832	34381.27
680.181	34168.62
680.529	34208.85
680.877	34071
681.225	34090.66
681.573	34284.78
681.922	33885.24
682.27	33826.71
682.618	33877.56
682.966	33734.73
683.314	33769.08
683.661	33778.12
684.009	33624
684.357	33579.26
684.705	33533.38
685.053	33507.4
685.4	33608.41
685.748	33403.67
686.095	33293.39
686.443	33259.49
686.79	33172.49
687.138	33284.35
687.485	33171.13
687.832	33161.64
688.18	33092.72
688.527	32954.87
688.874	32902.89
689.221	32838.94
689.568	32920.29
689.915	32823.57
690.262	32761.65
690.609	32607.08
690.956	32468.55
691.303	32540.64
691.65	32309.69
691.997	32354.43
692.344	32064.5
692.69	32292.51
693.037	32149.92
693.383	31853.65
693.73	32040.09
694.077	31839.64
694.423	31792.86
694.769	31753.32
695.116	31645.98
695.462	31689.59
695.808	31558.52
696.155	31641
696.501	31417.73
696.847	31322.37
697.193	31119.89
697.539	31201.69
697.885	30976.84
698.231	30915.83
698.577	30793.12
698.923	30735.49
699.269	30735.94
699.614	30517.42
699.96	30559.9
700.306	30472.9
700.651	30299.57
700.997	30215.05
701.342	30283.75
701.688	30125.56
702.033	30117.43
702.379	30149.07
702.724	29994.95
703.069	30005.34
703.415	29680.15
703.76	29629.08
704.105	29735.07
704.45	29643.32
704.795	29401.74
705.14	29501.63
705.485	29448.97
705.83	29265.93
706.175	29377.33
706.52	29124.69
706.865	29070.45
707.209	29028.42
707.554	28969.44
707.899	29025.25
708.243	28794.3
708.588	28699.84
708.932	28617.81
709.277	28604.47
709.621	28693.06
709.966	28418.72
710.31	28573.29
710.654	28141.21
710.998	28219.63
711.342	28308.21
711.687	28129.01
712.031	28112.06
712.375	28042.23
712.719	28043.36
713.063	27987.09
713.407	28070.02
713.75	27858.28
714.094	27884.72
714.438	27767.66
714.782	27758.85
715.125	27646.53
715.469	27780.09
715.812	27596.59
716.156	27427.78
716.499	27473.88
716.843	27518.85
717.186	27261.68
717.53	27416.93
717.873	27470.94
718.216	27332.64
718.559	27182.36
718.902	26943.73
719.246	27108.92
719.589	26982.82
719.932	26910.28
720.275	26875.93
720.617	26864.63
720.96	26727.69
721.303	26772.88
721.646	26837.51
721.989	26605.43
722.331	26752.77
722.674	26538.09
723.016	26621.93
723.359	26484.76
723.701	26684.98
724.044	26315.04
724.386	26247.93
724.729	26364.76
725.071	26297.19
725.413	26292.67
725.755	26188.27
726.097	26126.8
726.439	26050.64
726.782	26002.06
727.124	26097.65
727.465	25932.91
727.807	25924.54
728.149	25877.99
728.491	25915.73
728.833	25847.03
729.175	25726.81
729.516	25694.04
729.858	25664.21
730.199	25722.06
730.541	25636.19
730.882	25728.62
731.224	25714.15
731.565	25515.74
731.906	25560.94
732.248	25569.75
732.589	25329.31
732.93	25298.8
733.271	25336.09
733.612	25194.39
733.953	25241.62
734.294	25139.25
734.635	25154.4
734.976	25266.03
735.317	24956.43
735.658	25058.8
735.999	25027.17
736.339	24993.95
736.68	24984
737.021	24985.81
737.361	24943.33
737.702	24934.74
738.042	24828.75
738.383	24859.26
738.723	24918.02
739.063	24693.39
739.404	24758.25
739.744	24635.54
740.084	24637.8
740.424	24603.68
740.764	24509.67
741.104	24590.79
741.444	24500.85
741.784	24398.71
742.124	24485.49
742.464	24387.18
742.804	24264.93
743.143	24160.97
743.483	24293.85
743.823	24148.09
744.162	24199.84
744.502	24133.4
744.841	24129.11
745.181	24050.02
745.52	24099.06
745.86	24034.2
746.199	24072.62
746.538	23963.92
746.877	24055.67
747.216	23885.05
747.556	23797.37
747.895	23930.25
748.234	23707.65
748.573	23807.31
748.911	23646.19
749.25	23760.08
749.589	23580.88
749.928	23713.98
750.267	23565.96
750.605	23495.91
750.944	23485.29
751.283	23494.33
751.621	23393.76
751.96	23263.15
752.298	23288
752.636	23361.45
752.975	23211.17
753.313	23124.39
753.651	23281.68
753.989	23170.49
754.327	23008.46
754.666	22943.61
755.004	22911.29
755.342	22971.85
755.679	22912.65
756.017	22685.99
756.355	22778.86
756.693	22727.11
757.031	22756.49
757.368	22573.9
757.706	22574.12
758.044	22427.01
758.381	22504.3
758.719	22448.03
759.056	22377.29
759.394	22213
759.731	22175.94
760.068	22121.25
760.405	22118.32
760.743	21897.31
761.08	22034.03
761.417	21855.27
761.754	21858.21
762.091	21834.48
762.428	21677.88
762.765	21517.65
763.102	21692.34
763.438	21385.45
763.775	21470.65
764.112	21460.93
764.449	21489.63
764.785	21310.88
765.122	21140.49
765.458	21011
765.795	21080.6
766.131	21010.1
766.467	21022.3
766.804	20840.38
767.14	20789.99
767.476	20760.84
767.812	20640.62
768.148	20650.56
768.485	20491.24
768.821	20438.36
769.157	20422.77
769.492	20317.46
769.828	20324.69
770.164	20153.4
770.5	20108.2
770.836	20135.09
771.171	20021.2
771.507	19972.38
771.842	19840.64
772.178	19739.4
772.513	19769.9
772.849	19696.69
773.184	19608.33
773.519	19582.56
773.855	19460.31
774.19	19438.39
774.525	19310.25
774.86	19399.07
775.195	19257.38
775.53	19162.69
775.865	19096.25
776.2	19005.4
776.535	18749.37
776.87	18918.17
777.205	18835.01
777.539	18713.21
777.874	18820.78
778.209	18530.39
778.543	18478.41
778.878	18401.58
779.212	18368.13
779.547	18326.55
779.881	18356.16
780.215	18200.91
780.55	18064.19
780.884	18122.26
781.218	18076.84
781.552	18059.67
781.886	17868.26
782.22	17819.45
782.554	17691.09
782.888	17575.39
783.222	17505.56
783.556	17478.21
783.889	17461.04
784.223	17306.69
784.557	17240.25
784.89	17306.24
785.224	17175.4
785.557	17123.19
785.891	17151.44
786.224	17049.3
786.558	17037.32
786.891	16829.42
787.224	16903.31
787.557	16832.13
787.891	16767.27
788.224	16710.78
788.557	16646.14
788.89	16712.81
789.223	16594.85
789.556	16524.11
789.888	16412.48
790.221	16430.78
790.554	16252.93
790.887	16327.73
791.219	16210.22
791.552	16208.87
791.884	16061.75
792.217	16009.32
792.549	15966.84
792.882	15784.47
793.214	15769.78
793.546	15793.06
793.879	15716.23
794.211	15613.4
794.543	15657.02
794.875	15631.71
795.207	15525.27
795.539	15477.14
795.871	15448.44
796.203	15315.11
796.535	15352.62
796.867	15252.06
797.198	15158.73
797.53	15241.66
797.862	15000.76
798.193	15098.61
798.525	15013.87
798.856	14983.82
799.188	14876.7
799.519	14792.18
799.85	14732.52
800.182	14820.2
800.513	14717.83
800.844	14704.5
801.175	14758.96
801.506	14656.37
801.837	14529.82
802.168	14524.84
802.499	14391.06
802.83	14397.84
803.161	14429.71
803.491	14403.72
803.822	14278.3
804.153	14210.95
804.483	14067.91
804.814	14209.15
805.145	14118.98
805.475	14066.55
805.805	14077.85
806.136	14006.21
806.466	14098.64
806.796	13974.12
807.126	13857.29
807.457	13741.14
807.787	13837.63
808.117	13670.18
808.447	13707.01
808.777	13756.05
809.107	13716.05
809.436	13605.55
809.766	13690.97
810.096	13567.13
810.426	13548.82
810.755	13523.74
811.085	13511.76
811.414	13507.02
811.744	13306.35
812.073	13316.29
812.403	13311.09
812.732	13192
813.061	13265.44
813.39	13133.47
813.719	13191.55
814.049	13170.98
814.378	13134.82
814.707	13096.63
815.036	13094.83
815.365	12971.44
815.693	12846.47
816.022	12916.98
816.351	12928.28
816.68	12777.32
817.008	12841.27
817.337	12614.16
817.665	12705.91
817.994	12697.55
818.322	12685.12
818.651	12668.4
818.979	12599.92
819.307	12674.27
819.636	12563.99
819.964	12531.68
820.292	12561.73
820.62	12544.33
820.948	12453.03
821.276	12481.96
821.604	12458.01
821.932	12538
822.259	12432.02
822.587	12372.81
822.915	12366.48
823.243	12428.85
823.57	12438.35
823.898	12382.08
824.225	12383.21
824.553	12283.1
824.88	12410.1
825.207	12487.38
825.535	12405.13
825.862	12453.94
826.189	12227.96
826.516	12428.18
826.843	12413.26
827.17	12349.53
827.497	12448.06
827.824	12465.92
828.151	12413.71
828.478	12375.97
828.805	12537.55
829.131	12311.12
829.458	12325.35
829.785	12295.07
830.111	12369.65
830.438	12367.61
830.764	12331
831.09	12350.21
831.417	12299.82
831.743	12380.04
832.069	12382.08
832.395	12215.07
832.722	12301.63
833.048	12214.4
833.374	12222.98
833.7	12232.47
834.026	12238.8
834.351	12215.3
834.677	12240.61
835.003	12280.16
835.329	12144.34
835.654	12158.58
835.98	12167.62
836.306	12125.36
836.631	12132.59
836.956	12128.75
837.282	12205.13
837.607	12089.43
837.932	12081.74
838.258	12038.58
838.583	12038.58
838.908	11991.8
839.233	11969.21
839.558	11948.87
839.883	11881.52
840.208	11983.89
840.533	11896.89
840.858	11905.25
841.182	11855.99
841.507	11830.68
841.832	11772.83
842.156	11730.57
842.481	11772.83
842.805	11711.58
843.13	11703.68
843.454	11669.33
843.778	11618.48
844.103	11606.95
844.427	11600.85
844.751	11584.58
845.075	11565.37
845.399	11523.57
845.723	11423.23
846.047	11477.24
846.371	11340.97
846.695	11392.95
847.019	11276.12
847.343	11221.2
847.666	11149.11
847.99	11150.7
848.313	11044.71
848.637	11065.27
848.96	11011.72
849.284	11032.73
849.607	10924.94
849.931	10823.47
850.254	10792.29
850.577	10741.44
850.9	10755.45
851.223	10693.98
851.546	10688.33
851.869	10577.83
852.192	10644.72
852.515	10565.63
852.838	10490.15
853.161	10454.44
853.483	10458.06
853.806	10415.57
854.129	10358.63
854.451	10279.08
854.774	10268.01
855.096	10250.38
855.419	10178.97
855.741	10202.02
856.063	10073.21
856.385	10116.15
856.708	10101.23
857.03	10105.75
857.352	10056.71
857.674	10033.66
857.996	10010.39
858.318	9882.48
858.64	9980.1
858.961	9878.64
859.283	9792.77
859.605	9881.58
859.926	9885.87
860.248	9774.23
860.57	9776.95
860.891	9776.04
861.212	9649.49
861.534	9731.3
861.855	9628.93
862.176	9698.98
862.498	9653.33
862.819	9637.29
863.14	9608.36
863.461	9563.62
863.782	9535.6
864.103	9619.66
864.424	9537.18
864.745	9479.78
865.065	9447.01
865.386	9448.14
865.707	9449.95
866.027	9422.38
866.348	9425.09
866.668	9394.58
866.989	9395.04
867.309	9219.22
867.63	9300.35
867.95	9357.07
868.27	9226
868.59	9224.19
868.91	9284.08
869.23	9301.25
869.55	9155.72
869.87	9227.58
870.19	9207.7
870.51	9239.33
870.83	9227.81
871.15	9207.92
871.469	9121.82
871.789	9173.35
872.109	9114.82
872.428	9069.62
872.748	9122.05
873.067	9102.39
873.386	9089.05
873.706	9012.9
874.025	9012.45
874.344	9006.12
874.663	9008.83
874.982	8967.48
875.301	9001.37
875.62	8936.97
875.939	8926.12
876.258	8864.65
876.577	8857.42
876.896	8875.73
877.214	8870.3
877.533	8853.13
877.852	8830.76
878.17	8829.85
878.489	8777.65
878.807	8833.02
879.125	8765
879.444	8788.27
879.762	8737.65
880.08	8725
880.398	8709.86
880.716	8798.67
881.034	8736.52
881.352	8696.97
881.67	8694.94
881.988	8680.7
882.306	8625.56
882.624	8510.99
882.941	8540.59
883.259	8551.89
883.577	8609.97
883.894	8578.56
884.212	8504.89
884.529	8569.07
884.846	8461.05
885.164	8395.51
885.481	8349.64
885.798	8425.57
886.115	8350.77
886.432	8384.67
886.75	8360.03
887.067	8340.37
887.383	8321.84
887.7	8257.89
888.017	8253.6
888.334	8215.63
888.651	8233.71
888.967	8217.89
889.284	8163.43
889.6	8160.27
889.917	8065.8
890.233	8144.45
890.55	8044.56
890.866	8059.48
891.182	8029.65
891.498	8012.7
891.815	8040.04
892.131	7964.56
892.447	7939.93
892.763	7898.8
893.079	7840.27
893.395	7871.69
893.71	7855.64
894.026	7849.31
894.342	7830.78
894.657	7764.34
894.973	7748.53
895.289	7731.8
895.604	7715.31
895.92	7689.77
896.235	7655.19
896.55	7657
896.865	7681.41
897.181	7560.51
897.496	7562.77
897.811	7546.95
898.126	7536.55
898.441	7457.69
898.756	7426.73
899.071	7357.12
899.386	7423.56
899.7	7365.48
900.015	7294.3
900.33	7275.77
900.644	7292.72
900.959	7287.52
901.273	7213.62
901.588	7258.14
901.902	7149.67
902.216	7102.21
902.531	7154.42
902.845	7094.53
903.159	7069.9
903.473	7042.1
903.787	7010.69
904.101	6925.72
904.415	6997.58
904.729	6960.52
905.042	6930.47
905.356	6899.96
905.67	6898.38
905.984	6827.87
906.297	6864.71
906.611	6783.35
906.924	6764.6
907.237	6767.76
907.551	6695.9
907.864	6724.82
908.177	6721.43
908.491	6710.59
908.804	6608.22
909.117	6621.55
909.43	6554.21
909.743	6538.16
910.056	6547.88
910.368	6497.71
910.681	6485.06
910.994	6459.07
911.307	6423.14
911.619	6410.26
911.932	6398.28
912.244	6342.46
912.557	6333.2
912.869	6273.76
913.181	6287.77
913.494	6208.9
913.806	6261.56
914.118	6198.06
914.43	6149.7
914.742	6113.31
915.054	6132.52
915.366	6079.19
915.678	6066.31
915.99	6009.81
916.302	6031.96
916.613	5933.43
916.925	6023.82
917.236	5927.1
917.548	5901.57
917.859	5901.57
918.171	5841.23
918.482	5816.6
918.794	5844.62
919.105	5840.55
919.416	5805.3
919.727	5738.41
920.038	5713.32
920.349	5683.95
920.66	5663.16
920.971	5651.18
921.282	5640.11
921.593	5592.65
921.903	5570.5
922.214	5556.94
922.525	5523.95
922.835	5531.86
923.146	5464.97
923.456	5477.4
923.767	5438.08
924.077	5443.5
924.387	5431.52
924.697	5444.18
925.008	5375.71
925.318	5383.39
925.628	5354.01
925.938	5263.39
926.248	5308.82
926.558	5248.25
926.867	5154.47
927.177	5187.01
927.487	5171.64
927.796	5138.2
928.106	5144.3
928.416	5057.97
928.725	5099.78
929.034	5089.61
929.344	5114.02
929.653	5045.55
929.962	5008.03
930.271	4997.41
930.581	5004.42
930.89	4935.27
931.199	4881.03
931.508	4921.25
931.817	4868.15
932.125	4893.68
932.434	4821.37
932.743	4802.84
933.051	4809.39
933.36	4795.38
933.669	4753.35
933.977	4733.24
934.286	4689.4
934.594	4681.94
934.902	4673.58
935.21	4678.55
935.519	4657.98
935.827	4566.24
936.135	4596.97
936.443	4553.58
936.751	4579.12
937.059	4530.53
937.367	4476.75
937.674	4518.33
937.982	4496.86
938.29	4461.38
938.597	4487.82
938.905	4413.02
939.213	4427.93
939.52	4394.71
939.827	4396.97
940.135	4381.61
940.442	4305.23
940.749	4323.76
941.056	4300.25
941.363	4282.4
941.67	4273.81
941.977	4218.22
942.284	4176.64
942.591	4202.63
942.898	4191.33
943.205	4191.1
943.511	4138
943.818	4141.84
944.125	4130.54
944.431	4112.69
944.738	4088.28
945.044	4031.56
945.35	4130.77
945.657	4051.22
945.963	4037.44
946.269	3952.47
946.575	3988.85
946.881	3963.99
947.187	3955.18
947.493	3901.39
947.799	3915.86
948.105	3893.49
948.41	3887.16
948.716	3860.04
949.022	3862.07
949.327	3852.36
949.633	3802.19
949.938	3781.17
950.244	3803.32
950.549	3753.38
950.854	3738.69
951.16	3743.21
951.465	3751.57
951.77	3715.64
952.075	3673.6
952.38	3664.11
952.685	3633.83
952.99	3631.35
953.294	3657.79
953.599	3576.66
953.904	3586.83
954.209	3590.22
954.513	3543.66
954.818	3571.23
955.122	3535.08
955.426	3542.31
955.731	3537.34
956.035	3484.23
956.339	3466.6
956.643	3470.67
956.948	3434.74
957.252	3393.84
957.556	3421.86
957.86	3390.22
958.163	3358.13
958.467	3321.52
958.771	3372.59
959.075	3359.26
959.378	3351.35
959.682	3325.82
959.985	3297.12
960.289	3277.91
960.592	3292.37
960.896	3247.17
961.199	3245.59
961.502	3250.34
961.805	3177.8
962.108	3172.37
962.411	3190.45
962.714	3164.01
963.017	3183
963.32	3167.63
963.623	3106.61
963.926	3124.01
964.228	3130.34
964.531	3127.4
964.833	3081.08
965.136	3052.15
965.438	3036.78
965.741	3024.81
966.043	3008.31
966.345	3034.75
966.648	2999.95
966.95	2982.77
967.252	2967.18
967.554	2943.91
967.856	2979.16
968.158	2935.54
968.46	2891.93
968.761	2896.68
969.063	2931.7
969.365	2901.42
969.666	2846.73
969.968	2859.84
970.269	2872.27
970.571	2848.09
970.872	2837.24
971.174	2826.62
971.475	2802.21
971.776	2812.61
972.077	2811.48
972.378	2766.28
972.679	2769.22
972.98	2730.58
973.281	2751.59
973.582	2734.19
973.883	2719.73
974.183	2714.99
974.484	2704.14
974.785	2679.28
975.085	2687.87
975.386	2689.45
975.686	2674.08
975.986	2620.07
976.287	2646.96
976.587	2600.64
976.887	2611.26
977.187	2603.35
977.487	2565.84
977.787	2570.36
978.087	2562.9
978.387	2555.22
978.687	2510.92
978.987	2536.68
979.286	2515.67
979.586	2477.7
979.885	2500.08
980.185	2495.1
980.484	2507.53
980.784	2460.98
981.083	2445.39
981.382	2469.79
981.682	2428.89
981.981	2436.35
982.28	2385.28
982.579	2392.73
982.878	2400.87
983.177	2373.53
983.475	2376.24
983.774	2375.33
984.073	2350.7
984.372	2275.45
984.67	2318.39
984.969	2286.75
985.267	2282.23
985.566	2307.31
985.864	2282.68
986.162	2253.75
986.461	2259.86
986.759	2260.53
987.057	2217.82
987.355	2220.76
987.653	2212.85
987.951	2223.47
988.249	2203.81
988.547	2186.19
988.844	2159.52
989.142	2200.65
989.44	2170.14
989.737	2175.34
990.035	2170.59
990.332	2110.03
990.63	2106.87
990.927	2117.49
991.224	2117.03
991.521	2083.36
991.819	2074.1
992.116	2070.26
992.413	2072.74
992.71	2061.89
993.006	2046.53
993.303	2045.62
993.6	2035
993.897	2004.27
994.193	2043.14
994.49	1986.19
994.787	1951.39
995.083	1987.77
995.379	1969.92
995.676	2011.27
995.972	1961.78
996.268	1926.31
996.565	1934.21
996.861	1926.31
997.157	1940.54
997.453	1907.1
997.749	1902.13
998.044	1868.45
998.34	1883.37
998.636	1880.43
998.932	1870.04
999.227	1849.47
999.523	1830.26
999.818	1846.76
1000.114	1825.29
1000.409	1809.47
1000.704	1839.3
1001	1811.05
1001.295	1806.08
1001.59	1772.41
1001.885	1771.73
1002.18	1754.33
1002.475	1738.51
1002.77	1758.4
1003.065	1726.76
1003.359	1747.55
1003.654	1719.08
1003.949	1716.14
1004.243	1706.88
1004.538	1709.14
1004.832	1706.42
1005.127	1667.78
1005.421	1666.65
1005.715	1643.83
1006.009	1661.91
1006.304	1640.44
1006.598	1663.49
1006.892	1629.36
1007.186	1595.69
1007.48	1604.73
1007.773	1588.46
1008.067	1608.12
1008.361	1616.26
1008.655	1538.29
1008.948	1548.91
1009.242	1562.7
1009.535	1593.66
1009.829	1540.78
1010.122	1513.66
1010.415	1508.92
1010.708	1495.13
1011.001	1501.01
1011.295	1492.19
1011.588	1490.38
1011.881	1462.59
1012.173	1457.84
1012.466	1457.17
1012.759	1454
1013.052	1461.46
1013.344	1478.41
1013.637	1440.44
1013.93	1419.65
1014.222	1429.37
1014.514	1413.55
1014.807	1412.65
1015.099	1381.23
1015.391	1395.7
1015.683	1380.56
1015.976	1406.77
1016.268	1356.83
1016.56	1372.42
1016.851	1332.2
1017.143	1347.34
1017.435	1360.44
1017.727	1315.25
1018.018	1322.71
1018.31	1317.06
1018.602	1310.28
1018.893	1286.1
1019.185	1276.83
1019.476	1280.45
1019.767	1289.49
1020.058	1266.44
1020.35	1243.16
1020.641	1224.18
1020.932	1239.54
1021.223	1210.62
1021.514	1217.4
1021.804	1206.1
1022.095	1225.76
1022.386	1202.48
1022.677	1184.63
1022.967	1186.44
1023.258	1156.61
1023.548	1187.34
1023.839	1151.41
1024.129	1173.56
1024.419	1169.94
1024.709	1127.23
1025	1113.22
1025.29	1103.73
1025.58	1171.52
1025.87	1094.69
1026.16	1103.05
1026.449	1095.14
1026.739	1079.1
1027.029	1076.84
1027.319	1089.04
1027.608	1099.66
1027.898	1053.56
1028.187	1078.87
1028.477	1050.62
1028.766	1055.82
1029.055	1030.74
1029.344	1052.66
1029.634	1055.14
1029.923	1012.88
1030.212	1019.44
1030.501	985.54
1030.79	1011.3
1031.078	1003.62
1031.367	1015.37
1031.656	1012.66
1031.945	982.15
1032.233	977.63
1032.522	963.84
1032.81	956.39
1033.099	960.23
1033.387	955.03
1033.675	963.39
1033.963	951.19
1034.251	917.29
1034.54	922.72
1034.828	928.14
1035.116	922.04
1035.403	913.68
1035.691	895.15
1035.979	889.72
1036.267	901.02
1036.554	876.16
1036.842	885.43
1037.129	876.16
1037.417	898.99
1037.704	866.45
1037.992	867.35
1038.279	818.76
1038.566	845.88
1038.853	845.88
1039.14	845.88
