Data from hue_220_FLMS001491_00013.txt Node
Date: Tue Feb 07 16:38:35 GMT 2017
User: dcchb
Spectrometer: FLMS00149
Trigger mode: 0
Integration Time (sec): 2.000000E-2
Scans to average: 10
Electric dark correction enabled: true
Nonlinearity correction enabled: false
Boxcar width: 0
XAxis mode: Wavelengths
Number of Pixels in Spectrum: 2048
>>>>>Begin Spectral Data<<<<<
341.393	-21.3
341.776	-21.3
342.16	-21.3
342.543	-71.69
342.927	-84.12
343.31	-81.41
343.693	-65.14
344.077	-81.41
344.46	-41.19
344.843	-66.72
345.226	-20.17
345.61	-22.2
345.993	-15.42
346.376	-10.68
346.759	-0.96
347.142	43.78
347.525	55.08
347.908	52.6
348.291	71.81
348.674	83.56
349.057	98.47
349.44	121.52
349.823	140.96
350.206	165.59
350.588	188.87
350.971	202.88
351.354	220.28
351.737	248.75
352.119	238.13
352.502	266.83
352.884	250.11
353.267	275.64
353.65	284.23
354.032	294.4
354.414	285.59
354.797	299.37
355.179	317.45
355.562	314.74
355.944	325.81
356.326	324.45
356.709	336.88
357.091	330.56
357.473	336.66
357.855	327.84
358.238	325.13
358.62	347.96
359.002	345.02
359.384	340.5
359.766	354.06
360.148	310.9
360.53	337.34
360.912	329.65
361.294	345.47
361.676	340.5
362.057	318.13
362.439	339.6
362.821	322.42
363.203	320.84
363.584	283.1
363.966	320.39
364.348	323.1
364.729	309.09
365.111	335.53
365.493	319.48
365.874	326.04
366.256	313.83
366.637	322.87
367.019	309.31
367.4	319.26
367.781	304.34
368.163	303.21
368.544	318.13
368.925	325.13
369.306	326.94
369.688	295.53
370.069	314.74
370.45	294.63
370.831	292.59
371.212	321.97
371.593	309.31
371.974	324.68
372.355	288.75
372.736	311.12
373.117	319.03
373.498	302.31
373.879	295.3
374.26	315.42
374.641	321.97
375.021	307.73
375.402	301.63
375.783	328.3
376.163	312.48
376.544	315.42
376.925	316.32
377.305	321.97
377.686	322.65
378.066	324.68
378.447	311.12
378.827	333.04
379.208	337.56
379.588	362.65
379.968	327.62
380.349	329.2
380.729	342.99
381.109	325.58
381.489	324.45
381.87	323.32
382.25	326.04
382.63	311.57
383.01	319.94
383.39	330.33
383.77	345.7
384.15	343.21
384.53	346.6
384.91	335.3
385.29	358.35
385.67	349.54
386.049	346.83
386.429	347.96
386.809	339.6
387.189	338.69
387.568	344.79
387.948	337.79
388.328	359.03
388.707	353.38
389.087	374.62
389.466	358.35
389.846	365.58
390.225	366.94
390.605	360.39
390.984	344.34
391.363	371.01
391.743	373.72
392.122	368.75
392.501	374.62
392.881	374.85
393.26	372.14
393.639	380.05
394.018	374.62
394.397	386.83
394.776	378.46
395.155	369.88
395.534	365.81
395.913	394.28
396.292	391.12
396.671	396.09
397.05	386.6
397.429	385.02
397.808	388.18
398.186	403.32
398.565	396.09
398.944	404.45
399.323	392.48
399.701	406.49
400.08	413.04
400.458	400.16
400.837	391.12
401.215	436.99
401.594	424.79
401.972	415.07
402.351	402.64
402.729	414.4
403.107	427.95
403.486	417.11
403.864	428.86
404.242	434.96
404.62	448.97
404.999	453.94
405.377	441.74
405.755	457.33
406.133	464.11
406.511	453.04
406.889	467.73
407.267	477.45
407.645	485.13
408.023	476.54
408.401	486.03
408.779	477.9
409.156	472.02
409.534	471.12
409.912	499.82
410.29	509.99
410.667	517.67
411.045	533.49
411.422	529.2
411.8	516.31
412.178	545.24
412.555	547.73
412.933	563.54
413.31	558.12
413.687	563.32
414.065	582.53
414.442	587.95
414.819	577.78
415.197	618.01
415.574	625.92
415.951	603.54
416.328	641.73
416.705	641.96
417.082	641.06
417.46	665.91
417.837	663.2
418.214	666.59
418.591	666.82
418.967	664.56
419.344	678.8
419.721	711.79
420.098	707.5
420.475	707.5
420.852	712.47
421.228	711.34
421.605	735.74
421.982	756.99
422.358	766.25
422.735	783.88
423.111	814.61
423.488	818
423.864	829.98
424.241	846.7
424.617	836.08
424.994	846.47
425.37	867.49
425.746	877.21
426.123	913.59
426.499	910.2
426.875	904.55
427.251	943.42
427.627	951.1
428.003	952.23
428.379	961.05
428.756	964.44
429.132	978
429.507	1019.13
429.883	1012.35
430.259	1020.48
430.635	1044.44
431.011	1052.57
431.387	1070.2
431.763	1081.5
432.138	1089.86
432.514	1099.35
432.89	1126.47
433.265	1133.02
433.641	1154.04
434.016	1177.99
434.392	1215.73
434.767	1213.92
435.143	1237.43
435.518	1262.06
435.894	1288.5
436.269	1298.44
436.644	1349.29
437.02	1353.13
437.395	1356.97
437.77	1381.6
438.145	1403.52
438.52	1409.4
438.895	1423.41
439.271	1462.73
439.646	1486.68
440.021	1516.06
440.395	1534.82
440.77	1504.54
441.145	1563.29
441.52	1569.17
441.895	1592.9
442.27	1603.29
442.645	1605.1
443.019	1680.8
443.394	1651.88
443.769	1679
444.143	1668.83
444.518	1704.08
444.892	1715.83
445.267	1749.73
445.641	1739.11
446.016	1755.83
446.39	1755.38
446.764	1789.95
447.139	1774.36
447.513	1791.31
447.887	1800.8
448.262	1839.67
448.636	1839.44
449.01	1878.31
449.384	1879.67
449.758	1868.59
450.132	1914.47
450.506	1927.58
450.88	1909.95
451.254	1921.25
451.628	1962.83
452.002	2016.61
452.376	1993.11
452.75	2027.46
453.123	2025.2
453.497	2042.15
453.871	2066.33
454.244	2103.39
454.618	2128.25
454.992	2128.25
455.365	2134.8
455.739	2191.98
456.112	2175.48
456.486	2208.7
456.859	2258.87
457.232	2300
457.606	2283.73
457.979	2289.15
458.352	2353.1
458.725	2398.75
459.099	2396.26
459.472	2438.07
459.845	2443.5
460.218	2459.77
460.591	2448.01
460.964	2516.71
461.337	2542.48
461.71	2571.18
462.083	2616.6
462.456	2608.01
462.829	2633.09
463.201	2638.29
463.574	2674.68
463.947	2705.64
464.32	2774.11
464.692	2810.72
465.065	2820.43
465.438	2841.9
465.81	2871.05
466.183	2911.28
466.555	2981.11
466.928	2950.83
467.3	2953.76
467.672	3031.5
468.045	3092.52
468.417	3075.57
468.789	3158.05
469.161	3142.69
469.534	3215
469.906	3251.38
470.278	3266.07
470.65	3298.16
471.022	3371.38
471.394	3393.53
471.766	3405.96
472.138	3494.09
472.51	3555.56
472.882	3556.23
473.253	3599.17
473.625	3664.71
473.997	3756.68
474.369	3783.12
474.74	3770.92
475.112	3841.2
475.484	3914.19
475.855	4001.19
476.227	3963.68
476.598	4083
476.97	4126.16
477.341	4161.87
477.713	4224.92
478.084	4262.43
478.455	4379.26
478.827	4333.61
479.198	4475.31
479.569	4477.79
479.94	4591.46
480.311	4617.68
480.682	4710.78
481.053	4778.57
481.424	4857.67
481.795	4897.44
482.166	4935.41
482.537	5007.5
482.908	5060.83
483.279	5114.16
483.65	5189.19
484.021	5310.09
484.391	5333.81
484.762	5367.94
485.133	5439.8
485.503	5456.52
485.874	5555.28
486.244	5641.38
486.615	5699.91
486.985	5729.51
487.356	5788.94
487.726	5836.85
488.097	5958.66
488.467	5948.94
488.837	6094.7
489.207	6151.42
489.578	6223.28
489.948	6293.79
490.318	6309.61
490.688	6337.86
491.058	6438.19
491.428	6489.72
491.798	6583.05
492.168	6669.15
492.538	6745.75
492.908	6709.82
493.278	6856.03
493.648	6811.06
494.017	6895.13
494.387	6944.62
494.757	7010.83
495.126	6979.2
495.496	7041.57
495.866	7098.74
496.235	7143.03
496.605	7161.56
496.974	7212.86
497.344	7193.43
497.713	7245.18
498.082	7335.8
498.452	7376.25
498.821	7367.43
499.19	7425.28
499.559	7377.83
499.928	7458.28
500.298	7490.59
500.667	7530.14
501.036	7559.07
501.405	7575.34
501.774	7599.29
502.143	7645.62
502.512	7690.36
502.88	7616.24
503.249	7694.43
503.618	7801.32
503.987	7809.46
504.356	7792.73
504.724	7839.74
505.093	7838.83
505.462	7887.19
505.83	7870.7
506.199	7853.97
506.567	7949.56
506.936	7949.11
507.304	8024.82
507.672	8050.35
508.041	8057.36
508.409	8120.86
508.777	8091.71
509.145	8119.73
509.514	8116.34
509.882	8182.1
510.25	8135.77
510.618	8208.54
510.986	8168.32
511.354	8238.6
511.722	8265.04
512.09	8235.21
512.458	8268.2
512.826	8314.53
513.193	8298.71
513.561	8282.89
513.929	8352.72
514.297	8420.51
514.664	8395.43
515.032	8434.52
515.4	8451.02
515.767	8442.43
516.135	8410.12
516.502	8372.6
516.869	8481.98
517.237	8462.32
517.604	8426.61
517.972	8451.92
518.339	8514.52
518.706	8479.04
519.073	8509.55
519.44	8491.02
519.808	8499.83
520.175	8510.23
520.542	8578.7
520.909	8559.27
521.276	8537.12
521.643	8550.23
522.009	8632.94
522.376	8570.57
522.743	8635.42
523.11	8644.46
523.477	8718.81
523.843	8660.73
524.21	8702.77
524.577	8761.3
524.943	8738.24
525.31	8750.45
525.676	8738.24
526.043	8762.2
526.409	8734.63
526.776	8845.59
527.142	8841.74
527.508	8832.93
527.874	8809.43
528.241	8819.15
528.607	8779.6
528.973	8887.85
529.339	8844.91
529.705	8866.83
530.071	8857.34
530.437	8805.36
530.803	8861.63
531.169	8888.3
531.535	8825.7
531.901	8824.34
532.267	8833.84
532.632	8805.81
532.998	8799.71
533.364	8826.38
533.73	8842.87
534.095	8851.91
534.461	8835.64
534.826	8759.94
535.192	8770.56
535.557	8776.21
535.923	8742.54
536.288	8775.53
536.653	8763.78
537.019	8715.19
537.384	8678.81
537.749	8724.91
538.114	8611.69
538.479	8677.68
538.845	8604.91
539.21	8594.52
539.575	8559.04
539.94	8528.98
540.305	8539.38
540.67	8535.09
541.034	8656.44
541.399	8547.52
541.764	8485.82
542.129	8561.53
542.494	8535.76
542.858	8456.22
543.223	8413.96
543.587	8435.88
543.952	8408.31
544.316	8426.61
544.681	8372.6
545.045	8354.07
545.41	8311.36
545.774	8403.56
546.138	8360.18
546.503	8231.14
546.867	8237.02
547.231	8323.57
547.595	8256.9
547.959	8247.18
548.324	8238.14
548.688	8198.82
549.052	8193.85
549.416	8167.19
549.779	8200.18
550.143	8116.57
550.507	8128.32
550.871	8105.04
551.235	8114.98
551.599	8166.28
551.962	8058.71
552.326	8037.47
552.689	8092.16
553.053	8023.46
553.417	8018.04
553.78	8132.16
554.143	7885.84
554.507	7995.67
554.87	7987.53
555.234	8018.49
555.597	7930.36
555.96	7942.33
556.323	7905.05
556.686	7922
557.05	7974.65
557.413	7978.26
557.776	7921.32
558.139	7936.68
558.502	7871.6
558.865	7940.07
559.228	7941.43
559.59	7926.74
559.953	7893.97
560.316	7951.82
560.679	7930.81
561.041	7979.17
561.404	7915.89
561.767	7962.67
562.129	7903.92
562.492	7992.5
562.854	8000.86
563.217	7962.67
563.579	7970.36
563.941	7911.83
564.304	7962.9
564.666	7964.03
565.028	7951.37
565.39	8043.8
565.753	7992.05
566.115	8022.56
566.477	8020.75
566.839	8084.25
567.201	8070.24
567.563	8087.19
567.925	8118.37
568.287	8151.37
568.648	8109.79
569.01	8090.58
569.372	8205.38
569.734	8138.94
570.095	8159.73
570.457	8166.06
570.819	8180.97
571.18	8202.44
571.542	8169.9
571.903	8233.63
572.265	8310.69
572.626	8291.93
572.987	8325.6
573.349	8307.75
573.71	8367.86
574.071	8360.4
574.432	8285.15
574.794	8379.61
575.155	8362.66
575.516	8338.03
575.877	8340.97
576.238	8403.34
576.599	8480.85
576.96	8402.43
577.32	8473.84
577.681	8401.08
578.042	8479.95
578.403	8480.4
578.763	8425.71
579.124	8562.88
579.485	8568.31
579.845	8589.1
580.206	8522.21
580.566	8528.31
580.927	8566.05
581.287	8552.49
581.648	8626.38
582.008	8686.95
582.368	8671.58
582.728	8648.53
583.089	8640.39
583.449	8690.11
583.809	8717.91
584.169	8727.62
584.529	8764.68
584.889	8889.43
585.249	8744.8
585.609	8800.16
585.969	8862.08
586.329	8826.83
586.688	8834.97
587.048	8816.43
587.408	8778.92
587.768	8791.12
588.127	8831.12
588.487	8862.54
588.846	8965.81
589.206	8884.91
589.565	8841.07
589.925	8922.19
590.284	8938.01
590.643	8983.89
591.003	8950.44
591.362	9035.41
591.721	8947.05
592.08	8958.13
592.44	9051.23
592.799	9011.23
593.158	8999.25
593.517	9039.71
593.876	9027.5
594.235	9034.73
594.593	9061.17
594.952	9052.13
595.311	9055.75
595.67	9043.55
596.029	9089.42
596.387	9153.38
596.746	9168.06
597.104	9088.74
597.463	9137.33
597.822	9176.2
598.18	9133.26
598.538	9141.17
598.897	9167.16
599.255	9137.33
599.613	9209.19
599.972	9174.17
600.33	9120.38
600.688	9147.5
601.046	9182.75
601.404	9225.46
601.762	9173.71
602.12	9306.82
602.478	9260.26
602.836	9256.2
603.194	9192.47
603.552	9231.57
603.91	9222.75
604.268	9316.53
604.625	9199.7
604.983	9310.89
605.341	9281.06
605.698	9302.07
606.056	9298.23
606.413	9276.54
606.771	9268.17
607.128	9298
607.485	9236.31
607.843	9310.43
608.2	9288.29
608.557	9366.93
608.914	9298.46
609.272	9325.35
609.629	9268.17
609.986	9426.14
610.343	9381.62
610.7	9412.58
611.057	9430.43
611.414	9475.85
611.771	9434.5
612.127	9431.11
612.484	9463.2
612.841	9443.09
613.198	9460.49
613.554	9530.54
613.911	9510.88
614.267	9450.32
614.624	9437.66
614.98	9500.71
615.337	9577.32
615.693	9541.39
616.05	9524.21
616.406	9548.39
616.762	9477.66
617.118	9487.38
617.475	9538.68
617.831	9596.53
618.187	9604.66
618.543	9550.88
618.899	9599.69
619.255	9591.1
619.611	9543.2
619.967	9635.4
620.323	9599.92
620.678	9598.11
621.034	9522.18
621.39	9585.91
621.746	9607.15
622.101	9696.86
622.457	9593.82
622.812	9611.89
623.168	9674.94
623.523	9619.58
623.879	9635.17
624.234	9625.68
624.589	9562.86
624.945	9606.47
625.3	9611.44
625.655	9599.01
626.01	9565.79
626.365	9705.68
626.72	9610.76
627.075	9572.8
627.43	9566.47
627.785	9631.55
628.14	9629.52
628.495	9629.97
628.85	9640.37
629.205	9572.35
629.559	9627.49
629.914	9559.01
630.269	9676.07
630.623	9551.78
630.978	9524.21
631.332	9574.61
631.687	9529.64
632.041	9567.83
632.396	9497.55
632.75	9487.15
633.104	9468.17
633.459	9450.32
633.813	9464.33
634.167	9470.88
634.521	9494.16
634.875	9523.31
635.229	9455.29
635.583	9358.12
635.937	9417.55
636.291	9388.62
636.645	9348.4
636.999	9366.02
637.352	9373.71
637.706	9358.12
638.06	9344.78
638.413	9334.84
638.767	9318.34
639.121	9346.59
639.474	9319.25
639.828	9263.88
640.181	9335.29
640.534	9308.85
640.888	9264.78
641.241	9239.47
641.594	9271.11
641.947	9323.77
642.301	9242.86
642.654	9245.35
643.007	9230.44
643.36	9240.6
643.713	9218.91
644.066	9229.53
644.419	9159.02
644.771	9093.72
645.124	9018.69
645.477	9071.34
645.83	8980.72
646.182	9016.43
646.535	8819.82
646.888	8905.7
647.24	8876.09
647.593	8959.71
647.945	8915.19
648.298	8825.7
648.65	8844.68
649.002	8873.16
649.355	8886.94
649.707	8915.42
650.059	8940.73
650.411	9006.49
650.763	9023.89
651.115	9091.46
651.467	9133.71
651.819	9060.27
652.171	9081.29
652.523	9007.84
652.875	9099.82
653.227	9005.13
653.578	9055.3
653.93	9081.06
654.282	9048.75
654.633	9017.79
654.985	9065.47
655.337	8986.83
655.688	9063.43
656.039	9082.64
656.391	9047.39
656.742	9067.95
657.094	9065.92
657.445	9137.78
657.796	9054.62
658.147	9026.6
658.498	9058.91
658.849	9107.05
659.2	9042.87
659.551	9092.13
659.902	9111.57
660.253	9085.35
660.604	9126.48
660.955	9081.74
661.306	9090.1
661.656	9048.29
662.007	9084.45
662.358	9105.92
662.708	9114.28
663.059	9115.41
663.409	9071.57
663.76	9189.98
664.11	9171.45
664.461	9146.14
664.811	9114.05
665.161	9150.66
665.511	9106.14
665.862	9144.34
666.212	9088.52
666.562	9144.79
666.912	9155.18
667.262	9120.16
667.612	9150.66
667.962	9147.05
668.312	9198.57
668.662	9149.76
669.011	9190.21
669.361	9143.88
669.711	9186.37
670.06	9104.11
670.41	9062.98
670.76	9086.71
671.109	9108.63
671.459	8995.87
671.808	9073.38
672.157	9089.65
672.507	9033.6
672.856	9039.48
673.205	9014.85
673.554	9013.27
673.904	9058.24
674.253	9039.71
674.602	9073.38
674.951	8908.41
675.3	8853.27
675.649	8926.94
675.998	8979.14
676.346	8962.65
676.695	8999.48
677.044	8876.77
677.393	8911.12
677.741	8990.44
678.09	8933.72
678.438	8903.21
678.787	8918.81
679.135	8891.91
679.484	8877.45
679.832	8916.09
680.181	8917.68
680.529	8872.7
680.877	8878.81
681.225	8815.3
681.573	8868.41
681.922	8821.63
682.27	8741.18
682.618	8799.71
682.966	8744.12
683.314	8756.55
683.661	8789.32
684.009	8676.55
684.357	8630.68
684.705	8657.34
685.053	8675.65
685.4	8622.32
685.748	8617.34
686.095	8564.69
686.443	8575.54
686.79	8556.55
687.138	8489.89
687.485	8530.57
687.832	8527.4
688.18	8525.37
688.527	8453.96
688.874	8480.62
689.221	8441.3
689.568	8395.2
689.915	8317.24
690.262	8371.93
690.609	8317.46
690.956	8308.2
691.303	8311.36
691.65	8267.75
691.997	8274.53
692.344	8132.39
692.69	8177.58
693.037	8167.41
693.383	8090.58
693.73	8116.34
694.077	8027.3
694.423	8053.97
694.769	8042.22
695.116	8029.56
695.462	7963.58
695.808	7942.79
696.155	7926.51
696.501	7928.32
696.847	7833.18
697.193	7818.27
697.539	7832.96
697.885	7737.14
698.231	7766.29
698.577	7698.5
698.923	7683.58
699.269	7687.2
699.614	7578.05
699.96	7584.6
700.306	7527.43
700.651	7513.19
700.997	7513.42
701.342	7516.58
701.688	7512.74
702.033	7392.97
702.379	7429.13
702.724	7401.56
703.069	7405.17
703.415	7241.56
703.76	7363.14
704.105	7246.08
704.45	7291.05
704.795	7230.49
705.14	7219.87
705.485	7198.85
705.83	7206.31
706.175	7159.53
706.52	7178.96
706.865	7150.26
707.209	7097.16
707.554	7075.69
707.899	7049.25
708.243	7027.1
708.588	6980.55
708.932	6927.44
709.277	7040.89
709.621	6987.33
709.966	6924.06
710.31	6961.79
710.654	6879.08
710.998	6885.86
711.342	6898.97
711.687	6832.53
712.031	6871.63
712.375	6838.18
712.719	6774.68
713.063	6793.21
713.407	6789.82
713.75	6757.28
714.094	6773.32
714.438	6754.79
714.782	6724.06
715.125	6761.35
715.469	6700.78
715.812	6685.64
716.156	6686.77
716.499	6724.74
716.843	6645.19
717.186	6618.75
717.53	6655.59
717.873	6672.08
718.216	6701.24
718.559	6652.42
718.902	6570.39
719.246	6633.22
719.589	6559.32
719.932	6547.57
720.275	6516.16
720.617	6494.24
720.96	6536.04
721.303	6519.09
721.646	6523.39
721.989	6513.22
722.331	6496.04
722.674	6495.59
723.016	6459.43
723.359	6487.68
723.701	6541.92
724.044	6483.16
724.386	6418.76
724.729	6464.41
725.071	6456.95
725.413	6481.58
725.755	6406.55
726.097	6425.31
726.439	6416.72
726.782	6358.65
727.124	6402.71
727.465	6424.18
727.807	6414.01
728.149	6326.78
728.491	6395.26
728.833	6390.28
729.175	6374.92
729.516	6394.35
729.858	6397.29
730.199	6397.97
730.541	6371.08
730.882	6341.92
731.224	6374.47
731.565	6350.96
731.906	6382.15
732.248	6426.89
732.589	6358.42
732.93	6343.96
733.271	6342.6
733.612	6374.24
733.953	6403.84
734.294	6335.37
734.635	6363.39
734.976	6347.35
735.317	6370.85
735.658	6329.95
735.999	6356.16
736.339	6348.7
736.68	6416.05
737.021	6423.05
737.361	6338.31
737.702	6427.57
738.042	6385.76
738.383	6444.52
738.723	6438.42
739.063	6453.56
739.404	6469.15
739.744	6470.96
740.084	6452.66
740.424	6434.58
740.764	6379.44
741.104	6531.52
741.444	6458.53
741.784	6517.06
742.124	6489.94
742.464	6526.1
742.804	6519.55
743.143	6527
743.483	6562.93
743.823	6539.21
744.162	6590.96
744.502	6680.22
744.841	6649.94
745.181	6628.02
745.52	6735.59
745.86	6723.16
746.199	6717.28
746.538	6770.61
746.877	6849.48
747.216	6905.75
747.556	6883.6
747.895	6950.27
748.234	6980.55
748.573	7001.79
748.911	7054
749.25	7131.96
749.589	7122.24
749.928	7198.85
750.267	7296.47
750.605	7322.01
750.944	7405.4
751.283	7431.16
751.621	7569.01
751.96	7645.39
752.298	7706.63
752.636	7793.41
752.975	7878.15
753.313	7924.03
753.651	8102.33
753.989	8187.3
754.327	8252.38
754.666	8299.16
755.004	8467.29
755.342	8589.77
755.679	8704.8
756.017	8775.31
756.355	8905.02
756.693	9047.16
757.031	9207.39
757.368	9351.11
757.706	9489.19
758.044	9589.97
758.381	9778.44
758.719	9868.84
759.056	10026.8
759.394	10149.06
759.731	10315.15
760.068	10459.33
760.405	10579.78
760.743	10727.12
761.08	10934.8
761.417	11043.49
761.754	11284.62
762.091	11370.04
762.428	11492.07
762.765	11698.17
763.102	11961.21
763.438	12037.14
763.775	12240.07
764.112	12384.25
764.449	12513.29
764.785	12643.9
765.122	12787.18
765.458	12979.94
765.795	13139.03
766.131	13352.59
766.467	13465.35
766.804	13558.23
767.14	13722.97
767.476	13955.51
767.812	14037.31
768.148	14238.67
768.485	14224.43
768.821	14341.49
769.157	14619.22
769.492	14742.38
769.828	14787.8
770.164	14928.59
770.5	15083.61
770.836	15202.48
771.171	15214.68
771.507	15404.51
771.842	15461.23
772.178	15600.44
772.513	15700.32
772.849	15846.31
773.184	15865.29
773.519	16002.46
773.855	15938.73
774.19	16028.9
774.525	16136.47
774.86	16230.03
775.195	16335.11
775.53	16412.39
775.865	16389.8
776.2	16398.83
776.535	16395.22
776.87	16584.14
777.205	16603.8
777.539	16649
777.874	16693.52
778.209	16740.29
778.543	16738.71
778.878	16793.4
779.212	16920.18
779.547	16917.92
779.881	16990.23
780.215	17023
780.55	17134.18
780.884	17069.33
781.218	17106.39
781.552	17260.28
781.886	17090.57
782.22	17067.97
782.554	17069.33
782.888	16994.3
783.222	17050.34
783.556	17045.15
783.889	17010.34
784.223	17007.18
784.557	17051.25
784.89	17147.06
785.224	16975.99
785.557	17065.48
785.891	17025.48
786.224	17035.65
786.558	17094.86
786.891	17066.61
787.224	16959.5
787.557	16970.8
787.891	16911.14
788.224	17094.41
788.557	17032.26
788.89	17045.6
789.223	16938.03
789.556	16917.69
789.888	16823.91
790.221	16846.73
790.554	16761.31
790.887	16819.84
791.219	16760.18
791.552	16695.55
791.884	16705.04
792.217	16691.03
792.549	16687.19
792.882	16765.6
793.214	16583.24
793.546	16681.31
793.879	16507.76
794.211	16490.58
794.543	16529.23
794.875	16499.85
795.207	16559.73
795.539	16538.27
795.871	16491.04
796.203	16328.1
796.535	16262.79
796.867	16263.47
797.198	16287.42
797.53	16271.83
797.862	16161.1
798.193	16206.3
798.525	16109.35
798.856	16122.91
799.188	15989.35
799.519	15821.22
799.85	15918.17
800.182	15988.45
800.513	15983.25
800.844	15872.29
801.175	15865.29
801.506	15895.34
801.837	15727.44
802.168	15810.6
802.499	15755.69
802.83	15600.66
803.161	15603.15
803.491	15604.05
803.822	15571.96
804.153	15642.47
804.483	15482.7
804.814	15457.39
805.145	15394.34
805.475	15402.48
805.805	15407.45
806.136	15464.85
806.466	15359.77
806.796	15386.21
807.126	15278.86
807.457	15251.29
807.787	15226.66
808.117	15079.32
808.447	15179.66
808.777	15240.22
809.107	15043.62
809.436	15087.68
809.766	15088.59
810.096	15015.14
810.426	15029.83
810.755	14956.84
811.085	14937.86
811.414	14976.05
811.744	14769.72
812.073	14808.59
812.403	14825.54
812.732	14710.07
813.061	14745.32
813.39	14606.79
813.719	14685.66
814.049	14717.52
814.378	14531.99
814.707	14600.92
815.036	14622.16
815.365	14531.09
815.693	14396.4
816.022	14396.63
816.351	14324.31
816.68	14384.65
817.008	14346.68
817.337	14257.42
817.665	14210.87
817.994	14283.86
818.322	14251.55
818.651	14219.46
818.979	14167.03
819.307	14308.04
819.636	14213.13
819.964	14057.65
820.292	14164.77
820.62	14132.23
820.948	14112.34
821.276	14153.7
821.604	14129.74
821.932	14161.38
822.259	14199.12
822.587	14099.69
822.915	14107.14
823.243	14121.83
823.57	14102.17
823.898	14147.59
824.225	14097.65
824.553	14010.2
824.88	14083.64
825.207	14047.71
825.535	14104.66
825.862	14147.14
826.189	14046.13
826.516	14151.21
826.843	14180.59
827.17	14221.72
827.497	14165.67
827.824	14170.19
828.151	14199.57
828.478	14121.15
828.805	14193.47
829.131	14169.97
829.458	14090.42
829.785	14106.24
830.111	14063.98
830.438	14234.37
830.764	14113.02
831.09	14167.25
831.417	14110.76
831.743	14155.96
832.069	14010.42
832.395	14028.05
832.722	14112.34
833.048	14073.7
833.374	14096.75
833.7	14061.72
834.026	13980.37
834.351	14044.32
834.677	13974.94
835.003	14008.39
835.329	14012.46
835.654	14043.87
835.98	14001.84
836.306	13982.85
836.631	13950.54
836.956	14021.95
837.282	13914.61
837.607	13905.57
837.932	13850.65
838.258	13814.72
838.583	13819.69
838.908	13730.88
839.233	13813.14
839.558	13762.07
839.883	13731.11
840.208	13736.76
840.533	13654.95
840.858	13714.61
841.182	13631.22
841.507	13687.95
841.832	13551
842.156	13585.8
842.481	13596.87
842.805	13518.68
843.13	13476.65
843.454	13492.02
843.778	13382.64
844.103	13396.65
844.427	13278.92
844.751	13418.8
845.075	13340.84
845.399	13209.77
845.723	13147.39
846.047	13235.98
846.371	13117.79
846.695	13157.56
847.019	13015.19
847.343	12979.72
847.666	12911.92
847.99	12814.07
848.313	12825.37
848.637	12736.56
848.96	12810.68
849.284	12720.51
849.607	12636.45
849.931	12588.54
850.254	12557.35
850.577	12514.19
850.9	12446.4
851.223	12424.7
851.546	12247.76
851.869	12202.33
852.192	12323.24
852.515	12173.86
852.838	12092.28
853.161	12168.44
853.483	12075.11
853.806	11999.63
854.129	11982.45
854.451	11963.02
854.774	11881.66
855.096	11847.54
855.419	11827.43
855.741	11801.44
856.063	11689.58
856.385	11724.16
856.708	11667.89
857.03	11644.38
857.352	11649.58
857.674	11544.95
857.996	11495.23
858.318	11450.04
858.64	11521.9
858.961	11385.18
859.283	11374.11
859.605	11356.03
859.926	11336.59
860.248	11320.78
860.57	11266.54
860.891	11272.64
861.212	11208.24
861.534	11183.15
861.855	11197.16
862.176	11188.35
862.498	11215.24
862.819	11194.68
863.14	11079.43
863.461	11076.71
863.782	11097.96
864.103	11060.67
864.424	10987.45
864.745	10945.42
865.065	10939.54
865.386	10909.04
865.707	10940.9
866.027	10869.26
866.348	10908.36
866.668	10913.78
866.989	10803.73
867.309	10789.49
867.63	10750.62
867.95	10813.22
868.27	10676.5
868.59	10670.85
868.91	10671.08
869.23	10681.02
869.55	10633.56
869.87	10723.73
870.19	10608.7
870.51	10691.19
870.83	10651.64
871.15	10613.45
871.469	10558.76
871.789	10599.44
872.109	10609.61
872.428	10535.26
872.748	10569.84
873.067	10495.49
873.386	10538.88
873.706	10459.1
874.025	10417.07
874.344	10410.74
874.663	10474.02
874.982	10408.48
875.301	10375.49
875.62	10383.85
875.939	10413.23
876.258	10361.48
876.577	10308.37
876.896	10318.32
877.214	10246.68
877.533	10243.29
877.852	10222.95
878.17	10315.15
878.489	10196.51
878.807	10252.78
879.125	10218.43
879.444	10222.27
879.762	10095.95
880.08	10184.53
880.398	10142.73
880.716	10116.97
881.034	10050.3
881.352	10069.74
881.67	10052.33
881.988	10064.99
882.306	9985.44
882.624	9923.3
882.941	9976.18
883.259	9879.23
883.577	9889.18
883.894	9850.31
884.212	9891.43
884.529	9878.33
884.846	9875.16
885.164	9823.87
885.481	9755.62
885.798	9858.89
886.115	9718.33
886.432	9671.33
886.75	9654.6
887.067	9719.69
887.383	9625.23
887.7	9756.98
888.017	9658.67
888.334	9612.8
888.651	9538.45
888.967	9546.36
889.284	9499.81
889.6	9542.29
889.917	9403.99
890.233	9441.73
890.55	9394.05
890.866	9386.82
891.182	9351.34
891.498	9277.21
891.815	9250.1
892.131	9286.93
892.447	9197.89
892.763	9150.66
893.079	9170.32
893.395	9149.08
893.71	9133.49
894.026	9139.82
894.342	9072.47
894.657	9020.27
894.973	8984.34
895.289	8964.68
895.604	9013.04
895.92	8820.5
896.235	8789.99
896.55	8865.7
896.865	8864.57
897.181	8799.71
897.496	8805.81
897.811	8714.06
898.126	8705.93
898.441	8687.62
898.756	8695.31
899.071	8625.71
899.386	8580.06
899.7	8477.69
900.015	8465.48
900.33	8451.02
900.644	8445.15
900.959	8471.13
901.273	8410.57
901.588	8340.52
901.902	8302.78
902.216	8294.87
902.531	8333.96
902.845	8309.78
903.159	8192.72
903.473	8209.22
903.787	8130.8
904.101	8067.53
904.415	8071.6
904.729	8040.64
905.042	7996.12
905.356	8002.44
905.67	8009.68
905.984	7940.53
906.297	7928.55
906.611	7832.96
906.924	7848.32
907.237	7856.46
907.551	7818.72
907.864	7726.75
908.177	7727.2
908.491	7663.92
908.804	7571.27
909.117	7609.91
909.43	7576.24
909.743	7475.45
910.056	7527.2
910.368	7478.39
910.681	7529.46
910.994	7445.85
911.307	7424.83
911.619	7350.26
911.932	7404.27
912.244	7247.89
912.557	7271.62
912.869	7216.7
913.181	7159.08
913.494	7211.28
913.806	7152.07
914.118	7139.64
914.43	7065.52
914.742	7089.7
915.054	6976.71
915.366	6981.45
915.678	6958.63
915.99	6944.85
916.302	6879.99
916.613	6836.15
916.925	6837.96
917.236	6855.36
917.548	6783.04
917.859	6738.98
918.171	6755.47
918.482	6706.66
918.794	6737.62
919.105	6690.84
919.416	6656.72
919.727	6601.58
920.038	6604.97
920.349	6613.1
920.66	6535.14
920.971	6546.89
921.282	6515.93
921.593	6437.97
921.903	6416.95
922.214	6359.32
922.525	6346.22
922.835	6347.8
923.146	6335.14
923.456	6282.94
923.767	6297.18
924.077	6238.88
924.387	6231.64
924.697	6244.98
925.008	6135.15
925.318	6142.83
925.628	6138.31
925.938	6125.21
926.248	6068.94
926.558	6027.13
926.867	6053.8
927.177	6036.85
927.487	5992.33
927.796	5892.22
928.106	5902.84
928.416	5933.12
928.725	5853.35
929.034	5826.68
929.344	5848.15
929.653	5808.38
929.962	5777.42
930.271	5800.69
930.581	5794.37
930.89	5733.35
931.199	5710.98
931.508	5671.66
931.817	5687.93
932.125	5676.63
932.434	5585.11
932.743	5586.01
933.051	5540.59
933.36	5542.17
933.669	5510.99
933.977	5481.61
934.286	5492
934.594	5455.62
934.902	5411.78
935.21	5390.76
935.519	5403.87
935.827	5369.29
936.135	5363.64
936.443	5250.43
936.751	5291.78
937.059	5308.5
937.367	5230.77
937.674	5246.36
937.982	5236.87
938.29	5183.99
938.597	5175.85
938.905	5148.06
939.213	5141.05
939.52	5104.44
939.827	5101.96
940.135	5056.76
940.442	5027.83
940.749	5031.22
941.056	5015.18
941.363	4966.14
941.67	4987.83
941.977	4941.96
942.284	4887.5
942.591	4855.64
942.898	4868.74
943.205	4876.65
943.511	4842.75
943.818	4800.04
944.125	4779.93
944.431	4730.21
944.738	4728.86
945.044	4753.72
945.35	4709.2
945.657	4652.02
945.963	4630.1
946.269	4606.15
946.575	4658.58
946.881	4605.92
947.187	4550.33
947.493	4561.18
947.799	4548.3
948.105	4551.24
948.41	4511.69
948.716	4530.67
949.022	4450.67
949.327	4459.94
949.633	4481.41
949.938	4447.06
950.244	4395.76
950.549	4373.84
950.854	4361.64
951.16	4318.7
951.465	4306.72
951.77	4308.3
952.075	4292.71
952.38	4260.4
952.685	4247.97
952.99	4203.45
953.294	4205.03
953.599	4169.33
953.904	4159.38
954.209	4118.25
954.513	4155.77
954.818	4068.31
955.122	4117.35
955.426	4075.99
955.731	4075.77
956.035	4037.8
956.339	4043.9
956.643	3997.8
956.948	4057.01
957.252	3978.37
957.556	3964.36
957.86	3962.33
958.163	3925.26
958.467	3928.2
958.771	3869.22
959.075	3857.47
959.378	3872.38
959.682	3836.23
959.985	3811.37
960.289	3803.91
960.592	3798.71
960.896	3769.56
961.199	3763.69
961.502	3791.93
961.805	3734.31
962.108	3720.07
962.411	3695.67
962.714	3673.29
963.017	3670.13
963.32	3688.89
963.623	3667.19
963.926	3659.73
964.228	3594.2
964.531	3596.69
964.833	3580.87
965.136	3543.13
965.438	3570.7
965.741	3526.4
966.043	3535.22
966.345	3531.83
966.648	3494.31
966.95	3479.63
967.252	3450.47
967.554	3403.7
967.856	3415.22
968.158	3402.11
968.46	3382.23
968.761	3384.26
969.063	3388.1
969.365	3332.51
969.666	3336.35
969.968	3312.17
970.269	3325.05
970.571	3342.91
970.872	3318.73
971.174	3298.16
971.475	3271.72
971.776	3257.03
972.077	3216.13
972.378	3214.32
972.679	3182.68
972.98	3174.78
973.281	3199.18
973.582	3179.75
973.883	3140.88
974.183	3148.79
974.484	3133.42
974.785	3112.86
975.085	3105.85
975.386	3094.1
975.686	3045.06
975.986	3072.63
976.287	3028.79
976.587	2982.24
976.887	3008.68
977.187	2998.28
977.487	2972.07
977.787	2947.66
978.087	2987.44
978.387	2936.82
978.687	2965.29
978.987	2899.53
979.286	2911.51
979.586	2892.07
979.885	2872.18
980.185	2885.29
980.484	2845.74
980.784	2848.68
981.083	2833.77
981.382	2842.58
981.682	2836.71
981.981	2805.97
982.28	2770.72
982.579	2748.8
982.878	2746.54
983.177	2698.86
983.475	2726.65
983.774	2702.7
984.073	2671.51
984.372	2694.34
984.67	2686.2
984.969	2686.2
985.267	2647.33
985.566	2661.57
985.864	2642.36
986.162	2649.14
986.461	2587.45
986.759	2583.15
987.057	2553.55
987.355	2567.33
987.653	2566.43
987.951	2548.35
988.249	2521.91
988.547	2530.5
988.844	2523.49
989.142	2503.83
989.44	2474
989.737	2485.53
990.035	2511.74
990.332	2463.83
990.63	2447.34
990.927	2418.86
991.224	2403.04
991.521	2425.19
991.819	2392.42
992.116	2399.43
992.413	2336.38
992.71	2368.02
993.006	2381.12
993.303	2315.14
993.6	2321.69
993.897	2328.02
994.193	2316.04
994.49	2275.59
994.787	2285.53
995.083	2284.18
995.379	2267.68
995.676	2250.51
995.972	2224.29
996.268	2252.31
996.565	2227.23
996.861	2188.81
997.157	2214.12
997.453	2182.94
997.749	2182.94
998.044	2159.66
998.34	2166.67
998.636	2132.09
998.932	2116.05
999.227	2114.92
999.523	2131.86
999.818	2100.45
1000.114	2104.75
1000.409	2078.53
1000.704	2051.19
1001	2052.09
1001.295	2048.03
1001.59	2063.17
1001.885	2006.22
1002.18	2016.61
1002.475	2010.29
1002.77	2001.47
1003.065	1993.11
1003.359	1995.82
1003.654	1965.99
1003.949	1953.11
1004.243	1959.89
1004.538	1943.4
1004.832	1917.41
1005.127	1948.82
1005.421	1885.54
1005.715	1888.71
1006.009	1890.97
1006.304	1879.22
1006.598	1848.93
1006.892	1827.92
1007.186	1855.49
1007.48	1822.72
1007.773	1809.16
1008.067	1798.77
1008.361	1789.27
1008.655	1802.38
1008.948	1737.52
1009.242	1769.39
1009.535	1769.16
1009.829	1742.95
1010.122	1744.98
1010.415	1724.64
1010.708	1735.04
1011.001	1713.57
1011.295	1700.01
1011.588	1711.08
1011.881	1669.28
1012.173	1674.93
1012.466	1669.28
1012.759	1622.73
1013.052	1634.48
1013.344	1637.87
1013.637	1588.6
1013.93	1610.97
1014.222	1632.89
1014.514	1596.29
1014.807	1605.55
1015.099	1559.45
1015.391	1555.61
1015.683	1558.55
1015.976	1542.5
1016.268	1531.88
1016.56	1526.01
1016.851	1511.32
1017.143	1504.08
1017.435	1493.24
1017.727	1484.2
1018.018	1461.83
1018.31	1477.19
1018.602	1472
1018.893	1444.88
1019.185	1463.18
1019.476	1448.49
1019.767	1441.71
1020.058	1415.05
1020.35	1404.88
1020.641	1389.51
1020.932	1369.17
1021.223	1360.59
1021.514	1385.22
1021.804	1363.75
1022.095	1359.68
1022.386	1361.72
1022.677	1301.15
1022.967	1335.28
1023.258	1275.16
1023.548	1316.52
1023.839	1307.48
1024.129	1313.13
1024.419	1286.24
1024.709	1277.65
1025	1258.44
1025.29	1273.13
1025.58	1268.38
1025.87	1222.74
1026.16	1214.15
1026.449	1279.46
1026.739	1238.78
1027.029	1206.69
1027.319	1210.31
1027.608	1211.89
1027.898	1189.06
1028.187	1187.48
1028.477	1198.78
1028.766	1183.87
1029.055	1140.25
1029.344	1169.86
1029.634	1147.03
1029.923	1140.48
1030.212	1155.62
1030.501	1138.22
1030.79	1111.55
1031.078	1106.58
1031.367	1093.02
1031.656	1112.91
1031.945	1097.77
1032.233	1072.68
1032.522	1090.54
1032.81	1072.01
1033.099	1065.68
1033.387	1069.75
1033.675	1031.55
1033.963	1039.46
1034.251	1008.05
1034.54	1030.88
1034.828	1019.8
1035.116	1026.81
1035.403	995.62
1035.691	1034.72
1035.979	1030.42
1036.267	988.84
1036.554	979.35
1036.842	976.64
1037.129	977.32
1037.417	958.11
1037.704	963.31
1037.992	954.27
1038.279	954.95
1038.566	929.41
1038.853	929.41
1039.14	929.41
