Data from hue_110_FLMS001491_00057.txt Node
Date: Tue Feb 07 17:01:32 GMT 2017
User: dcchb
Spectrometer: FLMS00149
Trigger mode: 0
Integration Time (sec): 2.000000E-2
Scans to average: 10
Electric dark correction enabled: true
Nonlinearity correction enabled: false
Boxcar width: 0
XAxis mode: Wavelengths
Number of Pixels in Spectrum: 2048
>>>>>Begin Spectral Data<<<<<
341.393	-21.52
341.776	-21.52
342.16	-21.52
342.543	-70.56
342.927	-61.75
343.31	-72.37
343.693	-67.4
344.077	-58.59
344.46	-48.42
344.843	-60.39
345.226	-43.22
345.61	-32.6
345.993	-26.95
346.376	-5.03
346.759	23.22
347.142	8.98
347.525	51.69
347.908	46.95
348.291	81.98
348.674	86.49
349.057	115.65
349.44	122.43
349.823	142.09
350.206	164.01
350.588	190.45
350.971	216.89
351.354	232.93
351.737	235.42
352.119	232.93
352.502	240.62
352.884	238.81
353.267	267.51
353.65	294.4
354.032	301.63
354.414	302.08
354.797	309.09
355.179	326.26
355.562	333.95
355.944	298.24
356.326	347.05
356.709	339.37
357.091	324.68
357.473	335.98
357.855	320.84
358.238	350.89
358.62	348.18
359.002	339.82
359.384	343.44
359.766	342.08
360.148	331.23
360.53	345.7
360.912	340.05
361.294	335.3
361.676	334.85
362.057	321.52
362.439	332.82
362.821	322.65
363.203	318.58
363.584	335.75
363.966	337.56
364.348	333.27
364.729	317.9
365.111	317.9
365.493	321.74
365.874	305.92
366.256	319.26
366.637	314.74
367.019	291.24
367.4	307.51
367.781	306.83
368.163	297.34
368.544	327.84
368.925	314.29
369.306	310.9
369.688	321.07
370.069	320.61
370.45	302.99
370.831	313.61
371.212	331.01
371.593	302.76
371.974	325.81
372.355	304.34
372.736	295.08
373.117	314.06
373.498	317.22
373.879	310.44
374.26	330.33
374.641	311.12
375.021	314.96
375.402	298.24
375.783	313.38
376.163	334.85
376.544	328.07
376.925	320.61
377.305	338.92
377.686	320.16
378.066	312.03
378.447	334.62
378.827	324
379.208	321.74
379.588	336.43
379.968	319.48
380.349	319.71
380.729	341.4
381.109	328.75
381.489	350.89
381.87	323.55
382.25	331.01
382.63	323.32
383.01	331.69
383.39	346.83
383.77	344.12
384.15	350.44
384.53	350.44
384.91	329.2
385.29	349.09
385.67	331.91
386.049	338.01
386.429	348.63
386.809	361.97
387.189	362.87
387.568	344.34
387.948	346.83
388.328	344.57
388.707	332.59
389.087	369.43
389.466	348.41
389.846	342.76
390.225	380.05
390.605	353.15
390.984	361.74
391.363	361.29
391.743	360.39
392.122	365.36
392.501	353.38
392.881	367.62
393.26	377.56
393.639	378.92
394.018	373.49
394.397	374.62
394.776	373.04
395.155	370.56
395.534	390.22
395.913	364.68
396.292	393.61
396.671	385.02
397.05	385.24
397.429	376.2
397.808	382.31
398.186	385.47
398.565	388.63
398.944	381.85
399.323	387.96
399.701	404
400.08	392.93
400.458	406.03
400.837	371.91
401.215	397
401.594	382.53
401.972	388.63
402.351	393.83
402.729	407.62
403.107	402.87
403.486	407.16
403.864	399.03
404.242	411.68
404.62	418.24
404.999	402.64
405.377	415.3
405.755	408.97
406.133	416.88
406.511	429.31
406.889	413.94
407.267	421.4
407.645	420.27
408.023	422.31
408.401	436.54
408.779	433.15
409.156	439.48
409.534	458.91
409.912	470.67
410.29	451.68
410.667	441.29
411.045	437.9
411.422	448.75
411.8	435.64
412.178	460.72
412.555	458.69
412.933	467.28
413.31	440.84
413.687	481.06
414.065	460.95
414.442	473.6
414.819	472.93
415.197	481.06
415.574	466.15
415.951	459.82
416.328	486.26
416.705	513.38
417.082	500.72
417.46	490.55
417.837	527.84
418.214	499.59
418.591	503.66
418.967	498.24
419.344	515.18
419.721	492.59
420.098	517.9
420.475	507.05
420.852	525.81
421.228	517.67
421.605	526.26
421.982	534.17
422.358	536.65
422.735	535.97
423.111	542.98
423.488	538.23
423.864	534.17
424.241	542.08
424.617	538.23
424.994	568.06
425.37	579.36
425.746	560.83
426.123	574.17
426.499	581.62
426.875	587.72
427.251	575.75
427.627	576.2
428.003	594.28
428.379	591.57
428.756	597.67
429.132	596.99
429.507	606.93
429.883	602.87
430.259	611.9
430.635	607.16
431.011	617.78
431.387	630.89
431.763	623.66
432.138	636.99
432.514	645.12
432.89	642.86
433.265	654.16
433.641	640.83
434.016	660.49
434.392	678.34
434.767	657.78
435.143	685.12
435.518	678.8
435.894	683.09
436.269	707.27
436.644	697.55
437.02	711.34
437.395	693.94
437.77	703.88
438.145	716.76
438.52	736.87
438.895	731.68
439.271	731
439.646	744.1
440.021	742.52
440.395	755.63
440.77	742.07
441.145	754.73
441.52	776.65
441.895	754.27
442.27	763.54
442.645	786.82
443.019	783.65
443.394	784.56
443.769	774.84
444.143	795.63
444.518	796.53
444.892	797.21
445.267	796.76
445.641	820.71
446.016	803.31
446.39	798.79
446.764	827.27
447.139	822.97
447.513	824.33
447.887	830.88
448.262	835.4
448.636	837.44
449.01	851.9
449.384	853.03
449.758	862.75
450.132	872.91
450.506	860.49
450.88	882.18
451.254	861.16
451.628	898.45
452.002	900.71
452.376	911.11
452.75	919.24
453.123	923.76
453.497	921.95
453.871	945.91
454.244	970.31
454.618	972.57
454.992	942.74
455.365	969.41
455.739	989.75
456.112	1015.28
456.486	1015.06
456.859	1015.74
457.232	1049.41
457.606	1041.5
457.979	1050.54
458.352	1070.2
458.725	1064.32
459.099	1089.41
459.472	1095.73
459.845	1126.02
460.218	1130.99
460.591	1152.91
460.964	1123.3
461.337	1163.08
461.71	1193.36
462.083	1174.83
462.456	1188.84
462.829	1181.16
463.201	1217.76
463.574	1242.17
463.947	1261.61
464.32	1290.76
464.692	1304.09
465.065	1315.62
465.438	1302.51
465.81	1337.31
466.183	1349.74
466.555	1396.29
466.928	1380.25
467.3	1410.3
467.672	1444.88
468.045	1452.56
468.417	1493.92
468.789	1487.81
469.161	1516.06
469.534	1527.36
469.906	1581.82
470.278	1576.17
470.65	1623.18
471.022	1668.83
471.394	1710.41
471.766	1706.79
472.138	1764.19
472.51	1770.29
472.882	1821.14
473.253	1893.68
473.625	1919.67
473.997	1947.91
474.369	1951.53
474.74	2031.53
475.112	2076.5
475.484	2147.01
475.855	2165.31
476.227	2212.54
476.598	2274.01
476.97	2311.52
477.341	2408.47
477.713	2442.14
478.084	2473.78
478.455	2552.42
478.827	2590.38
479.198	2699.08
479.569	2740.89
479.94	2859.76
480.311	2939.3
480.682	3009.13
481.053	3073.54
481.424	3160.09
481.795	3200.76
482.166	3317.82
482.537	3393.53
482.908	3510.36
483.279	3588.55
483.65	3675.78
484.021	3771.37
484.391	3911.48
484.762	4024.47
485.133	4095.66
485.503	4161.64
485.874	4322.77
486.244	4426.72
486.615	4576.55
486.985	4620.61
487.356	4801.63
487.726	4895.41
488.097	5029.64
488.467	5105.8
488.837	5253.14
489.207	5406.13
489.578	5533.81
489.948	5700.81
490.318	5779.68
490.688	5848.83
491.058	6010.86
491.428	6142.83
491.798	6311.19
492.168	6477.51
492.538	6520.9
492.908	6664.18
493.278	6828.69
493.648	6934
494.017	7095.12
494.387	7223.71
494.757	7311.62
495.126	7430.93
495.496	7540.99
495.866	7643.13
496.235	7846.74
496.605	7918.61
496.974	7983.46
497.344	8194.76
497.713	8267.52
498.082	8367.18
498.452	8423.68
498.821	8630.45
499.19	8682.43
499.559	8788.41
499.928	8952.25
500.298	9049.2
500.667	9194.28
501.036	9171
501.405	9316.99
501.774	9375.29
502.143	9427.94
502.512	9590.88
502.88	9682.4
503.249	9734.6
503.618	9834.49
503.987	9954.48
504.356	9934.82
504.724	10065.22
505.093	10166.68
505.462	10212.33
505.83	10257.98
506.199	10474.47
506.567	10557.86
506.936	10566.22
507.304	10654.58
507.672	10673.34
508.041	10808.02
508.409	10885.08
508.777	10975.25
509.145	11009.6
509.514	11042.82
509.882	11146.77
510.25	11142.7
510.618	11207.11
510.986	11219.54
511.354	11379.53
511.722	11386.54
512.09	11535.69
512.458	11537.49
512.826	11667.43
513.193	11672.86
513.561	11677.15
513.929	11794.44
514.297	11904.49
514.664	11882.12
515.032	11915.79
515.4	12005.96
515.767	12020.42
516.135	12094.77
516.502	12027.88
516.869	12194.65
517.237	12191.04
517.604	12158.04
517.972	12288.43
518.339	12375.21
518.706	12274.87
519.073	12332.5
519.44	12377.25
519.808	12490.69
520.175	12465.6
520.542	12566.84
520.909	12552.38
521.276	12555.09
521.643	12650.23
522.009	12655.66
522.376	12752.15
522.743	12703.79
523.11	12847.97
523.477	12827.18
523.843	12873.96
524.21	12936.78
524.577	13070.79
524.943	13002.54
525.31	13051.58
525.676	13190.78
526.043	13092.03
526.409	13127.28
526.776	13247.96
527.142	13224.91
527.508	13224.45
527.874	13288.18
528.241	13262.42
528.607	13202.76
528.973	13252.48
529.339	13315.98
529.705	13275.07
530.071	13368.18
530.437	13370.67
530.803	13325.24
531.169	13392.59
531.535	13405.47
531.901	13321.18
532.267	13289.09
532.632	13365.69
532.998	13323.43
533.364	13382.42
533.73	13316.2
534.095	13348.07
534.461	13345.58
534.826	13278.24
535.192	13392.36
535.557	13441.62
535.923	13249.99
536.288	13275.3
536.653	13312.81
537.019	13240.05
537.384	13212.25
537.749	13226.94
538.114	13198.47
538.479	13209.77
538.845	13182.2
539.21	13118.02
539.575	13071.46
539.94	13046.61
540.305	13060.62
540.67	13047.06
541.034	13024.46
541.399	12990.79
541.764	12933.39
542.129	12918.02
542.494	12918.93
542.858	12885.71
543.223	12821.08
543.587	12937.91
543.952	12880.51
544.316	12807.52
544.681	12757.35
545.045	12788.08
545.41	12812.71
545.774	12778.59
546.138	12666.05
546.503	12660.85
546.867	12608.2
547.231	12683.68
547.595	12627.63
547.959	12619.5
548.324	12507.86
548.688	12425.61
549.052	12481.2
549.416	12462.89
549.779	12441.2
550.143	12330.92
550.507	12376.79
550.871	12396.45
551.235	12313.29
551.599	12351.48
551.962	12268.1
552.326	12301.31
552.689	12308.77
553.053	12197.59
553.417	12177.25
553.78	12272.84
554.143	12184.71
554.507	12187.42
554.87	12220.41
555.234	12238.49
555.597	12110.36
555.96	12071.26
556.323	12130.47
556.686	12093.41
557.05	12062.23
557.413	12086.86
557.776	12045.28
558.139	12031.72
558.502	12086.86
558.865	11975.9
559.228	12072.62
559.59	12010.7
559.953	12021.1
560.316	12068.78
560.679	12092.28
561.041	12058.61
561.404	12048.89
561.767	12096.35
562.129	12003.24
562.492	12122.11
562.854	12036.01
563.217	12069.91
563.579	12097.7
563.941	12120.08
564.304	12139.06
564.666	12170.02
565.028	12167.08
565.39	12200.3
565.753	12227.87
566.115	12278.94
566.477	12249.34
566.839	12245.95
567.201	12178.15
567.563	12222
567.925	12261.09
568.287	12269
568.648	12219.28
569.01	12306.29
569.372	12332.5
569.734	12345.61
570.095	12307.87
570.457	12420.63
570.819	12366.17
571.18	12339.05
571.542	12408.88
571.903	12350.58
572.265	12342.44
572.626	12516.45
572.987	12383.57
573.349	12429.45
573.71	12495.66
574.071	12449.33
574.432	12508.09
574.794	12490.69
575.155	12543.12
575.516	12436.68
575.877	12526.62
576.238	12493.85
576.599	12463.57
576.96	12487.07
577.32	12441.65
577.681	12564.13
578.042	12585.83
578.403	12534.98
578.763	12559.61
579.124	12604.58
579.485	12593.28
579.845	12604.36
580.206	12532.95
580.566	12490.24
580.927	12542.66
581.287	12588.99
581.648	12509.22
582.008	12592.15
582.368	12455.44
582.728	12516
583.089	12494.98
583.449	12570.69
583.809	12502.21
584.169	12491.59
584.529	12514.42
584.889	12476
585.249	12471.93
585.609	12460.63
585.969	12508.99
586.329	12521.2
586.688	12385.38
587.048	12384.7
587.408	12423.8
587.768	12440.52
588.127	12424.02
588.487	12363.23
588.846	12469.22
589.206	12345.16
589.565	12377.25
589.925	12310.58
590.284	12347.19
590.643	12376.79
591.003	12386.74
591.362	12362.33
591.721	12289.34
592.08	12371.14
592.44	12352.16
592.799	12349.68
593.158	12326.85
593.517	12358.26
593.876	12452.72
594.235	12260.19
594.593	12267.64
594.952	12314.87
595.311	12271.71
595.67	12280.07
596.029	12361.88
596.387	12281.88
596.746	12348.09
597.104	12278.94
597.463	12261.54
597.822	12379.51
598.18	12273.07
598.538	12237.59
598.897	12326.4
599.255	12224.71
599.613	12358.94
599.972	12310.13
600.33	12273.97
600.688	12169.57
601.046	12263.35
601.404	12330.92
601.762	12314.42
602.12	12341.77
602.478	12240.98
602.836	12313.97
603.194	12248.66
603.552	12234.65
603.91	12217.25
604.268	12290.24
604.625	12146.52
604.983	12286.63
605.341	12203.69
605.698	12234.2
606.056	12309
606.413	12234.42
606.771	12278.04
607.128	12315.33
607.485	12206.63
607.843	12258.38
608.2	12326.63
608.557	12405.72
608.914	12352.16
609.272	12339.28
609.629	12283.91
609.986	12407.75
610.343	12327.53
610.7	12457.24
611.057	12381.76
611.414	12357.36
611.771	12376.34
612.127	12465.38
612.484	12417.92
612.841	12474.64
613.198	12446.62
613.554	12416.11
613.911	12495.43
614.267	12460.86
614.624	12421.54
614.98	12471.71
615.337	12518.48
615.693	12482.78
616.05	12465.83
616.406	12547.86
616.762	12472.84
617.118	12449.11
617.475	12503.57
617.831	12505.15
618.187	12561.65
618.543	12605.71
618.899	12619.72
619.255	12635.77
619.611	12648.42
619.967	12620.85
620.323	12688.65
620.678	12592.61
621.034	12598.93
621.39	12584.25
621.746	12521.87
622.101	12739.95
622.457	12546.73
622.812	12592.15
623.168	12678.48
623.523	12673.51
623.879	12695.43
624.234	12618.14
624.589	12634.41
624.945	12572.95
625.3	12580.63
625.655	12616.11
626.01	12634.41
626.365	12624.92
626.72	12561.87
627.075	12605.49
627.43	12534.76
627.785	12629.22
628.14	12657.01
628.495	12526.62
628.85	12541.08
629.205	12570.69
629.559	12620.18
629.914	12516.9
630.269	12573.85
630.623	12577.24
630.978	12580.63
631.332	12616.11
631.687	12575.88
632.041	12562.78
632.396	12493.63
632.75	12431.48
633.104	12539.05
633.459	12424.93
633.813	12349.22
634.167	12406.62
634.521	12453.63
634.875	12399.39
635.229	12421.76
635.583	12351.03
635.937	12401.2
636.291	12310.35
636.645	12350.58
636.999	12290.92
637.352	12359.62
637.706	12260.86
638.06	12267.42
638.413	12318.49
638.767	12315.78
639.121	12297.47
639.474	12217.7
639.828	12254.99
640.181	12231.26
640.534	12232.84
640.888	12112.17
641.241	12104.71
641.594	12154.88
641.947	12084.82
642.301	12098.61
642.654	12127.76
643.007	12165.05
643.36	12183.35
643.713	12123.24
644.066	12143.8
644.419	12079.85
644.771	12052.28
645.124	11908.56
645.477	11810.25
645.83	11724.61
646.182	11701.1
646.535	11715.79
646.888	11732.97
647.24	11667.66
647.593	11713.08
647.945	11722.57
648.298	11644.38
648.65	11633.76
649.002	11585.85
649.355	11680.99
649.707	11629.92
650.059	11750.59
650.411	11888.22
650.763	11862.68
651.115	12040.3
651.467	11960.98
651.819	12020.64
652.171	11940.65
652.523	11925.73
652.875	11925.96
653.227	11904.26
653.578	11963.24
653.93	11989.46
654.282	11884.15
654.633	11843.25
654.985	11955.11
655.337	11942.45
655.688	11889.12
656.039	11941.78
656.391	11859.52
656.742	11934.09
657.094	11869.69
657.445	12060.19
657.796	11939.52
658.147	11970.25
658.498	11959.18
658.849	11960.98
659.2	12016.58
659.551	11865.39
659.902	12026.75
660.253	11981.78
660.604	11973.41
660.955	11855.45
661.306	11993.53
661.656	12039.4
662.007	11944.94
662.358	12043.92
662.708	11920.31
663.059	11996.69
663.409	11903.36
663.76	12018.16
664.11	12009.12
664.461	11976.58
664.811	12003.24
665.161	12002.57
665.511	11990.81
665.862	12040.76
666.212	11996.46
666.562	12035.79
666.912	12004.15
667.262	11958.5
667.612	11991.94
667.962	12066.29
668.312	11988.1
668.662	12070.81
669.011	11981.32
669.361	12042.79
669.711	12002.11
670.06	11991.94
670.41	11961.21
670.76	11906.07
671.109	11985.84
671.459	11890.7
671.808	11850.03
672.157	11955.11
672.507	11869.24
672.856	11852.74
673.205	11899.74
673.554	11930.7
673.904	11863.59
674.253	11926.86
674.602	11921.66
674.951	11630.6
675.3	11686.64
675.649	11779.97
675.998	11825.62
676.346	11869.46
676.695	11909.91
677.044	11800.09
677.393	11869.24
677.741	11810.71
678.09	11850.93
678.438	11709.47
678.787	11737.94
679.135	11759.86
679.484	11710.6
679.832	11690.26
680.181	11641.67
680.529	11702.01
680.877	11685.96
681.225	11629.69
681.573	11639.64
681.922	11533.43
682.27	11541.56
682.618	11573.42
682.966	11492.07
683.314	11516.93
683.661	11509.25
684.009	11440.09
684.357	11418.85
684.705	11497.04
685.053	11392.19
685.4	11426.54
685.748	11363.71
686.095	11272.87
686.443	11316.03
686.79	11226.31
687.138	11241.23
687.485	11302.25
687.832	11210.95
688.18	11223.38
688.527	11102.02
688.874	11119.2
689.221	11139.31
689.568	11040.11
689.915	11068.81
690.262	11077.17
690.609	10929.37
690.956	10951.07
691.303	10950.84
691.65	10892.54
691.997	10850.51
692.344	10787.68
692.69	10796.27
693.037	10808.47
693.383	10662.49
693.73	10732.54
694.077	10572.32
694.423	10595.6
694.769	10515.6
695.116	10532.55
695.462	10505.66
695.808	10436.28
696.155	10504.75
696.501	10390.4
696.847	10392.21
697.193	10371.87
697.539	10283.06
697.885	10198.55
698.231	10186.12
698.577	10217.53
698.923	10198.09
699.269	10128.04
699.614	10031.77
699.96	10021.15
700.306	10041.94
700.651	9943.41
700.997	9923.07
701.342	9878.33
701.688	9875.39
702.033	9846.24
702.379	9816.41
702.724	9754.49
703.069	9814.6
703.415	9684.66
703.76	9626.36
704.105	9665.45
704.45	9635.85
704.795	9618
705.14	9653.47
705.485	9511.56
705.83	9575.96
706.175	9521.73
706.52	9453.93
706.865	9434.72
707.209	9512.24
707.554	9391.79
707.899	9473.14
708.243	9354.73
708.588	9335.97
708.932	9263.65
709.277	9220.94
709.621	9204
709.966	9204.45
710.31	9212.36
710.654	9087.84
710.998	9126.48
711.342	9128.74
711.687	9075.19
712.031	9022.76
712.375	9061.85
712.719	9074.96
713.063	8991.12
713.407	8996.54
713.75	8944.79
714.094	8987.73
714.438	8918.13
714.782	8898.01
715.125	8891.46
715.469	8943.21
715.812	8815.98
716.156	8829.99
716.499	8801.52
716.843	8837
717.186	8825.7
717.53	8826.15
717.873	8828.86
718.216	8794.51
718.559	8800.62
718.902	8719.49
719.246	8737.57
719.589	8683.56
719.932	8698.7
720.275	8649.21
720.617	8637.23
720.96	8658.25
721.303	8681.07
721.646	8684.91
721.989	8595.42
722.331	8606.72
722.674	8574.86
723.016	8652.82
723.359	8641.52
723.701	8609.21
724.044	8539.83
724.386	8481.08
724.729	8578.25
725.071	8567.4
725.413	8597.46
725.755	8563.56
726.097	8508.65
726.439	8524.69
726.782	8487.63
727.124	8507.06
727.465	8514.75
727.807	8410.12
728.149	8426.84
728.491	8474.75
728.833	8422.77
729.175	8448.53
729.516	8438.37
729.858	8475.65
730.199	8381.64
730.541	8382.77
730.882	8400.85
731.224	8497.12
731.565	8361.08
731.906	8434.75
732.248	8407.86
732.589	8372.83
732.93	8357.24
733.271	8408.31
733.612	8473.62
733.953	8437.01
734.294	8405.37
734.635	8398.82
734.976	8386.84
735.317	8385.71
735.658	8410.12
735.999	8429.1
736.339	8402.21
736.68	8393.62
737.021	8392.94
737.361	8418.03
737.702	8460.06
738.042	8428.42
738.383	8457.57
738.723	8497.8
739.063	8395.88
739.404	8519.72
739.744	8496.44
740.084	8474.07
740.424	8511.81
740.764	8457.35
741.104	8517.91
741.444	8518.59
741.784	8518.59
742.124	8483.79
742.464	8578.02
742.804	8610.79
743.143	8549.55
743.483	8571.47
743.823	8618.47
744.162	8590
744.502	8703.67
744.841	8642.2
745.181	8795.87
745.52	8745.02
745.86	8688.53
746.199	8815.53
746.538	8895.75
746.877	8952.48
747.216	8977.56
747.556	9011.46
747.895	9045.58
748.234	9055.98
748.573	9064.34
748.911	9160.15
749.25	9271.56
749.589	9298.23
749.928	9379.13
750.267	9445.8
750.605	9521.5
750.944	9580.26
751.283	9512.69
751.621	9712.68
751.96	9731.21
752.298	9883.53
752.636	9975.73
752.975	10062.05
753.313	10086.46
753.651	10169.17
753.989	10295.27
754.327	10467.69
754.666	10496.39
755.004	10668.36
755.342	10825.2
755.679	10890.5
756.017	10930.5
756.355	11135.47
756.693	11206.2
757.031	11439.64
757.368	11520.09
757.706	11642.12
758.044	11745.4
758.381	11981.32
758.719	12031.49
759.056	12247.53
759.394	12359.62
759.731	12463.8
760.068	12614.53
760.405	12774.52
760.743	12880.73
761.08	13092.71
761.417	13212.93
761.754	13353.72
762.091	13512.13
762.428	13681.84
762.765	13741.73
763.102	13983.53
763.438	14056.3
763.775	14135.62
764.112	14390.53
764.449	14550.07
764.785	14641.14
765.122	14756.62
765.458	14882.72
765.795	15072.09
766.131	15274.57
766.467	15395.92
766.804	15401.8
767.14	15443.61
767.476	15687.89
767.812	15802.24
768.148	15900.09
768.485	15969.02
768.821	16077.03
769.157	16252.17
769.492	16383.47
769.828	16471.37
770.164	16429.79
770.5	16589.56
770.836	16734.87
771.171	16682.89
771.507	16826.62
771.842	16841.53
772.178	17083.79
772.513	17108.42
772.849	17209.66
773.184	17185.48
773.519	17317.23
773.855	17293.5
774.19	17349.54
774.525	17350.67
774.86	17496.66
775.195	17509.77
775.53	17523.78
775.865	17521.97
776.2	17527.39
776.535	17414.4
776.87	17651.23
777.205	17596.77
777.539	17619.59
777.874	17763.77
778.209	17719.48
778.543	17750.21
778.878	17656.88
779.212	17670.21
779.547	17651.23
779.881	17798.8
780.215	17688.07
780.55	17889.87
780.884	17771.91
781.218	17788.85
781.552	17907.95
781.886	17805.8
782.22	17687.16
782.554	17838.57
782.888	17690.1
783.222	17592.93
783.556	17638.12
783.889	17661.17
784.223	17654.39
784.557	17625.24
784.89	17675.18
785.224	17527.39
785.557	17587.73
785.891	17618.69
786.224	17575.53
786.558	17530.56
786.891	17422.54
787.224	17455.53
787.557	17426.38
787.891	17404.46
788.224	17375.76
788.557	17493.49
788.89	17375.08
789.223	17369.66
789.556	17220.06
789.888	17326.49
790.221	17258.02
790.554	17051.7
790.887	17111.36
791.219	17106.61
791.552	17070
791.884	16988.88
792.217	17044.69
792.549	16951.59
792.882	16882.44
793.214	16839.5
793.546	16856.45
793.879	16829.33
794.211	16629.79
794.543	16848.77
794.875	16709.11
795.207	16812.83
795.539	16757.92
795.871	16732.16
796.203	16477.02
796.535	16498.04
796.867	16523.58
797.198	16417.14
797.53	16453.52
797.862	16394.09
798.193	16408.78
798.525	16317.48
798.856	16363.36
799.188	16217.6
799.519	16051.72
799.85	15969.02
800.182	16093.53
800.513	16072.97
800.844	15927.21
801.175	16089.92
801.506	16018.73
801.837	15860.54
802.168	15895.8
802.499	15832.97
802.83	15740.32
803.161	15743.48
803.491	15843.37
803.822	15739.42
804.153	15646.54
804.483	15539.87
804.814	15503.26
805.145	15543.94
805.475	15439.54
805.805	15409.03
806.136	15434.79
806.466	15416.26
806.796	15423.04
807.126	15231.63
807.457	15226.66
807.787	15240.9
808.117	15237.06
808.447	15202.03
808.777	15145.53
809.107	15137.62
809.436	15080.22
809.766	15036.61
810.096	15011.75
810.426	14894.69
810.755	15004.52
811.085	14997.74
811.414	14875.94
811.744	14806.33
812.073	14802.27
812.403	14882.94
812.732	14686.79
813.061	14765.66
813.39	14650.86
813.719	14721.36
814.049	14698.99
814.378	14636.39
814.707	14581.26
815.036	14635.72
815.365	14580.58
815.693	14392.79
816.022	14424.2
816.351	14356.4
816.68	14344.88
817.008	14364.99
817.337	14200.25
817.665	14244.99
817.994	14248.83
818.322	14216.29
818.651	14175.39
818.979	14241.83
819.307	14247.25
819.636	14188.05
819.964	14099.91
820.292	14106.47
820.62	14046.13
820.948	14005
821.276	14115.73
821.604	13999.35
821.932	14091.55
822.259	14068.95
822.587	14016.3
822.915	13958.67
823.243	14038.22
823.57	14023.76
823.898	13988.05
824.225	13889.52
824.553	13881.16
824.88	13964.1
825.207	14063.08
825.535	13976.07
825.862	14048.16
826.189	13926.36
826.516	14009.07
826.843	14031.89
827.17	14059.46
827.497	14047.48
827.824	13986.24
828.151	14105.11
828.478	14028.95
828.805	14096.3
829.131	14051.1
829.458	14025.34
829.785	13944.44
830.111	13992.57
830.438	14091.55
830.764	14000.93
831.09	14054.49
831.417	13980.37
831.743	13960.25
832.069	13979.91
832.395	13945.57
832.722	14002.06
833.048	14053.13
833.374	13978.78
833.7	13822.18
834.026	13944.66
834.351	13930.42
834.677	13899.01
835.003	13875.06
835.329	13936.98
835.654	13778.79
835.98	13863.53
836.306	13894.27
836.631	13799.58
836.956	13887.71
837.282	13873.03
837.607	13775.4
837.932	13720.03
838.258	13786.93
838.583	13769.75
838.908	13608.85
839.233	13715.06
839.558	13652.69
839.883	13590.55
840.208	13542.86
840.533	13572.02
840.858	13544.22
841.182	13599.81
841.507	13578.12
841.832	13444.79
842.156	13414.96
842.481	13365.92
842.805	13459.7
843.13	13378.57
843.454	13301.74
843.778	13316.88
844.103	13231.69
844.427	13243.66
844.751	13225.36
845.075	13257.22
845.399	13178.81
845.723	13115.08
846.047	13089.99
846.371	12934.97
846.695	12939.49
847.019	12891.81
847.343	12816.1
847.666	12729.1
847.99	12700.17
848.313	12722.09
848.637	12628.31
848.96	12538.6
849.284	12550.8
849.607	12475.55
849.931	12440.97
850.254	12384.7
850.577	12273.75
850.9	12265.16
851.223	12234.42
851.546	12153.3
851.869	12136.12
852.192	12169.57
852.515	11971.15
852.838	12017.93
853.161	11961.44
853.483	11862.23
853.806	11933.64
854.129	11787.66
854.451	11809.58
854.774	11762.35
855.096	11655.91
855.419	11707.88
855.741	11685.29
856.063	11629.92
856.385	11611.16
856.708	11503.6
857.03	11505.86
857.352	11511.96
857.674	11468.12
857.996	11398.74
858.318	11328.46
858.64	11366.88
858.961	11311.28
859.283	11265.18
859.605	11138.41
859.926	11236.26
860.248	11178.41
860.57	11071.52
860.891	11189.71
861.212	11116.04
861.534	11051.4
861.855	11079.2
862.176	11085.3
862.498	10947.23
862.819	10974.57
863.14	11016.6
863.461	10972.54
863.782	10890.73
864.103	10966.43
864.424	10873.33
864.745	10847.12
865.065	10847.79
865.386	10814.35
865.707	10849.15
866.027	10858.42
866.348	10780.9
866.668	10830.39
866.989	10794.46
867.309	10696.84
867.63	10669.72
867.95	10685.09
868.27	10639.89
868.59	10694.35
868.91	10618.42
869.23	10656.61
869.55	10584.52
869.87	10586.33
870.19	10511.53
870.51	10567.12
870.83	10497.29
871.15	10415.26
871.469	10536.16
871.789	10436.73
872.109	10478.76
872.428	10397.86
872.748	10424.98
873.067	10395.15
873.386	10408.94
873.706	10346.34
874.025	10327.36
874.344	10390.86
874.663	10290.75
874.982	10235.38
875.301	10294.59
875.62	10220.24
875.939	10252.78
876.258	10224.99
876.577	10209.17
876.896	10138.21
877.214	10119.68
877.533	10174.14
877.852	10193.8
878.17	10055.95
878.489	10092.33
878.807	10049.17
879.125	10037.65
879.444	10090.3
879.762	9948.83
880.08	10048.27
880.398	9957.65
880.716	9994.03
881.034	9989.06
881.352	9956.97
881.67	9934.82
881.988	9998.78
882.306	9820.93
882.624	9820.48
882.941	9792.23
883.259	9826.8
883.577	9786.8
883.894	9806.24
884.212	9780.7
884.529	9725.34
884.846	9741.38
885.164	9674.04
885.481	9641.5
885.798	9665.9
886.115	9578.9
886.432	9587.94
886.75	9594.04
887.067	9578
887.383	9493.48
887.7	9495.51
888.017	9445.34
888.334	9530.54
888.651	9456.19
888.967	9396.76
889.284	9385.69
889.6	9364.44
889.917	9282.19
890.233	9333.71
890.55	9303.2
890.866	9255.07
891.182	9246.03
891.498	9132.58
891.815	9159.48
892.131	9129.42
892.447	9083.55
892.763	9056.65
893.079	9106.14
893.395	9014.85
893.71	9024.11
894.026	8942.76
894.342	8985.24
894.657	8868.18
894.973	8949.31
895.289	8946.37
895.604	8883.1
895.92	8740.5
896.235	8708.87
896.55	8730.79
896.865	8696.21
897.181	8691.01
897.496	8649.66
897.811	8654.86
898.126	8604.69
898.441	8615.31
898.756	8552.49
899.071	8466.39
899.386	8517.69
899.7	8370.8
900.015	8455.77
900.33	8329.89
900.644	8368.31
900.959	8309.33
901.273	8291.25
901.588	8256.22
901.902	8203.12
902.216	8169.45
902.531	8173.97
902.845	8198.37
903.159	8110.92
903.473	8107.53
903.787	7998.15
904.101	8013.29
904.415	7950.02
904.729	7992.95
905.042	7885.61
905.356	7938.94
905.67	7837.03
905.984	7875.67
906.297	7812.39
906.611	7758.16
906.924	7765.62
907.237	7767.42
907.551	7686.52
907.864	7653.75
908.177	7624.6
908.491	7614.88
908.804	7523.59
909.117	7529.69
909.43	7511.84
909.743	7424.83
910.056	7427.54
910.368	7362.24
910.681	7338.73
910.994	7367.21
911.307	7332.18
911.619	7319.07
911.932	7283.37
912.244	7193.88
912.557	7161.56
912.869	7118.17
913.181	7081.57
913.494	7077.72
913.806	7085.86
914.118	7022.13
914.43	6943.49
914.742	6999.53
915.054	6949.59
915.366	6962.47
915.678	6926.54
915.99	6857.84
916.302	6875.47
916.613	6820.56
916.925	6793.66
917.236	6780.1
917.548	6722.03
917.859	6786.21
918.171	6723.83
918.482	6740.11
918.794	6644.74
919.105	6622.37
919.416	6557.51
919.727	6543.5
920.038	6565.19
920.349	6555.7
920.66	6485.65
920.971	6464.86
921.282	6462.37
921.593	6385.54
921.903	6350.96
922.214	6326.78
922.525	6346.9
922.835	6281.59
923.146	6210.4
923.456	6279.1
923.767	6249.95
924.077	6174.47
924.387	6182.61
924.697	6172.44
925.008	6130.4
925.318	6086.79
925.628	6081.82
925.938	6032.33
926.248	5970.63
926.558	5986.45
926.867	5975.38
927.177	5948.04
927.487	5877.53
927.796	5880.24
928.106	5848.83
928.416	5829.39
928.725	5843.18
929.034	5760.02
929.344	5773.35
929.653	5764.31
929.962	5684.77
930.271	5699.45
930.581	5700.81
930.89	5612.9
931.199	5642.73
931.508	5553.24
931.817	5582.62
932.125	5571.1
932.434	5536.97
932.743	5548.5
933.051	5499.23
933.36	5497.88
933.669	5410.2
933.977	5452.68
934.286	5462.17
934.594	5390.99
934.902	5371.55
935.21	5340.37
935.519	5308.05
935.827	5323.65
936.135	5266.02
936.443	5223.31
936.751	5220.15
937.059	5232.8
937.367	5213.82
937.674	5246.59
937.982	5153.25
938.29	5054.27
938.597	5113.71
938.905	5062.86
939.213	5041.84
939.52	5056.53
939.827	5022.86
940.135	5014.5
940.442	5005.24
940.749	4956.88
941.056	4963.2
941.363	4869.42
941.67	4871.23
941.977	4848.18
942.284	4817.44
942.591	4816.77
942.898	4791.68
943.205	4789.87
943.511	4744.45
943.818	4766.37
944.125	4728.63
944.431	4728.41
944.738	4691.57
945.044	4665.81
945.35	4651.8
945.657	4568.64
945.963	4590.11
946.269	4542.2
946.575	4566.6
946.881	4526.83
947.187	4545.36
947.493	4487.28
947.799	4509.66
948.105	4467.62
948.41	4484.8
948.716	4404.35
949.022	4392.82
949.327	4438.24
949.633	4425.82
949.938	4381.07
950.244	4393.73
950.549	4348.53
950.854	4310.79
951.16	4334.74
951.465	4266.05
951.77	4203.9
952.075	4245.71
952.38	4212.04
952.685	4209.1
952.99	4150.79
953.294	4155.77
953.599	4118.48
953.904	4155.54
954.209	4143.11
954.513	4059.27
954.818	4071.47
955.122	4064.92
955.426	4002.78
955.731	4007.07
956.035	4022.66
956.339	3990.35
956.643	3963.46
956.948	3899.95
957.252	3939.5
957.556	3892.72
957.86	3892.27
958.163	3925.26
958.467	3894.53
958.771	3865.38
959.075	3827.64
959.378	3819.05
959.682	3822.89
959.985	3764.36
960.289	3761.65
960.592	3758.49
960.896	3720.75
961.199	3741.99
961.502	3732.05
961.805	3671.94
962.108	3652.95
962.411	3653.63
962.714	3648.21
963.017	3647.31
963.32	3616.12
963.623	3586.74
963.926	3649.11
964.228	3580.41
964.531	3550.36
964.833	3566.4
965.136	3480.3
965.438	3512.17
965.741	3483.02
966.043	3464.03
966.345	3448.67
966.648	3468.1
966.95	3465.39
967.252	3414.54
967.554	3396.01
967.856	3344.04
968.158	3408.22
968.46	3400.76
968.761	3318.95
969.063	3328.67
969.365	3336.8
969.666	3308.78
969.968	3260.2
970.269	3233.98
970.571	3285.51
970.872	3210.03
971.174	3244.6
971.475	3229.92
971.776	3218.39
972.077	3152.85
972.378	3158.28
972.679	3172.52
972.98	3153.76
973.281	3158.5
973.582	3102.46
973.883	3097.72
974.183	3073.31
974.484	3070.15
974.785	3059.52
975.085	3024.5
975.386	3073.31
975.686	3021.11
975.986	2976.14
976.287	3016.81
976.587	2999.19
976.887	2984.27
977.187	2953.09
977.487	2908.57
977.787	2914.22
978.087	2923.03
978.387	2898.4
978.687	2894.1
978.987	2918.74
979.286	2844.16
979.586	2872.41
979.885	2831.96
980.185	2804.16
980.484	2783.37
980.784	2819.3
981.083	2811.62
981.382	2774.56
981.682	2754.9
981.981	2751.74
982.28	2727.78
982.579	2755.8
982.878	2710.61
983.177	2704.05
983.475	2726.43
983.774	2680.33
984.073	2648.46
984.372	2641.91
984.67	2645.75
984.969	2611.4
985.267	2652.08
985.566	2612.3
985.864	2589.03
986.162	2578.63
986.461	2606.2
986.759	2538.63
987.057	2563.72
987.355	2537.96
987.653	2539.09
987.951	2516.49
988.249	2504.74
988.547	2507.9
988.844	2509.26
989.142	2466.09
989.44	2440.78
989.737	2434.68
990.035	2448.47
990.332	2429.94
990.63	2425.42
990.927	2404.17
991.224	2409.82
991.521	2406.89
991.819	2379.99
992.116	2382.48
992.413	2350.62
992.71	2303.61
993.006	2349.71
993.303	2319.43
993.6	2314.68
993.897	2281.24
994.193	2315.59
994.49	2311.3
994.787	2255.7
995.083	2260.45
995.379	2234.24
995.676	2216.83
995.972	2227.68
996.268	2182.26
996.565	2185.87
996.861	2195.82
997.157	2200.11
997.453	2150.17
997.749	2171.64
998.044	2131.19
998.34	2168.47
998.636	2123.28
998.932	2107.91
999.227	2106.78
999.523	2107.46
999.818	2066.56
1000.114	2054.13
1000.409	2087.12
1000.704	2033.34
1001	2029.72
1001.295	2050.06
1001.59	2029.95
1001.885	2021.13
1002.18	1977.07
1002.475	1996.28
1002.77	1993.79
1003.065	1965.99
1003.359	1947.91
1003.654	1931.64
1003.949	1933.23
1004.243	1951.08
1004.538	1936.62
1004.832	1881.48
1005.127	1902.04
1005.421	1892.32
1005.715	1858.43
1006.009	1850.97
1006.304	1842.15
1006.598	1820.91
1006.892	1820.69
1007.186	1826.34
1007.48	1824.3
1007.773	1813.91
1008.067	1756.73
1008.361	1786.79
1008.655	1762.61
1008.948	1752.21
1009.242	1753.57
1009.535	1778.43
1009.829	1724.87
1010.122	1700.69
1010.415	1753.12
1010.708	1697.3
1011.001	1700.92
1011.295	1664.98
1011.588	1679.45
1011.881	1636.28
1012.173	1640.8
1012.466	1635.38
1012.759	1634.48
1013.052	1608.26
1013.344	1625.89
1013.637	1585.21
1013.93	1596.74
1014.222	1578.89
1014.514	1573.01
1014.807	1551.77
1015.099	1521.26
1015.391	1575.27
1015.683	1551.99
1015.976	1500.7
1016.268	1513.58
1016.56	1516.97
1016.851	1498.44
1017.143	1505.21
1017.435	1481.94
1017.727	1490.75
1018.018	1476.51
1018.31	1417.53
1018.602	1428.61
1018.893	1424.99
1019.185	1399.45
1019.476	1422.5
1019.767	1423.41
1020.058	1389.51
1020.35	1386.57
1020.641	1386.8
1020.932	1368.27
1021.223	1351.32
1021.514	1359.46
1021.804	1346.12
1022.095	1340.47
1022.386	1345.44
1022.677	1319.68
1022.967	1314.71
1023.258	1301.38
1023.548	1291.21
1023.839	1319.23
1024.129	1300.93
1024.419	1277.2
1024.709	1268.61
1025	1250.98
1025.29	1265.67
1025.58	1246.24
1025.87	1263.64
1026.16	1246.46
1026.449	1252.57
1026.739	1229.74
1027.029	1223.64
1027.319	1203.3
1027.608	1200.59
1027.898	1189.97
1028.187	1171.66
1028.477	1160.36
1028.766	1173.47
1029.055	1163.3
1029.344	1149.97
1029.634	1139.8
1029.923	1123.76
1030.212	1109.29
1030.501	1113.36
1030.79	1112.91
1031.078	1095.73
1031.367	1083.76
1031.656	1086.02
1031.945	1078.79
1032.233	1049.18
1032.522	1050.76
1032.81	1045.57
1033.099	1067.26
1033.387	1044.44
1033.675	1044.66
1033.963	1008.28
1034.251	1020.48
1034.54	1034.72
1034.828	1002.63
1035.116	983.42
1035.403	1000.6
1035.691	999.01
1035.979	982.97
1036.267	986.13
1036.554	977.77
1036.842	961.27
1037.129	955.62
1037.417	937.09
1037.704	978
1037.992	944.1
1038.279	906.59
1038.566	935.06
1038.853	935.06
1039.14	935.06
