Data from hue_140_FLMS001491_00086.txt Node
Date: Tue Feb 07 16:56:32 GMT 2017
User: dcchb
Spectrometer: FLMS00149
Trigger mode: 0
Integration Time (sec): 2.000000E-2
Scans to average: 10
Electric dark correction enabled: true
Nonlinearity correction enabled: false
Boxcar width: 0
XAxis mode: Wavelengths
Number of Pixels in Spectrum: 2048
>>>>>Begin Spectral Data<<<<<
341.393	-34.43
341.776	-34.43
342.16	-34.43
342.543	-59.07
342.927	-65.17
343.31	-88.22
343.693	-60.87
344.077	-92.96
344.46	-55
344.843	-57.03
345.226	-37.15
345.61	-38.05
345.993	-9.35
346.376	-5.51
346.759	7.82
347.142	43.08
347.525	36.98
347.908	52.34
348.291	78.11
348.674	92.79
349.057	133.02
349.44	129.86
349.823	131.66
350.206	165.33
350.588	194.26
350.971	209.85
351.354	205.56
351.737	234.49
352.119	234.03
352.502	247.37
352.884	245.11
353.267	271.77
353.65	277.2
354.032	306.12
354.414	302.05
354.797	293.69
355.179	331.43
355.562	330.3
355.944	318.1
356.326	338.66
356.709	339.57
357.091	333.24
357.473	348.61
357.855	330.08
358.238	330.75
358.62	340.02
359.002	326.91
359.384	337.99
359.766	335.73
360.148	320.81
360.53	352.22
360.912	344.09
361.294	324.65
361.676	324.2
362.057	315.39
362.439	336.18
362.821	296.4
363.203	312.45
363.584	339.34
363.966	312.45
364.348	328.95
364.729	309.06
365.111	314.26
365.493	303.86
365.874	318.1
366.256	295.5
366.637	292.56
367.019	313.13
367.4	310.87
367.781	319.45
368.163	287.14
368.544	309.29
368.925	326.46
369.306	315.16
369.688	303.86
370.069	296.86
370.45	323.3
370.831	322.39
371.212	319.68
371.593	340.92
371.974	329.85
372.355	318.32
372.736	313.35
373.117	317.65
373.498	312.22
373.879	306.57
374.26	295.05
374.641	311.09
375.021	321.26
375.402	310.42
375.783	317.2
376.163	299.34
376.544	326.01
376.925	284.88
377.305	309.29
377.686	333.47
378.066	317.65
378.447	330.98
378.827	314.94
379.208	308.16
379.588	316.07
379.968	338.89
380.349	323.75
380.729	334.37
381.109	332.56
381.489	333.47
381.87	335.05
382.25	327.59
382.63	341.15
383.01	333.24
383.39	351.32
383.77	349.74
384.15	341.38
384.53	353.13
384.91	342.28
385.29	350.87
385.67	345.67
386.049	344.99
386.429	338.66
386.809	342.05
387.189	370.53
387.568	348.83
387.948	344.31
388.328	339.79
388.707	330.08
389.087	334.6
389.466	349.28
389.846	354.93
390.225	335.95
390.605	368.72
390.984	370.53
391.363	352.45
391.743	361.26
392.122	352.9
392.501	363.3
392.881	365.1
393.26	370.75
393.639	347.93
394.018	368.04
394.397	361.94
394.776	373.69
395.155	370.98
395.534	378.89
395.913	367.59
396.292	381.83
396.671	370.98
397.05	363.52
397.429	368.04
397.808	380.47
398.186	371.43
398.565	396.74
398.944	366.01
399.323	383.86
399.701	397.42
400.08	409.17
400.458	414.82
400.837	408.04
401.215	417.76
401.594	406.91
401.972	402.62
402.351	374.82
402.729	409.17
403.107	411.66
403.486	398.77
403.864	420.47
404.242	416.85
404.62	389.06
404.999	411.43
405.377	405.78
405.755	424.54
406.133	411.66
406.511	401.49
406.889	432.22
407.267	428.83
407.645	408.27
408.023	444.88
408.401	417.31
408.779	418.66
409.156	428.15
409.534	434.71
409.912	430.41
410.29	436.06
410.667	437.42
411.045	450.07
411.422	471.32
411.8	462.28
412.178	459.11
412.555	458.89
412.933	456.17
413.31	471.77
413.687	457.98
414.065	451.65
414.442	470.19
414.819	461.15
415.197	490.75
415.574	484.42
415.951	491.65
416.328	477.64
416.705	469.73
417.082	508.38
417.46	479.45
417.837	502.73
418.214	487.13
418.591	503.63
418.967	494.82
419.344	514.48
419.721	515.61
420.098	508.38
420.475	516.51
420.852	503.63
421.228	519.45
421.605	512.9
421.982	529.17
422.358	523.74
422.735	547.92
423.111	526.46
423.488	551.99
423.864	551.09
424.241	563.74
424.617	530.97
424.994	541.14
425.37	550.86
425.746	554.48
426.123	547.25
426.499	573.46
426.875	583.18
427.251	577.3
427.627	580.01
428.003	576.85
428.379	608.26
428.756	600.35
429.132	603.06
429.507	583.63
429.883	607.81
430.259	605.32
430.635	623.85
431.011	633.34
431.387	621.82
431.763	615.27
432.138	642.16
432.514	628.83
432.89	635.6
433.265	656.62
433.641	665.43
434.016	652.55
434.392	688.48
434.767	674.7
435.143	692.55
435.518	694.36
435.894	685.32
436.269	693.68
436.644	702.95
437.02	699.11
437.395	714.92
437.77	721.48
438.145	720.57
438.52	719.9
438.895	730.74
439.271	731.42
439.646	749.5
440.021	760.12
440.395	770.74
440.77	776.17
441.145	771.87
441.52	763.29
441.895	778.65
442.27	770.29
442.645	774.36
443.019	779.33
443.394	791.08
443.769	784.98
444.143	790.18
444.518	789.72
444.892	785.43
445.267	798.31
445.641	842.38
446.016	812.55
446.39	835.37
446.764	849.61
447.139	820.91
447.513	840.12
447.887	843.96
448.262	840.12
448.636	855.03
449.01	839.67
449.384	883.96
449.758	881.02
450.132	891.42
450.506	874.24
450.88	887.8
451.254	886.9
451.628	921.92
452.002	884.64
452.376	918.76
452.75	934.13
453.123	936.39
453.497	948.59
453.871	972.32
454.244	951.75
454.618	971.19
454.992	975.26
455.365	1002.15
455.739	976.84
456.112	1024.3
456.486	1015.26
456.859	1018.65
457.232	1050.96
457.606	1048.48
457.979	1065.42
458.352	1103.39
458.725	1064.97
459.099	1093.22
459.472	1130.73
459.845	1149.94
460.218	1150.17
460.591	1160.79
460.964	1167.34
461.337	1208.7
461.71	1222.48
462.083	1220
462.456	1228.36
462.829	1230.62
463.201	1276.04
463.574	1262.03
463.947	1299.09
464.32	1309.03
464.692	1321.01
465.065	1322.14
465.438	1354.91
465.81	1366.88
466.183	1392.2
466.555	1422.25
466.928	1430.16
467.3	1440.1
467.672	1454.57
468.045	1499.54
468.417	1483.27
468.789	1538.63
469.161	1580.66
469.534	1589.25
469.906	1624.05
470.278	1639.87
470.65	1681.45
471.022	1700.21
471.394	1716.93
471.766	1756.93
472.138	1791.28
472.51	1830.38
472.882	1882.13
473.253	1907.21
473.625	1934.55
473.997	1973.87
474.369	2058.17
474.74	2065.85
475.112	2109.69
475.484	2160.31
475.855	2211.16
476.227	2252.29
476.598	2303.81
476.97	2355.56
477.341	2418.16
477.713	2459.29
478.084	2541.32
478.455	2652.05
478.827	2685.95
479.198	2782.44
479.569	2811.37
479.94	2921.87
480.311	2963.23
480.682	3052.49
481.053	3144.24
481.424	3267.85
481.795	3303.56
482.166	3386.94
482.537	3490.44
482.908	3596.43
483.279	3661.06
483.65	3789.19
484.021	3851.79
484.391	3983.77
484.762	4085.46
485.133	4151.9
485.503	4287.71
485.874	4403.42
486.244	4446.35
486.615	4593.47
486.985	4740.81
487.356	4854.7
487.726	4961.82
488.097	5101.25
488.467	5161.81
488.837	5360.9
489.207	5447.91
489.578	5547.34
489.948	5689.94
490.318	5870.5
490.688	5918.63
491.058	6052.64
491.428	6248.56
491.798	6348.67
492.168	6523.59
492.538	6586.86
492.908	6749.34
493.278	6915.44
493.648	6965.83
494.017	7119.05
494.387	7235.66
494.757	7375.31
495.126	7523.56
495.496	7622.99
495.866	7705.48
496.235	7867.05
496.605	7989.99
496.974	7985.69
497.344	8165.12
497.713	8258.23
498.082	8428.62
498.452	8520.82
498.821	8575.73
499.19	8677.43
499.559	8799.01
499.928	8946.8
500.298	8976.85
500.667	9139.79
501.036	9172.78
501.405	9295.49
501.774	9340.46
502.143	9453.68
502.512	9485.99
502.88	9671.07
503.249	9670.62
503.618	9771.41
503.987	9845.31
504.356	9932.76
504.724	9975.25
505.093	10052.53
505.462	10180.21
505.83	10257.5
506.199	10308.34
506.567	10454.78
506.936	10458.17
507.304	10593.31
507.672	10608.68
508.041	10679.86
508.409	10766.41
508.777	10823.59
509.145	10907.65
509.514	10947.42
509.882	10995.78
510.25	11047.53
510.618	11113.52
510.986	11199.85
511.354	11287.3
511.722	11265.38
512.09	11382.89
512.458	11333.85
512.826	11478.48
513.193	11413.17
513.561	11457.47
513.929	11523
514.297	11637.12
514.664	11705.6
515.032	11703.56
515.4	11792.83
515.767	11801.41
516.135	11900.39
516.502	11732.94
516.869	11930.22
517.237	11965.7
517.604	11896.78
517.972	12009.99
518.339	12085.7
518.706	12007.06
519.073	12030.11
519.44	12105.13
519.808	12161.4
520.175	12177.22
520.542	12268.52
520.909	12267.84
521.276	12254.96
521.643	12379.02
522.009	12322.08
522.376	12384
522.743	12462.41
523.11	12535.4
523.477	12613.59
523.843	12513.94
524.21	12612.24
524.577	12613.59
524.943	12645.91
525.31	12760.94
525.676	12777.66
526.043	12814.72
526.409	12746.47
526.776	12880.93
527.142	12804.78
527.508	12859.69
527.874	12961.61
528.241	12807.04
528.607	12822.85
528.973	12909.18
529.339	12928.39
529.705	12946.24
530.071	12911.67
530.437	12927.71
530.803	12982.4
531.169	13009.29
531.535	12853.36
531.901	12963.64
532.267	13019.69
532.632	12955.05
532.998	12963.19
533.364	12980.36
533.73	12942.4
534.095	12938.11
534.461	12927.48
534.826	12991.89
535.192	12899.01
535.557	12976.52
535.923	12906.92
536.288	12885.9
536.653	12929.52
537.019	12741.73
537.384	12784.89
537.749	12839.35
538.114	12733.37
538.479	12672.8
538.845	12681.62
539.21	12642.29
539.575	12643.88
539.94	12667.38
540.305	12693.82
540.67	12682.97
541.034	12520.26
541.399	12557.78
541.764	12481.85
542.129	12500.6
542.494	12472.36
542.858	12436.42
543.223	12414.73
543.587	12402.98
543.952	12380.15
544.316	12307.84
544.681	12266.71
545.045	12235.75
545.41	12186.49
545.774	12259.71
546.138	12164.79
546.503	12117.11
546.867	12073.27
547.231	12147.17
547.595	12082.76
547.959	12080.28
548.324	12061.52
548.688	11923.44
549.052	12011.58
549.416	11942.2
549.779	11927.29
550.143	11829.43
550.507	11857.68
550.871	11845.71
551.235	11829.66
551.599	11811.81
551.962	11659.5
552.326	11654.52
552.689	11766.61
553.053	11661.3
553.417	11641.42
553.78	11664.92
554.143	11684.13
554.507	11547.86
554.87	11547.41
555.234	11680.51
555.597	11603.68
555.96	11601.19
556.323	11548.31
556.686	11562.32
557.05	11601.87
557.413	11495.21
557.776	11518.93
558.139	11559.84
558.502	11513.28
558.865	11478.26
559.228	11492.72
559.59	11438.03
559.953	11480.74
560.316	11525.71
560.679	11500.63
561.041	11463.57
561.404	11508.77
561.767	11500.63
562.129	11486.39
562.492	11559.84
562.854	11555.32
563.217	11446.85
563.579	11581.76
563.941	11578.82
564.304	11553.74
564.666	11671.25
565.028	11608.88
565.39	11612.94
565.753	11616.33
566.115	11711.7
566.477	11630.8
566.839	11628.99
567.201	11584.47
567.563	11638.25
567.925	11710.12
568.287	11714.41
568.648	11702.88
569.01	11653.85
569.372	11702.43
569.734	11687.74
570.095	11784.69
570.457	11752.83
570.819	11735.65
571.18	11720.96
571.542	11767.97
571.903	11754.63
572.265	11816.78
572.626	11826.5
572.987	11878.25
573.349	11846.38
573.71	11793.73
574.071	11796.89
574.432	11890.9
574.794	11887.51
575.155	11894.97
575.516	11786.95
575.877	11891.81
576.238	11857.91
576.599	11863.11
576.96	11825.82
577.32	11926.16
577.681	11927.51
578.042	11916.66
578.403	11900.39
578.763	11888.42
579.124	11939.94
579.485	11937.91
579.845	12001.86
580.206	11845.03
580.566	11971.35
580.927	11946.49
581.287	11986.72
581.648	11897.23
582.008	11966.61
582.368	11898.13
582.728	11932.93
583.089	11975.65
583.449	11920.51
583.809	11948.75
584.169	11877.12
584.529	11907.62
584.889	11951.69
585.249	11856.78
585.609	11783.33
585.969	11965.25
586.329	11848.19
586.688	11913.5
587.048	11855.2
587.408	11839.15
587.768	11850.9
588.127	11851.81
588.487	11753.73
588.846	11794.18
589.206	11739.04
589.565	11741.53
589.925	11794.18
590.284	11740.17
590.643	11805.71
591.003	11795.31
591.362	11766.61
591.721	11721.19
592.08	11774.97
592.44	11713.73
592.799	11743.11
593.158	11695.88
593.517	11789.89
593.876	11723.45
594.235	11707.63
594.593	11694.52
594.952	11728.19
595.311	11618.59
595.67	11726.39
596.029	11776.1
596.387	11701.3
596.746	11771.58
597.104	11677.12
597.463	11656.11
597.822	11690
598.18	11591.7
598.538	11595.54
598.897	11722.77
599.255	11624.24
599.613	11716.67
599.972	11652.49
600.33	11629.89
600.688	11626.5
601.046	11647.52
601.404	11710.57
601.762	11696.1
602.12	11714.86
602.478	11696.33
602.836	11779.72
603.194	11606.84
603.552	11649.1
603.91	11586.5
604.268	11649.33
604.625	11625.37
604.983	11619.95
605.341	11628.99
605.698	11686.61
606.056	11731.13
606.413	11723.9
606.771	11697.01
607.128	11694.97
607.485	11567.97
607.843	11689.78
608.2	11741.3
608.557	11777.01
608.914	11702.21
609.272	11725.93
609.629	11723
609.986	11752.83
610.343	11752.6
610.7	11833.73
611.057	11749.21
611.414	11799.15
611.771	11804.12
612.127	11821.53
612.484	11800.96
612.841	11858.13
613.198	11762.32
613.554	11786.5
613.911	11895.65
614.267	11797.12
614.624	11818.81
614.98	11834.63
615.337	11912.82
615.693	11912.37
616.05	11903.11
616.406	11907.17
616.762	11946.04
617.118	11905.14
617.475	11878.25
617.831	12008.64
618.187	11914.18
618.543	11994.63
618.899	12000.5
619.255	11993.72
619.611	11918.02
619.967	12014.51
620.323	12004.12
620.678	11984.91
621.034	11879.83
621.39	12080.05
621.746	11896.55
622.101	12075.98
622.457	11960.96
622.812	12019.03
623.168	12014.51
623.523	12064.68
623.879	12068.07
624.234	11977.68
624.589	12060.84
624.945	12040.5
625.3	12033.05
625.655	12054.06
626.01	12014.06
626.365	12036.89
626.72	12005.48
627.075	12026.72
627.43	11972.71
627.785	11977.45
628.14	12085.93
628.495	11988.3
628.85	12090.44
629.205	11937.68
629.559	12055.42
629.914	11949.88
630.269	11906.27
630.623	11915.99
630.978	11931.35
631.332	11987.17
631.687	11952.37
632.041	11847.51
632.396	11985.81
632.75	11792.6
633.104	11774.29
633.459	11814.75
633.813	11762.09
634.167	11808.64
634.521	11832.15
634.875	11881.18
635.229	11818.81
635.583	11772.26
635.937	11783.11
636.291	11660.85
636.645	11768.65
636.999	11702.66
637.352	11648.2
637.706	11691.81
638.06	11654.98
638.413	11629.67
638.767	11619.95
639.121	11613.62
639.474	11550.57
639.828	11619.27
640.181	11502.89
640.534	11528.43
640.888	11537.24
641.241	11532.04
641.594	11505.38
641.947	11580.63
642.301	11504.92
642.654	11524.36
643.007	11437.58
643.36	11474.64
643.713	11444.13
644.066	11543.34
644.419	11384.47
644.771	11385.38
645.124	11274.2
645.477	11301.76
645.83	11252.73
646.182	11091.6
646.535	11120.53
646.888	11199.85
647.24	11103.8
647.593	11156.46
647.945	11109.23
648.298	11072.62
648.65	11039.85
649.002	11049.79
649.355	11089.34
649.707	11093.86
650.059	11186.97
650.411	11245.27
650.763	11312.84
651.115	11341.99
651.467	11336.79
651.819	11345.61
652.171	11347.64
652.523	11283.23
652.875	11340.86
653.227	11285.04
653.578	11403.68
653.93	11282.78
654.282	11217.7
654.633	11264.7
654.985	11356.9
655.337	11307.41
655.688	11387.86
656.039	11321.65
656.391	11349.67
656.742	11333.63
657.094	11279.17
657.445	11413.63
657.796	11353.06
658.147	11325.27
658.498	11363.91
658.849	11372.27
659.2	11382.44
659.551	11340.41
659.902	11354.87
660.253	11335.44
660.604	11336.34
660.955	11243.69
661.306	11410.91
661.656	11328.66
662.007	11355.1
662.358	11335.89
662.708	11304.02
663.059	11334.98
663.409	11273.97
663.76	11379.96
664.11	11466.51
664.461	11405.72
664.811	11407.52
665.161	11396.9
665.511	11359.62
665.862	11412.5
666.212	11365.04
666.562	11361.65
666.912	11314.19
667.262	11432.83
667.612	11385.15
667.962	11404.81
668.312	11450.91
668.662	11454.53
669.011	11389.9
669.361	11403.46
669.711	11430.35
670.06	11354.64
670.41	11383.34
670.76	11361.65
671.109	11400.29
671.459	11279.17
671.808	11331.59
672.157	11395.55
672.507	11268.77
672.856	11267.87
673.205	11246.17
673.554	11306.74
673.904	11244.59
674.253	11286.17
674.602	11252.73
674.951	11137.7
675.3	11036.46
675.649	11254.53
675.998	11245.72
676.346	11245.04
676.695	11278.71
677.044	11115.1
677.393	11132.5
677.741	11182.45
678.09	11150.58
678.438	11007.54
678.787	11121.43
679.135	11115.78
679.484	11025.84
679.832	11113.97
680.181	11078.49
680.529	11066.29
680.877	10972.51
681.225	10977.25
681.573	11062.9
681.922	11010.93
682.27	10948.55
682.618	10958.95
682.966	10937.71
683.314	10930.7
683.661	10992.17
684.009	10807.09
684.357	10785.39
684.705	10908.1
685.053	10760.76
685.4	10843.92
685.748	10714.89
686.095	10761.44
686.443	10714.21
686.79	10686.19
687.138	10658.39
687.485	10665.62
687.832	10648
688.18	10596.92
688.527	10488.23
688.874	10560.09
689.221	10487.1
689.568	10457.04
689.915	10466.76
690.262	10458.85
690.609	10414.1
690.956	10358.74
691.303	10359.19
691.65	10286.65
691.997	10301.34
692.344	10215.69
692.69	10217.27
693.037	10195.58
693.383	10117.84
693.73	10154
694.077	10053.44
694.423	10058.63
694.769	10050.27
695.116	9989.48
695.462	9962.37
695.808	9935.93
696.155	9966.43
696.501	9884.63
696.847	9816.61
697.193	9796.27
697.539	9786.55
697.885	9673.11
698.231	9636.27
698.577	9748.36
698.923	9614.35
699.269	9551.3
699.614	9505.2
699.96	9481.02
700.306	9487.8
700.651	9437.41
700.997	9370.74
701.342	9394.02
701.688	9390.18
702.033	9356.05
702.379	9312.44
702.724	9283.96
703.069	9294.59
703.415	9153.57
703.76	9215.49
704.105	9152.22
704.45	9140.01
704.795	9126.68
705.14	9079
705.485	9046.23
705.83	9026.12
706.175	9007.81
706.52	8986.35
706.865	8942.05
707.209	8882.85
707.554	8931.66
707.899	8906.12
708.243	8903.18
708.588	8837.65
708.932	8762.85
709.277	8717.65
709.621	8715.39
709.966	8612.8
710.31	8714.26
710.654	8627.03
710.998	8597.43
711.342	8625
711.687	8625.23
712.031	8569.18
712.375	8581.16
712.719	8571.89
713.063	8550.42
713.407	8589.75
713.75	8495.29
714.094	8496.19
714.438	8411.45
714.782	8465.91
715.125	8445.34
715.469	8477.66
715.812	8397.89
716.156	8376.64
716.499	8405.57
716.843	8311.79
717.186	8366.47
717.53	8325.57
717.873	8408.51
718.216	8290.54
718.559	8314.72
718.902	8238.57
719.246	8238.79
719.589	8288.28
719.932	8176.88
720.275	8219.36
720.617	8136.42
720.96	8135.29
721.303	8165.35
721.646	8180.49
721.989	8211
722.331	8199.93
722.674	8149.08
723.016	8120.61
723.359	8168.97
723.701	8147.5
724.044	8089.42
724.386	8148.18
724.729	8132.36
725.071	8098.23
725.413	8130.32
725.755	8120.38
726.097	8063.88
726.439	8086.03
726.782	8050.1
727.124	8097.1
727.465	8063.66
727.807	8118.12
728.149	7997.45
728.491	8061.17
728.833	8036.54
729.175	7951.57
729.516	8015.75
729.858	7965.58
730.199	7999.03
730.541	8003.32
730.882	8012.59
731.224	8049.2
731.565	7931.91
731.906	7979.82
732.248	7996.32
732.589	7963.32
732.93	7939.82
733.271	7955.64
733.612	7968.52
733.953	7926.49
734.294	7978.69
734.635	7965.13
734.976	7976.43
735.317	7903.66
735.658	7942.98
735.999	7973.72
736.339	8015.75
736.68	7984.56
737.021	7932.14
737.361	7942.76
737.702	7999.25
738.042	7967.39
738.383	7947.28
738.723	7985.69
739.063	7987.5
739.404	8052.36
739.744	8023.21
740.084	7975.98
740.424	7981.85
740.764	8042.64
741.104	8043.77
741.444	8071.34
741.784	8039.03
742.124	8081.74
742.464	8098.01
742.804	8103.21
743.143	8096.43
743.483	8148.4
743.823	8140.72
744.162	8223.88
744.502	8208.51
744.841	8211
745.181	8272.47
745.52	8279.92
745.86	8325.12
746.199	8363.99
746.538	8421.61
746.877	8468.62
747.216	8458.45
747.556	8482.18
747.895	8592.23
748.234	8546.58
748.573	8627.49
748.911	8707.48
749.25	8744.54
749.589	8727.82
749.928	8853.02
750.267	8919.45
750.605	8992
750.944	9007.81
751.283	9087.13
751.621	9175.72
751.96	9291.42
752.298	9361.7
752.636	9389.72
752.975	9458.2
753.313	9607.12
753.651	9701.58
753.989	9820.45
754.327	9910.39
754.666	9904.29
755.004	10109.93
755.342	10240.78
755.679	10341.79
756.017	10478.06
756.355	10561.45
756.693	10760.31
757.031	10813.64
757.368	10985.84
757.706	11120.07
758.044	11279.84
758.381	11419.5
758.719	11607.29
759.056	11654.07
759.394	11890
759.731	11860.62
760.068	12078.92
760.405	12188.97
760.743	12335.41
761.08	12579.92
761.417	12689.98
761.754	12830.31
762.091	13012.23
762.428	13150.53
762.765	13261.04
763.102	13459
763.438	13569.95
763.775	13686.11
764.112	13936.27
764.449	14135.81
764.785	14226.43
765.122	14318.63
765.458	14430.04
765.795	14600.44
766.131	14849.24
766.467	14871.84
766.804	14985.28
767.14	15136.92
767.476	15294.88
767.812	15422.11
768.148	15521.54
768.485	15618.71
768.821	15724.47
769.157	15850.35
769.492	16005.14
769.828	16145.48
770.164	16128.76
770.5	16269.54
770.836	16454.62
771.171	16414.17
771.507	16571.23
771.842	16614.17
772.178	16688.97
772.513	16737.55
772.849	16878.12
773.184	16959.7
773.519	17018.22
773.855	17125.11
774.19	17113.82
774.525	17181.16
774.86	17387.48
775.195	17414.37
775.53	17357.2
775.865	17472.22
776.2	17369.85
776.535	17460.02
776.87	17535.73
777.205	17509.29
777.539	17540.7
777.874	17705.66
778.209	17618.89
778.543	17648.49
778.878	17770.52
779.212	17794.7
779.547	17778.43
779.881	17855.26
780.215	17771.2
780.55	17807.81
780.884	17751.76
781.218	17837.86
781.552	17818.2
781.886	17822.5
782.22	17733.01
782.554	17839.9
782.888	17722.61
783.222	17689.17
783.556	17692.33
783.889	17684.2
784.223	17606.46
784.557	17650.3
784.89	17714.03
785.224	17618.89
785.557	17611.88
785.891	17611.88
786.224	17685.1
786.558	17704.76
786.891	17544.99
787.224	17576.63
787.557	17464.31
787.891	17517.19
788.224	17555.61
788.557	17582.96
788.89	17500.92
789.223	17557.65
789.556	17429.06
789.888	17411.43
790.221	17388.38
790.554	17280.36
790.887	17356.52
791.219	17270.87
791.552	17236.52
791.884	17142.97
792.217	17214.38
792.549	17107.04
792.882	17068.84
793.214	16987.94
793.546	17123.31
793.879	16998.56
794.211	16847.38
794.543	16924.22
794.875	16917.89
795.207	16954.27
795.539	16815.97
795.871	16848.06
796.203	16775.97
796.535	16618.91
796.867	16634.73
797.198	16549.54
797.53	16563.77
797.862	16583.43
798.193	16528.52
798.525	16464.57
798.856	16507.96
799.188	16359.03
799.519	16315.42
799.85	16263.67
800.182	16283.33
800.513	16400.84
800.844	16168.98
801.175	16294.85
801.506	16250.34
801.837	16143.9
802.168	16124.01
802.499	16124.46
802.83	15967.18
803.161	15909.33
803.491	15915.2
803.822	16046.05
804.153	15957.01
804.483	15867.52
804.814	15755.43
805.145	15746.62
805.475	15761.99
805.805	15589.34
806.136	15707.07
806.466	15679.5
806.796	15581.88
807.126	15513.86
807.457	15490.36
807.787	15497.81
808.117	15380.53
808.447	15304.6
808.777	15425.95
809.107	15340.3
809.436	15301.21
809.766	15259.4
810.096	15282.23
810.426	15158.39
810.755	15162.45
811.085	15178.05
811.414	15162.68
811.744	15004.94
812.073	15049.01
812.403	15013.08
812.732	14952.52
813.061	14921.33
813.39	14930.37
813.719	14868
814.049	14810.15
814.378	14867.55
814.707	14794.78
815.036	14840.2
815.365	14684.73
815.693	14583.94
816.022	14652.19
816.351	14559.98
816.68	14592.3
817.008	14569.7
817.337	14454.9
817.665	14356.6
817.994	14350.5
818.322	14481.12
818.651	14430.95
818.979	14358.63
819.307	14345.07
819.636	14375.13
819.964	14226.43
820.292	14360.44
820.62	14310.5
820.948	14340.33
821.276	14399.54
821.604	14290.61
821.932	14294.23
822.259	14292.19
822.587	14280.9
822.915	14258.3
823.243	14314.12
823.57	14215.13
823.898	14183.27
824.225	14260.56
824.553	14217.17
824.88	14210.84
825.207	14296.04
825.535	14289.26
825.862	14249.26
826.189	14162.71
826.516	14331.74
826.843	14311.18
827.17	14307.11
827.497	14299.65
827.824	14341.23
828.151	14309.6
828.478	14232.54
828.805	14366.09
829.131	14246.32
829.458	14210.84
829.785	14193.21
830.111	14262.82
830.438	14290.84
830.764	14290.84
831.09	14353.44
831.417	14227.56
831.743	14291.74
832.069	14186.21
832.395	14214.91
832.722	14247.45
833.048	14212.87
833.374	14273.89
833.7	14121.13
834.026	14191.18
834.351	14266.43
834.677	14141.92
835.003	14173.33
835.329	14248.35
835.654	14147.11
835.98	14050.62
836.306	14075.93
836.631	14095.36
836.956	14147.11
837.282	14088.36
837.607	14108.02
837.932	14012.2
838.258	13987.57
838.583	13947.57
838.908	13883.84
839.233	13973.79
839.558	13878.42
839.883	13820.12
840.208	13811.53
840.533	13763.85
840.858	13813.11
841.182	13856.73
841.507	13796.84
841.832	13638.43
842.156	13677.07
842.481	13701.25
842.805	13637.75
843.13	13637.3
843.454	13628.71
843.778	13514.81
844.103	13469.62
844.427	13517.98
844.751	13498.32
845.075	13390.52
845.399	13453.57
845.723	13333.35
846.047	13362.28
846.371	13226.01
846.695	13260.58
847.019	13221.71
847.343	13119.57
847.666	12976.98
847.99	12967.03
848.313	12973.13
848.637	12781.95
848.96	12819.69
849.284	12827.37
849.607	12700.82
849.931	12674.16
850.254	12638.68
850.577	12510.09
850.9	12460.6
851.223	12495.86
851.546	12391.45
851.869	12267.84
852.192	12460.15
852.515	12289.08
852.838	12195.75
853.161	12128.64
853.483	12108.75
853.806	12062.87
854.129	12049.32
854.451	12077.11
854.774	12006.15
855.096	11882.77
855.419	11939.94
855.741	11855.2
856.063	11766.39
856.385	11736.78
856.708	11831.69
857.03	11728.42
857.352	11806.38
857.674	11605.49
857.996	11659.95
858.318	11612.27
858.64	11523
858.961	11517.13
859.283	11406.17
859.605	11407.3
859.926	11460.18
860.248	11422.21
860.57	11346.06
860.891	11352.39
861.212	11314.65
861.534	11291.37
861.855	11239.17
862.176	11283.01
862.498	11282.1
862.819	11195.55
863.14	11200.3
863.461	11203.91
863.782	11073.52
864.103	11046.4
864.424	11054.54
864.745	11049.34
865.065	11060.64
865.386	11040.3
865.707	11067.87
866.027	10996.24
866.348	10987.2
866.668	11001.66
866.989	10936.58
867.309	10874.43
867.63	10926.41
867.95	10932.28
868.27	10838.5
868.59	10907.65
868.91	10831.49
869.23	10761.67
869.55	10808.44
869.87	10745.17
870.19	10786.52
870.51	10765.28
870.83	10810.48
871.15	10713.98
871.469	10743.81
871.789	10701.78
872.109	10694.1
872.428	10648
872.748	10667.66
873.067	10555.8
873.386	10589.69
873.706	10586.53
874.025	10445.29
874.344	10493.42
874.663	10541.78
874.982	10480.77
875.301	10425.18
875.62	10389.47
875.939	10360.32
876.258	10422.69
876.577	10368.23
876.896	10359.42
877.214	10360.77
877.533	10340.21
877.852	10266.54
878.17	10339.76
878.489	10312.19
878.807	10293.66
879.125	10292.07
879.444	10224.73
879.762	10228.57
880.08	10224.73
880.398	10157.84
880.716	10273.32
881.034	10147.67
881.352	10143.83
881.67	10096.37
881.988	10116.94
882.306	10067.9
882.624	10010.95
882.941	10011.18
883.259	10010.27
883.577	10020.89
883.894	9938.64
884.212	9961.69
884.529	9945.42
884.846	9896.38
885.164	9927.56
885.481	9830.17
885.798	9851.41
886.115	9763.05
886.432	9804.18
886.75	9718.08
887.067	9782.71
887.383	9730.28
887.7	9737.96
888.017	9625.2
888.334	9725.31
888.651	9653.67
888.967	9564.86
889.284	9557.18
889.6	9540.91
889.917	9466.78
890.233	9476.95
890.55	9426.56
890.866	9434.47
891.182	9344.53
891.498	9336.17
891.815	9373.91
892.131	9323.29
892.447	9240.35
892.763	9259.56
893.079	9265.21
893.395	9198.54
893.71	9171.65
894.026	9144.76
894.342	9133.91
894.657	9095.72
894.973	9031.32
895.289	9039.23
895.604	9003.29
895.92	8835.62
896.235	8919
896.55	8880.81
896.865	8862.96
897.181	8859.12
897.496	8816.41
897.811	8795.84
898.126	8790.64
898.441	8767.14
898.756	8667.71
899.071	8720.59
899.386	8653.25
899.7	8512.69
900.015	8558.56
900.33	8478.11
900.644	8519.24
900.959	8547.71
901.273	8434.5
901.588	8438.11
901.902	8396.08
902.216	8414.84
902.531	8334.84
902.845	8306.14
903.159	8258.23
903.473	8169.19
903.787	8188.85
904.101	8161.28
904.415	8165.8
904.729	8061.85
905.042	8014.39
905.356	8041.74
905.67	8052.36
905.984	7993.83
906.297	8001.51
906.611	7884.45
906.924	7882.42
907.237	7870.67
907.551	7867.05
907.864	7771.01
908.177	7812.82
908.491	7741.41
908.804	7674.97
909.117	7628.87
909.43	7653.27
909.743	7577.12
910.056	7593.61
910.368	7558.36
910.681	7576.44
910.994	7466.61
911.307	7441.3
911.619	7386.84
911.932	7417.57
912.244	7304.36
912.557	7326.28
912.869	7292.6
913.181	7273.85
913.494	7270.91
913.806	7148.88
914.118	7162.44
914.43	7164.7
914.742	7133.96
915.054	7082.67
915.366	7053.74
915.678	7020.07
915.99	6947.98
916.302	6900.07
916.613	6941.43
916.925	6935.78
917.236	6877.47
917.548	6865.5
917.859	6874.76
918.171	6782.11
918.482	6786.86
918.794	6753.86
919.105	6753.18
919.416	6658.27
919.727	6644.03
920.038	6622.79
920.349	6567.65
920.66	6570.59
920.971	6556.35
921.282	6560.65
921.593	6509.12
921.903	6447.88
922.214	6424.38
922.525	6435.9
922.835	6398.84
923.146	6356.36
923.456	6336.02
923.767	6370.82
924.077	6314.78
924.387	6287.66
924.697	6223.93
925.008	6196.81
925.318	6150.26
925.628	6176.25
925.938	6129.47
926.248	6110.72
926.558	6049.93
926.867	6049.25
927.177	6016.25
927.487	5998.18
927.796	5984.39
928.106	5963.83
928.416	5960.89
928.725	5958.18
929.034	5859.42
929.344	5882.7
929.653	5859.42
929.962	5816.94
930.271	5805.86
930.581	5771.97
930.89	5770.16
931.199	5748.46
931.508	5724.96
931.817	5686.55
932.125	5658.07
932.434	5694
932.743	5620.11
933.051	5593.21
933.36	5572.42
933.669	5572.42
933.977	5533.78
934.286	5518.64
934.594	5495.14
934.902	5488.13
935.21	5421.92
935.519	5483.16
935.827	5421.69
936.135	5367.46
936.443	5349.15
936.751	5305.54
937.059	5303.28
937.367	5267.35
937.674	5289.04
937.982	5242.72
938.29	5259.44
938.597	5217.41
938.905	5152.77
939.213	5152.55
939.52	5128.37
939.827	5127.24
940.135	5094.92
940.442	5066.67
940.749	5055.83
941.056	4999.11
941.363	4948.03
941.67	4985.09
941.977	4943.51
942.284	4928.37
942.591	4906
942.898	4861.03
943.205	4858.77
943.511	4856.28
943.818	4848.15
944.125	4835.49
944.431	4766.12
944.738	4779.9
945.044	4706.46
945.35	4765.21
945.657	4712.56
945.963	4701.49
946.269	4647.93
946.575	4675.27
946.881	4628.27
947.187	4604.31
947.493	4570.19
947.799	4563.41
948.105	4576.29
948.41	4538.78
948.716	4491.55
949.022	4456.07
949.327	4459.46
949.633	4437.54
949.938	4446.35
950.244	4415.17
950.549	4393.25
950.854	4353.02
951.16	4345.79
951.465	4341.5
951.77	4316.86
952.075	4274.15
952.38	4300.82
952.685	4298.56
952.99	4251.33
953.294	4235.96
953.599	4187.38
953.904	4183.99
954.209	4149.64
954.513	4181.27
954.818	4134.5
955.122	4111.22
955.426	4087.94
955.731	4087.94
956.035	4064.22
956.339	4039.36
956.643	4009.53
956.948	4001.62
957.252	3975.4
957.556	3958.46
957.86	3948.06
958.163	3948.96
958.467	3946.48
958.771	3916.87
959.075	3927.5
959.378	3871.68
959.682	3915.52
959.985	3832.36
960.289	3827.61
960.592	3843.43
960.896	3820.83
961.199	3732.02
961.502	3770.89
961.805	3778.35
962.108	3775.41
962.411	3729.08
962.714	3726.37
963.017	3696.77
963.32	3689.08
963.623	3668.75
963.926	3639.37
964.228	3626.03
964.531	3619.48
964.833	3631.23
965.136	3615.87
965.438	3563.21
965.741	3553.04
966.043	3532.25
966.345	3500.84
966.648	3499.71
966.95	3540.39
967.252	3482.99
967.554	3455.87
967.856	3438.69
968.158	3408.41
968.46	3435.76
968.761	3391.01
969.063	3371.8
969.365	3309.66
969.666	3349.88
969.968	3339.26
970.269	3306.27
970.571	3274.41
970.872	3316.21
971.174	3270.34
971.475	3305.14
971.776	3249.32
972.077	3243.9
972.378	3221.07
972.679	3219.72
972.98	3193.96
973.281	3182.66
973.582	3207.97
973.883	3133.17
974.183	3122.55
974.484	3169.55
974.785	3095.43
975.085	3106.05
975.386	3083.45
975.686	3119.83
975.986	3069.21
976.287	3070.12
976.587	3016.33
976.887	3050.46
977.187	3046.61
977.487	3003.23
977.787	3000.29
978.087	2986.96
978.387	2957.13
978.687	2904.47
978.987	2936.34
979.286	2922.1
979.586	2934.3
979.885	2892.04
980.185	2862.66
980.484	2851.14
980.784	2839.61
981.083	2851.82
981.382	2819.05
981.682	2815.89
981.981	2826.28
982.28	2783.12
982.579	2755.77
982.878	2749.9
983.177	2755.55
983.475	2775.66
983.774	2770.46
984.073	2717.13
984.372	2707.19
984.67	2652.95
984.969	2688.21
985.267	2690.01
985.566	2655.66
985.864	2640.52
986.162	2628.09
986.461	2656.57
986.759	2598.49
987.057	2614.54
987.355	2591.94
987.653	2574.76
987.951	2562.11
988.249	2548.77
988.547	2527.08
988.844	2555.1
989.142	2503.35
989.44	2496.12
989.737	2444.6
990.035	2487.99
990.332	2444.37
990.63	2465.39
990.927	2424.94
991.224	2414.32
991.521	2460.42
991.819	2425.16
992.116	2386.75
992.413	2355.79
992.71	2351.04
993.006	2347.42
993.303	2370.02
993.6	2342.45
993.897	2321.66
994.193	2330.02
994.49	2319.85
994.787	2282.12
995.083	2254.09
995.379	2251.83
995.676	2272.62
995.972	2246.41
996.268	2271.72
996.565	2232.62
996.861	2224.72
997.157	2224.49
997.453	2218.84
997.749	2201.21
998.044	2223.13
998.34	2195.79
998.636	2157.6
998.932	2151.95
999.227	2099.3
999.523	2143.59
999.818	2110.37
1000.114	2102.01
1000.409	2061.78
1000.704	2051.61
1001	2111.05
1001.295	2070.6
1001.59	2032.4
1001.885	2042.57
1002.18	2026.08
1002.475	2028.34
1002.77	2044.61
1003.065	2001.9
1003.359	1959.19
1003.654	1964.38
1003.949	1957.15
1004.243	1950.6
1004.538	1918.06
1004.832	1914.89
1005.127	1918.73
1005.421	1892.97
1005.715	1925.97
1006.009	1905.4
1006.304	1898.62
1006.598	1856.59
1006.892	1838.96
1007.186	1824.5
1007.48	1826.31
1007.773	1825.18
1008.067	1803.94
1008.361	1818.4
1008.655	1796.25
1008.948	1773.43
1009.242	1761
1009.535	1755.12
1009.829	1738.63
1010.122	1733.43
1010.415	1716.93
1010.708	1732.3
1011.001	1730.72
1011.295	1676.93
1011.588	1697.27
1011.881	1673.77
1012.173	1708.12
1012.466	1660.66
1012.759	1630.83
1013.052	1625.86
1013.344	1636.93
1013.637	1617.05
1013.93	1624.28
1014.222	1620.44
1014.514	1582.02
1014.807	1606.88
1015.099	1569.59
1015.391	1567.56
1015.683	1585.86
1015.976	1546.54
1016.268	1533.43
1016.56	1534.34
1016.851	1519.2
1017.143	1493.66
1017.435	1514.9
1017.727	1464.06
1018.018	1523.72
1018.31	1489.59
1018.602	1467.45
1018.893	1476.03
1019.185	1429.03
1019.476	1431.74
1019.767	1410.73
1020.058	1416.6
1020.35	1394.91
1020.641	1383.61
1020.932	1389.94
1021.223	1385.87
1021.514	1384.96
1021.804	1369.82
1022.095	1372.76
1022.386	1380.22
1022.677	1352.42
1022.967	1339.99
1023.258	1318.52
1023.548	1315.13
1023.839	1310.16
1024.129	1295.25
1024.419	1297.73
1024.709	1284.4
1025	1293.21
1025.29	1295.93
1025.58	1231.97
1025.87	1258.19
1026.16	1257.06
1026.449	1232.2
1026.739	1205.53
1027.029	1223.84
1027.319	1203.95
1027.608	1212.54
1027.898	1202.6
1028.187	1175.7
1028.477	1185.42
1028.766	1162.6
1029.055	1159.88
1029.344	1144.97
1029.634	1139.55
1029.923	1147.23
1030.212	1129.83
1030.501	1144.97
1030.79	1116.5
1031.078	1106.33
1031.367	1100.68
1031.656	1104.07
1031.945	1085.08
1032.233	1073.11
1032.522	1064.29
1032.81	1096.61
1033.099	1049.61
1033.387	1061.81
1033.675	1076.27
1033.963	1033.33
1034.251	1038.08
1034.54	1036.05
1034.828	1026.78
1035.116	1006.67
1035.403	1001.02
1035.691	1012.54
1035.979	996.95
1036.267	999.21
1036.554	961.92
1036.842	940
1037.129	965.77
1037.417	961.7
1037.704	970.74
1037.992	961.02
1038.279	940
1038.566	935.48
1038.853	935.48
1039.14	935.48
