Data from hue_34_FLMS001491_00070.txt Node
Date: Tue Feb 07 17:25:59 GMT 2017
User: dcchb
Spectrometer: FLMS00149
Trigger mode: 0
Integration Time (sec): 2.000000E-2
Scans to average: 10
Electric dark correction enabled: true
Nonlinearity correction enabled: false
Boxcar width: 0
XAxis mode: Wavelengths
Number of Pixels in Spectrum: 2048
>>>>>Begin Spectral Data<<<<<
341.393	-9.69
341.776	-9.69
342.16	-9.69
342.543	-62.79
342.927	-46.52
343.31	-75.22
343.693	-52.17
344.077	-65.96
344.46	-60.31
344.843	-72.29
345.226	-35.68
345.61	-55.56
345.993	-27.54
346.376	-4.72
346.759	21.04
347.142	12.46
347.525	34.38
347.908	57.88
348.291	81.38
348.674	101.95
349.057	140.36
349.44	129.52
349.823	153.7
350.206	178.33
350.588	201.38
350.971	223.75
351.354	236.41
351.737	247.71
352.119	272.11
352.502	257.42
352.884	269.63
353.267	292.9
353.65	284.99
354.032	299.23
354.414	316.18
354.797	292
355.179	322.28
355.562	303.75
355.944	327.25
356.326	343.97
356.709	340.36
357.091	357.98
357.473	344.88
357.855	346.23
358.238	360.7
358.62	360.92
359.002	332.45
359.384	331.09
359.766	334.93
360.148	352.56
360.53	338.32
360.912	346.23
361.294	324.09
361.676	332.9
362.057	330.64
362.439	334.48
362.821	336.29
363.203	332.22
363.584	333.35
363.966	310.53
364.348	325.67
364.729	309.4
365.111	308.04
365.493	327.03
365.874	315.27
366.256	316.18
366.637	322.96
367.019	319.12
367.4	332.67
367.781	329.06
368.163	313.69
368.544	303.3
368.925	322.96
369.306	322.05
369.688	336.52
370.069	308.04
370.45	324.54
370.831	311.21
371.212	301.94
371.593	312.34
371.974	314.6
372.355	308.04
372.736	310.08
373.117	318.89
373.498	294.26
373.879	344.2
374.26	313.92
374.641	325.67
375.021	319.79
375.402	341.26
375.783	308.72
376.163	343.52
376.544	334.26
376.925	322.05
377.305	323.18
377.686	331.77
378.066	338.1
378.447	340.58
378.827	314.6
379.208	325.67
379.588	349.4
379.968	336.52
380.349	338.55
380.729	348.04
381.109	335.61
381.489	339.45
381.87	323.18
382.25	333.13
382.63	338.78
383.01	358.89
383.39	341.49
383.77	335.39
384.15	329.51
384.53	339.45
384.91	336.29
385.29	357.98
385.67	351.88
386.049	356.18
386.429	359.79
386.809	348.95
387.189	355.05
387.568	358.44
387.948	357.08
388.328	370.64
388.707	359.79
389.087	340.13
389.466	377.19
389.846	364.99
390.225	370.87
390.605	359.79
390.984	380.13
391.363	363.63
391.743	363.41
392.122	369.28
392.501	376.29
392.881	389.17
393.26	373.58
393.639	372.67
394.018	373.35
394.397	414.71
394.776	382.62
395.155	364.31
395.534	382.84
395.913	391.2
396.292	373.58
396.671	392.79
397.05	377.65
397.429	381.04
397.808	370.64
398.186	391.43
398.565	402.05
398.944	406.8
399.323	392.79
399.701	394.82
400.08	418.32
400.458	403.86
400.837	387.59
401.215	411.99
401.594	404.99
401.972	390.3
402.351	407.02
402.729	417.87
403.107	418.32
403.486	413.35
403.864	425.78
404.242	424.65
404.62	419.45
404.999	441.82
405.377	422.84
405.755	428.49
406.133	425.1
406.511	449.73
406.889	450.64
407.267	435.5
407.645	428.27
408.023	475.27
408.401	466.46
408.779	452.45
409.156	462.16
409.534	454.48
409.912	444.31
410.29	451.77
410.667	438.21
411.045	452.45
411.422	472.56
411.8	478.89
412.178	470.98
412.555	468.49
412.933	454.25
413.31	470.07
413.687	489.73
414.065	514.14
414.442	477.53
414.819	472.78
415.197	501.03
415.574	501.03
415.951	500.81
416.328	504.42
416.705	480.02
417.082	492.22
417.46	517.75
417.837	536.06
418.214	519.56
418.591	503.74
418.967	526.34
419.344	500.13
419.721	524.99
420.098	515.49
420.475	514.59
420.852	540.8
421.228	546
421.605	529.96
421.982	542.61
422.358	557.3
422.735	538.32
423.111	543.29
423.488	556.17
423.864	570.63
424.241	567.02
424.617	583.97
424.994	555.95
425.37	569.73
425.746	574.02
426.123	584.19
426.499	602.95
426.875	585.1
427.251	591.2
427.627	593.23
428.003	616.28
428.379	586
428.756	596.4
429.132	641.14
429.507	619.22
429.883	618.09
430.259	646.56
430.635	627.58
431.011	659.45
431.387	642.27
431.763	675.72
432.138	641.37
432.514	659.45
432.89	662.16
433.265	650.41
433.641	672.33
434.016	659.67
434.392	671.65
434.767	695.15
435.143	698.77
435.518	704.19
435.894	701.93
436.269	690.86
436.644	693.8
437.02	720.24
437.395	702.16
437.77	721.37
438.145	738.77
438.52	756.39
438.895	748.48
439.271	757.07
439.646	752.1
440.021	756.17
440.395	784.41
440.77	763.17
441.145	773.12
441.52	785.32
441.895	771.99
442.27	803.17
442.645	785.32
443.019	799.1
443.394	789.61
443.769	795.26
444.143	803.85
444.518	812.66
444.892	796.17
445.267	829.84
445.641	830.06
446.016	824.64
446.39	801.14
446.764	844.98
447.139	833.68
447.513	861.93
447.887	857.86
448.262	853.57
448.636	841.14
449.01	858.76
449.384	856.95
449.758	886.11
450.132	894.92
450.506	894.47
450.88	870.29
451.254	890.17
451.628	904.64
452.002	907.8
452.376	908.03
452.75	903.73
453.123	927.24
453.497	927.46
453.871	940.57
454.244	958.87
454.618	947.8
454.992	987.35
455.365	956.61
455.739	1002.04
456.112	995.71
456.486	995.03
456.859	1017.18
457.232	1056.95
457.606	1035.48
457.979	1069.83
458.352	1066.44
458.725	1051.53
459.099	1083.16
459.472	1126.78
459.845	1087.91
460.218	1114.8
460.591	1131.3
460.964	1111.64
461.337	1142.37
461.71	1157.29
462.083	1178.3
462.456	1192.54
462.829	1174.46
463.201	1192.77
463.574	1200.67
463.947	1213.78
464.32	1236.15
464.692	1280.22
465.065	1298.07
465.438	1275.47
465.81	1317.96
466.183	1325.19
466.555	1349.37
466.928	1360.44
467.3	1374.46
467.672	1414.23
468.045	1386.21
468.417	1410.84
468.789	1443.83
469.161	1462.59
469.534	1471.85
469.906	1496.49
470.278	1542.59
470.65	1559.99
471.022	1585.3
471.394	1605.64
471.766	1630.95
472.138	1668.91
472.51	1676.14
472.882	1714.11
473.253	1773.09
473.625	1795.01
473.997	1813.31
474.369	1851.96
474.74	1855.8
475.112	1898.51
475.484	1893.09
475.855	1983.7
476.227	1998.85
476.598	2065.06
476.97	2099.41
477.341	2153.87
477.713	2207.65
478.084	2220.08
478.455	2305.73
478.827	2322
479.198	2395.9
479.569	2389.57
479.94	2491.04
480.311	2547.53
480.682	2600.86
481.053	2686.29
481.424	2749.79
481.795	2804.7
482.166	2870.46
482.537	2942.32
482.908	3017.8
483.279	3058.48
483.65	3136.44
484.021	3251.24
484.391	3280.17
484.762	3330.56
485.133	3402.65
485.503	3447.85
485.874	3551.12
486.244	3622.76
486.615	3735.3
486.985	3808.52
487.356	3895.29
487.726	3958.79
488.097	4053.03
488.467	4096.19
488.837	4224.1
489.207	4328.73
489.578	4439.23
489.948	4534.37
490.318	4569.4
490.688	4628.83
491.058	4750.19
491.428	4886
491.798	4914.25
492.168	5036.28
492.538	5060.69
492.908	5170.51
493.278	5254.81
493.648	5326.67
494.017	5442.82
494.387	5500.67
494.757	5588.81
495.126	5716.94
495.496	5715.81
495.866	5781.57
496.235	5920.55
496.605	6054.11
496.974	6013.2
497.344	6117.61
497.713	6236.02
498.082	6341.1
498.452	6365.96
498.821	6443.7
499.19	6463.14
499.559	6576.58
499.928	6611.38
500.298	6728.66
500.667	6801.21
501.036	6789.23
501.405	6915.1
501.774	7035.32
502.143	7061.54
502.512	7063.12
502.88	7214.08
503.249	7185.38
503.618	7255.66
503.987	7357.57
504.356	7427.18
504.724	7477.35
505.093	7477.8
505.462	7605.48
505.83	7679.37
506.199	7710.11
506.567	7827.17
506.936	7788.3
507.304	7947.62
507.672	7952.59
508.041	8039.36
508.409	8135.86
508.777	8136.54
509.145	8245.69
509.514	8249.75
509.882	8321.84
510.25	8372.69
510.618	8460.37
510.986	8417.89
511.354	8532.46
511.722	8574.49
512.09	8693.58
512.458	8727.71
512.826	8712.12
513.193	8798.21
513.561	8822.85
513.929	8927.03
514.297	8968.61
514.664	9064.65
515.032	9129.96
515.4	9173.57
515.767	9246.79
516.135	9231.88
516.502	9258.54
516.869	9385.77
517.237	9391.87
517.604	9385.32
517.972	9420.57
518.339	9559.32
518.706	9576.05
519.073	9555.94
519.44	9681.13
519.808	9710.06
520.175	9670.96
520.542	9851.29
520.909	9915.25
521.276	9917.06
521.643	9913.89
522.009	10138.07
522.376	10115.24
522.743	10164.05
523.11	10270.72
523.477	10404.73
523.843	10384.61
524.21	10492.41
524.577	10588.9
524.943	10559.75
525.31	10659.41
525.676	10724.72
526.043	10736.24
526.409	10893.3
526.776	10888.56
527.142	11014.43
527.508	11054.65
527.874	11060.98
528.241	11131.94
528.607	11173.97
528.973	11286.29
529.339	11338.94
529.705	11440.63
530.071	11605.37
530.437	11578.03
530.803	11561.31
531.169	11643.56
531.535	11744.35
531.901	11718.82
532.267	11822.99
532.632	11870.9
532.998	11992.03
533.364	12034.97
533.73	12001.52
534.095	12143.89
534.461	12084.68
534.826	12219.37
535.192	12210.33
535.557	12358.8
535.923	12291.68
536.288	12355.18
536.653	12523.31
537.019	12425.46
537.384	12496.2
537.749	12531.45
538.114	12557.21
538.479	12612.8
538.845	12747.04
539.21	12733.7
539.575	12728.06
539.94	12795.17
540.305	12960.82
540.67	12903.42
541.034	13016.18
541.399	13048.05
541.764	13139.8
542.129	13101.83
542.494	13159.68
542.858	13243.3
543.223	13234.26
543.587	13337.08
543.952	13391.99
544.316	13380.02
544.681	13394.25
545.045	13482.39
545.41	13532.1
545.774	13606.22
546.138	13676.05
546.503	13754.47
546.867	13848.03
547.231	13878.53
547.595	13936.16
547.959	13940.45
548.324	14001.47
548.688	14061.81
549.052	13974.58
549.416	14091.18
549.779	14099.77
550.143	14188.58
550.507	14234
550.871	14343.38
551.235	14239.88
551.599	14416.37
551.962	14488.91
552.326	14455.24
552.689	14611.17
553.053	14511.06
553.417	14528.46
553.78	14777.72
554.143	14621.11
554.507	14692.75
554.87	14786.31
555.234	14883.03
555.597	14831.5
555.96	14900.88
556.323	15046.64
556.686	14952.63
557.05	15174.32
557.413	15127.77
557.776	15145.62
558.139	15318.04
558.502	15434.88
558.865	15364.37
559.228	15455.89
559.59	15520.52
559.953	15526.63
560.316	15667.41
560.679	15677.58
561.041	15789.22
561.404	15791.03
561.767	15910.12
562.129	15816.11
562.492	16037.12
562.854	15999.83
563.217	16025.82
563.579	16083.9
563.941	16291.13
564.304	16227.62
564.666	16270.56
565.028	16430.56
565.39	16420.39
565.753	16544.45
566.115	16502.42
566.477	16660.83
566.839	16634.39
567.201	16680.95
567.563	16805.91
567.925	16889.3
568.287	16910.09
568.648	16958.23
569.01	17035.74
569.372	17171.1
569.734	17005.68
570.095	17209.97
570.457	17288.61
570.819	17341.49
571.18	17438.44
571.542	17491.55
571.903	17548.04
572.265	17671.88
572.626	17644.08
572.987	17808.37
573.349	17814.25
573.71	17946.9
574.071	18048.14
574.432	18125.43
574.794	18286.33
575.155	18347.34
575.516	18369.04
575.877	18548.02
576.238	18546.21
576.599	18741
576.96	18827.33
577.32	18924.28
577.681	19083.14
578.042	19191.39
578.403	19270.26
578.763	19342.12
579.124	19541.66
579.485	19666.18
579.845	19868.21
580.206	19943.46
580.566	20063.23
580.927	20187.29
581.287	20448.53
581.648	20506.38
582.008	20767.39
582.368	20859.59
582.728	21119.25
583.089	21214.16
583.449	21333.03
583.809	21486.69
584.169	21768.72
584.529	21836.52
584.889	22311.53
585.249	22295.04
585.609	22406.9
585.969	22815.7
586.329	22949.03
586.688	23217.27
587.048	23332.97
587.408	23585.17
587.768	23760.08
588.127	23986.97
588.487	24100.19
588.846	24587.63
589.206	24667.85
589.565	24832.82
589.925	25190.78
590.284	25240.49
590.643	25677.77
591.003	25894.94
591.362	26115.95
591.721	26328.15
592.08	26592.1
592.44	27019.66
592.799	27114.57
593.158	27294.23
593.517	27654.22
593.876	27944.6
594.235	27984.6
594.593	28411.71
594.952	28574.64
595.311	28736.45
595.67	29078.36
596.029	29464.34
596.387	29678.8
596.746	29985
597.104	29936.87
597.463	30230.42
597.822	30543.86
598.18	30714.47
598.538	31000.34
598.897	31282.6
599.255	31352.65
599.613	31830.83
599.972	31905.63
600.33	32238.28
600.688	32345.17
601.046	32605.72
601.404	32900.63
601.762	32996.67
602.12	33302.66
602.478	33465.14
602.836	33751.23
603.194	33643.89
603.552	33875.07
603.91	34049.75
604.268	34567.03
604.625	34599.12
604.983	34912.56
605.341	34807.7
605.698	35256.5
606.056	35469.38
606.413	35621.24
606.771	35754.12
607.128	35940.55
607.485	35999.53
607.843	36220.54
608.2	36519.29
608.557	36696.24
608.914	36733.3
609.272	37007.87
609.629	37130.8
609.986	37458.7
610.343	37391.36
610.7	37920.84
611.057	37771.46
611.414	37951.35
611.771	38194.73
612.127	38474.5
612.484	38311.56
612.841	38641.5
613.198	38532.8
613.554	38748.84
613.911	39027.48
614.267	39056.85
614.624	39167.13
614.98	39322.84
615.337	39498.88
615.693	39511.08
616.05	39522.6
616.406	39809.6
616.762	39865.65
617.118	39932.76
617.475	40079.43
617.831	40203.94
618.187	40340.21
618.543	40488.23
618.899	40683.48
619.255	40683.03
619.611	40771.16
619.967	40930.93
620.323	41121.43
620.678	40975.22
621.034	40989.46
621.39	41090.02
621.746	41069.91
622.101	41665.83
622.457	41348.55
622.812	41539.73
623.168	41572.04
623.523	41692.27
623.879	41854.52
624.234	41578.6
624.589	41885.03
624.945	42054.06
625.3	41976.55
625.655	42044.12
626.01	41976.33
626.365	42098.36
626.72	42115.76
627.075	42120.05
627.43	42194.4
627.785	42144.46
628.14	42179.03
628.495	42218.13
628.85	42381.29
629.205	42288.18
629.559	42499.7
629.914	42327.5
630.269	42391.46
630.623	42253.83
630.978	42154.85
631.332	42358.69
631.687	42449.53
632.041	42330.21
632.396	42449.53
632.75	42302.19
633.104	42403.89
633.459	42429.87
633.813	42319.14
634.167	42368.18
634.521	42374.96
634.875	42291.57
635.229	42344.68
635.583	42316.66
635.937	42382.64
636.291	42245.25
636.645	42266.71
636.999	42322.98
637.352	42249.99
637.706	42128.86
638.06	42230.78
638.413	42321.4
638.767	42182.65
639.121	42238.01
639.474	42027.62
639.828	42159.15
640.181	42121.63
640.534	42122.08
640.888	41990.56
641.241	41748.99
641.594	42022.43
641.947	41997.79
642.301	41978.13
642.654	42084.57
643.007	42013.61
643.36	41937.68
643.713	41781.53
644.066	42193.5
644.419	41842.09
644.771	41646.62
645.124	41240.98
645.477	41202.79
645.83	40917.6
646.182	40757.6
646.535	40671.73
646.888	40697.04
647.24	40449.81
647.593	40738.17
647.945	40655.23
648.298	40459.3
648.65	40355.8
649.002	40407.55
649.355	40524.61
649.707	40510.38
650.059	40590.83
650.411	41218.38
650.763	41222.67
651.115	41555.09
651.467	41277.14
651.819	41331.14
652.171	41186.29
652.523	41166.4
652.875	41306.06
653.227	41160.08
653.578	41323.01
653.93	41320.52
654.282	41211.37
654.633	41108.33
654.985	41235.33
655.337	41270.13
655.688	41133.86
656.039	41233.07
656.391	40838.5
656.742	41182.9
657.094	41093.64
657.445	41172.96
657.796	41066.07
658.147	40984.49
658.498	41069
658.849	41071.49
659.2	40959.18
659.551	41001.66
659.902	41028.33
660.253	40936.13
660.604	41149.23
660.955	40848.45
661.306	40954.43
661.656	40861.55
662.007	40792.18
662.358	40758.96
662.708	40873.08
663.059	40853.42
663.409	40765.51
663.76	40886.86
664.11	40967.76
664.461	40927.77
664.811	40863.59
665.161	40961.89
665.511	40772.74
665.862	40779.07
666.212	40923.47
666.562	40797.83
666.912	40687.09
667.262	40626.98
667.612	40784.49
667.962	40774.78
668.312	40754.21
668.662	40960.08
669.011	40754.66
669.361	40777.71
669.711	40671.5
670.06	40676.47
670.41	40647.1
670.76	40563.48
671.109	40600.99
671.459	40623.59
671.808	40492.3
672.157	40661.78
672.507	40323.94
672.856	40428.57
673.205	40506.76
673.554	40561.45
673.904	40398.74
674.253	40586.98
674.602	40413.88
674.951	39856.38
675.3	39782.49
675.649	40378.85
675.998	40412.52
676.346	40323.04
676.695	40497.49
677.044	40260.44
677.393	40403.94
677.741	40318.29
678.09	40274
678.438	40166.43
678.787	40296.6
679.135	40280.78
679.484	40038.75
679.832	40083.95
680.181	39881.69
680.529	39968.47
680.877	39787.23
681.225	39887.79
681.573	40087.34
681.922	39733.22
682.27	39626.56
682.618	39821.13
682.966	39608.7
683.314	39680.79
683.661	39457.97
684.009	39519.67
684.357	39275.38
684.705	39279.9
685.053	39345.66
685.4	39240.58
685.748	39034.71
686.095	39024.09
686.443	38959.23
686.79	38847.59
687.138	39040.81
687.485	38903.41
687.832	38852.57
688.18	38931.89
688.527	38672.91
688.874	38589.75
689.221	38446.7
689.568	38314.05
689.915	38375.74
690.262	38373.03
690.609	38130.1
690.956	38110.89
691.303	38098.01
691.65	37952.7
691.997	37913.83
692.344	37806.27
692.69	37633.61
693.037	37670.68
693.383	37406.5
693.73	37496.9
694.077	37446.73
694.423	37390.01
694.769	37340.29
695.116	37265.04
695.462	37157.24
695.808	37037.92
696.155	37103.01
696.501	36777.82
696.847	36750.7
697.193	36485.17
697.539	36644.94
697.885	36402.91
698.231	36345.51
698.577	36334.21
698.923	36261.67
699.269	36141.9
699.614	35967.22
699.96	35828.24
700.306	35799.09
700.651	35750.27
700.997	35644.74
701.342	35571.97
701.688	35538.98
702.033	35462.6
702.379	35307.57
702.724	35252.66
703.069	35410.85
703.415	34866.68
703.76	34947.36
704.105	34934.25
704.45	34753.01
704.795	34642.96
705.14	34593.24
705.485	34581.27
705.83	34424.21
706.175	34342.18
706.52	34425.34
706.865	34330.43
707.209	34267.83
707.554	33996.2
707.899	33998.68
708.243	34072.58
708.588	33878.23
708.932	33689.99
709.277	33693.61
709.621	33720.5
709.966	33606.15
710.31	33633.95
710.654	33313.95
710.998	33379.94
711.342	33318.02
711.687	33242.09
712.031	33163
712.375	33064.47
712.719	33067.63
713.063	32970.69
713.407	33061.53
713.75	32866.06
714.094	32925.04
714.438	32671.71
714.782	32759.84
715.125	32598.95
715.469	32674.65
715.812	32396.69
716.156	32375.9
716.499	32227.2
716.843	32264.04
717.186	32093.42
717.53	32296.13
717.873	32215
718.216	32064.72
718.559	32043.03
718.902	31763.03
719.246	31797.84
719.589	31728.69
719.932	31695.24
720.275	31656.82
720.617	31558.07
720.96	31624.96
721.303	31555.58
721.646	31559.65
721.989	31454.12
722.331	31441.69
722.674	31280.11
723.016	31398.07
723.359	31337.51
723.701	31308.13
724.044	31134.8
724.386	31066.33
724.729	31242.37
725.071	31169.83
725.413	30891.87
725.755	30843.06
726.097	30772.33
726.439	30747.92
726.782	30673.12
727.124	30923.06
727.465	30704.53
727.807	30673.8
728.149	30669.05
728.491	30649.17
728.833	30566.23
729.175	30503.18
729.516	30384.54
729.858	30413.92
730.199	30340.93
730.541	30186.58
730.882	30240.59
731.224	30411.66
731.565	30039.92
731.906	29993.14
732.248	30228.39
732.589	29925.12
732.93	29965.57
733.271	29848.73
733.612	29857.32
733.953	30054.38
734.294	29801.5
734.635	29747.49
734.976	29875.63
735.317	29629.08
735.658	29679.93
735.999	29776.87
736.339	29538.46
736.68	29544.34
737.021	29432.02
737.361	29288.52
737.702	29538.91
738.042	29444.45
738.383	29309.54
738.723	29326.26
739.063	29253.04
739.404	29284.68
739.744	29074.97
740.084	29113.61
740.424	29231.12
740.764	29101.41
741.104	29191.8
741.444	28909.55
741.784	28865.26
742.124	28954.52
742.464	28887.4
742.804	28909.55
743.143	28820.97
743.483	28872.49
743.823	28591.82
744.162	28584.81
744.502	28553.63
744.841	28581.2
745.181	28551.82
745.52	28561.54
745.86	28549.79
746.199	28468.43
746.538	28486.06
746.877	28559.05
747.216	28375.55
747.556	28277.7
747.895	28253.3
748.234	28142.57
748.573	28059.18
748.911	28119.51
749.25	28072.51
749.589	27852.18
749.928	28004.04
750.267	28024.83
750.605	27946.41
750.944	27848.11
751.283	27787.55
751.621	27916.13
751.96	27663.03
752.298	27659.41
752.636	27670.04
752.975	27536.03
753.313	27440.66
753.651	27554.56
753.989	27378.52
754.327	27429.82
754.666	27187.11
755.004	27349.14
755.342	27235.92
755.679	27159.54
756.017	27012.65
756.355	27070.73
756.693	27009.71
757.031	26990.73
757.368	26891.07
757.706	26737.86
758.044	26668.71
758.381	26718.2
758.719	26637.75
759.056	26587.13
759.394	26537.64
759.731	26294.93
760.068	26303.52
760.405	26316.4
760.743	26232.78
761.08	26301.71
761.417	26078.44
761.754	26011.77
762.091	26036.18
762.428	25929.52
762.765	25755.06
763.102	25838.67
763.438	25651.78
763.775	25537.89
764.112	25602.97
764.449	25601.16
764.785	25441.62
765.122	25270.32
765.458	25254.05
765.795	25127.5
766.131	25131.57
766.467	24987.85
766.804	24819.71
767.14	24797.12
767.476	24761.41
767.812	24718.47
768.148	24786.72
768.485	24534.3
768.821	24470.35
769.157	24348.99
769.492	24314.42
769.828	24325.26
770.164	24002.79
770.5	24028.1
770.836	24008.89
771.171	23968.66
771.507	23822.23
771.842	23667.88
772.178	23666.98
772.513	23574.78
772.849	23482.57
773.184	23360.09
773.519	23460.43
773.855	23398.06
774.19	23119.65
774.525	23142.7
774.86	23062.25
775.195	22956.94
775.53	22900.9
775.865	22756.04
776.2	22593.11
776.535	22615.93
776.87	22552.66
777.205	22476.95
777.539	22276.73
777.874	22374.13
778.209	22137.07
778.543	22129.16
778.878	22025.21
779.212	21953.35
779.547	21846.23
779.881	21847.59
780.215	21786.8
780.55	21779.12
780.884	21584.77
781.218	21552.68
781.552	21539.12
781.886	21355.62
782.22	21257.1
782.554	21210.54
782.888	20967.84
783.222	20934.62
783.556	20872.93
783.889	20835.64
784.223	20717.9
784.557	20618.02
784.89	20757.45
785.224	20543.44
785.557	20372.6
785.891	20446.95
786.224	20376.22
786.558	20361.98
786.891	20136.67
787.224	20039.5
787.557	19994.53
787.891	20008.54
788.224	19919.5
788.557	20034.53
788.89	19818.04
789.223	19758.83
789.556	19693.75
789.888	19620.98
790.221	19650.36
790.554	19452.17
790.887	19407.2
791.219	19304.38
791.552	19260.54
791.884	19256.25
792.217	19203.37
792.549	19100.32
792.882	18959.76
793.214	18897.84
793.546	18917.27
793.879	18722.25
794.211	18665.3
794.543	18734.68
794.875	18551.63
795.207	18722.25
795.539	18619.65
795.871	18466.44
796.203	18356.61
796.535	18196.61
796.867	18217.63
797.198	18199.1
797.53	18244.75
797.862	18088.59
798.193	17986.67
798.525	18015.37
798.856	18052.21
799.188	17835.72
799.519	17827.81
799.85	17670.52
800.182	17739.9
800.513	17705.55
800.844	17462.39
801.175	17641.15
801.506	17603.63
801.837	17485.9
802.168	17492
802.499	17410.42
802.83	17241.16
803.161	17308.05
803.491	17203.87
803.822	17158.67
804.153	17042.74
804.483	16993.03
804.814	16926.59
805.145	16856.08
805.475	16884.33
805.805	16736.31
806.136	16776.08
806.466	16723.88
806.796	16691.34
807.126	16674.84
807.457	16586.94
807.787	16593.04
808.117	16506.71
808.447	16410.9
808.777	16367.96
809.107	16347.85
809.436	16232.14
809.766	16417.68
810.096	16194.86
810.426	16152.6
810.755	16162.09
811.085	16094.07
811.414	16075.31
811.744	15878.03
812.073	15913.73
812.403	15820.4
812.732	15814.3
813.061	15792.83
813.39	15676.23
813.719	15770.69
814.049	15743.34
814.378	15647.75
814.707	15549.22
815.036	15622.22
815.365	15470.58
815.693	15378.61
816.022	15415.44
816.351	15353.3
816.68	15348.33
817.008	15344.48
817.337	15130.03
817.665	15160.53
817.994	15251.15
818.322	15105.85
818.651	15043.47
818.979	15083.47
819.307	15096.81
819.636	14998.28
819.964	14854.1
820.292	15033.76
820.62	15050.25
820.948	14944.27
821.276	14928.9
821.604	14839.19
821.932	14932.74
822.259	14934.1
822.587	14953.53
822.915	14881.9
823.243	14848.9
823.57	14861.11
823.898	14836.02
824.225	14770.04
824.553	14752.86
824.88	14801.9
825.207	14934.32
825.535	14697.95
825.862	14896.59
826.189	14750.15
826.516	14848.23
826.843	14859.07
827.17	14879.19
827.497	14784.27
827.824	14797.15
828.151	14877.38
828.478	14803.03
828.805	14916.92
829.131	14779.75
829.458	14781.11
829.785	14742.92
830.111	14792.86
830.438	14817.72
830.764	14766.19
831.09	14843.48
831.417	14744.95
831.743	14819.98
832.069	14785.18
832.395	14605.75
832.722	14768.45
833.048	14708.79
833.374	14775.68
833.7	14608.91
834.026	14576.59
834.351	14680.77
834.677	14597.16
835.003	14573.43
835.329	14621.79
835.654	14611.62
835.98	14603.71
836.306	14532.3
836.631	14382.93
836.956	14532.3
837.282	14515.58
837.607	14450.04
837.932	14446.65
838.258	14391.74
838.583	14465.41
838.908	14316.71
839.233	14324.85
839.558	14281.01
839.883	14231.74
840.208	14183.38
840.533	14147.23
840.858	14224.96
841.182	14205.76
841.507	14213.21
841.832	14037.85
842.156	14139.09
842.481	14007.8
842.805	14029.72
843.13	14045.53
843.454	13968.25
843.778	13892.32
844.103	13900.91
844.427	13915.82
844.751	13817.52
845.075	13800.8
845.399	13786.11
845.723	13645.55
846.047	13657.52
846.371	13655.49
846.695	13541.14
847.019	13443.52
847.343	13342.73
847.666	13364.87
847.99	13346.34
848.313	13348.38
848.637	13257.31
848.96	13228.83
849.284	13183.41
849.607	13041.95
849.931	13021.38
850.254	12974.83
850.577	12953.36
850.9	12805.79
851.223	12827.49
851.546	12784.55
851.869	12656.42
852.192	12712.46
852.515	12582.97
852.838	12539.36
853.161	12568.06
853.483	12497.1
853.806	12361.96
854.129	12342.3
854.451	12372.81
854.774	12258.91
855.096	12278.8
855.419	12182.31
855.741	12164
856.063	12136.88
856.385	12073.61
856.708	12017.34
857.03	11989.09
857.352	12025.93
857.674	11939.38
857.996	11890.56
858.318	11836.33
858.64	11842.43
858.961	11811.7
859.283	11730.34
859.605	11697.12
859.926	11763.11
860.248	11735.76
860.57	11641.08
860.891	11579.84
861.212	11505.71
861.534	11603.56
861.855	11510.01
862.176	11461.87
862.498	11440.18
862.819	11471.14
863.14	11418.26
863.461	11410.35
863.782	11409.45
864.103	11398.82
864.424	11386.4
864.745	11358.83
865.065	11284.93
865.386	11271.14
865.707	11264.82
866.027	11258.49
866.348	11198.38
866.668	11282.44
866.989	11131.49
867.309	11174.2
867.63	11110.47
867.95	11113.86
868.27	11027.76
868.59	11077.03
868.91	11049.68
869.23	10984.82
869.55	11069.57
869.87	11047.2
870.19	11059.62
870.51	10970.36
870.83	10993.19
871.15	10931.04
871.469	10863.25
871.789	10954.99
872.109	10875.45
872.428	10814.89
872.748	10830.25
873.067	10874.77
873.386	10823.92
873.706	10830.7
874.025	10735.34
874.344	10738.28
874.663	10731.95
874.982	10639.52
875.301	10718.62
875.62	10699.18
875.939	10646.3
876.258	10612.4
876.577	10582.8
876.896	10612.18
877.214	10508.23
877.533	10595.91
877.852	10575.12
878.17	10529.02
878.489	10546.42
878.807	10506.42
879.125	10474.1
879.444	10467.32
879.762	10388.23
880.08	10429.13
880.398	10448.34
880.716	10399.53
881.034	10345.07
881.352	10359.08
881.67	10309.81
881.988	10316.37
882.306	10259.19
882.624	10228.46
882.941	10207.44
883.259	10237.73
883.577	10126.77
883.894	10178.29
884.212	10066.66
884.529	10153.66
884.846	10114.34
885.164	10108.91
885.481	10049.03
885.798	10096.71
886.115	9971.74
886.432	9952.99
886.75	9978.52
887.067	9932.87
887.383	9875.25
887.7	9883.38
888.017	9792.99
888.334	9863.27
888.651	9867.79
888.967	9808.13
889.284	9799.77
889.6	9722.48
889.917	9713.45
890.233	9656.27
890.55	9672.32
890.866	9662.6
891.182	9612.88
891.498	9603.39
891.815	9600.23
892.131	9555.48
892.447	9508.93
892.763	9442.27
893.079	9482.26
893.395	9394.13
893.71	9386.9
894.026	9345.55
894.342	9373.12
894.657	9277.98
894.973	9192.55
895.289	9233.23
895.604	9165.89
895.92	9159.56
896.235	9169.96
896.55	9087.25
896.865	9061.94
897.181	9057.87
897.496	9068.94
897.811	8983.29
898.126	8862.39
898.441	8934.48
898.756	8877.76
899.071	8833.92
899.386	8836.63
899.7	8774.94
900.015	8728.16
900.33	8686.58
900.644	8711.66
900.959	8652.46
901.273	8583.76
901.588	8628.73
901.902	8502.4
902.216	8548.05
902.531	8541.5
902.845	8423.54
903.159	8405.46
903.473	8381.5
903.787	8406.36
904.101	8310.54
904.415	8375.85
904.729	8329.07
905.042	8251.56
905.356	8202.3
905.67	8285.01
905.984	8213.37
906.297	8202.75
906.611	8151.23
906.924	8125.69
907.237	8051.57
907.551	8053.83
907.864	8016.54
908.177	8019.25
908.491	7980.38
908.804	7879.82
909.117	7913.27
909.43	7860.39
909.743	7832.14
910.056	7824.91
910.368	7799.82
910.681	7716.66
910.994	7640.28
911.307	7649.09
911.619	7614.07
911.932	7587.17
912.244	7528.19
912.557	7552.82
912.869	7473.73
913.181	7505.59
913.494	7452.26
913.806	7404.81
914.118	7324.58
914.43	7341.3
914.742	7302.44
915.054	7250.46
915.366	7254.07
915.678	7264.92
915.99	7231.48
916.302	7170.91
916.613	7099.05
916.925	7124.81
917.236	7036.45
917.548	6980.18
917.859	7041.2
918.171	6969.34
918.482	6932.5
918.794	6930.47
919.105	6843.24
919.416	6750.13
919.727	6831.26
920.038	6834.88
920.349	6762.79
920.66	6706.74
920.971	6728.44
921.282	6732.51
921.593	6582.45
921.903	6618.84
922.214	6588.1
922.525	6588.56
922.835	6571.83
923.146	6493.64
923.456	6484.6
923.767	6447.09
924.077	6460.42
924.387	6444.83
924.697	6338.17
925.008	6384.95
925.318	6311.73
925.628	6323.7
925.938	6318.73
926.248	6201.9
926.558	6183.37
926.867	6161.22
927.177	6118.51
927.487	6088.91
927.796	6079.42
928.106	6111.28
928.416	6048.46
928.725	6054.56
929.034	6016.59
929.344	6047.33
929.653	5982.47
929.962	5901.57
930.271	5879.42
930.581	5882.13
930.89	5817.73
931.199	5815.24
931.508	5813.89
931.817	5822.02
932.125	5824.51
932.434	5785.86
932.743	5706.09
933.051	5676.49
933.36	5680.33
933.669	5654.57
933.977	5620.22
934.286	5624.97
934.594	5607.34
934.902	5514.69
935.21	5528.02
935.519	5483.95
935.827	5501.35
936.135	5495.48
936.443	5429.49
936.751	5396.04
937.059	5398.76
937.367	5337.52
937.674	5373.45
937.982	5344.75
938.29	5327.57
938.597	5320.11
938.905	5184.07
939.213	5203.28
939.52	5204.86
939.827	5196.73
940.135	5133.9
940.442	5113.34
940.749	5124.87
941.056	5142.04
941.363	5063.85
941.67	5028.6
941.977	5062.04
942.284	4980.91
942.591	4996.51
942.898	5018.88
943.205	4974.81
943.511	4900.92
943.818	4933.46
944.125	4827.47
944.431	4888.26
944.738	4818.43
945.044	4815.04
945.35	4765.33
945.657	4770.07
945.963	4775.72
946.269	4726.91
946.575	4740.92
946.881	4658.44
947.187	4658.44
947.493	4640.13
947.799	4666.35
948.105	4602.85
948.41	4612.11
948.716	4580.47
949.022	4576.63
949.327	4548.84
949.633	4520.59
949.938	4509.74
950.244	4472.23
950.549	4463.41
950.854	4448.05
951.16	4439.91
951.465	4403.08
951.77	4366.92
952.075	4351.78
952.38	4354.04
952.685	4348.61
952.99	4291.21
953.294	4303.19
953.599	4253.93
953.904	4230.43
954.209	4223.87
954.513	4224.1
954.818	4146.13
955.122	4192.69
955.426	4098.68
955.731	4123.99
956.035	4106.81
956.339	4088.06
956.643	4093.25
956.948	4043.31
957.252	4048.74
957.556	4027.49
957.86	3994.05
958.163	4010.32
958.467	3994.5
958.771	3965.35
959.075	3938.46
959.378	3884.67
959.682	3914.73
959.985	3884.67
960.289	3863.88
960.592	3825.01
960.896	3852.13
961.199	3833.37
961.502	3841.28
961.805	3832.47
962.108	3765.8
962.411	3760.16
962.714	3743.43
963.017	3692.13
963.32	3746.14
963.623	3703.43
963.926	3716.77
964.228	3669.99
964.531	3672.02
964.833	3632.25
965.136	3601.06
965.438	3618.01
965.741	3550.9
966.043	3577.11
966.345	3538.24
966.648	3548.64
966.95	3512.93
967.252	3503.66
967.554	3514.29
967.856	3491.91
968.158	3452.37
968.46	3474.29
968.761	3419.6
969.063	3403.78
969.365	3408.53
969.666	3375.53
969.968	3356.55
970.269	3360.84
970.571	3332.82
970.872	3324.69
971.174	3290.79
971.475	3285.59
971.776	3282.2
972.077	3304.8
972.378	3231.36
972.679	3230
972.98	3231.58
973.281	3230.9
973.582	3233.62
973.883	3181.41
974.183	3177.12
974.484	3185.93
974.785	3165.14
975.085	3135.31
975.386	3112.04
975.686	3086.05
975.986	3131.7
976.287	3077.01
976.587	3025.94
976.887	3076.11
977.187	3078.82
977.487	3062.09
977.787	3023.9
978.087	3013.28
978.387	2997.69
978.687	2962.89
978.987	2968.76
979.286	2909.78
979.586	2960.18
979.885	2908.65
980.185	2908.65
980.484	2850.8
980.784	2875.66
981.083	2848.31
981.382	2870.69
981.682	2844.7
981.981	2860.52
982.28	2799.73
982.579	2801.99
982.878	2805.38
983.177	2808.77
983.475	2759.05
983.774	2773.97
984.073	2739.62
984.372	2745.27
984.67	2732.84
984.969	2715.44
985.267	2686.29
985.566	2711.82
985.864	2627.76
986.162	2672.73
986.461	2652.39
986.759	2635.44
987.057	2595.44
987.355	2582.79
987.653	2603.8
987.951	2586.85
988.249	2563.58
988.547	2589.11
988.844	2544.37
989.142	2554.99
989.44	2532.17
989.737	2534.42
990.035	2533.52
990.332	2516.57
990.63	2459.85
990.927	2481.77
991.224	2439.51
991.521	2471.38
991.819	2431.15
992.116	2423.02
992.413	2423.69
992.71	2386.63
993.006	2423.02
993.303	2374.43
993.6	2362.68
993.897	2363.13
994.193	2375.33
994.49	2333.75
994.787	2315.45
995.083	2291.04
995.379	2335.11
995.676	2325.16
995.972	2259.18
996.268	2304.37
996.565	2294.66
996.861	2273.87
997.157	2260.99
997.453	2201.55
997.749	2197.03
998.044	2222.79
998.34	2191.84
998.636	2162.68
998.932	2165.4
999.227	2141.44
999.523	2171.5
999.818	2123.59
1000.114	2130.82
1000.409	2114.77
1000.704	2133.53
1001	2091.5
1001.295	2098.96
1001.59	2097.6
1001.885	2083.36
1002.18	2044.72
1002.475	2038.84
1002.77	2025.51
1003.065	2030.71
1003.359	1997.26
1003.654	1972.63
1003.949	2014.21
1004.243	1964.95
1004.538	1971.05
1004.832	1974.21
1005.127	1950.49
1005.421	1917.94
1005.715	1952.52
1006.009	1886.53
1006.304	1921.79
1006.598	1897.83
1006.892	1868
1007.186	1894.44
1007.48	1870.49
1007.773	1825.74
1008.067	1855.8
1008.361	1824.84
1008.655	1832.97
1008.948	1818.96
1009.242	1815.35
1009.535	1815.8
1009.829	1785.97
1010.122	1768.8
1010.415	1765.41
1010.708	1755.46
1011.001	1731.96
1011.295	1729.7
1011.588	1724.05
1011.881	1703.49
1012.173	1708.23
1012.466	1689.93
1012.759	1656.03
1013.052	1660.78
1013.344	1677.05
1013.637	1663.71
1013.93	1682.24
1014.222	1641.12
1014.514	1634.79
1014.807	1607.44
1015.099	1596.6
1015.391	1590.04
1015.683	1563.6
1015.976	1548.24
1016.268	1578.52
1016.56	1536.49
1016.851	1530.38
1017.143	1532.64
1017.435	1505.98
1017.727	1523.38
1018.018	1500.55
1018.31	1504.85
1018.602	1507.33
1018.893	1480.22
1019.185	1484.06
1019.476	1451.97
1019.767	1456.26
1020.058	1443.38
1020.35	1442.7
1020.641	1405.19
1020.932	1405.42
1021.223	1401.12
1021.514	1395.7
1021.804	1391.86
1022.095	1391.4
1022.386	1353.89
1022.677	1392.08
1022.967	1364.29
1023.258	1363.16
1023.548	1333.78
1023.839	1325.64
1024.129	1302.59
1024.419	1330.84
1024.709	1321.12
1025	1312.54
1025.29	1273.89
1025.58	1249.49
1025.87	1279.09
1026.16	1242.71
1026.449	1269.83
1026.739	1234.8
1027.029	1284.74
1027.319	1250.84
1027.608	1226.44
1027.898	1201.13
1028.187	1210.62
1028.477	1178.3
1028.766	1182.37
1029.055	1187.79
1029.344	1174.91
1029.634	1151.18
1029.923	1141.92
1030.212	1158.87
1030.501	1142.82
1030.79	1146.21
1031.078	1108.47
1031.367	1127
1031.656	1110.28
1031.945	1115.03
1032.233	1099.89
1032.522	1089.04
1032.81	1070.96
1033.099	1077.29
1033.387	1070.51
1033.675	1076.38
1033.963	1055.82
1034.251	1084.07
1034.54	1048.81
1034.828	1029.15
1035.116	1039.1
1035.403	1025.09
1035.691	1012.43
1035.979	1013.56
1036.267	1044.97
1036.554	993.9
1036.842	978.53
1037.129	984.86
1037.417	981.25
1037.704	990.96
1037.992	988.02
1038.279	980.34
1038.566	948.93
1038.853	948.93
1039.14	948.93
