Data from hue_140_FLMS001491_00080.txt Node
Date: Tue Feb 07 16:56:24 GMT 2017
User: dcchb
Spectrometer: FLMS00149
Trigger mode: 0
Integration Time (sec): 2.000000E-2
Scans to average: 10
Electric dark correction enabled: true
Nonlinearity correction enabled: false
Boxcar width: 0
XAxis mode: Wavelengths
Number of Pixels in Spectrum: 2048
>>>>>Begin Spectral Data<<<<<
341.393	-11.04
341.776	-11.04
342.16	-11.04
342.543	-41.1
342.927	-69.12
343.31	-56.69
343.693	-56.92
344.077	-75
344.46	-52.63
344.843	-41.33
345.226	-43.59
345.61	-38.61
345.993	-28.67
346.376	7.94
346.759	2.74
347.142	9.97
347.525	46.13
347.908	39.35
348.291	84.77
348.674	99.91
349.057	102.62
349.44	132.68
349.823	140.36
350.206	164.77
350.588	186.69
350.971	187.37
351.354	214.71
351.737	226.46
352.119	264.88
352.502	240.02
352.884	250.87
353.267	270.53
353.65	269.63
354.032	278.89
354.414	310.08
354.797	330.42
355.179	317.53
355.562	327.48
355.944	302.17
356.326	343.97
356.709	327.93
357.091	331.32
357.473	338.55
357.855	344.88
358.238	346.01
358.62	327.48
359.002	326.12
359.384	324.09
359.766	324.77
360.148	339
360.53	329.74
360.912	329.06
361.294	329.06
361.676	335.61
362.057	346.46
362.439	315.95
362.821	327.93
363.203	329.74
363.584	332.9
363.966	334.71
364.348	321.6
364.729	314.37
365.111	322.73
365.493	295.84
365.874	312.34
366.256	321.15
366.637	306.69
367.019	313.92
367.4	316.63
367.781	323.41
368.163	317.31
368.544	307.14
368.925	309.4
369.306	302.17
369.688	309.62
370.069	324.09
370.45	296.74
370.831	302.39
371.212	318.21
371.593	313.24
371.974	327.93
372.355	306.91
372.736	310.08
373.117	307.82
373.498	309.85
373.879	311.88
374.26	313.92
374.641	323.41
375.021	315.05
375.402	320.25
375.783	297.87
376.163	337.65
376.544	302.62
376.925	332.22
377.305	307.82
377.686	313.01
378.066	335.61
378.447	337.87
378.827	349.85
379.208	329.51
379.588	322.28
379.968	350.08
380.349	317.53
380.729	323.18
381.109	354.82
381.489	312.56
381.87	341.49
382.25	326.8
382.63	332.9
383.01	323.64
383.39	353.47
383.77	326.8
384.15	340.58
384.53	357.98
384.91	348.04
385.29	350.3
385.67	353.47
386.049	339.45
386.429	333.35
386.809	363.63
387.189	344.2
387.568	364.99
387.948	355.95
388.328	357.31
388.707	357.76
389.087	372.9
389.466	354.6
389.846	353.47
390.225	373.58
390.605	390.07
390.984	372.45
391.363	377.65
391.743	366.12
392.122	368.15
392.501	382.62
392.881	377.87
393.26	385.55
393.639	381.71
394.018	383.3
394.397	379.68
394.776	388.04
395.155	363.18
395.534	396.63
395.913	387.81
396.292	395.5
396.671	403.63
397.05	379.68
397.429	412.9
397.808	395.95
398.186	385.33
398.565	392.56
398.944	402.96
399.323	406.35
399.701	400.47
400.08	376.97
400.458	397.53
400.837	409.51
401.215	416.74
401.594	427.36
401.972	398.66
402.351	390.07
402.729	408.61
403.107	400.02
403.486	422.39
403.864	424.2
404.242	407.93
404.62	435.5
404.999	428.72
405.377	434.82
405.755	426.46
406.133	426.68
406.511	422.84
406.889	454.25
407.267	457.64
407.645	426.91
408.023	463.97
408.401	435.95
408.779	468.49
409.156	452.9
409.534	461.49
409.912	446.12
410.29	454.25
410.667	477.3
411.045	485.21
411.422	488.6
411.8	458.1
412.178	467.59
412.555	456.29
412.933	489.05
413.31	482.73
413.687	502.39
414.065	502.61
414.442	524.99
414.819	503.29
415.197	511.88
415.574	487.93
415.951	522.5
416.328	505.1
416.705	509.85
417.082	519.79
417.46	523.63
417.837	518.21
418.214	524.08
418.591	519.34
418.967	526.12
419.344	542.16
419.721	545.1
420.098	539.9
420.475	531.09
420.852	563.86
421.228	543.97
421.605	553.01
421.982	540.13
422.358	568.6
422.735	573.35
423.111	589.84
423.488	580.58
423.864	553.23
424.241	579.22
424.617	581.26
424.994	596.85
425.37	569.96
425.746	602.5
426.123	591.88
426.499	615.38
426.875	609.05
427.251	609.05
427.627	609.28
428.003	622.84
428.379	627.13
428.756	625.32
429.132	639.79
429.507	637.3
429.883	628.94
430.259	644.31
430.635	654.7
431.011	677.98
431.387	673.91
431.763	673.23
432.138	677.3
432.514	682.27
432.89	695.83
433.265	698.99
433.641	705.77
434.016	710.52
434.392	693.8
434.767	746.45
435.143	722.95
435.518	725.88
435.894	751.87
436.269	756.84
436.644	766.11
437.02	754.13
437.395	791.19
437.77	772.66
438.145	800.01
438.52	770.63
438.895	796.17
439.271	788.93
439.646	814.24
440.021	776.51
440.395	813.34
440.77	807.01
441.145	818.09
441.52	833.9
441.895	806.33
442.27	837.75
442.645	834.13
443.019	876.84
443.394	862.15
443.769	845.2
444.143	861.93
444.518	878.65
444.892	871.42
445.267	859.67
445.641	905.77
446.016	891.53
446.39	919.55
446.764	906.45
447.139	879.55
447.513	923.17
447.887	935.82
448.262	920
448.636	922.94
449.01	943.73
449.384	934.69
449.758	950.29
450.132	961.58
450.506	950.29
450.88	949.83
451.254	973.56
451.628	983.51
452.002	982.83
452.376	978.99
452.75	1018.98
453.123	1001.58
453.497	1038.19
453.871	1036.84
454.244	1054.24
454.618	1050.17
454.992	1069.6
455.365	1045.65
455.739	1112.77
456.112	1110.96
456.486	1117.96
456.859	1112.99
457.232	1134.69
457.606	1147.34
457.979	1166.78
458.352	1209.71
458.725	1198.87
459.099	1215.36
459.472	1222.37
459.845	1242.71
460.218	1238.41
460.591	1243.84
460.964	1272.54
461.337	1306.89
461.71	1325.19
462.083	1342.14
462.456	1364.29
462.829	1352.54
463.201	1363.38
463.574	1391.18
463.947	1406.77
464.32	1417.62
464.692	1432.76
465.065	1469.14
465.438	1450.61
465.81	1480.67
466.183	1546.65
466.555	1552.98
466.928	1546.65
467.3	1567.67
467.672	1591.85
468.045	1650.61
468.417	1642.02
468.789	1647.22
469.161	1656.03
469.534	1722.69
469.906	1773.99
470.278	1786.65
470.65	1814.22
471.022	1864.16
471.394	1921.79
471.766	1922.46
472.138	1942.58
472.51	1986.87
472.882	2041.56
473.253	2098.5
473.625	2117.03
473.997	2165.85
474.369	2199.52
474.74	2224.38
475.112	2283.36
475.484	2300.76
475.855	2406.74
476.227	2432.51
476.598	2525.84
476.97	2563.35
477.341	2614.65
477.713	2676.79
478.084	2713.86
478.455	2831.59
478.827	2934.87
479.198	3018.48
479.569	3016.45
479.94	3118.36
480.311	3225.03
480.682	3310.22
481.053	3433.38
481.424	3485.13
481.795	3523.55
482.166	3669.08
482.537	3734.85
482.908	3820.27
483.279	3957.89
483.65	4046.02
484.021	4177.77
484.391	4273.81
484.762	4337.54
485.133	4474.26
485.503	4577.54
485.874	4710.86
486.244	4855.49
486.615	4972.1
486.985	5079.67
487.356	5194.92
487.726	5268.59
488.097	5427.23
488.467	5509.49
488.837	5709.71
489.207	5841.23
489.578	5992.41
489.948	6140.88
490.318	6204.38
490.688	6396.92
491.058	6547.43
491.428	6652.96
491.798	6772.96
492.168	6989.22
492.538	7090.46
492.908	7156
493.278	7367.07
493.648	7412.71
494.017	7597.57
494.387	7732.93
494.757	7873.72
495.126	8021.06
495.496	8073.94
495.866	8200.04
496.235	8346.02
496.605	8459.92
496.974	8576.53
497.344	8788.95
497.713	8895.39
498.082	8972.9
498.452	9140.8
498.821	9232.78
499.19	9349.61
499.559	9383.96
499.928	9531.53
500.298	9532.66
500.667	9726.78
501.036	9770.39
501.405	9939.65
501.774	9973.55
502.143	10093.77
502.512	10250.38
502.88	10316.59
503.249	10386.2
503.618	10475.46
503.987	10568.34
504.356	10554.33
504.724	10730.14
505.093	10816.47
505.462	10867.54
505.83	11002
506.199	11013.98
506.567	11267.3
506.936	11169.68
507.304	11399.28
507.672	11466.85
508.041	11490.8
508.409	11533.28
508.777	11684.01
509.145	11704.81
509.514	11691.25
509.882	11733.05
510.25	11905.03
510.618	11946.15
510.986	11903.44
511.354	12104.12
511.722	12136.66
512.09	12316.09
512.458	12269.54
512.826	12320.38
513.193	12342.75
513.561	12475.63
513.929	12520.15
514.297	12576.87
514.664	12621.39
515.032	12581.39
515.4	12772.35
515.767	12826.13
516.135	12799.47
516.502	12714.5
516.869	12961.27
517.237	12908.84
517.604	12917.88
517.972	12988.39
518.339	12992.23
518.706	13024.77
519.073	13138.67
519.44	13109.06
519.808	13255.5
520.175	13177.53
520.542	13260.7
520.909	13412.78
521.276	13280.13
521.643	13395.38
522.009	13482.16
522.376	13430.18
522.743	13518.09
523.11	13627.47
523.477	13637.86
523.843	13770.51
524.21	13762.6
524.577	13720.8
524.943	13793.11
525.31	13770.06
525.676	13892.09
526.043	13910.17
526.409	13916.27
526.776	14008.02
527.142	14026.1
527.508	14025.2
527.874	14019.77
528.241	14020.45
528.607	14070.39
528.973	14157.85
529.339	14073.78
529.705	14157.4
530.071	14276.04
530.437	14197.17
530.803	14173.89
531.169	14209.15
531.535	14148.13
531.901	14171.63
532.267	14135.25
532.632	14220.9
532.998	14236.49
533.364	14267.45
533.73	14172.76
534.095	14171.86
534.461	14118.75
534.826	14201.91
535.192	14171.63
535.557	14165.53
535.923	14138.41
536.288	14056.38
536.653	14122.14
537.019	13977.74
537.384	13985.2
537.749	14014.8
538.114	14039.66
538.479	13916.95
538.845	14043.27
539.21	13934.58
539.575	13866.1
539.94	13904.75
540.305	13902.26
540.67	13810.74
541.034	13844.86
541.399	13834.01
541.764	13750.85
542.129	13791.3
542.494	13716.28
542.858	13732.32
543.223	13597.18
543.587	13723.74
543.952	13643.29
544.316	13630.4
544.681	13546.79
545.045	13614.81
545.41	13586.34
545.774	13594.02
546.138	13504.31
546.503	13479
546.867	13425.66
547.231	13492.78
547.595	13358.55
547.959	13368.49
548.324	13330.53
548.688	13251.88
549.052	13275.84
549.416	13294.59
549.779	13222.96
550.143	13218.44
550.507	13261.37
550.871	13184.77
551.235	13145.67
551.599	13215.27
551.962	13139.57
552.326	13131.21
552.689	13033.13
553.053	12969.63
553.417	13024.54
553.78	13128.04
554.143	13046.24
554.507	13055.73
554.87	12995.62
555.234	13069.29
555.597	12936.41
555.96	12940.03
556.323	12908.16
556.686	12933.93
557.05	12979.57
557.413	12988.39
557.776	12899.12
558.139	12946.58
558.502	12943.19
558.865	12882.18
559.228	12970.08
559.59	12857.54
559.953	12895.51
560.316	12988.61
560.679	12955.17
561.041	12953.36
561.404	12995.84
561.767	13041.95
562.129	12942.74
562.492	13083.07
562.854	12949.29
563.217	12909.52
563.579	12929.86
563.941	13048.27
564.304	13049.4
564.666	13038.1
565.028	13044.43
565.39	13037.65
565.753	13145.9
566.115	13085.79
566.477	13097.99
566.839	13083.75
567.201	13089.85
567.563	13105.45
567.925	13208.49
568.287	13183.86
568.648	13249.4
569.01	13212.34
569.372	13239.91
569.734	13224.99
570.095	13220.25
570.457	13304.99
570.819	13269.74
571.18	13286.68
571.542	13295.95
571.903	13290.07
572.265	13337.3
572.626	13333.69
572.987	13387.02
573.349	13424.76
573.71	13349.06
574.071	13363.07
574.432	13424.08
574.794	13495.49
575.155	13484.42
575.516	13443.06
575.877	13480.35
576.238	13483.97
576.599	13556.96
576.96	13477.87
577.32	13488.04
577.681	13533.68
578.042	13478.32
578.403	13517.86
578.763	13567.58
579.124	13499.33
579.485	13467.7
579.845	13609.61
580.206	13548.15
580.566	13462.05
580.927	13552.89
581.287	13563.29
581.648	13407.59
582.008	13605.55
582.368	13521.25
582.728	13554.02
583.089	13564.64
583.449	13558.54
583.809	13501.82
584.169	13558.09
584.529	13512.89
584.889	13518.09
585.249	13451.88
585.609	13441.71
585.969	13441.03
586.329	13538.2
586.688	13499.33
587.048	13435.83
587.408	13462.27
587.768	13486.68
588.127	13377.76
588.487	13316.97
588.846	13439.9
589.206	13297.53
589.565	13329.17
589.925	13437.64
590.284	13319.45
590.643	13379.11
591.003	13401.03
591.362	13415.95
591.721	13382.95
592.08	13375.27
592.44	13351.99
592.799	13313.58
593.158	13394.93
593.517	13363.52
593.876	13415.04
594.235	13243.07
594.593	13328.72
594.952	13270.41
595.311	13262.5
595.67	13245.33
596.029	13324.65
596.387	13340.47
596.746	13373.01
597.104	13250.98
597.463	13290.98
597.822	13378.66
598.18	13211.66
598.538	13254.59
598.897	13353.8
599.255	13209.85
599.613	13460.24
599.972	13240.36
600.33	13360.81
600.688	13240.13
601.046	13366.68
601.404	13397.87
601.762	13274.48
602.12	13367.81
602.478	13344.31
602.836	13340.24
603.194	13223.18
603.552	13243.3
603.91	13148.61
604.268	13340.92
604.625	13219.79
604.983	13328.04
605.341	13172.79
605.698	13319.68
606.056	13375.04
606.413	13263.63
606.771	13320.81
607.128	13316.29
607.485	13296.85
607.843	13281.03
608.2	13351.54
608.557	13362.39
608.914	13330.53
609.272	13435.16
609.629	13391.77
609.986	13472.44
610.343	13345.89
610.7	13459.34
611.057	13402.61
611.414	13518.54
611.771	13416.62
612.127	13515.83
612.484	13511.54
612.841	13513.8
613.198	13514.25
613.554	13544.98
613.911	13548.6
614.267	13495.27
614.624	13489.62
614.98	13463.18
615.337	13587.69
615.693	13521.03
616.05	13475.38
616.406	13673.34
616.762	13576.85
617.118	13645.32
617.475	13552.67
617.831	13614.13
618.187	13544.3
618.543	13714.7
618.899	13822.72
619.255	13660.23
619.611	13654.58
619.967	13691.65
620.323	13751.76
620.678	13617.75
621.034	13630.63
621.39	13667.47
621.746	13641.25
622.101	13785.43
622.457	13715.15
622.812	13746.56
623.168	13705.2
623.523	13686.67
623.879	13719.89
624.234	13657.75
624.589	13703.4
624.945	13802.15
625.3	13736.16
625.655	13650.06
626.01	13636.05
626.365	13656.39
626.72	13643.74
627.075	13603.96
627.43	13671.08
627.785	13655.71
628.14	13790.17
628.495	13669.5
628.85	13712.21
629.205	13712.44
629.559	13740.23
629.914	13664.53
630.269	13694.36
630.623	13684.19
630.978	13601.25
631.332	13676.5
631.687	13628.14
632.041	13584.3
632.396	13605.09
632.75	13557.64
633.104	13474.7
633.459	13493.01
633.813	13434.48
634.167	13468.37
634.521	13397.64
634.875	13392.22
635.229	13494.14
635.583	13419.11
635.937	13354.71
636.291	13336.4
636.645	13361.03
636.999	13304.09
637.352	13326.46
637.706	13227.03
638.06	13351.99
638.413	13283.75
638.767	13351.09
639.121	13328.72
639.474	13239.91
639.828	13140.25
640.181	13187.93
640.534	13162.17
640.888	13168.72
641.241	13127.37
641.594	13139.34
641.947	13253.92
642.301	13170.3
642.654	13214.82
643.007	13142.28
643.36	13128.95
643.713	13107.48
644.066	13152.68
644.419	13039.91
644.771	13028.39
645.124	12870.65
645.477	12853.25
645.83	12782.97
646.182	12722.18
646.535	12726.7
646.888	12705.91
647.24	12642.41
647.593	12685.57
647.945	12674.72
648.298	12634.72
648.65	12622.52
649.002	12603.09
649.355	12685.57
649.707	12676.98
650.059	12724.21
650.411	12858.45
650.763	12925.79
651.115	12968.95
651.467	12970.31
651.819	12957.43
652.171	12951.1
652.523	12921.72
652.875	12960.14
653.227	12827.26
653.578	12946.58
653.93	12925.11
654.282	12886.92
654.633	12947.71
654.985	12838.33
655.337	12863.87
655.688	12929.41
656.039	12904.55
656.391	12808.51
656.742	12973.02
657.094	12891.67
657.445	12961.27
657.796	12929.86
658.147	12882.18
658.498	12922.85
658.849	12957.2
659.2	12892.57
659.551	12901.84
659.902	12975.28
660.253	12970.31
660.604	13005.34
660.955	12872.91
661.306	12861.16
661.656	12949.52
662.007	12954.26
662.358	12951.78
662.708	12871.1
663.059	12942.51
663.409	12822.52
663.76	12917.88
664.11	12968.05
664.461	13007.82
664.811	13089.18
665.161	13001.72
665.511	12976.18
665.862	13003.98
666.212	13019.35
666.562	13032.68
666.912	12912.23
667.262	12902.97
667.612	12974.15
667.962	12877.43
668.312	12879.69
668.662	12947.71
669.011	12931.89
669.361	12947.26
669.711	12959.69
670.06	12892.12
670.41	12934.15
670.76	12910.42
671.109	12898.22
671.459	12854.15
671.808	12857.32
672.157	12881.05
672.507	12757.66
672.856	12799.47
673.205	12883.31
673.554	12843.31
673.904	12815.06
674.253	12875.62
674.602	12779.35
674.951	12646.7
675.3	12580.26
675.649	12751.78
675.998	12813.02
676.346	12752.91
676.695	12815.74
677.044	12712.69
677.393	12708.62
677.741	12754.04
678.09	12663.65
678.438	12698.9
678.787	12740.26
679.135	12719.24
679.484	12582.52
679.832	12716.08
680.181	12554.95
680.529	12663.65
680.877	12566.93
681.225	12569.87
681.573	12637.66
681.922	12480.6
682.27	12463.2
682.618	12460.94
682.966	12427.5
683.314	12443.99
683.661	12454.39
684.009	12329.65
684.357	12278.8
684.705	12356.77
685.053	12266.82
685.4	12275.64
685.748	12176.66
686.095	12215.98
686.443	12145.92
686.79	12045.36
687.138	12141.86
687.485	12144.57
687.832	12119.26
688.18	12178.01
688.527	11994.29
688.874	12046.72
689.221	11957.91
689.568	11903.9
689.915	12002.88
690.262	11840.17
690.609	11870.22
690.956	11864.35
691.303	11798.81
691.65	11764.92
691.997	11776.67
692.344	11668.42
692.69	11612.38
693.037	11640.85
693.383	11535.77
693.73	11578.25
694.077	11519.73
694.423	11499.61
694.769	11404.02
695.116	11385.04
695.462	11465.72
695.808	11323.57
696.155	11248.32
696.501	11213.07
696.847	11240.41
697.193	11124.71
697.539	11244.03
697.885	11049.91
698.231	11039.51
698.577	10979.85
698.923	11045.39
699.269	10882.45
699.614	10874.77
699.96	10826.18
700.306	10868.22
700.651	10778.28
700.997	10722.68
701.342	10720.88
701.688	10705.28
702.033	10606.76
702.379	10650.37
702.724	10641.56
703.069	10565.17
703.415	10510.94
703.76	10501.22
704.105	10499.19
704.45	10445.4
704.795	10386.42
705.14	10402.24
705.485	10316.37
705.83	10216.48
706.175	10255.8
706.52	10249.7
706.865	10172.64
707.209	10229.59
707.554	10138.52
707.899	10109.82
708.243	10074.57
708.588	10101.01
708.932	9959.54
709.277	10010.84
709.621	9976.04
709.966	9959.54
710.31	9917.96
710.654	9872.31
710.998	9900.56
711.342	9879.32
711.687	9877.28
712.031	9851.97
712.375	9756.16
712.719	9737.4
713.063	9840.9
713.407	9730.85
713.75	9676.16
714.094	9807.91
714.438	9663.5
714.782	9625.54
715.125	9661.24
715.469	9689.27
715.812	9619.21
716.156	9553.22
716.499	9622.6
716.843	9536.5
717.186	9484.3
717.53	9578.99
717.873	9537.18
718.216	9490.17
718.559	9455.82
718.902	9359.1
719.246	9407.24
719.589	9357.3
719.932	9389.39
720.275	9364.53
720.617	9407.46
720.96	9338.54
721.303	9341.48
721.646	9326.34
721.989	9260.35
722.331	9356.17
722.674	9272.78
723.016	9284.76
723.359	9300.12
723.701	9321.82
724.044	9222.16
724.386	9181.26
724.729	9260.12
725.071	9218.09
725.413	9273.68
725.755	9209.73
726.097	9214.02
726.439	9145.1
726.782	9194.59
727.124	9169.05
727.465	9169.96
727.807	9131.77
728.149	9150.07
728.491	9070.75
728.833	9176.74
729.175	9102.39
729.516	9055.16
729.858	9102.84
730.199	9040.02
730.541	9104.42
730.882	9113.91
731.224	9071.65
731.565	9059.9
731.906	9059.68
732.248	9056.29
732.589	9074.59
732.93	9009.28
733.271	9046.34
733.612	9103.07
733.953	9011.99
734.294	9030.98
734.635	9067.13
734.976	9044.76
735.317	8981.94
735.658	8997.31
735.999	9001.6
736.339	9007.48
736.68	9115.95
737.021	9045.44
737.361	8979.45
737.702	9018.1
738.042	9072.78
738.383	9026.46
738.723	9061.48
739.063	9082.5
739.404	9090.86
739.744	9152.78
740.084	9100.58
740.424	9132.67
740.764	9127.92
741.104	9231.88
741.444	9056.06
741.784	9137.87
742.124	9227.13
742.464	9183.29
742.804	9199.11
743.143	9174.25
743.483	9199.11
743.823	9256.06
744.162	9224.42
744.502	9341.25
744.841	9325.88
745.181	9360.01
745.52	9325.21
745.86	9391.42
746.199	9428.48
746.538	9413.79
746.877	9510.06
747.216	9589.83
747.556	9607.01
747.895	9634.8
748.234	9696.04
748.573	9705.76
748.911	9761.35
749.25	9819.88
749.589	9882.03
749.928	9907.79
750.267	10010.39
750.605	10069.37
750.944	10084.28
751.283	10167.44
751.621	10228.46
751.96	10335.35
752.298	10387.33
752.636	10585.96
752.975	10588.9
753.313	10644.72
753.651	10843.36
753.989	10856.24
754.327	11026.86
754.666	11051.04
755.004	11203.58
755.342	11420.74
755.679	11454.19
756.017	11514.08
756.355	11779.61
756.693	11780.06
757.031	11951.35
757.368	12072.03
757.706	12166.26
758.044	12349.31
758.381	12494.39
758.719	12542.75
759.056	12877.88
759.394	12931.44
759.731	13084.2
760.068	13169.85
760.405	13307.7
760.743	13569.16
761.08	13722.38
761.417	13842.15
761.754	13962.82
762.091	14148.58
762.428	14337.05
762.765	14429.71
763.102	14608.91
763.438	14754.89
763.775	14890.03
764.112	15095.68
764.449	15295.67
764.785	15360.98
765.122	15394.2
765.458	15607.08
765.795	15885.03
766.131	15938.59
766.467	16075.31
766.804	16160.51
767.14	16203.9
767.476	16412.7
767.812	16579.71
768.148	16684.79
768.485	16755.97
768.821	16889.75
769.157	17059.47
769.492	17092.91
769.828	17290.42
770.164	17297.2
770.5	17398.67
770.836	17530.19
771.171	17569.51
771.507	17725.21
771.842	17761.14
772.178	17806.57
772.513	17949.61
772.849	17942.16
773.184	18151.64
773.519	18235.71
773.855	18163.62
774.19	18311.19
774.525	18317.29
774.86	18497.85
775.195	18530.39
775.53	18587.11
775.865	18526.32
776.2	18583.95
776.535	18549.15
776.87	18581.01
777.205	18625.3
777.539	18710.04
777.874	18855.35
778.209	18643.83
778.543	18694.45
778.878	18691.74
779.212	18767.44
779.547	18808.35
779.881	18807.44
780.215	18735.13
780.55	18910.94
780.884	18856.48
781.218	18824.39
781.552	18942.81
781.886	18828.69
782.22	18775.81
782.554	18794.56
782.888	18626.43
783.222	18588.01
783.556	18670.5
783.889	18779.65
784.223	18673.89
784.557	18656.49
784.89	18679.76
785.224	18679.31
785.557	18637.73
785.891	18567
786.224	18591.18
786.558	18614.45
786.891	18508.02
787.224	18451.52
787.557	18521.35
787.891	18521.58
788.224	18469.37
788.557	18576.49
788.89	18412.43
789.223	18521.35
789.556	18406.55
789.888	18442.03
790.221	18289.94
790.554	18136.73
790.887	18234.8
791.219	18184.86
791.552	18157.74
791.884	18211.98
792.217	18101.7
792.549	18007.24
792.882	17955.49
793.214	17908.94
793.546	18005.43
793.879	17932.89
794.211	17776.06
794.543	17854.47
794.875	17805.21
795.207	17912.78
795.539	17834.36
795.871	17784.87
796.203	17611.99
796.535	17487.48
796.867	17600.47
797.198	17565.44
797.53	17540.36
797.862	17346.92
798.193	17442.51
798.525	17407.25
798.856	17306.92
799.188	17287.48
799.519	17208.16
799.85	17052.24
800.182	17168.16
800.513	17141.95
800.844	17011.11
801.175	17064.44
801.506	16936.53
801.837	16914.39
802.168	16939.47
802.499	16865.35
802.83	16898.34
803.161	16856.99
803.491	16793.94
803.822	16811.11
804.153	16718.68
804.483	16553.27
804.814	16497.22
805.145	16492.25
805.475	16603.43
805.805	16502.87
806.136	16409.31
806.466	16468.3
806.796	16508.29
807.126	16236.21
807.457	16279.37
807.787	16286.38
808.117	16135.65
808.447	16208.19
808.777	16207.29
809.107	16035.31
809.436	16033.28
809.766	16031.47
810.096	15933.39
810.426	15963.22
810.755	15886.62
811.085	15957.12
811.414	15933.17
811.744	15812.27
812.073	15814.53
812.403	15829.67
812.732	15662.44
813.061	15753.06
813.39	15599.39
813.719	15666.06
814.049	15739.73
814.378	15602.33
814.707	15476.68
815.036	15625.83
815.365	15410.47
815.693	15351.71
816.022	15409.34
816.351	15375.9
816.68	15330.25
817.008	15411.15
817.337	15073.3
817.665	15147.65
817.994	15150.59
818.322	15194.88
818.651	15073.76
818.979	15145.17
819.307	15199.4
819.636	15096.13
819.964	14916.47
820.292	15003.02
820.62	15071.04
820.948	14987.2
821.276	14930.94
821.604	15001.89
821.932	14995.34
822.259	14946.08
822.587	15024.94
822.915	14931.84
823.243	14971.84
823.57	14919.64
823.898	14902.01
824.225	14926.19
824.553	14935.45
824.88	14898.62
825.207	15010.48
825.535	14979.07
825.862	15002.8
826.189	14958.28
826.516	15055.9
826.843	15019.07
827.17	14973.19
827.497	14938.17
827.824	14971.61
828.151	15081.89
828.478	15072.4
828.805	15079.86
829.131	14888.68
829.458	15023.59
829.785	14937.94
830.111	14993.31
830.438	15073.08
830.764	15031.5
831.09	15057.26
831.417	14913.99
831.743	14998.05
832.069	15003.7
832.395	14965.74
832.722	15029.46
833.048	14881.22
833.374	14889.35
833.7	14821.79
834.026	14892.74
834.351	14883.25
834.677	14856.81
835.003	14896.36
835.329	14869.92
835.654	14890.48
835.98	14703.6
836.306	14823.82
836.631	14769.36
836.956	14879.64
837.282	14838.28
837.607	14648
837.932	14616.59
838.258	14686.87
838.583	14631.06
838.908	14691.17
839.233	14592.41
839.558	14532.3
839.883	14468.57
840.208	14489.59
840.533	14424.06
840.858	14470.38
841.182	14490.72
841.507	14468.12
841.832	14301.35
842.156	14386.09
842.481	14358.29
842.805	14405.3
843.13	14293.66
843.454	14259.54
843.778	14173.21
844.103	14269.71
844.427	14206.66
844.751	14107.45
845.075	14138.87
845.399	14080.11
845.723	13899.1
846.047	14001.47
846.371	13940
846.695	13912.2
847.019	13761.25
847.343	13675.37
847.666	13650.06
847.99	13546.79
848.313	13578.2
848.637	13525.32
848.96	13425.21
849.284	13444.42
849.607	13342.5
849.931	13290.07
850.254	13239.68
850.577	13167.82
850.9	13118.55
851.223	13076.29
851.546	13013.02
851.869	12949.52
852.192	12948.16
852.515	12873.81
852.838	12826.81
853.161	12796.08
853.483	12738.22
853.806	12689.86
854.129	12694.16
854.451	12708.62
854.774	12645.57
855.096	12556.31
855.419	12499.13
855.741	12441.74
856.063	12483.77
856.385	12363.09
856.708	12375.07
857.03	12283.1
857.352	12284.9
857.674	12262.53
857.996	12312.25
858.318	12129.65
858.64	12153.16
858.961	12077.45
859.283	12043.78
859.605	11976.21
859.926	11981.41
860.248	11982.76
860.57	11964.01
860.891	11931.01
861.212	11824.58
861.534	11826.84
861.855	11813.5
862.176	11804.92
862.498	11817.34
862.819	11739.38
863.14	11779.83
863.461	11733.51
863.782	11712.94
864.103	11703.22
864.424	11630.46
864.745	11663
865.065	11540.74
865.386	11511.36
865.707	11556.79
866.027	11497.35
866.348	11488.54
866.668	11492.83
866.989	11467.52
867.309	11407.64
867.63	11398.6
867.95	11430.91
868.27	11296.91
868.59	11362.67
868.91	11365.15
869.23	11313.86
869.55	11242.67
869.87	11301.88
870.19	11313.86
870.51	11317.02
870.83	11255.1
871.15	11229.34
871.469	11228.66
871.789	11156.57
872.109	11173.29
872.428	11037.7
872.748	11087.65
873.067	11054.2
873.386	11130.36
873.706	11084.26
874.025	11031.6
874.344	10996.35
874.663	11032.28
874.982	11029.34
875.301	10917.71
875.62	11023.24
875.939	10872.74
876.258	10991.6
876.577	10925.16
876.896	10879.74
877.214	10873.41
877.533	10901.21
877.852	10845.17
878.17	10835.9
878.489	10776.92
878.807	10869.35
879.125	10816.47
879.444	10796.35
879.762	10753.87
880.08	10683.36
880.398	10726.07
880.716	10766.07
881.034	10653.76
881.352	10663.48
881.67	10579.19
881.988	10652.4
882.306	10553.88
882.624	10510.49
882.941	10488.11
883.259	10498.06
883.577	10451.73
883.894	10434.33
884.212	10452.41
884.529	10403.37
884.846	10354.33
885.164	10388
885.481	10358.63
885.798	10305.07
886.115	10227.56
886.432	10217.61
886.75	10192.08
887.067	10162.7
887.383	10144.62
887.7	10241.11
888.017	10095.81
888.334	10148.69
888.651	10121.57
888.967	10144.85
889.284	10015.81
889.6	9993.89
889.917	9998.64
890.233	9934
890.55	9854.68
890.866	9935.59
891.182	9820.79
891.498	9781.92
891.815	9793.22
892.131	9712.99
892.447	9730.39
892.763	9733.11
893.079	9735.82
893.395	9630.06
893.71	9684.29
894.026	9544.41
894.342	9585.09
894.657	9477.97
894.973	9508.03
895.289	9503.06
895.604	9553.45
895.92	9383.06
896.235	9301.93
896.55	9333.79
896.865	9376.28
897.181	9276.62
897.496	9334.92
897.811	9216.74
898.126	9166.57
898.441	9158.21
898.756	9084.99
899.071	9097.42
899.386	9037.98
899.7	8980.13
900.015	8961.83
900.33	8964.31
900.644	8859.46
900.959	8985.78
901.273	8869.17
901.588	8866.01
901.902	8789.18
902.216	8701.95
902.531	8677.77
902.845	8700.14
903.159	8649.74
903.473	8628.05
903.787	8566.58
904.101	8571.1
904.415	8521.16
904.729	8549.41
905.042	8470.09
905.356	8369.53
905.67	8399.58
905.984	8443.65
906.297	8360.03
906.611	8294.95
906.924	8244.33
907.237	8266.48
907.551	8204.56
907.864	8244.78
908.177	8169.53
908.491	8125.69
908.804	8035.07
909.117	8043.21
909.43	7995.52
909.743	7923.44
910.056	7968.41
910.368	7967.28
910.681	7897.9
910.994	7836.21
911.307	7853.61
911.619	7782.42
911.932	7813.38
912.244	7724.8
912.557	7657
912.869	7730.67
913.181	7662.2
913.494	7597.34
913.806	7514.86
914.118	7491.36
914.43	7494.97
914.742	7490
915.054	7426.05
915.366	7384.47
915.678	7335.88
915.99	7308.08
916.302	7231.02
916.613	7294.3
916.925	7266.05
917.236	7242.1
917.548	7157.13
917.859	7171.14
918.171	7120.52
918.482	7088.43
918.794	7050.01
919.105	7038.04
919.416	6979.51
919.727	7000.52
920.038	6955.55
920.349	6898.83
920.66	6926.63
920.971	6916.91
921.282	6901.32
921.593	6861.77
921.903	6821.32
922.214	6721.89
922.525	6728.44
922.835	6728.44
923.146	6682.11
923.456	6682.79
923.767	6603.24
924.077	6614.32
924.387	6512.17
924.697	6500.2
925.008	6530.93
925.318	6507.43
925.628	6444.6
925.938	6428.56
926.248	6396.7
926.558	6388.79
926.867	6401.44
927.177	6350.82
927.487	6308.34
927.796	6264.04
928.106	6231.5
928.416	6288
928.725	6217.49
929.034	6166.65
929.344	6170.71
929.653	6099.53
929.962	6067.67
930.271	6104.27
930.581	6082.58
930.89	6043.26
931.199	5953.54
931.508	5971.85
931.817	5965.75
932.125	5935.47
932.434	5912.19
932.743	5888.46
933.051	5828.58
933.36	5808.92
933.669	5781.12
933.977	5789.03
934.286	5746.32
934.594	5777.5
934.902	5681.69
935.21	5716.49
935.519	5721.46
935.827	5591.52
936.135	5639.88
936.443	5553.78
936.751	5522.59
937.059	5533.44
937.367	5560.33
937.674	5562.37
937.982	5495.25
938.29	5467
938.597	5440.11
938.905	5366.67
939.213	5383.39
939.52	5365.31
939.827	5344.75
940.135	5300.45
940.442	5306.33
940.749	5279.66
941.056	5269.72
941.363	5219.33
941.67	5183.39
941.977	5212.55
942.284	5188.14
942.591	5182.49
942.898	5100.23
943.205	5125.77
943.511	5061.82
943.818	5047.81
944.125	5044.64
944.431	5044.87
944.738	5010.29
945.044	4946.11
945.35	4937.98
945.657	4882.39
945.963	4926
946.269	4888.71
946.575	4853.01
946.881	4833.57
947.187	4774.37
947.493	4793.12
947.799	4789.05
948.105	4791.09
948.41	4704.54
948.716	4739.56
949.022	4725.78
949.327	4713.12
949.633	4656.85
949.938	4632.67
950.244	4635.84
950.549	4628.16
950.854	4567.37
951.16	4573.24
951.465	4556.29
951.77	4552.68
952.075	4556.97
952.38	4501.15
952.685	4457.99
952.99	4425.67
953.294	4409.86
953.599	4397.88
953.904	4363.76
954.209	4371.66
954.513	4338.67
954.818	4321.72
955.122	4327.6
955.426	4269.07
955.731	4256.87
956.035	4295.96
956.339	4226.81
956.643	4224.55
956.948	4211.89
957.252	4196.75
957.556	4175.96
957.86	4181.39
958.163	4131.9
958.467	4105.91
958.771	4079.47
959.075	4107.94
959.378	4046.25
959.682	4067.04
959.985	4027.49
960.289	3988.17
960.592	3968.74
960.896	3945.46
961.199	3960.6
961.502	3920.83
961.805	3952.24
962.108	3885.58
962.411	3866.82
962.714	3829.98
963.017	3836.54
963.32	3837.44
963.623	3812.81
963.926	3855.52
964.228	3761.06
964.531	3766.48
964.833	3754.73
965.136	3698.46
965.438	3704.11
965.741	3669.54
966.043	3702.98
966.345	3668.41
966.648	3691.23
966.95	3666.15
967.252	3635.41
967.554	3603.78
967.856	3608.97
968.158	3602.19
968.46	3555.19
968.761	3513.16
969.063	3539.14
969.365	3506.15
969.666	3508.86
969.968	3488.3
970.269	3450.78
970.571	3441.29
970.872	3439.94
971.174	3366.04
971.475	3397.91
971.776	3422.09
972.077	3399.26
972.378	3369.21
972.679	3376.66
972.98	3346.83
973.281	3325.59
973.582	3326.27
973.883	3304.35
974.183	3284.24
974.484	3256.21
974.785	3253.95
975.085	3260.28
975.386	3252.82
975.686	3188.42
975.986	3215.54
976.287	3192.03
976.587	3171.24
976.887	3132.38
977.187	3171.7
977.487	3147.06
977.787	3115.2
978.087	3134.41
978.387	3140.06
978.687	3093.96
978.987	3066.39
979.286	3079.5
979.586	2996.56
979.885	3070.46
980.185	3018.48
980.484	2964.47
980.784	2963.34
981.083	2927.86
981.382	2952.04
981.682	2919.73
981.981	2931.7
982.28	2940.52
982.579	2907.52
982.878	2879.27
983.177	2894.42
983.475	2908.88
983.774	2824.81
984.073	2799.73
984.372	2823.46
984.67	2783.46
984.969	2824.13
985.267	2780.07
985.566	2783.46
985.864	2747.98
986.162	2712.95
986.461	2690.13
986.759	2717.24
987.057	2692.84
987.355	2671.6
987.653	2696.23
987.951	2643.35
988.249	2654.2
988.547	2642.44
988.844	2651.03
989.142	2631.82
989.44	2607.42
989.737	2559.06
990.035	2555.44
990.332	2592.73
990.63	2571.94
990.927	2568.1
991.224	2531.26
991.521	2536.91
991.819	2521.09
992.116	2503.01
992.413	2463.92
992.71	2467.99
993.006	2472.05
993.303	2423.92
993.6	2436.35
993.897	2424.82
994.193	2415.56
994.49	2416.01
994.787	2387.54
995.083	2376.01
995.379	2375.11
995.676	2372.62
995.972	2344.6
996.268	2373.53
996.565	2350.7
996.861	2312.06
997.157	2304.83
997.453	2310.02
997.749	2290.59
998.044	2263.7
998.34	2269.35
998.636	2279.06
998.932	2252.4
999.227	2205.85
999.523	2247.43
999.818	2207.2
1000.114	2223.7
1000.409	2175.11
1000.704	2179.63
1001	2156.36
1001.295	2138.5
1001.59	2131.72
1001.885	2111.39
1002.18	2092.63
1002.475	2078.39
1002.77	2044.95
1003.065	2089.69
1003.359	2059.18
1003.654	2048.79
1003.949	2050.14
1004.243	2050.37
1004.538	2023.48
1004.832	1985.96
1005.127	2001.11
1005.421	1995.91
1005.715	1965.4
1006.009	1961.11
1006.304	1957.94
1006.598	1952.75
1006.892	1944.84
1007.186	1901.9
1007.48	1900.54
1007.773	1878.4
1008.067	1904.61
1008.361	1893.99
1008.655	1870.94
1008.948	1858.51
1009.242	1848.57
1009.535	1829.36
1009.829	1817.61
1010.122	1785.52
1010.415	1787.33
1010.708	1808.57
1011.001	1788.91
1011.295	1764.05
1011.588	1782.13
1011.881	1754.56
1012.173	1720.43
1012.466	1735.35
1012.759	1708.46
1013.052	1716.59
1013.344	1687.22
1013.637	1702.13
1013.93	1683.37
1014.222	1683.6
1014.514	1649.7
1014.807	1664.39
1015.099	1640.89
1015.391	1629.82
1015.683	1610.61
1015.976	1596.82
1016.268	1595.24
1016.56	1592.98
1016.851	1573.77
1017.143	1572.87
1017.435	1578.97
1017.727	1570.38
1018.018	1559.99
1018.31	1529.93
1018.602	1507.11
1018.893	1495.81
1019.185	1505.98
1019.476	1508.92
1019.767	1512.98
1020.058	1456.26
1020.35	1480.44
1020.641	1452.65
1020.932	1444.51
1021.223	1440.44
1021.514	1412.65
1021.804	1431.4
1022.095	1390.73
1022.386	1400.44
1022.677	1379.2
1022.967	1377.17
1023.258	1378.07
1023.548	1329.48
1023.839	1355.92
1024.129	1324.06
1024.419	1354.34
1024.709	1322.71
1025	1316.6
1025.29	1294.91
1025.58	1288.13
1025.87	1279.54
1026.16	1248.36
1026.449	1297.62
1026.739	1276.83
1027.029	1259.43
1027.319	1245.65
1027.608	1267.11
1027.898	1219.66
1028.187	1243.39
1028.477	1229.37
1028.766	1236.15
1029.055	1206.55
1029.344	1209.04
1029.634	1191.64
1029.923	1183.73
1030.212	1164.74
1030.501	1167.23
1030.79	1136.27
1031.078	1150.05
1031.367	1138.76
1031.656	1147.79
1031.945	1136.04
1032.233	1120.9
1032.522	1119.09
1032.81	1119.55
1033.099	1116.84
1033.387	1094.91
1033.675	1105.99
1033.963	1103.5
1034.251	1087.01
1034.54	1098.3
1034.828	1071.86
1035.116	1061.92
1035.403	1023.05
1035.691	1029.61
1035.979	1033
1036.267	1016.72
1036.554	1043.62
1036.842	1005.2
1037.129	1012.43
1037.417	989.61
1037.704	986.67
1037.992	970.62
1038.279	969.49
1038.566	962.04
1038.853	962.04
1039.14	962.04
