Data from hue_230_FLMS001491_00031.txt Node
Date: Tue Feb 07 16:37:07 GMT 2017
User: dcchb
Spectrometer: FLMS00149
Trigger mode: 0
Integration Time (sec): 2.000000E-2
Scans to average: 10
Electric dark correction enabled: true
Nonlinearity correction enabled: false
Boxcar width: 0
XAxis mode: Wavelengths
Number of Pixels in Spectrum: 2048
>>>>>Begin Spectral Data<<<<<
341.393	-27.36
341.776	-27.36
342.16	-27.36
342.543	-53.12
342.927	-82.95
343.31	-51.09
343.693	-66.23
344.077	-53.8
344.46	-67.81
344.843	-53.8
345.226	-44.76
345.61	-23.52
345.993	-18.77
346.376	-9.51
346.759	13.09
347.142	35.01
347.525	28.69
347.908	62.58
348.291	64.39
348.674	85.41
349.057	100.1
349.44	137.16
349.823	151.62
350.206	148
350.588	174.67
350.971	204.05
351.354	211.05
351.737	220.32
352.119	260.54
352.502	263.03
352.884	249.7
353.267	281.56
353.65	305.74
354.032	285.85
354.414	288.34
354.797	314.78
355.179	325.18
355.562	330.6
355.944	329.92
356.326	321.33
356.709	333.31
357.091	323.59
357.473	351.39
357.855	352.29
358.238	354.33
358.62	330.15
359.002	340.54
359.384	325.18
359.766	331.28
360.148	324.27
360.53	335.12
360.912	325.63
361.294	315.68
361.676	341.22
362.057	334.44
362.439	348.68
362.821	330.15
363.203	315.23
363.584	307.1
363.966	312.75
364.348	332.18
364.729	307.32
365.111	313.42
365.493	320.66
365.874	306.42
366.256	316.59
366.637	316.59
367.019	316.14
367.4	312.97
367.781	274.78
368.163	291.05
368.544	308.9
368.925	303.48
369.306	310.49
369.688	322.92
370.069	303.71
370.45	297.38
370.831	309.36
371.212	291.5
371.593	324.5
371.974	313.88
372.355	314.1
372.736	309.58
373.117	308.23
373.498	317.27
373.879	316.36
374.26	321.56
374.641	290.37
375.021	318.4
375.402	318.17
375.783	305.29
376.163	315.91
376.544	324.95
376.925	318.4
377.305	318.17
377.686	301.67
378.066	302.12
378.447	314.55
378.827	340.09
379.208	331.5
379.588	334.67
379.968	338.28
380.349	334.21
380.729	325.63
381.109	329.69
381.489	337.15
381.87	311.62
382.25	317.94
382.63	327.66
383.01	329.47
383.39	332.63
383.77	344.38
384.15	336.47
384.53	313.65
384.91	329.24
385.29	344.61
385.67	332.41
386.049	347.1
386.429	345.97
386.809	310.71
387.189	345.06
387.568	340.99
387.948	362.01
388.328	355.91
388.707	349.13
389.087	361.78
389.466	347.77
389.846	333.99
390.225	359.52
390.605	373.08
390.984	353.2
391.363	349.36
391.743	352.97
392.122	365.85
392.501	365.63
392.881	358.17
393.26	345.74
393.639	387.55
394.018	364.72
394.397	362.91
394.776	379.41
395.155	382.57
395.534	391.39
395.913	385.74
396.292	378.28
396.671	383.48
397.05	388
397.429	378.28
397.808	374.44
398.186	404.95
398.565	398.85
398.944	393.87
399.323	391.39
399.701	385.51
400.08	385.96
400.458	415.57
400.837	399.75
401.215	412.18
401.594	406.75
401.972	409.92
402.351	429.35
402.729	416.92
403.107	429.13
403.486	411.27
403.864	425.96
404.242	416.92
404.62	434.32
404.999	428.9
405.377	447.21
405.755	440.88
406.133	409.24
406.511	457.37
406.889	432.97
407.267	445.4
407.645	464.38
408.023	474.55
408.401	479.07
408.779	491.72
409.156	473.65
409.534	484.72
409.912	504.83
410.29	531.95
410.667	499.63
411.045	511.16
411.422	527.88
411.8	536.24
412.178	531.72
412.555	559.75
412.933	538.05
413.31	558.62
413.687	563.36
414.065	563.13
414.442	552.74
414.819	607.88
415.197	574.43
415.574	602.23
415.951	600.2
416.328	599.07
416.705	604.26
417.082	625.51
417.46	614.43
417.837	629.12
418.214	629.35
418.591	637.94
418.967	675.45
419.344	658.73
419.721	665.96
420.098	668.67
420.475	688.78
420.852	705.5
421.228	691.27
421.605	710.02
421.982	690.36
422.358	718.16
422.735	740.08
423.111	741.66
423.488	751.38
423.864	764.26
424.241	789.8
424.617	800.42
424.994	786.41
425.37	805.16
425.746	825.5
426.123	802
426.499	812.62
426.875	847.2
427.251	858.72
427.627	871.6
428.003	891.94
428.379	878.83
428.756	903.46
429.132	928.32
429.507	905.05
429.883	920.41
430.259	936.91
430.635	964.93
431.011	943.69
431.387	975.78
431.763	986.17
432.138	964.48
432.514	1017.81
432.89	1021.43
433.265	1062.33
433.641	1051.94
434.016	1072.95
434.392	1072.5
434.767	1123.12
435.143	1130.13
435.518	1137.13
435.894	1140.29
436.269	1184.36
436.644	1185.94
437.02	1189.11
437.395	1214.87
437.77	1217.81
438.145	1247.41
438.52	1278.82
438.895	1303
439.271	1257.81
439.646	1333.51
440.021	1313.62
440.395	1358.82
440.77	1337.58
441.145	1363.79
441.52	1403.34
441.895	1383
442.27	1416.67
442.645	1427.29
443.019	1418.71
443.394	1451.25
443.769	1439.72
444.143	1455.54
444.518	1471.81
444.892	1512.94
445.267	1519.72
445.641	1543.9
446.016	1528.08
446.39	1553.62
446.764	1578.25
447.139	1557.91
447.513	1543.22
447.887	1579.83
448.262	1594.97
448.636	1589.55
449.01	1608.31
449.384	1614.63
449.758	1632.49
450.132	1667.29
450.506	1683.33
450.88	1679.26
451.254	1672.48
451.628	1706.61
452.002	1727.4
452.376	1781.63
452.75	1754.06
453.123	1770.11
453.497	1764.23
453.871	1786.15
454.244	1829.54
454.618	1845.59
454.992	1851.01
455.365	1838.81
455.739	1917
456.112	1925.81
456.486	1918.35
456.859	1952.93
457.232	1982.08
457.606	1999.03
457.979	1978.92
458.352	2085.35
458.725	2068.41
459.099	2074.96
459.472	2089.87
459.845	2138.69
460.218	2140.04
460.591	2130.55
460.964	2193.15
461.337	2201.06
461.71	2230.89
462.083	2272.69
462.456	2281.96
462.829	2266.37
463.201	2318.57
463.574	2340.72
463.947	2336.42
464.32	2376.42
464.692	2392.01
465.065	2439.24
465.438	2469.98
465.81	2487.15
466.183	2474.05
466.555	2569.86
466.928	2553.14
467.3	2571.67
467.672	2623.42
468.045	2705.45
468.417	2696.64
468.789	2690.31
469.161	2737.09
469.534	2776.18
469.906	2810.99
470.278	2854.83
470.65	2867.03
471.022	2870.42
471.394	2972.56
471.766	2963.75
472.138	2972.34
472.51	3057.31
472.882	3105.44
473.253	3141.6
473.625	3161.26
473.997	3196.74
474.369	3257.98
474.74	3274.25
475.112	3366
475.484	3380.46
475.855	3411.42
476.227	3440.12
476.598	3525.32
476.97	3544.53
477.341	3617.29
477.713	3647.57
478.084	3671.98
478.455	3797.85
478.827	3785.42
479.198	3916.72
479.569	3867
479.94	3987.9
480.311	4023.83
480.682	4122.36
481.053	4182.93
481.424	4234.45
481.795	4210.27
482.166	4286.2
482.537	4373.66
482.908	4396.03
483.279	4506.08
483.65	4538.4
484.021	4613.65
484.391	4645.06
484.762	4734.78
485.133	4740.65
485.503	4775.68
485.874	4887.54
486.244	4915.79
486.615	5007.76
486.985	4993.53
487.356	5090.47
487.726	5126.4
488.097	5224.48
488.467	5207.76
488.837	5368.66
489.207	5381.09
489.578	5472.16
489.948	5507.64
490.318	5541.99
490.688	5548.99
491.058	5667.86
491.428	5764.81
491.798	5774.3
492.168	5819.04
492.538	5901.75
492.908	5942.88
493.278	6010.45
493.648	5966.16
494.017	6043.89
494.387	6111.92
494.757	6111.46
495.126	6237.11
495.496	6201.4
495.866	6210.44
496.235	6300.61
496.605	6323.44
496.974	6369.76
497.344	6416.54
497.713	6427.61
498.082	6456.31
498.452	6529.31
498.821	6527.95
499.19	6567.95
499.559	6614.28
499.928	6642.98
500.298	6657.44
500.667	6692.47
501.036	6684.78
501.405	6747.38
501.774	6803.87
502.143	6826.02
502.512	6784.44
502.88	6860.82
503.249	6899.24
503.618	6895.85
503.987	6964.55
504.356	6979.69
504.724	7046.81
505.093	7040.7
505.462	7008.16
505.83	7110.76
506.199	7067.37
506.567	7193.92
506.936	7058.11
507.304	7198.21
507.672	7198.21
508.041	7257.2
508.409	7229.4
508.777	7316.18
509.145	7334.03
509.514	7318.89
509.882	7367.93
510.25	7345.78
510.618	7419.23
510.986	7407.47
511.354	7429.62
511.722	7446.12
512.09	7538.32
512.458	7490.64
512.826	7546.68
513.193	7523.4
513.561	7532.67
513.929	7567.24
514.297	7678.2
514.664	7626.68
515.032	7673
515.4	7807.69
515.767	7687.47
516.135	7776.05
516.502	7716.17
516.869	7756.84
517.237	7797.52
517.604	7764.08
517.972	7810.4
518.339	7821.48
518.706	7849.05
519.073	7835.26
519.44	7866.45
519.808	7904.86
520.175	7869.16
520.542	7934.47
520.909	7997.06
521.276	7899.67
521.643	7968.82
522.009	7986.22
522.376	7937.86
522.743	8034.35
523.11	8085.42
523.477	8124.97
523.843	8148.02
524.21	8209.26
524.577	8200.9
524.943	8177.85
525.31	8158.42
525.676	8229.6
526.043	8267.34
526.409	8302.37
526.776	8351.18
527.142	8276.15
527.508	8298.52
527.874	8337.85
528.241	8315.02
528.607	8348.24
528.973	8402.7
529.339	8378.97
529.705	8407.22
530.071	8444.28
530.437	8417.39
530.803	8409.03
531.169	8407.9
531.535	8388.24
531.901	8413.32
532.267	8425.75
532.632	8393.21
532.998	8442.02
533.364	8425.53
533.73	8393.44
534.095	8457.39
534.461	8473.44
534.826	8437.05
535.192	8486.09
535.557	8524.06
535.923	8396.15
536.288	8470.95
536.653	8498.07
537.019	8433.21
537.384	8430.5
537.749	8456.26
538.114	8434.34
538.479	8348.47
538.845	8395.02
539.21	8313.89
539.575	8377.17
539.94	8374.91
540.305	8453.1
540.67	8329.94
541.034	8353.21
541.399	8387.56
541.764	8388.01
542.129	8337.62
542.494	8333.55
542.858	8303.04
543.223	8342.82
543.587	8386.88
543.952	8306.66
544.316	8270.05
544.681	8252.42
545.045	8215.59
545.41	8311.63
545.774	8264.18
546.138	8260.11
546.503	8315.7
546.867	8243.84
547.231	8295.36
547.595	8251.52
547.959	8189.6
548.324	8240
548.688	8171.97
549.052	8211.07
549.416	8178.98
549.779	8108.7
550.143	8177.85
550.507	8075.25
550.871	8148.25
551.235	8086.1
551.599	8174.91
551.962	8117.96
552.326	8106.67
552.689	8149.38
553.053	8035.48
553.417	8063.73
553.78	8100.79
554.143	8072.99
554.507	8103.5
554.87	8149.6
555.234	8132.88
555.597	8029.38
555.96	8127
556.323	8053.11
556.686	8111.64
557.05	8117.74
557.413	8060.56
557.776	8126.1
558.139	8055.37
558.502	8102.82
558.865	8089.72
559.228	8126.1
559.59	8076.16
559.953	8100.79
560.316	8204.97
560.679	8182.37
561.041	8151.64
561.404	8172.65
561.767	8168.81
562.129	8160.45
562.492	8175.82
562.854	8254.46
563.217	8183.27
563.579	8211.07
563.941	8291.97
564.304	8257.4
564.666	8296.04
565.028	8211.3
565.39	8266.89
565.753	8289.26
566.115	8273.89
566.477	8344.17
566.839	8322.03
567.201	8383.95
567.563	8442.93
567.925	8385.75
568.287	8435.47
568.648	8415.36
569.01	8454
569.372	8555.24
569.734	8506.65
570.095	8555.24
570.457	8504.85
570.819	8588.23
571.18	8530.38
571.542	8610.15
571.903	8597.5
572.265	8597.5
572.626	8593.43
572.987	8626.65
573.349	8629.14
573.71	8628.23
574.071	8694.45
574.432	8720.89
574.794	8741
575.155	8713.43
575.516	8754.56
575.877	8790.04
576.238	8731.28
576.599	8802.24
576.96	8805.86
577.32	8747.55
577.681	8850.15
578.042	8889.02
578.403	8850.37
578.763	8888.79
579.124	8850.6
579.485	8971.28
579.845	8978.73
580.206	8917.27
580.566	9046.3
580.927	8926.3
581.287	9082.01
581.648	9041.33
582.008	9012.4
582.368	9002.91
582.728	9043.82
583.089	9125.4
583.449	9142.8
583.809	9175.34
584.169	9143.7
584.529	9115.23
584.889	9213.53
585.249	9173.3
585.609	9166.98
585.969	9231.61
586.329	9218.27
586.688	9266.18
587.048	9226.64
587.408	9211.04
587.768	9227.54
588.127	9190.7
588.487	9188.22
588.846	9276.8
589.206	9274.32
589.565	9309.8
589.925	9304.15
590.284	9284.49
590.643	9320.42
591.003	9330.59
591.362	9383.24
591.721	9384.82
592.08	9371.49
592.44	9349.57
592.799	9394.09
593.158	9397.7
593.517	9400.42
593.876	9415.11
594.235	9377.37
594.593	9402.22
594.952	9451.71
595.311	9427.31
595.67	9455.56
596.029	9455.56
596.387	9456.01
596.746	9561.99
597.104	9538.49
597.463	9444.94
597.822	9501.66
598.18	9514.76
598.538	9482.22
598.897	9619.62
599.255	9495.33
599.613	9652.61
599.972	9567.64
600.33	9601.54
600.688	9578.94
601.046	9596.34
601.404	9683.35
601.762	9611.48
602.12	9672.27
602.478	9632.05
602.836	9613.52
603.194	9606.06
603.552	9612.16
603.91	9616
604.268	9622.33
604.625	9592.05
604.983	9609.22
605.341	9610.13
605.698	9689.22
606.056	9675.21
606.413	9653.97
606.771	9713.85
607.128	9671.37
607.485	9672.27
607.843	9691.71
608.2	9704.36
608.557	9751.37
608.914	9710.47
609.272	9746.85
609.629	9731.03
609.986	9769.9
610.343	9740.29
610.7	9776.9
611.057	9823
611.414	9700.75
611.771	9796.79
612.127	9749.11
612.484	9792.72
612.841	9773.06
613.198	9774.42
613.554	9795.21
613.911	9896.45
614.267	9828.2
614.624	9843.79
614.98	9945.49
615.337	9907.52
615.693	9848.99
616.05	9905.04
616.406	9897.8
616.762	9905.71
617.118	9927.63
617.475	9912.72
617.831	9973.51
618.187	9909.78
618.543	9969.89
618.899	10018.71
619.255	9964.47
619.611	9985.03
619.967	9990.68
620.323	9964.92
620.678	10010.57
621.034	9961.08
621.39	9933.28
621.746	10030.23
622.101	10101.19
622.457	9976.67
622.812	9973.06
623.168	10063
623.523	10023.23
623.879	10046.28
624.234	10038.14
624.589	10011.02
624.945	9982.32
625.3	10011.7
625.655	10023
626.01	10001.53
626.365	10006.95
626.72	9951.14
627.075	9988.65
627.43	10010.12
627.785	9974.64
628.14	9975.54
628.495	9980.74
628.85	9967.63
629.205	9927.18
629.559	10014.19
629.914	9968.76
630.269	9987.75
630.623	9956.33
630.978	9937.35
631.332	9966.05
631.687	9955.2
632.041	9852.16
632.396	9914.08
632.75	9827.52
633.104	9874.53
633.459	9813.97
633.813	9851.93
634.167	9824.36
634.521	9834.08
634.875	9856.9
635.229	9846.28
635.583	9788.43
635.937	9810.58
636.291	9781.2
636.645	9735.32
636.999	9715.21
637.352	9740.52
637.706	9725.83
638.06	9768.09
638.413	9730.13
638.767	9683.35
639.121	9676.34
639.474	9605.16
639.828	9626.4
640.181	9667.3
640.534	9630.92
640.888	9572.16
641.241	9591.15
641.594	9625.72
641.947	9618.94
642.301	9570.81
642.654	9606.74
643.007	9548.21
643.36	9611.26
643.713	9562.22
644.066	9579.17
644.419	9586.17
644.771	9529.45
645.124	9419.63
645.477	9415.11
645.83	9387.99
646.182	9327.42
646.535	9278.16
646.888	9261.89
647.24	9176.24
647.593	9301.66
647.945	9279.97
648.298	9196.81
648.65	9265.96
649.002	9134.66
649.355	9251.27
649.707	9197.94
650.059	9262.79
650.411	9419.63
650.763	9343.92
651.115	9498.49
651.467	9409.91
651.819	9470.47
652.171	9470.92
652.523	9390.93
652.875	9335.11
653.227	9410.36
653.578	9467.08
653.93	9404.26
654.282	9435.9
654.633	9381.21
654.985	9385.5
655.337	9422.79
655.688	9438.61
656.039	9435.22
656.391	9334.66
656.742	9409.46
657.094	9368.78
657.445	9448.33
657.796	9380.08
658.147	9390.02
658.498	9398.83
658.849	9426.18
659.2	9355.22
659.551	9396.12
659.902	9439.96
660.253	9391.6
660.604	9418.5
660.955	9431.38
661.306	9424.82
661.656	9461.66
662.007	9399.51
662.358	9421.43
662.708	9451.49
663.059	9453.07
663.409	9395.22
663.76	9433.18
664.11	9439.96
664.461	9445.16
664.811	9510.47
665.161	9457.36
665.511	9415.11
665.862	9451.71
666.212	9439.74
666.562	9437.7
666.912	9413.3
667.262	9403.35
667.612	9457.82
667.962	9498.95
668.312	9404.48
668.662	9469.34
669.011	9389.12
669.361	9400.87
669.711	9444.26
670.06	9417.14
670.41	9405.84
670.76	9372.85
671.109	9435.44
671.459	9386.86
671.808	9441.32
672.157	9350.7
672.507	9367.65
672.856	9345.73
673.205	9361.55
673.554	9372.17
673.904	9318.38
674.253	9386.63
674.602	9360.87
674.951	9200.2
675.3	9185.28
675.649	9316.35
675.998	9337.14
676.346	9247.65
676.695	9289.46
677.044	9275
677.393	9331.27
677.741	9317.48
678.09	9317.93
678.438	9277.26
678.787	9221.89
679.135	9233.42
679.484	9158.16
679.832	9250.36
680.181	9169.46
680.529	9170.82
680.877	9125.4
681.225	9150.71
681.573	9164.49
681.922	9062.8
682.27	9122.68
682.618	9076.36
682.966	9024.83
683.314	9084.49
683.661	9000.2
684.009	9024.61
684.357	8928.56
684.705	9018.05
685.053	9007.88
685.4	8890.83
685.748	8888.57
686.095	8968.79
686.443	8789.36
686.79	8852.41
687.138	8818.29
687.485	8869.13
687.832	8844.95
688.18	8831.17
688.527	8800.21
688.874	8721.56
689.221	8635.47
689.568	8638.4
689.915	8715.91
690.262	8686.09
690.609	8621
690.956	8548.91
691.303	8562.47
691.65	8559.31
691.997	8451.06
692.344	8525.41
692.69	8496.71
693.037	8411.06
693.383	8343.27
693.73	8384.85
694.077	8378.97
694.423	8367.9
694.769	8302.82
695.116	8317.96
695.462	8260.56
695.808	8219.43
696.155	8253.78
696.501	8162.71
696.847	8181.24
697.193	8085.42
697.539	8122.71
697.885	8094.46
698.231	8037.29
698.577	8031.87
698.923	8026.89
699.269	7948.25
699.614	7913.45
699.96	7880.68
700.306	7902.15
700.651	7857.41
700.997	7864.86
701.342	7812.66
701.688	7799.78
702.033	7797.75
702.379	7698.77
702.724	7686.34
703.069	7685.21
703.415	7595.72
703.76	7681.82
704.105	7588.49
704.45	7561.82
704.795	7514.82
705.14	7509.84
705.485	7486.12
705.83	7536.06
706.175	7448.15
706.52	7487.7
706.865	7404.31
707.209	7440.02
707.554	7330.87
707.899	7378.55
708.243	7344.65
708.588	7343.75
708.932	7262.39
709.277	7269.85
709.621	7303.3
709.966	7197.76
710.31	7195.95
710.654	7186.92
710.998	7167.03
711.342	7090.19
711.687	7124.54
712.031	7108.73
712.375	7102.17
712.719	7101.95
713.063	7120.25
713.407	7083.42
713.75	7020.37
714.094	7072.34
714.438	7017.65
714.782	6990.76
715.125	6948.28
715.469	7004.77
715.812	6969.07
716.156	6939.46
716.499	6949.18
716.843	6910.54
717.186	6916.87
717.53	6925.23
717.873	6898.79
718.216	6891.1
718.559	6911.67
718.902	6855.17
719.246	6828.51
719.589	6821.73
719.932	6807.04
720.275	6795.06
720.617	6807.94
720.96	6790.32
721.303	6814.27
721.646	6790.09
721.989	6755.97
722.331	6796.19
722.674	6774.5
723.016	6719.81
723.359	6738.11
723.701	6731.11
724.044	6711.45
724.386	6632.58
724.729	6744.44
725.071	6682.97
725.413	6769.75
725.755	6660.83
726.097	6678.45
726.439	6629.42
726.782	6628.06
727.124	6644.1
727.465	6701.73
727.807	6639.59
728.149	6610.89
728.491	6620.6
728.833	6644.78
729.175	6566.14
729.516	6635.97
729.858	6631.9
730.199	6632.58
730.541	6647.27
730.882	6637.1
731.224	6631.45
731.565	6614.05
731.906	6658.79
732.248	6585.58
732.589	6622.86
732.93	6576.99
733.271	6548.74
733.612	6577.21
733.953	6619.47
734.294	6569.76
734.635	6583.54
734.976	6579.93
735.317	6572.02
735.658	6568.4
735.999	6597.78
736.339	6577.89
736.68	6621.96
737.021	6561.85
737.361	6544.9
737.702	6566.82
738.042	6534.73
738.383	6547.61
738.723	6592.81
739.063	6563.88
739.404	6639.59
739.744	6588.74
740.084	6601.39
740.424	6588.06
740.764	6576.99
741.104	6680.71
741.444	6653.6
741.784	6658.34
742.124	6659.92
742.464	6658.79
742.804	6651.34
743.143	6719.81
743.483	6757.77
743.823	6710.09
744.162	6763.65
744.502	6769.53
744.841	6770.66
745.181	6828.51
745.52	6812.24
745.86	6813.59
746.199	6888.39
746.538	6957.09
746.877	6963.87
747.216	7016.07
747.556	6985.34
747.895	7101.04
748.234	7056.3
748.573	7199.8
748.911	7195.5
749.25	7258.78
749.589	7256.07
749.928	7238.67
750.267	7339.91
750.605	7389.62
750.944	7456.74
751.283	7486.57
751.621	7577.41
751.96	7637.98
752.298	7689.95
752.636	7728.6
752.975	7826.22
753.313	7901.92
753.651	8040.45
753.989	8022.83
754.327	8126.78
754.666	8202.71
755.004	8265.08
755.342	8417.84
755.679	8499.42
756.017	8527.67
756.355	8698.29
756.693	8803.6
757.031	8854.44
757.368	8910.49
757.706	9065.06
758.044	9161.33
758.381	9243.58
758.719	9376.91
759.056	9525.61
759.394	9675.44
759.731	9633.86
760.068	9851.93
760.405	9921.53
760.743	9993.17
761.08	10113.84
761.417	10269.32
761.754	10382.99
762.091	10484.91
762.428	10559.03
762.765	10665.69
763.102	10842.64
763.438	10945.46
763.775	11046.48
764.112	11166.92
764.449	11299.8
764.785	11334.38
765.122	11462.74
765.458	11521.72
765.795	11700.7
766.131	11796.96
766.467	11888.71
766.804	11916.06
767.14	12144.3
767.476	12156.28
767.812	12240.57
768.148	12343.39
768.485	12321.02
768.821	12431.3
769.157	12452.09
769.492	12685.53
769.828	12722.14
770.164	12689.37
770.5	12786.99
770.836	12958.06
771.171	12796.03
771.507	13003.49
771.842	12927.78
772.178	13089.13
772.513	13156.7
772.849	13264.5
773.184	13213.2
773.519	13234.44
773.855	13265.85
774.19	13371.84
774.525	13321.22
774.86	13450.71
775.195	13494.09
775.53	13461.33
775.865	13540.42
776.2	13464.72
776.535	13516.92
776.87	13488.44
777.205	13519.63
777.539	13606.18
777.874	13635.79
778.209	13509.46
778.543	13600.76
778.878	13590.81
779.212	13586.75
779.547	13586.97
779.881	13694.77
780.215	13512.62
780.55	13683.24
780.884	13537.03
781.218	13617.93
781.552	13683.92
781.886	13612.06
782.22	13610.7
782.554	13609.57
782.888	13589.46
783.222	13538.61
783.556	13527.54
783.889	13466.07
784.223	13407.77
784.557	13443.25
784.89	13489.8
785.224	13400.54
785.557	13423.36
785.891	13386.53
786.224	13393.53
786.558	13370.26
786.891	13282.8
787.224	13294.33
787.557	13250.03
787.891	13290.71
788.224	13291.16
788.557	13315.12
788.89	13307.66
789.223	13204.84
789.556	13089.13
789.888	13135.46
790.221	13102.24
790.554	13109.7
790.887	13069.02
791.219	12972.98
791.552	13035.12
791.884	12939.76
792.217	12937.5
792.549	12917.84
792.882	12885.3
793.214	12799.65
793.546	12906.77
793.879	12752.19
794.211	12678.52
794.543	12821.34
794.875	12770.05
795.207	12768.01
795.539	12766.43
795.871	12739.31
796.203	12647.79
796.535	12516.94
796.867	12567.57
797.198	12572.99
797.53	12489.83
797.862	12522.14
798.193	12574.34
798.525	12391.3
798.856	12445.08
799.188	12284.63
799.519	12324.18
799.85	12185.43
800.182	12273.11
800.513	12284.18
800.844	12173.68
801.175	12213.9
801.506	12246.22
801.837	12134.58
802.168	12077.86
802.499	12116.05
802.83	12015.49
803.161	12036.96
803.491	12004.42
803.822	12088.93
804.153	11918.09
804.483	11901.59
804.814	11827.7
805.145	11806.68
805.475	11843.97
805.805	11810.52
806.136	11771.88
806.466	11795.61
806.796	11763.29
807.126	11650.75
807.457	11686.01
807.787	11661.15
808.117	11672.67
808.447	11616.63
808.777	11574.14
809.107	11479.01
809.436	11523.07
809.766	11400.59
810.096	11518.78
810.426	11381.38
810.755	11462.96
811.085	11369.63
811.414	11372.12
811.744	11363.75
812.073	11263.64
812.403	11277.88
812.732	11271.55
813.061	11283.08
813.39	11272.68
813.719	11133.48
814.049	11285.56
814.378	11240.59
814.707	11147.72
815.036	11156.08
815.365	11068.62
815.693	10963.31
816.022	11066.81
816.351	11033.82
816.68	10903.88
817.008	11008.74
817.337	10846.03
817.665	10792.47
817.994	10865.01
818.322	10908.85
818.651	10852.13
818.979	10782.98
819.307	10899.13
819.636	10840.83
819.964	10725.81
820.292	10790.44
820.62	10796.99
820.948	10697.56
821.276	10790.21
821.604	10669.31
821.932	10805.13
822.259	10717.9
822.587	10753.15
822.915	10713.15
823.243	10728.29
823.57	10695.52
823.898	10739.59
824.225	10677.67
824.553	10683.09
824.88	10783.88
825.207	10761.51
825.535	10669.76
825.862	10730.78
826.189	10697.11
826.516	10731.91
826.843	10715.41
827.17	10684.45
827.497	10712.47
827.824	10704.56
828.151	10729.2
828.478	10759.48
828.805	10730.55
829.131	10718.12
829.458	10698.69
829.785	10692.13
830.111	10724.22
830.438	10750.21
830.764	10720.16
831.09	10823.66
831.417	10705.47
831.743	10853.03
832.069	10742.53
832.395	10695.75
832.722	10775.75
833.048	10640.16
833.374	10632.02
833.7	10544.34
834.026	10632.7
834.351	10706.37
834.677	10700.95
835.003	10668.41
835.329	10616.43
835.654	10590.67
835.98	10617.56
836.306	10578.24
836.631	10554.74
836.956	10585.24
837.282	10596.77
837.607	10442.88
837.932	10448.75
838.258	10484.91
838.583	10441.97
838.908	10394.51
839.233	10461.63
839.558	10408.3
839.883	10348.41
840.208	10354.52
840.533	10373.27
840.858	10376.44
841.182	10284.46
841.507	10341.41
841.832	10289.43
842.156	10283.78
842.481	10308.64
842.805	10300.96
843.13	10263.67
843.454	10210.34
843.778	10096.44
844.103	10209.89
844.427	10158.14
844.751	10143.45
845.075	10103.9
845.399	10082.43
845.723	9993.62
846.047	10001.76
846.371	10002.43
846.695	9903
847.019	9897.35
847.343	9777.58
847.666	9793.17
847.99	9753.63
848.313	9816
848.637	9720.86
848.96	9672.95
849.284	9649.45
849.607	9593.86
849.931	9556.34
850.254	9541.43
850.577	9450.13
850.9	9380.98
851.223	9449
851.546	9319.06
851.869	9231.16
852.192	9364.26
852.515	9278.39
852.838	9153.64
853.161	9122.23
853.483	9165.17
853.806	9204.26
854.129	9114.55
854.451	9093.08
854.774	8985.29
855.096	8978.05
855.419	8961.78
855.741	9001.56
856.063	8905.51
856.385	8963.37
856.708	8856.93
857.03	8848.79
857.352	8820.32
857.674	8794.1
857.996	8762.92
858.318	8704.39
858.64	8765.63
858.961	8733.77
859.283	8694.9
859.605	8672.98
859.926	8656.48
860.248	8599.08
860.57	8621.68
860.891	8631.85
861.212	8512.98
861.534	8521.8
861.855	8515.02
862.176	8514.34
862.498	8444.06
862.819	8506.2
863.14	8417.39
863.461	8435.92
863.782	8427.56
864.103	8405.64
864.424	8423.27
864.745	8377.39
865.065	8337.17
865.386	8316.6
865.707	8275.7
866.027	8329.71
866.348	8274.8
866.668	8320.9
866.989	8241.8
867.309	8232.31
867.63	8245.19
867.95	8203.16
868.27	8188.7
868.59	8204.74
868.91	8195.48
869.23	8210.62
869.55	8113.9
869.87	8145.76
870.19	8145.76
870.51	8164.97
870.83	8085.87
871.15	8092.65
871.469	8102.15
871.789	8133.33
872.109	8027.35
872.428	7985.54
872.748	8080.45
873.067	8010.17
873.386	8014.24
873.706	7967.01
874.025	7949.16
874.344	7910.06
874.663	8002.94
874.982	7950.06
875.301	7934.69
875.62	7916.61
875.939	7880.23
876.258	7974.47
876.577	7917.29
876.896	7933.56
877.214	7879.1
877.533	7858.54
877.852	7876.84
878.17	7859.67
878.489	7795.71
878.807	7892.43
879.125	7858.76
879.444	7793
879.762	7769.95
880.08	7817.41
880.398	7706.45
880.716	7754.58
881.034	7698.09
881.352	7714.59
881.67	7655.83
881.988	7650.18
882.306	7640.46
882.624	7600.01
882.941	7581.26
883.259	7617.64
883.577	7558.66
883.894	7568.83
884.212	7650.63
884.529	7566.57
884.846	7522.05
885.164	7548.94
885.481	7449.06
885.798	7452.45
886.115	7471.2
886.432	7391.2
886.75	7369.06
887.067	7366.57
887.383	7391.43
887.7	7361.37
888.017	7393.46
888.334	7369.06
888.651	7326.8
888.967	7280.47
889.284	7257.87
889.6	7252.68
889.917	7250.42
890.233	7173.13
890.55	7148.27
890.866	7144.2
891.182	7186.46
891.498	7091.78
891.815	7122.96
892.131	7073.02
892.447	7045.9
892.763	7014.72
893.079	7014.26
893.395	7020.14
893.71	7000.48
894.026	6932.23
894.342	6942.18
894.657	6910.76
894.973	6883.42
895.289	6828.28
895.604	6860.37
895.92	6774.27
896.235	6749.86
896.55	6730.88
896.865	6750.09
897.181	6757.77
897.496	6697.89
897.811	6692.92
898.126	6710.32
898.441	6671.22
898.756	6629.64
899.071	6557.78
899.386	6587.84
899.7	6502.87
900.015	6532.02
900.33	6473.26
900.644	6454.51
900.959	6495.63
901.273	6470.32
901.588	6398.91
901.902	6411.34
902.216	6360.27
902.531	6369.54
902.845	6374.96
903.159	6327.05
903.473	6302.65
903.787	6304
904.101	6172.93
904.415	6231.46
904.729	6200.5
905.042	6113.5
905.356	6090.45
905.67	6158.69
905.984	6148.98
906.297	6078.92
906.611	6058.58
906.924	5997.79
907.237	6023.33
907.551	5990.11
907.864	5940.62
908.177	5952.37
908.491	5977.91
908.804	5917.57
909.117	5863.33
909.43	5850.45
909.743	5833.05
910.056	5772.94
910.368	5746.95
910.681	5765.03
910.994	5727.07
911.307	5699.72
911.619	5628.54
911.932	5694.3
912.244	5690.46
912.557	5662.66
912.869	5615.21
913.181	5587.18
913.494	5579.5
913.806	5462.44
914.118	5508.77
914.43	5518.94
914.742	5487.75
915.054	5511.48
915.366	5441.88
915.678	5443.23
915.99	5407.08
916.302	5328.43
916.613	5310.35
916.925	5307.19
917.236	5317.13
917.548	5308.32
917.859	5312.84
918.171	5263.12
918.482	5224.03
918.794	5188.1
919.105	5158.72
919.416	5151.49
919.727	5121.89
920.038	5129.79
920.349	5113.3
920.66	5073.07
920.971	5019.51
921.282	5050.47
921.593	5011.61
921.903	4964.15
922.214	4972.96
922.525	4971.15
922.835	4956.01
923.146	4890.48
923.456	4919.86
923.767	4876.92
924.077	4878.73
924.387	4833.31
924.697	4759.63
925.008	4828.79
925.318	4798.5
925.628	4785.17
925.938	4719.18
926.248	4713.53
926.558	4697.26
926.867	4662.69
927.177	4678.73
927.487	4626.53
927.796	4604.38
928.106	4606.64
928.416	4592.63
928.725	4569.36
929.034	4527.78
929.344	4546.76
929.653	4516.25
929.962	4517.83
930.271	4450.94
930.581	4447.1
930.89	4455.69
931.199	4422.92
931.508	4403.94
931.817	4351.51
932.125	4386.09
932.434	4364.16
932.743	4338.85
933.051	4278.07
933.36	4273.32
933.669	4283.49
933.977	4237.39
934.286	4292.75
934.594	4205.75
934.902	4201.91
935.21	4176.37
935.519	4150.39
935.827	4191.51
936.135	4136.37
936.443	4120.56
936.751	4136.15
937.059	4138.86
937.367	4088.69
937.674	4094.79
937.982	4063.38
938.29	4038.75
938.597	4042.37
938.905	3932.54
939.213	3990.16
939.52	3930.96
939.827	3979.32
940.135	3975.25
940.442	3933.44
940.749	3908.36
941.056	3936.83
941.363	3891.18
941.67	3852.09
941.977	3823.61
942.284	3791.52
942.591	3784.52
942.898	3815.93
943.205	3770.96
943.511	3768.02
943.818	3694.35
944.125	3736.38
944.431	3681.7
944.738	3692.32
945.044	3713.79
945.35	3656.61
945.657	3613.9
945.963	3613.9
946.269	3621.59
946.575	3631.08
946.881	3582.04
947.187	3592.66
947.493	3549.5
947.799	3554.02
948.105	3526.22
948.41	3518.99
948.716	3508.59
949.022	3487.35
949.327	3472.89
949.633	3434.7
949.938	3453
950.244	3448.93
950.549	3443.74
950.854	3401.93
951.16	3386.34
951.465	3371.65
951.77	3384.53
952.075	3364.87
952.38	3333.23
952.685	3318.54
952.99	3282.61
953.294	3304.98
953.599	3276.74
953.904	3218.21
954.209	3223.86
954.513	3233.57
954.818	3229.51
955.122	3216.62
955.426	3214.82
955.731	3204.65
956.035	3177.53
956.339	3204.42
956.643	3184.31
956.948	3111.09
957.252	3099.79
957.556	3106.57
957.86	3073.8
958.163	3073.8
958.467	3079.68
958.771	3019.57
959.075	3059.11
959.378	3035.61
959.682	3011.21
959.985	2983.41
960.289	2987.93
960.592	3001.04
960.896	2972.56
961.199	2940.47
961.502	2966.91
961.805	2916.29
962.108	2885.33
962.411	2898.67
962.714	2896.63
963.017	2885.11
963.32	2900.47
963.623	2854.83
963.926	2860.48
964.228	2839.91
964.531	2838.33
964.833	2800.36
965.136	2791.32
965.438	2780.25
965.741	2789.97
966.043	2767.82
966.345	2727.6
966.648	2726.69
966.95	2713.59
967.252	2722.17
967.554	2670.42
967.856	2694.83
968.158	2672.91
968.46	2695.51
968.761	2682.18
969.063	2640.14
969.365	2649.41
969.666	2626.81
969.968	2625.23
970.269	2611.44
970.571	2602.4
970.872	2575.96
971.174	2582.52
971.475	2567.83
971.776	2536.87
972.077	2537.77
972.378	2537.09
972.679	2497.32
972.98	2516.53
973.281	2482.86
973.582	2505
973.883	2489.19
974.183	2473.14
974.484	2461.84
974.785	2466.59
975.085	2441.05
975.386	2427.27
975.686	2437.89
975.986	2382.07
976.287	2414.84
976.587	2392.47
976.887	2392.01
977.187	2388.4
977.487	2359.02
977.787	2364.9
978.087	2357.89
978.387	2320.83
978.687	2344.11
978.987	2300.72
979.286	2288.29
979.586	2315.63
979.885	2283.09
980.185	2300.26
980.484	2258.91
980.784	2259.81
981.083	2256.65
981.382	2266.37
981.682	2230.21
981.981	2207.84
982.28	2196.54
982.579	2197.89
982.878	2163.09
983.177	2173.94
983.475	2158.35
983.774	2163.09
984.073	2126.26
984.372	2128.07
984.67	2128.74
984.969	2121.51
985.267	2149.76
985.566	2106.15
985.864	2115.41
986.162	2112.25
986.461	2074.73
986.759	2078.12
987.057	2050.1
987.355	2015.3
987.653	2061.4
987.951	2046.94
988.249	2018.92
988.547	2035.86
988.844	2004
989.142	2027.05
989.44	1994.28
989.737	1987.96
990.035	1972.82
990.332	1953.61
990.63	1945.25
990.927	1942.31
991.224	1956.77
991.521	1956.54
991.819	1927.39
992.116	1908.41
992.413	1880.16
992.71	1884
993.006	1890.11
993.303	1862.08
993.6	1887.39
993.897	1841.75
994.193	1835.19
994.49	1831.58
994.787	1817.11
995.083	1842.65
995.379	1803.55
995.676	1806.27
995.972	1801.29
996.268	1806.49
996.565	1758.36
996.861	1781.41
997.157	1811.92
997.453	1772.14
997.749	1743.44
998.044	1738.92
998.34	1745.25
998.636	1737.12
998.932	1729.43
999.227	1692.82
999.523	1711.13
999.818	1701.86
1000.114	1670.45
1000.409	1660.73
1000.704	1665.48
1001	1668.64
1001.295	1640.17
1001.59	1647.4
1001.885	1623.22
1002.18	1650.34
1002.475	1609.44
1002.77	1624.35
1003.065	1617.34
1003.359	1587.97
1003.654	1576.67
1003.949	1573.28
1004.243	1580.74
1004.538	1559.27
1004.832	1550.68
1005.127	1537.8
1005.421	1548.65
1005.715	1535.09
1006.009	1518.14
1006.304	1483.56
1006.598	1521.75
1006.892	1474.3
1007.186	1481.98
1007.48	1481.3
1007.773	1473.85
1008.067	1470.46
1008.361	1441.3
1008.655	1425.94
1008.948	1412.15
1009.242	1442.21
1009.535	1416.22
1009.829	1407.86
1010.122	1433.17
1010.415	1408.31
1010.708	1394.53
1011.001	1399.27
1011.295	1376.45
1011.588	1388.65
1011.881	1347.3
1012.173	1385.71
1012.466	1362.66
1012.759	1341.19
1013.052	1359.5
1013.344	1324.02
1013.637	1344.13
1013.93	1302.1
1014.222	1314.98
1014.514	1293.51
1014.807	1278.6
1015.099	1281.99
1015.391	1302.32
1015.683	1265.26
1015.976	1242.44
1016.268	1286.73
1016.56	1209.22
1016.851	1245.6
1017.143	1237.02
1017.435	1236.34
1017.727	1232.95
1018.018	1230.01
1018.31	1203.34
1018.602	1227.07
1018.893	1209.9
1019.185	1166.06
1019.476	1185.27
1019.767	1182.78
1020.058	1162.89
1020.35	1145.49
1020.641	1141.42
1020.932	1166.28
1021.223	1134.19
1021.514	1120.18
1021.804	1121.76
1022.095	1124.02
1022.386	1107.75
1022.677	1100.07
1022.967	1094.87
1023.258	1084.03
1023.548	1081.77
1023.839	1089.45
1024.129	1084.48
1024.419	1074.76
1024.709	1067.3
1025	1065.95
1025.29	1045.83
1025.58	1052.16
1025.87	1026.85
1026.16	1029.79
1026.449	1016.68
1026.739	1019.39
1027.029	1022.78
1027.319	997.02
1027.608	1002.67
1027.898	997.7
1028.187	1016
1028.477	992.05
1028.766	967.64
1029.055	977.81
1029.344	956.34
1029.634	964.93
1029.923	943.69
1030.212	931.71
1030.501	954.31
1030.79	914.76
1031.078	928.55
1031.367	908.21
1031.656	925.84
1031.945	922.45
1032.233	883.13
1032.522	918.83
1032.81	894.43
1033.099	896.69
1033.387	887.19
1033.675	881.32
1033.963	880.19
1034.251	861.88
1034.54	849.46
1034.828	867.31
1035.116	880.87
1035.403	836.12
1035.691	830.02
1035.979	832.28
1036.267	845.61
1036.554	851.49
1036.842	817.14
1037.129	833.64
1037.417	824.6
1037.704	817.37
1037.992	794.54
1038.279	813.07
1038.566	802.22
1038.853	802.22
1039.14	802.22
