Data from hue_110_FLMS001491_00053.txt Node
Date: Tue Feb 07 17:01:31 GMT 2017
User: dcchb
Spectrometer: FLMS00149
Trigger mode: 0
Integration Time (sec): 2.000000E-2
Scans to average: 10
Electric dark correction enabled: true
Nonlinearity correction enabled: false
Boxcar width: 0
XAxis mode: Wavelengths
Number of Pixels in Spectrum: 2048
>>>>>Begin Spectral Data<<<<<
341.393	-14.75
341.776	-14.75
342.16	-14.75
342.543	-63.56
342.927	-66.95
343.31	-64.46
343.693	-68.08
344.077	-69.66
344.46	-46.38
344.843	-35.08
345.226	-59.94
345.61	-15.88
345.993	-8.42
346.376	8.08
346.759	16.44
347.142	23.9
347.525	20.96
347.908	47.17
348.291	62.54
348.674	86.04
349.057	102.77
349.44	114.74
349.823	125.14
350.206	166.72
350.588	172.37
350.971	218.47
351.354	215.53
351.737	239.71
352.119	225.7
352.502	260.95
352.884	270.9
353.267	260.5
353.65	281.52
354.032	296.43
354.414	295.75
354.797	295.53
355.179	290.56
355.562	292.37
355.944	306.38
356.326	321.52
356.709	311.35
357.091	317.45
357.473	351.8
357.855	346.15
358.238	330.33
358.62	345.25
359.002	315.42
359.384	323.1
359.766	334.17
360.148	335.08
360.53	344.12
360.912	327.17
361.294	321.52
361.676	313.38
362.057	346.15
362.439	337.11
362.821	317
363.203	312.03
363.584	319.26
363.966	294.17
364.348	317.45
364.729	323.55
365.111	312.48
365.493	310.9
365.874	324.68
366.256	290.78
366.637	295.98
367.019	317.68
367.4	309.77
367.781	296.66
368.163	314.51
368.544	308.64
368.925	299.6
369.306	304.12
369.688	299.37
370.069	304.34
370.45	303.89
370.831	315.42
371.212	305.7
371.593	290.56
371.974	284.23
372.355	315.42
372.736	313.83
373.117	295.53
373.498	316.32
373.879	319.03
374.26	305.47
374.641	298.92
375.021	312.93
375.402	298.24
375.783	335.98
376.163	338.01
376.544	331.46
376.925	313.16
377.305	312.7
377.686	319.71
378.066	297.79
378.447	312.25
378.827	341.63
379.208	311.8
379.588	325.13
379.968	318.58
380.349	331.01
380.729	332.59
381.109	319.03
381.489	343.66
381.87	325.58
382.25	351.12
382.63	322.42
383.01	344.79
383.39	327.17
383.77	336.43
384.15	327.84
384.53	346.15
384.91	336.21
385.29	333.95
385.67	344.12
386.049	347.28
386.429	317.9
386.809	359.48
387.189	355.64
387.568	344.57
387.948	354.28
388.328	345.02
388.707	364.23
389.087	351.57
389.466	354.06
389.846	352.7
390.225	348.41
390.605	356.77
390.984	338.69
391.363	344.79
391.743	351.35
392.122	341.86
392.501	376.43
392.881	358.58
393.26	346.15
393.639	343.89
394.018	375.07
394.397	383.66
394.776	372.36
395.155	373.49
395.534	357
395.913	366.71
396.292	374.62
396.671	382.31
397.05	363.32
397.429	374.4
397.808	355.87
398.186	379.14
398.565	383.44
398.944	388.41
399.323	399.71
399.701	395.64
400.08	403.77
400.458	372.59
400.837	399.71
401.215	392.48
401.594	389.09
401.972	408.29
402.351	387.73
402.729	399.71
403.107	408.29
403.486	413.49
403.864	399.71
404.242	406.26
404.62	415.75
404.999	385.7
405.377	414.85
405.755	421.18
406.133	398.13
406.511	417.33
406.889	425.02
407.267	401.51
407.645	426.6
408.023	432.25
408.401	430.44
408.779	444
409.156	436.32
409.534	436.32
409.912	432.47
410.29	425.02
410.667	426.6
411.045	436.54
411.422	457.11
411.8	444.9
412.178	464.79
412.555	465.47
412.933	445.81
413.31	451.23
413.687	466.15
414.065	462.53
414.442	457.78
414.819	469.54
415.197	482.19
415.574	484.45
415.951	474.06
416.328	473.83
416.705	488.74
417.082	484.45
417.46	501.4
417.837	490.55
418.214	474.06
418.591	519.48
418.967	484
419.344	486.48
419.721	497.78
420.098	503.89
420.475	511.57
420.852	497.56
421.228	514.05
421.605	507.73
421.982	509.76
422.358	526.71
422.735	530.1
423.111	544.56
423.488	531
423.864	529.42
424.241	558.35
424.617	546.82
424.994	538.23
425.37	530.78
425.746	542.08
426.123	550.21
426.499	562.87
426.875	547.05
427.251	559.48
427.627	554.96
428.003	594.96
428.379	600.83
428.756	587.95
429.132	591.11
429.507	585.69
429.883	615.52
430.259	601.28
430.635	600.83
431.011	603.32
431.387	625.24
431.763	634.96
432.138	634.5
432.514	625.01
432.89	645.12
433.265	631.34
433.641	658.23
434.016	651.68
434.392	651.68
434.767	650.1
435.143	675.41
435.518	662.07
435.894	688.74
436.269	699.81
436.644	679.7
437.02	703.43
437.395	683.77
437.77	689.19
438.145	697.1
438.52	735.74
438.895	737.55
439.271	731.9
439.646	725.57
440.021	749.75
440.395	716.08
440.77	750.66
441.145	760.6
441.52	739.13
441.895	766.03
442.27	761.51
442.645	756.76
443.019	785.23
443.394	756.53
443.769	783.43
444.143	756.99
444.518	797.44
444.892	791.11
445.267	810.32
445.641	807.15
446.016	820.03
446.39	818.23
446.764	828.17
447.139	817.78
447.513	828.62
447.887	837.44
448.262	836.76
448.636	843.99
449.01	851.45
449.384	839.92
449.758	861.16
450.132	850.32
450.506	858.9
450.88	881.05
451.254	865.01
451.628	876.08
452.002	889.19
452.376	911.11
452.75	918.34
453.123	903.65
453.497	926.25
453.871	913.37
454.244	971.9
454.618	968.05
454.992	975.29
455.365	970.09
455.739	991.33
456.112	1000.14
456.486	1018.9
456.859	1024.78
457.232	1008.5
457.606	1011.22
457.979	1018.45
458.352	1041.27
458.725	1067.71
459.099	1072.23
459.472	1081.05
459.845	1088.95
460.218	1107.03
460.591	1133.7
460.964	1091.44
461.337	1150.42
461.71	1176.86
462.083	1185.68
462.456	1192.91
462.829	1194.49
463.201	1195.17
463.574	1219.57
463.947	1249.63
464.32	1274.71
464.692	1261.61
465.065	1280.14
465.438	1327.37
465.81	1326.24
466.183	1326.69
466.555	1371.66
466.928	1409.4
467.3	1406.23
467.672	1419.79
468.045	1478.1
468.417	1485.78
468.789	1508.6
469.161	1503.63
469.534	1522.39
469.906	1575.95
470.278	1585.89
470.65	1608.26
471.022	1630.41
471.394	1676.96
471.766	1719.9
472.138	1750.18
472.51	1770.97
472.882	1798.99
473.253	1843.51
473.625	1874.7
473.997	1907.92
474.369	1940.46
474.74	1992.89
475.112	2063.84
475.484	2104.97
475.855	2155.37
476.227	2170.06
476.598	2248.25
476.97	2331.18
477.341	2350.62
477.713	2410.95
478.084	2450.27
478.455	2542.48
478.827	2597.16
479.198	2701.79
479.569	2690.04
479.94	2843.48
480.311	2904.95
480.682	2984.5
481.053	3059.07
481.424	3179.97
481.795	3202.57
482.166	3329.35
482.537	3377.93
482.908	3479.17
483.279	3555.33
483.65	3699.96
484.021	3804.59
484.391	3930.91
484.762	3988.31
485.133	4032.61
485.503	4164.81
485.874	4268.98
486.244	4399.38
486.615	4532.71
486.985	4654.06
487.356	4810.66
487.726	4892.47
488.097	5034.16
488.467	5156.42
488.837	5247.72
489.207	5400.25
489.578	5546.92
489.948	5647.25
490.318	5767.7
490.688	5869.39
491.058	6059.67
491.428	6150.52
491.798	6296.28
492.168	6507.12
492.538	6526.55
492.908	6676.6
493.278	6856.26
493.648	6878.86
494.017	7052.19
494.387	7209.25
494.757	7312.52
495.126	7425.96
495.496	7512.74
495.866	7614.43
496.235	7768.55
496.605	7876.57
496.974	8048.77
497.344	8199.28
497.713	8267.07
498.082	8365.15
498.452	8535.09
498.821	8688.08
499.19	8634.74
499.559	8823.44
499.928	8904.12
500.298	9093.72
500.667	9145.24
501.036	9174.84
501.405	9337.55
501.774	9411.67
502.143	9541.16
502.512	9567.38
502.88	9637.2
503.249	9799.69
503.618	9833.81
503.987	9919
504.356	9978.21
504.724	10055.95
505.093	10077.64
505.462	10136.85
505.83	10249.39
506.199	10405.77
506.567	10521.93
506.936	10561.93
507.304	10719.66
507.672	10713.56
508.041	10782.26
508.409	10885.08
508.777	10989.71
509.145	11072.87
509.514	11080.78
509.882	11086.21
510.25	11159.88
510.618	11184.73
510.986	11288.91
511.354	11367.55
511.722	11408.01
512.09	11579.75
512.458	11484.16
512.826	11641.22
513.193	11605.29
513.561	11639.19
513.929	11743.59
514.297	11800.09
514.664	11869.69
515.032	11935.45
515.4	12022.68
515.767	12053.64
516.135	12046.18
516.502	11904.49
516.869	12159.4
517.237	12128.21
517.604	12094.31
517.972	12248.21
518.339	12273.52
518.706	12231.71
519.073	12322.78
519.44	12340.86
519.808	12464.47
520.175	12345.83
520.542	12543.57
520.909	12519.61
521.276	12573.17
521.643	12583.34
522.009	12658.59
522.376	12656.56
522.743	12755.99
523.11	12724.13
523.477	12805.93
523.843	12846.84
524.21	12972.03
524.577	13044.57
524.943	12961.64
525.31	13017
525.676	13119.37
526.043	13153.95
526.409	13155.3
526.776	13167.73
527.142	13131.58
527.508	13271.68
527.874	13213.38
528.241	13212.03
528.607	13152.59
528.973	13291.12
529.339	13197.56
529.705	13355.3
530.071	13230.78
530.437	13363.66
530.803	13356.2
531.169	13346.26
531.535	13253.38
531.901	13271.23
532.267	13298.58
532.632	13294.28
532.998	13279.37
533.364	13339.25
533.73	13371.34
534.095	13329.31
534.461	13348.52
534.826	13275.3
535.192	13403.88
535.557	13402.98
535.923	13261.29
536.288	13284.34
536.653	13353.26
537.019	13196.66
537.384	13195.3
537.749	13158.92
538.114	13142.65
538.479	13086.61
538.845	13122.08
539.21	13061.29
539.575	12974.74
539.94	13010.45
540.305	13083.44
540.67	13030.56
541.034	12961.18
541.399	12991.47
541.764	12937.46
542.129	12871.92
542.494	12917.57
542.858	12873.73
543.223	12809.78
543.587	12837.57
543.952	12851.36
544.316	12781.98
544.681	12737.01
545.045	12753.73
545.41	12731.59
545.774	12660.18
546.138	12643.23
546.503	12665.37
546.867	12551.93
547.231	12620.85
547.595	12519.39
547.959	12544.47
548.324	12490.24
548.688	12412.27
549.052	12398.49
549.416	12310.58
549.779	12416.11
550.143	12264.93
550.507	12233.29
550.871	12335.66
551.235	12261.77
551.599	12257.93
551.962	12201.66
552.326	12222.9
552.689	12270.81
553.053	12139.51
553.417	12130.25
553.78	12186.52
554.143	12042.56
554.507	12168.21
554.87	12104.94
555.234	12216.57
555.597	11983.58
555.96	12029.46
556.323	12102.45
556.686	12079.85
557.05	12095.67
557.413	11945.39
557.776	12019.97
558.139	12091.83
558.502	11975.45
558.865	11912.62
559.228	12019.74
559.59	12077.82
559.953	12065.16
560.316	12106.07
560.679	11917.37
561.041	12044.37
561.404	12025.16
561.767	12071.94
562.129	11905.17
562.492	12069.46
562.854	12001.44
563.217	11981.78
563.579	11992.85
563.941	12106.07
564.304	12135.22
564.666	12091.6
565.028	12106.29
565.39	12135.22
565.753	12174.54
566.115	12093.18
566.477	12159.17
566.839	12198.49
567.201	12189
567.563	12156.01
567.925	12199.4
568.287	12145.39
568.648	12290.92
569.01	12251.6
569.372	12307.19
569.734	12217.7
570.095	12305.38
570.457	12293.18
570.819	12351.48
571.18	12256.34
571.542	12335.44
571.903	12284.82
572.265	12388.32
572.626	12395.1
572.987	12457.47
573.349	12413.85
573.71	12378.83
574.071	12444.59
574.432	12445.49
574.794	12410.24
575.155	12348.32
575.516	12462.21
575.877	12397.58
576.238	12476
576.599	12371.14
576.96	12397.81
577.32	12418.37
577.681	12494.76
578.042	12500.18
578.403	12452.72
578.763	12492.04
579.124	12505.38
579.485	12536.56
579.845	12560.52
580.206	12519.16
580.566	12436.9
580.927	12480.29
581.287	12580.86
581.648	12438.71
582.008	12494.98
582.368	12385.38
582.728	12506.73
583.089	12440.97
583.449	12465.83
583.809	12480.29
584.169	12425.38
584.529	12485.49
584.889	12556
585.249	12314.2
585.609	12419.5
585.969	12475.1
586.329	12405.27
586.688	12379.51
587.048	12418.6
587.408	12341.77
587.768	12267.19
588.127	12319.62
588.487	12345.38
588.846	12433.06
589.206	12281.65
589.565	12205.5
589.925	12372.05
590.284	12270.36
590.643	12293.41
591.003	12252.28
591.362	12384.02
591.721	12225.16
592.08	12250.47
592.44	12303.35
592.799	12254.99
593.158	12229.9
593.517	12273.75
593.876	12231.26
594.235	12225.61
594.593	12217.48
594.952	12232.62
595.311	12250.02
595.67	12211.6
596.029	12324.82
596.387	12298.6
596.746	12314.87
597.104	12241.66
597.463	12186.74
597.822	12248.89
598.18	12174.31
598.538	12215.67
598.897	12217.7
599.255	12119.85
599.613	12290.02
599.972	12221.32
600.33	12194.43
600.688	12107.42
601.046	12226.06
601.404	12240.07
601.762	12222.9
602.12	12261.32
602.478	12311.03
602.836	12196.01
603.194	12171.6
603.552	12235.78
603.91	12193.3
604.268	12245.95
604.625	12238.27
604.983	12218.15
605.341	12169.12
605.698	12178.38
606.056	12229.9
606.413	12202.79
606.771	12279.62
607.128	12254.99
607.485	12135.67
607.843	12162.11
608.2	12278.26
608.557	12234.88
608.914	12183.58
609.272	12262.45
609.629	12320.07
609.986	12299.06
610.343	12243.01
610.7	12363.01
611.057	12402.78
611.414	12322.78
611.771	12324.37
612.127	12347.64
612.484	12423.57
612.841	12374.99
613.198	12395.32
613.554	12334.99
613.911	12439.62
614.267	12375.21
614.624	12346.51
614.98	12365.72
615.337	12480.97
615.693	12407.98
616.05	12404.14
616.406	12497.69
616.762	12440.29
617.118	12386.74
617.475	12419.96
617.831	12448.88
618.187	12450.01
618.543	12490.69
618.899	12529.78
619.255	12450.24
619.611	12566.84
619.967	12539.5
620.323	12605.04
620.678	12579.27
621.034	12507.19
621.39	12516.9
621.746	12562.1
622.101	12633.28
622.457	12538.82
622.812	12565.04
623.168	12586.05
623.523	12609.1
623.879	12634.41
624.234	12577.01
624.589	12564.13
624.945	12563.23
625.3	12534.98
625.655	12552.16
626.01	12561.2
626.365	12522.55
626.72	12529.56
627.075	12496.79
627.43	12519.39
627.785	12498.15
628.14	12509.45
628.495	12535.66
628.85	12585.83
629.205	12450.92
629.559	12532.27
629.914	12487.07
630.269	12560.07
630.623	12433.97
630.978	12515.32
631.332	12479.62
631.687	12517.13
632.041	12501.08
632.396	12447.53
632.75	12434.87
633.104	12413.85
633.459	12437.58
633.813	12397.36
634.167	12371.14
634.521	12360.07
634.875	12399.62
635.229	12339.73
635.583	12267.19
635.937	12317.13
636.291	12211.37
636.645	12309.45
636.999	12236.01
637.352	12242.33
637.706	12212.96
638.06	12264.93
638.413	12236.91
638.767	12237.81
639.121	12126.4
639.474	12103.35
639.828	12158.27
640.181	12124.6
640.534	12154.43
640.888	12114.2
641.241	11987.2
641.594	12024.71
641.947	12025.84
642.301	12097.7
642.654	12069.46
643.007	12069.23
643.36	12024.03
643.713	11987.88
644.066	12108.33
644.419	11993.3
644.771	11873.53
645.124	11845.51
645.477	11750.59
645.83	11736.36
646.182	11745.85
646.535	11646.87
646.888	11686.42
647.24	11569.81
647.593	11657.72
647.945	11550.6
648.298	11584.5
648.65	11591.5
649.002	11580.43
649.355	11627.43
649.707	11636.25
650.059	11707.21
650.411	11811.84
650.763	11833.53
651.115	11968.67
651.467	11879.86
651.819	11845.51
652.171	11930.7
652.523	11948.78
652.875	11912.85
653.227	11732.29
653.578	11898.39
653.93	11862.68
654.282	11817.03
654.633	11881.66
654.985	11893.42
655.337	11852.97
655.688	11842.34
656.039	11821.55
656.391	11819.29
656.742	11859.29
657.094	11847.09
657.445	11997.59
657.796	11893.87
658.147	11857.48
658.498	11809.35
658.849	11957.14
659.2	11949.46
659.551	11918.27
659.902	11970.48
660.253	11933.64
660.604	11965.5
660.955	11868.78
661.306	11935
661.656	11880.54
662.007	12034.43
662.358	11847.99
662.708	11978.61
663.059	11936.35
663.409	11828.56
663.76	11917.6
664.11	12021.32
664.461	11934.54
664.811	11971.15
665.161	11913.75
665.511	11869.01
665.862	11879.18
666.212	11975.22
666.562	11982.68
666.912	12050.7
667.262	11952.4
667.612	11898.84
667.962	11891.83
668.312	11980.19
668.662	11963.24
669.011	11986.75
669.361	11915.34
669.711	11915.11
670.06	11877.6
670.41	11886.41
670.76	11819.52
671.109	11866.07
671.459	11900.42
671.808	11759.41
672.157	11887.54
672.507	11757.37
672.856	11768
673.205	11822.23
673.554	11846.41
673.904	11824.94
674.253	11921.89
674.602	11746.98
674.951	11688.22
675.3	11543.14
675.649	11738.84
675.998	11749.69
676.346	11781.33
676.695	11830.37
677.044	11700.43
677.393	11704.49
677.741	11806.64
678.09	11788.33
678.438	11737.49
678.787	11726.64
679.135	11656.36
679.484	11700.2
679.832	11667.89
680.181	11611.39
680.529	11630.6
680.877	11596.93
681.225	11549.24
681.573	11665.85
681.922	11491.62
682.27	11433.09
682.618	11518.28
682.966	11457.5
683.314	11544.27
683.661	11419.53
684.009	11409.59
684.357	11358.74
684.705	11389.7
685.053	11322.81
685.4	11295.92
685.748	11235.81
686.095	11264.51
686.443	11242.81
686.79	11270.38
687.138	11202.81
687.485	11196.26
687.832	11156.71
688.18	11201.68
688.527	11077.84
688.874	11049.6
689.221	11001.46
689.568	10982.93
689.915	11010.5
690.262	10932.09
690.609	10921.69
690.956	10896.15
691.303	10792.43
691.65	10855.93
691.997	10788.36
692.344	10733.9
692.69	10728.47
693.037	10721.7
693.383	10611.64
693.73	10633.56
694.077	10513.11
694.423	10559.67
694.769	10525.32
695.116	10469.95
695.462	10463.85
695.808	10427.24
696.155	10464.98
696.501	10347.47
696.847	10363.29
697.193	10221.37
697.539	10309.28
697.885	10207.13
698.231	10175.5
698.577	10187.92
698.923	10121.94
699.269	10035.84
699.614	10042.62
699.96	9975.73
700.306	9973.24
700.651	9874.94
700.997	9828.39
701.342	9858.89
701.688	9808.95
702.033	9754.04
702.379	9692.8
702.724	9765.56
703.069	9763.08
703.415	9646.47
703.76	9642.4
704.105	9634.94
704.45	9566.25
704.795	9552.01
705.14	9493.93
705.485	9513.37
705.83	9458.23
706.175	9475.85
706.52	9424.33
706.865	9423.65
707.209	9368.28
707.554	9323.09
707.899	9391.79
708.243	9298.46
708.588	9303.43
708.932	9256.42
709.277	9202.64
709.621	9199.25
709.966	9135.07
710.31	9128.97
710.654	9092.36
710.998	9095.3
711.342	9029.76
711.687	9032.47
712.031	9004.9
712.375	8983.44
712.719	8943.66
713.063	8984.79
713.407	8965.58
713.75	8872.7
714.094	8893.95
714.438	8808.75
714.782	8949.99
715.125	8879.94
715.469	8838.13
715.812	8853.04
716.156	8793.38
716.499	8768.07
716.843	8762.42
717.186	8764.91
717.53	8798.36
717.873	8817.11
718.216	8750
718.559	8694.18
718.902	8677.23
719.246	8756.78
719.589	8650.34
719.932	8577.35
720.275	8643.78
720.617	8582.77
720.96	8579.15
721.303	8622.32
721.646	8622.32
721.989	8534.63
722.331	8597.91
722.674	8550.45
723.016	8599.72
723.359	8490.12
723.701	8524.47
724.044	8494.41
724.386	8553.39
724.729	8607.85
725.071	8481.75
725.413	8488.08
725.755	8479.95
726.097	8502.32
726.439	8391.14
726.782	8419.84
727.124	8464.13
727.465	8428.87
727.807	8419.84
728.149	8425.03
728.491	8385.03
728.833	8414.19
729.175	8401.53
729.516	8413.28
729.858	8342.55
730.199	8412.6
730.541	8366.96
730.882	8424.58
731.224	8406.5
731.565	8389.1
731.906	8297.8
732.248	8357.24
732.589	8294.19
732.93	8341.42
733.271	8370.12
733.612	8370.8
733.953	8345.49
734.294	8361.98
734.635	8285.38
734.976	8463.9
735.317	8389.1
735.658	8405.6
735.999	8360.18
736.339	8437.24
736.68	8377.8
737.021	8402.89
737.361	8356.33
737.702	8435.43
738.042	8392.49
738.383	8349.55
738.723	8406.95
739.063	8417.58
739.404	8444.02
739.744	8392.27
740.084	8447.41
740.424	8495.99
740.764	8410.12
741.104	8486.05
741.444	8483.56
741.784	8467.29
742.124	8501.64
742.464	8516.1
742.804	8554.07
743.143	8513.39
743.483	8592.26
743.823	8565.59
744.162	8672.71
744.502	8666.38
744.841	8653.95
745.181	8680.39
745.52	8701.41
745.86	8742.54
746.199	8695.99
746.538	8805.59
746.877	8917.9
747.216	8853.04
747.556	8938.69
747.895	8966.26
748.234	9008.07
748.573	9067.73
748.911	9112.02
749.25	9196.09
749.589	9269.3
749.928	9276.76
750.267	9383.88
750.605	9456.64
750.944	9486.25
751.283	9560.37
751.621	9746.13
751.96	9755.39
752.298	9818.89
752.636	9950.19
752.975	9986.57
753.313	10074.48
753.651	10187.7
753.989	10281.26
754.327	10405.77
754.666	10454.81
755.004	10593.11
755.342	10697.74
755.679	10814.8
756.017	10955.14
756.355	11126.43
756.693	11183.6
757.031	11326.88
757.368	11446.42
757.706	11581.11
758.044	11698.62
758.381	11906.07
758.719	12058.38
759.056	12222
759.394	12361.65
759.731	12432.38
760.068	12589.89
760.405	12684.81
760.743	12838.93
761.08	13083.44
761.417	13150.56
761.754	13289.31
762.091	13513.49
762.428	13603.88
762.765	13701.5
763.102	14002.29
763.438	14039.57
763.775	14238.21
764.112	14338.32
764.449	14547.36
764.785	14691.31
765.122	14710.07
765.458	14821.7
765.795	14996.39
766.131	15219.66
766.467	15344.85
766.804	15342.14
767.14	15540.33
767.476	15614.67
767.812	15776.03
768.148	15985.06
768.485	15996.59
768.821	16102.57
769.157	16282
769.492	16323.58
769.828	16516.8
770.164	16450.36
770.5	16507.08
770.836	16663.69
771.171	16758.82
771.507	16805.38
771.842	16861.42
772.178	16947.29
772.513	17013.73
772.849	17097.12
773.184	17072.71
773.519	17340.96
773.855	17275.87
774.19	17234.07
774.525	17483.33
774.86	17331.24
775.195	17535.98
775.53	17465.92
775.865	17537.79
776.2	17552.48
776.535	17407.17
776.87	17554.74
777.205	17591.35
777.539	17528.97
777.874	17664.79
778.209	17630.89
778.543	17762.19
778.878	17719.93
779.212	17706.6
779.547	17694.17
779.881	17815.29
780.215	17679.93
780.55	17806.93
780.884	17680.61
781.218	17745.47
781.552	17792.7
781.886	17812.13
782.22	17777.1
782.554	17731.68
782.888	17693.94
783.222	17659.37
783.556	17591.8
783.889	17576.2
784.223	17499.14
784.557	17559.93
784.89	17584.11
785.224	17528.52
785.557	17507.28
785.891	17481.74
786.224	17522.42
786.558	17584.57
786.891	17462.08
787.224	17398.58
787.557	17425.7
787.891	17456.66
788.224	17274.29
788.557	17378.7
788.89	17380.73
789.223	17369.2
789.556	17295.53
789.888	17227.74
790.221	17162.43
790.554	17046.73
790.887	17210.79
791.219	17076.56
791.552	16994.75
791.884	16956.79
792.217	16992.04
792.549	16913.62
792.882	16845.15
793.214	16867.75
793.546	16890.35
793.879	16773.06
794.211	16694.19
794.543	16778.03
794.875	16708.2
795.207	16767.19
795.539	16710.69
795.871	16623.91
796.203	16568.32
796.535	16526.74
796.867	16522.67
797.198	16378.72
797.53	16450.13
797.862	16304.15
798.193	16390.47
798.525	16225.28
798.856	16284.04
799.188	16174.66
799.519	16091.05
799.85	15942.58
800.182	16000.2
800.513	16130.82
800.844	15924.04
801.175	15992.29
801.506	15961.33
801.837	15976.02
802.168	15885.18
802.499	15774.9
802.83	15729.93
803.161	15760.43
803.491	15812.64
803.822	15815.35
804.153	15709.59
804.483	15487.9
804.814	15522.7
805.145	15469.82
805.475	15528.35
805.805	15412.87
806.136	15408.8
806.466	15392.53
806.796	15353.89
807.126	15266.89
807.457	15266.21
807.787	15271.63
808.117	15251.29
808.447	15153.9
808.777	15197.96
809.107	15184.85
809.436	15091.75
809.766	15091.98
810.096	15107.79
810.426	15014.92
810.755	15020.11
811.085	14901.92
811.414	14914.35
811.744	14781.93
812.073	14762.04
812.403	14819.44
812.732	14748.03
813.061	14734.25
813.39	14649.28
813.719	14602.5
814.049	14696.51
814.378	14639.78
814.707	14562.72
815.036	14519.11
815.365	14431.65
815.693	14412.22
816.022	14397.08
816.351	14339.23
816.68	14266.69
817.008	14356.63
817.337	14291.55
817.665	14250.64
817.994	14241.15
818.322	14233.24
818.651	14123.87
818.979	14024.66
819.307	14127.03
819.636	14100.14
819.964	14108.73
820.292	14156.41
820.62	14100.36
820.948	14056.75
821.276	14146.92
821.604	14063.98
821.932	14018.33
822.259	14086.35
822.587	14022.63
822.915	13993.02
823.243	13944.66
823.57	13946.24
823.898	13924.32
824.225	13930.88
824.553	13926.36
824.88	13940.82
825.207	14012.23
825.535	13981.27
825.862	13998.67
826.189	13943.76
826.516	14028.73
826.843	14023.98
827.17	14037.77
827.497	14047.26
827.824	14001.84
828.151	14037.31
828.478	13961.84
828.805	14080.03
829.131	14052.68
829.458	13969.97
829.785	13943.98
830.111	13944.21
830.438	14127.93
830.764	14101.49
831.09	13987.15
831.417	13951.67
831.743	14033.7
832.069	13976.07
832.395	13956.86
832.722	13961.16
833.048	13949.63
833.374	13969.75
833.7	13913.02
834.026	13958.67
834.351	13905.79
834.677	13974.04
835.003	13899.92
835.329	13934.27
835.654	13877.77
835.98	13754.38
836.306	13853.36
836.631	13762.52
836.956	13872.35
837.282	13831.67
837.607	13834.61
837.932	13683.65
838.258	13694.72
838.583	13715.52
838.908	13737.66
839.233	13674.61
839.558	13595.07
839.883	13601.85
840.208	13535.41
840.533	13528.63
840.858	13611.79
841.182	13546.48
841.507	13533.15
841.832	13378.35
842.156	13403.21
842.481	13354.85
842.805	13408.63
843.13	13372.93
843.454	13284.79
843.778	13303.77
844.103	13267.17
844.427	13189.88
844.751	13220.84
845.075	13049.54
845.399	13181.29
845.723	13046.38
846.047	13091.12
846.371	13001.18
846.695	12991.69
847.019	12837.12
847.343	12792.6
847.666	12748.76
847.99	12659.27
848.313	12739.95
848.637	12608.65
848.96	12651.36
849.284	12583.34
849.607	12489.56
849.931	12476.68
850.254	12410.69
850.577	12332.5
850.9	12287.76
851.223	12233.52
851.546	12099.29
851.869	12041.66
852.192	12145.61
852.515	11999.85
852.838	11931.61
853.161	12040.08
853.483	11801.67
853.806	11851.61
854.129	11820.42
854.451	11846.41
854.774	11734.32
855.096	11695
855.419	11701.78
855.741	11609.36
856.063	11506.53
856.385	11530.04
856.708	11530.49
857.03	11524.61
857.352	11493.2
857.674	11417.5
857.996	11435.8
858.318	11364.39
858.64	11286.2
858.961	11255.69
859.283	11204.17
859.605	11199.88
859.926	11158.52
860.248	11168.01
860.57	11167.56
860.891	11019.99
861.212	11031.29
861.534	10968.47
861.855	10960.11
862.176	11069.48
862.498	11015.93
862.819	10958.75
863.14	10881.24
863.461	10951.75
863.782	10961.01
864.103	10935.48
864.424	10872.43
864.745	10936.83
865.065	10842.14
865.386	10784.07
865.707	10819.09
866.027	10830.85
866.348	10701.58
866.668	10751.53
866.989	10685.54
867.309	10639.89
867.63	10712.88
867.95	10669.04
868.27	10623.84
868.59	10631.08
868.91	10627.91
869.23	10515.83
869.55	10495.71
869.87	10596.05
870.19	10554.69
870.51	10533.68
870.83	10554.02
871.15	10502.04
871.469	10422.27
871.789	10483.28
872.109	10439.89
872.428	10409.61
872.748	10396.96
873.067	10339.33
873.386	10365.77
873.706	10378.43
874.025	10292.55
874.344	10225.66
874.663	10293.01
874.982	10306.57
875.301	10255.04
875.62	10203.29
875.939	10196.51
876.258	10244.87
876.577	10174.59
876.896	10129.85
877.214	10131.43
877.533	10109.28
877.852	10154.93
878.17	10101.37
878.489	10075.16
878.807	10033.58
879.125	10058.44
879.444	10086.68
879.762	10052.79
880.08	10020.92
880.398	9978.66
880.716	9976.86
881.034	9953.58
881.352	9942.96
881.67	9896.41
881.988	9952
882.306	9884.2
882.624	9814.83
882.941	9819.8
883.259	9795.84
883.577	9799.46
883.894	9759.69
884.212	9718.33
884.529	9742.51
884.846	9681.95
885.164	9649.41
885.481	9650.76
885.798	9657.54
886.115	9587.71
886.432	9629.97
886.75	9603.31
887.067	9623.87
887.383	9499.58
887.7	9473.82
888.017	9507.72
888.334	9484.67
888.651	9424.55
888.967	9407.61
889.284	9380.71
889.6	9332.58
889.917	9283.32
890.233	9299.59
890.55	9274.05
890.866	9228.4
891.182	9217.33
891.498	9174.17
891.815	9180.95
892.131	9144.11
892.447	9075.64
892.763	9089.2
893.079	9049.2
893.395	9010.55
893.71	9028.18
894.026	8959.93
894.342	8961.97
894.657	8922.19
894.973	8928.75
895.289	8871.8
895.604	8873.61
895.92	8772.59
896.235	8643.56
896.55	8760.84
896.865	8705.03
897.181	8671.81
897.496	8673.61
897.811	8636.1
898.126	8632.71
898.441	8565.82
898.756	8498.93
899.071	8512.49
899.386	8511.58
899.7	8404.02
900.015	8385.03
900.33	8348.88
900.644	8293.28
900.959	8354.53
901.273	8321.98
901.588	8178.26
901.902	8172.16
902.216	8112.72
902.531	8096.91
902.845	8069.79
903.159	8093.97
903.473	8122.67
903.787	8030.92
904.101	7980.3
904.415	7996.34
904.729	7944.59
905.042	7916.57
905.356	7890.36
905.67	7892.62
905.984	7868.89
906.297	7785.73
906.611	7717.48
906.924	7740.98
907.237	7725.16
907.551	7666.86
907.864	7677.48
908.177	7599.74
908.491	7540.99
908.804	7559.07
909.117	7524.94
909.43	7409.24
909.743	7406.75
910.056	7381.44
910.368	7409.24
910.681	7357.72
910.994	7395.46
911.307	7298.73
911.619	7204.95
911.932	7231.17
912.244	7199.3
912.557	7182.35
912.869	7122.02
913.181	7145.52
913.494	7099.87
913.806	7044.5
914.118	7069.36
914.43	6972.64
914.742	6991.85
915.054	6979.65
915.366	6975.13
915.678	6933.77
915.99	6851.29
916.302	6741.46
916.613	6785.53
916.925	6720.22
917.236	6788.69
917.548	6674.57
917.859	6665.76
918.171	6642.48
918.482	6678.86
918.794	6621.24
919.105	6576.27
919.416	6520.68
919.727	6552.09
920.038	6491.3
920.349	6462.15
920.66	6468.47
920.971	6453.11
921.282	6451.75
921.593	6357.29
921.903	6347.35
922.214	6351.41
922.525	6369.04
922.835	6295.6
923.146	6273.9
923.456	6276.16
923.767	6213.79
924.077	6222.6
924.387	6152.1
924.697	6156.62
925.008	6111.42
925.318	6065.32
925.628	6086.11
925.938	6073.46
926.248	6006.79
926.558	5983.74
926.867	5939.9
927.177	5915.72
927.487	5902.84
927.796	5856.06
928.106	5864.87
928.416	5857.19
928.725	5775.84
929.034	5793.46
929.344	5834.59
929.653	5786.46
929.962	5724.09
930.271	5667.59
930.581	5668.27
930.89	5655.39
931.199	5608.84
931.508	5553.24
931.817	5607.71
932.125	5581.49
932.434	5546.69
932.743	5492
933.051	5503.08
933.36	5468.73
933.669	5466.01
933.977	5405.9
934.286	5408.39
934.594	5417.2
934.902	5320.48
935.21	5324.32
935.519	5282.97
935.827	5277.32
936.135	5286.36
936.443	5213.82
936.751	5251.78
937.059	5181.73
937.367	5156.87
937.674	5158.45
937.982	5131.79
938.29	5098.11
938.597	5112.58
938.905	5071.9
939.213	5008.63
939.52	5012.47
939.827	5024.44
940.135	4986.03
940.442	4924.11
940.749	4917.1
941.056	4977.44
941.363	4855.64
941.67	4856.54
941.977	4810.89
942.284	4834.39
942.591	4799.37
942.898	4784.68
943.205	4771.57
943.511	4794.85
943.818	4717.56
944.125	4660.39
944.431	4716.66
944.738	4674.62
945.044	4607.05
945.35	4628.97
945.657	4599.14
945.963	4599.37
946.269	4526.38
946.575	4573.16
946.881	4508.53
947.187	4548.98
947.493	4509.66
947.799	4468.3
948.105	4473.5
948.41	4438.02
948.716	4429.21
949.022	4446.61
949.327	4396.66
949.633	4388.75
949.938	4291.58
950.244	4356.21
950.549	4332.48
950.854	4292.94
951.16	4250
951.465	4274.86
951.77	4215.65
952.075	4218.82
952.38	4219.27
952.685	4178.14
952.99	4164.58
953.294	4199.61
953.599	4102.21
953.904	4122.1
954.209	4074.41
954.513	4115.32
954.818	4082.32
955.122	3963.68
955.426	4010.23
955.731	4003
956.035	3988.09
956.339	3931.14
956.643	3919.16
956.948	3956.9
957.252	3916.22
957.556	3897.47
957.86	3872.61
958.163	3863.8
958.467	3864.47
958.771	3836.9
959.075	3797.13
959.378	3773.63
959.682	3757.36
959.985	3823.12
960.289	3766.4
960.592	3746.06
960.896	3706.74
961.199	3703.12
961.502	3715.78
961.805	3684.14
962.108	3658.15
962.411	3684.82
962.714	3619.96
963.017	3624.03
963.32	3625.61
963.623	3599.62
963.926	3598.72
964.228	3520.98
964.531	3540.19
964.833	3496.57
965.136	3501.55
965.438	3498.83
965.741	3449.34
966.043	3474.88
966.345	3452.28
966.648	3428.55
966.95	3463.58
967.252	3378.61
967.554	3395.11
967.856	3351.95
968.158	3371.38
968.46	3346.97
968.761	3337.26
969.063	3318.73
969.365	3295.9
969.666	3293.42
969.968	3257.03
970.269	3248.9
970.571	3263.81
970.872	3263.59
971.174	3186.75
971.475	3193.76
971.776	3182.46
972.077	3146.53
972.378	3148.34
972.679	3146.75
972.98	3131.39
973.281	3146.75
973.582	3105.17
973.883	3075.79
974.183	3054.55
974.484	3058.17
974.785	3013.42
975.085	3061.56
975.386	3034.44
975.686	3015.91
975.986	3016.59
976.287	3011.16
976.587	2996.93
976.887	2939.75
977.187	2974.78
977.487	2967.1
977.787	2933.65
978.087	2921.67
978.387	2930.04
978.687	2901.34
978.987	2845.07
979.286	2875.12
979.586	2855.46
979.885	2822.47
980.185	2787.44
980.484	2802.36
980.784	2801.9
981.083	2763.03
981.382	2790.6
981.682	2742.92
981.981	2746.99
982.28	2707.22
982.579	2737.05
982.878	2701.79
983.177	2718.74
983.475	2687.1
983.774	2679.65
984.073	2636.94
984.372	2646.65
984.67	2615.92
984.969	2625.64
985.267	2589.25
985.566	2595.13
985.864	2575.24
986.162	2550.84
986.461	2571.4
986.759	2532.53
987.057	2550.38
987.355	2516.04
987.653	2482.36
987.951	2480.56
988.249	2504.28
988.547	2502.93
988.844	2478.52
989.142	2490.05
989.44	2475.13
989.737	2427.9
990.035	2408.92
990.332	2415.93
990.63	2399.2
990.927	2414.34
991.224	2426.32
991.521	2364.4
991.819	2369.82
992.116	2352.2
992.413	2314.46
992.71	2346.32
993.006	2340.67
993.303	2319.88
993.6	2319.66
993.897	2277.4
994.193	2283.95
994.49	2284.63
994.787	2238.75
995.083	2261.13
995.379	2253.44
995.676	2222.26
995.972	2224.52
996.268	2226.1
996.565	2177.51
996.861	2163.73
997.157	2174.8
997.453	2148.81
997.749	2116.72
998.044	2135.71
998.34	2094.35
998.636	2126.67
998.932	2126.89
999.227	2105.88
999.523	2123.28
999.818	2078.76
1000.114	2072.88
1000.409	2032.66
1000.704	2036.05
1001	2032.88
1001.295	1994.92
1001.59	2003.51
1001.885	2010.96
1002.18	2002.6
1002.475	1969.84
1002.77	1932.55
1003.065	1954.02
1003.359	1983.17
1003.654	1953.79
1003.949	1939.78
1004.243	1897.97
1004.538	1916.28
1004.832	1885.54
1005.127	1858.2
1005.421	1863.4
1005.715	1862.04
1006.009	1821.36
1006.304	1836.28
1006.598	1850.06
1006.892	1814.13
1007.186	1807.35
1007.48	1795.15
1007.773	1800.57
1008.067	1787.24
1008.361	1753.57
1008.655	1745.21
1008.948	1750.41
1009.242	1747.24
1009.535	1735.04
1009.829	1717.86
1010.122	1688.26
1010.415	1692.55
1010.708	1646.91
1011.001	1651.2
1011.295	1652.1
1011.588	1669.73
1011.881	1643.06
1012.173	1632.67
1012.466	1605.78
1012.759	1595.16
1013.052	1631.09
1013.344	1577.08
1013.637	1596.96
1013.93	1575.04
1014.222	1589.28
1014.514	1564.2
1014.807	1564.87
1015.099	1541.6
1015.391	1561.94
1015.683	1538.66
1015.976	1505.89
1016.268	1500.24
1016.56	1505.89
1016.851	1511.99
1017.143	1463.18
1017.435	1484.42
1017.727	1464.31
1018.018	1481.94
1018.31	1487.14
1018.602	1459.11
1018.893	1433.58
1019.185	1428.38
1019.476	1448.94
1019.767	1375.27
1020.058	1413.01
1020.35	1389.06
1020.641	1374.6
1020.932	1391.09
1021.223	1347.7
1021.514	1359
1021.804	1341.15
1022.095	1317.65
1022.386	1332.11
1022.677	1321.49
1022.967	1306.58
1023.258	1270.42
1023.548	1296.41
1023.839	1282.62
1024.129	1274.49
1024.419	1259.12
1024.709	1284.2
1025	1247.82
1025.29	1259.8
1025.58	1223.64
1025.87	1238.78
1026.16	1198.78
1026.449	1212.79
1026.739	1201.27
1027.029	1217.09
1027.319	1178.67
1027.608	1177.77
1027.898	1154.26
1028.187	1142.96
1028.477	1169.18
1028.766	1134.83
1029.055	1124.43
1029.344	1139.35
1029.634	1128.5
1029.923	1132.12
1030.212	1118.33
1030.501	1095.28
1030.79	1116.75
1031.078	1097.32
1031.367	1072.23
1031.656	1081.05
1031.945	1053.7
1032.233	1065
1032.522	1049.63
1032.81	1065.9
1033.099	1050.09
1033.387	1045.79
1033.675	1039.46
1033.963	1044.66
1034.251	1019.35
1034.54	1003.08
1034.828	1003.53
1035.116	981.39
1035.403	994.95
1035.691	998.11
1035.979	984.1
1036.267	982.29
1036.554	945.91
1036.842	951.78
1037.129	969.64
1037.417	926.92
1037.704	921.28
1037.992	926.25
1038.279	950.88
1038.566	921.73
1038.853	921.73
1039.14	921.73
