Data from hue_70_FLMS001491_17.txt Node
Date: Mon Feb 06 15:20:11 GMT 2017
User: dcchb
Spectrometer: FLMS00149
Trigger mode: 0
Integration Time (sec): 2.000000E-2
Scans to average: 10
Electric dark correction enabled: true
Nonlinearity correction enabled: false
Boxcar width: 0
XAxis mode: Wavelengths
Number of Pixels in Spectrum: 2048
>>>>>Begin Spectral Data<<<<<
341.393	3.64
341.776	3.64
342.16	3.64
342.543	-53.53
342.927	-51.5
343.31	-65.51
343.693	-91.49
344.077	-68.22
344.46	-63.7
344.843	-38.39
345.226	-30.48
345.61	-23.7
345.993	-9.01
346.376	2.29
346.759	-2.46
347.142	13.81
347.525	34.83
347.908	51.55
348.291	84.32
348.674	92.23
349.057	113.92
349.44	140.82
349.823	160.25
350.206	161.15
350.588	201.83
350.971	190.31
351.354	221.27
351.737	239.57
352.119	256.07
352.502	258.78
352.884	271.89
353.267	265.78
353.65	310.08
354.032	303.3
354.414	299.46
354.797	310.98
355.179	314.37
355.562	328.61
355.944	336.06
356.326	321.38
356.709	328.83
357.091	331.09
357.473	362.73
357.855	336.52
358.238	338.1
358.62	344.43
359.002	345.56
359.384	326.8
359.766	349.62
360.148	325.9
360.53	337.19
360.912	340.13
361.294	309.62
361.676	330.87
362.057	306.46
362.439	354.82
362.821	349.4
363.203	331.54
363.584	343.52
363.966	330.42
364.348	324.99
364.729	326.35
365.111	322.28
365.493	327.03
365.874	320.47
366.256	310.3
366.637	306.46
367.019	321.38
367.4	324.77
367.781	337.42
368.163	303.75
368.544	355.73
368.925	327.03
369.306	326.12
369.688	317.99
370.069	302.62
370.45	308.72
370.831	313.92
371.212	313.01
371.593	338.55
371.974	303.07
372.355	309.4
372.736	302.85
373.117	321.15
373.498	315.27
373.879	316.4
374.26	307.14
374.641	334.93
375.021	314.14
375.402	321.15
375.783	325.67
376.163	314.14
376.544	325.67
376.925	316.4
377.305	338.32
377.686	333.13
378.066	343.07
378.447	324.77
378.827	333.58
379.208	349.62
379.588	327.93
379.968	339.23
380.349	312.56
380.729	336.97
381.109	345.1
381.489	349.17
381.87	352.34
382.25	313.47
382.63	334.26
383.01	342.62
383.39	342.39
383.77	333.35
384.15	329.96
384.53	324.31
384.91	336.06
385.29	338.55
385.67	337.19
386.049	356.18
386.429	341.04
386.809	342.39
387.189	351.88
387.568	342.17
387.948	354.6
388.328	367.48
388.707	375.84
389.087	330.19
389.466	361.37
389.846	367.25
390.225	366.35
390.605	359.11
390.984	328.83
391.363	354.82
391.743	347.36
392.122	379.91
392.501	346.01
392.881	362.28
393.26	355.05
393.639	359.57
394.018	381.04
394.397	364.76
394.776	370.64
395.155	361.15
395.534	369.28
395.913	362.05
396.292	357.76
396.671	357.08
397.05	354.82
397.429	369.96
397.808	365.67
398.186	382.62
398.565	396.63
398.944	371.77
399.323	385.33
399.701	386.01
400.08	378.55
400.458	367.25
400.837	402.28
401.215	394.37
401.594	393.92
401.972	422.39
402.351	376.52
402.729	394.14
403.107	400.92
403.486	388.94
403.864	386.23
404.242	381.71
404.62	377.42
404.999	384.42
405.377	397.98
405.755	419.23
406.133	412.45
406.511	402.73
406.889	407.48
407.267	400.47
407.645	410.64
408.023	432.56
408.401	415.16
408.779	410.64
409.156	419.23
409.534	420.13
409.912	416.51
410.29	436.63
410.667	430.3
411.045	423.52
411.422	425.33
411.8	412.67
412.178	433.92
412.555	425.78
412.933	438.89
413.31	441.82
413.687	445.44
414.065	452.45
414.442	453.12
414.819	445.21
415.197	449.06
415.574	439.79
415.951	444.76
416.328	460.13
416.705	458.77
417.082	463.07
417.46	456.97
417.837	480.69
418.214	469.39
418.591	467.36
418.967	461.03
419.344	483.63
419.721	471.65
420.098	492.44
420.475	480.24
420.852	494.25
421.228	487.47
421.605	502.61
421.982	487.25
422.358	470.75
422.735	491.54
423.111	482.73
423.488	513.46
423.864	510.75
424.241	529.05
424.617	519.79
424.994	514.14
425.37	515.27
425.746	530.41
426.123	541.48
426.499	551.65
426.875	534.48
427.251	532.9
427.627	541.48
428.003	546.45
428.379	553.23
428.756	534.25
429.132	538.55
429.507	570.63
429.883	551.88
430.259	550.07
430.635	573.8
431.011	574.02
431.387	548.94
431.763	561.82
432.138	574.02
432.514	574.48
432.89	595.94
433.265	601.14
433.641	602.95
434.016	629.62
434.392	611.54
434.767	623.74
435.143	635.72
435.518	627.13
435.894	611.54
436.269	625.1
436.644	622.61
437.02	636.17
437.395	640.92
437.77	633.68
438.145	641.59
438.52	655.83
438.895	658.77
439.271	644.76
439.646	666.68
440.021	695.6
440.395	675.49
440.77	684.3
441.145	674.36
441.52	682.27
441.895	697.64
442.27	680.69
442.645	697.64
443.019	700.35
443.394	680.69
443.769	689.28
444.143	686.34
444.518	691.08
444.892	704.87
445.267	722.72
445.641	723.85
446.016	700.12
446.39	733.34
446.764	733.79
447.139	732.66
447.513	726.56
447.887	741.48
448.262	732.66
448.636	763.17
449.01	768.6
449.384	752.32
449.758	764.53
450.132	783.28
450.506	760.46
450.88	782.61
451.254	779.44
451.628	797.97
452.002	802.27
452.376	769.05
452.75	788.93
453.123	802.27
453.497	802.27
453.871	814.92
454.244	823.06
454.618	837.07
454.992	849.05
455.365	846.33
455.739	867.58
456.112	835.94
456.486	883.39
456.859	880.68
457.232	884.3
457.606	861.93
457.979	864.86
458.352	914.81
458.725	935.37
459.099	937.18
459.472	945.99
459.845	958.42
460.218	959.1
460.591	982.83
460.964	970.17
461.337	970.17
461.71	1025.09
462.083	1015.14
462.456	1006.78
462.829	1022.15
463.201	1036.39
463.574	1041.81
463.947	1044.97
464.32	1087.23
464.692	1087.68
465.065	1085.42
465.438	1106.21
465.81	1136.72
466.183	1176.72
466.555	1154.35
466.928	1168.81
467.3	1208.81
467.672	1201.58
468.045	1249.03
468.417	1255.14
468.789	1263.72
469.161	1274.8
469.534	1313.44
469.906	1321.58
470.278	1376.26
470.65	1355.25
471.022	1376.26
471.394	1413.55
471.766	1426.43
472.138	1458.52
472.51	1486.09
472.882	1539.87
473.253	1557.5
473.625	1607.9
473.997	1640.66
474.369	1675.24
474.74	1700.77
475.112	1719.98
475.484	1769.7
475.855	1812.86
476.227	1868
476.598	1904.16
476.97	1960.2
477.341	1972.63
477.713	2034.1
478.084	2098.28
478.455	2155.45
478.827	2194.32
479.198	2276.8
479.569	2337.59
479.94	2428.44
480.311	2453.52
480.682	2534.2
481.053	2610.81
481.424	2699.84
481.795	2735.32
482.166	2830.46
482.537	2872.27
482.908	3001.98
483.279	3095.54
483.65	3180.74
484.021	3233.16
484.391	3384.35
484.762	3457.56
485.133	3487.17
485.503	3628.41
485.874	3731.91
486.244	3769.87
486.615	3963.31
486.985	4045.12
487.356	4187.71
487.726	4305.23
488.097	4427.26
488.467	4477.88
488.837	4643.75
489.207	4748.83
489.578	4914.02
489.948	5050.97
490.318	5149.95
490.688	5230.17
491.058	5365.54
491.428	5500
491.798	5591.75
492.168	5815.92
492.538	5919.65
492.908	6075.35
493.278	6231.05
493.648	6260.43
494.017	6471.04
494.387	6604.15
494.757	6697.48
495.126	6880.53
495.496	6980.64
495.866	7141.99
496.235	7263.57
496.605	7382.21
496.974	7490.23
497.344	7612.03
497.713	7739.71
498.082	7906.04
498.452	8087.5
498.821	8162.07
499.19	8232.81
499.559	8480.26
499.928	8548.28
500.298	8654.72
500.667	8779.01
501.036	8895.39
501.405	9046.57
501.774	9106
502.143	9202.5
502.512	9360.23
502.88	9514.58
503.249	9574.24
503.618	9661.47
503.987	9746.21
504.356	9978.97
504.724	10023.72
505.093	10100.1
505.462	10239.53
505.83	10395.46
506.199	10485.4
506.567	10606.08
506.936	10761.78
507.304	10875.9
507.672	10926.07
508.041	10968.78
508.409	11125.61
508.777	11284.03
509.145	11410.12
509.514	11382.1
509.882	11535.09
510.25	11620.06
510.618	11710.23
510.986	11781.64
511.354	12059.37
511.722	12120.39
512.09	12196.32
512.458	12184.57
512.826	12373.49
513.193	12492.58
513.561	12492.36
513.929	12681.73
514.297	12783.42
514.664	12788.62
515.032	12928.95
515.4	13060.7
515.767	13021.38
516.135	13161.04
516.502	13189.29
516.869	13383.86
517.237	13423.86
517.604	13424.31
517.972	13624.08
518.339	13678.76
518.706	13758.99
519.073	13774.13
519.44	13825.88
519.808	13995.14
520.175	14086.89
520.542	14224.96
520.909	14305.41
521.276	14382.02
521.643	14466.31
522.009	14521
522.376	14631.06
522.743	14712.86
523.11	14855.46
523.477	15011.16
523.843	15079.63
524.21	15199.18
524.577	15282.79
524.943	15254.54
525.31	15342
525.676	15577.7
526.043	15539.05
526.409	15631.03
526.776	15816.56
527.142	15847.07
527.508	15865.83
527.874	16053.39
528.241	16049.55
528.607	16139.49
528.973	16253.61
529.339	16219.04
529.705	16367.73
530.071	16327.96
530.437	16495.19
530.803	16541.51
531.169	16593.26
531.535	16561.63
531.901	16619.7
532.267	16755.75
532.632	16836.87
532.998	16880.71
533.364	16892.47
533.73	16905.35
534.095	17134.04
534.461	17102.4
534.826	17148.5
535.192	17117.77
535.557	17284.55
535.923	17237.32
536.288	17300.59
536.653	17335.62
537.019	17302.85
537.384	17299.69
537.749	17430.3
538.114	17450.87
538.479	17397.31
538.845	17492.45
539.21	17428.04
539.575	17582.16
539.94	17530.64
540.305	17572.45
540.67	17513.01
541.034	17599.57
541.399	17642.5
541.764	17622.16
542.129	17608.15
542.494	17635.27
542.858	17698.32
543.223	17687.47
543.587	17712.78
543.952	17694.93
544.316	17806.57
544.681	17791.42
545.045	17837.53
545.41	17946
545.774	17936.28
546.138	17856.28
546.503	17817.19
546.867	17901.93
547.231	18066.45
547.595	18025.99
547.959	17991.87
548.324	18021.25
548.688	18040.91
549.052	18003.17
549.416	18062.6
549.779	18157.74
550.143	18010.18
550.507	18167.91
550.871	18213.79
551.235	18204.3
551.599	18249.49
551.962	18272.54
552.326	18227.8
552.689	18322.94
553.053	18261.69
553.417	18215.59
553.78	18544.17
554.143	18428.47
554.507	18506.43
554.87	18488.36
555.234	18647.45
555.597	18441.35
555.96	18554.34
556.323	18656.94
556.686	18653.32
557.05	18661.01
557.413	18683.38
557.776	18782.81
558.139	18808.57
558.502	18841.79
558.865	18845.86
559.228	19016.03
559.59	18917.95
559.953	19017.16
560.316	19125.63
560.679	19117.27
561.041	19250.82
561.404	19357.49
561.767	19326.53
562.129	19265.74
562.492	19436.35
562.854	19444.04
563.217	19366.3
563.579	19486.3
563.941	19556.8
564.304	19690.58
564.666	19757.93
565.028	19668.44
565.39	19680.41
565.753	19844.03
566.115	19894.19
566.477	19894.19
566.839	19938.04
567.201	20119.05
567.563	20047.41
567.925	20091.48
568.287	20230.46
568.648	20179.61
569.01	20271.81
569.372	20265.48
569.734	20395.65
570.095	20529.88
570.457	20403.11
570.819	20587.74
571.18	20562.2
571.542	20552.26
571.903	20717.22
572.265	20734.85
572.626	20696.66
572.987	20859.37
573.349	20861.85
573.71	20911.57
574.071	21043.09
574.432	20942.08
574.794	21173.93
575.155	21091.45
575.516	21107.95
575.877	21122.64
576.238	21097.33
576.599	21252.35
576.96	21190.66
577.32	21262.29
577.681	21272.92
578.042	21329.86
578.403	21364.89
578.763	21389.07
579.124	21360.82
579.485	21500.25
579.845	21457.54
580.206	21433.36
580.566	21465.68
580.927	21493.25
581.287	21630.42
581.648	21488.28
582.008	21563.3
582.368	21521.72
582.728	21586.35
583.089	21601.49
583.449	21493.93
583.809	21607.6
584.169	21577.09
584.529	21573.7
584.889	21682.17
585.249	21657.99
585.609	21493.7
585.969	21541.83
586.329	21627.71
586.688	21633.58
587.048	21583.19
587.408	21564.66
587.768	21542.06
588.127	21553.81
588.487	21624.32
588.846	21692.79
589.206	21545
589.565	21519.24
589.925	21638.1
590.284	21551.1
590.643	21628.16
591.003	21654.15
591.362	21667.26
591.721	21614.6
592.08	21730.3
592.44	21626.13
592.799	21690.08
593.158	21646.24
593.517	21719.46
593.876	21650.53
594.235	21643.53
594.593	21641.04
594.952	21667.71
595.311	21588.61
595.67	21675.84
596.029	21760.59
596.387	21798.1
596.746	21820.02
597.104	21665
597.463	21613.02
597.822	21764.2
598.18	21632.45
598.538	21583.42
598.897	21804.2
599.255	21598.33
599.613	21949.96
599.972	21850.75
600.33	21764.2
600.688	21704.09
601.046	21767.82
601.404	21992.22
601.762	21867.02
602.12	21882.62
602.478	21947.02
602.836	21940.47
603.194	21836.74
603.552	21915.16
603.91	21899.57
604.268	21987.25
604.625	21874.03
604.983	22022.5
605.341	21929.85
605.698	22073.12
606.056	22024.08
606.413	21970.98
606.771	21990.86
607.128	22073.12
607.485	21930.98
607.843	22076.51
608.2	22086.45
608.557	22258.65
608.914	22213.23
609.272	22233.57
609.629	22285.54
609.986	22302.49
610.343	22201.25
610.7	22382.72
611.057	22409.38
611.414	22477.18
611.771	22464.97
612.127	22434.47
612.484	22507.69
612.841	22542.03
613.198	22475.14
613.554	22469.49
613.911	22587.46
614.267	22681.69
614.624	22585.42
614.98	22734.8
615.337	22802.14
615.693	22737.51
616.05	22776.38
616.406	22847.11
616.762	22838.75
617.118	22832.42
617.475	22870.84
617.831	22829.71
618.187	22936.37
618.543	22787.45
618.899	23150.15
619.255	23026.32
619.611	22892.31
619.967	23156.03
620.323	23078.29
620.678	23049.37
621.034	22979.54
621.39	22963.49
621.746	22942.25
622.101	23285.07
622.457	23183.15
622.812	23220.89
623.168	23112.64
623.523	23302.01
623.879	23224.05
624.234	23111.28
624.589	23229.02
624.945	23126.88
625.3	23236.48
625.655	23184.28
626.01	23270.15
626.365	23415.46
626.72	23245.74
627.075	23314.44
627.43	23235.35
627.785	23174.79
628.14	23232.19
628.495	23242.35
628.85	23206.65
629.205	23244.39
629.559	23257.5
629.914	23171.17
630.269	23286.42
630.623	23122.13
630.978	23061.57
631.332	23283.71
631.687	23316.7
632.041	23042.81
632.396	23201.68
632.75	23092.53
633.104	23134.56
633.459	23033.77
633.813	22974.11
634.167	23154
634.521	23038.74
634.875	23050.04
635.229	22920.56
635.583	22914
635.937	22951.97
636.291	22915.58
636.645	22994.23
636.999	22848.47
637.352	22869.48
637.706	22779.99
638.06	22867.45
638.413	22823.38
638.767	22709.49
639.121	22867.45
639.474	22780.9
639.828	22714.01
640.181	22698.19
640.534	22840.33
640.888	22773.44
641.241	22562.15
641.594	22550.17
641.947	22583.16
642.301	22596.72
642.654	22688.92
643.007	22567.57
643.36	22615.7
643.713	22540.68
644.066	22701.13
644.419	22423.39
644.771	22325.99
645.124	22217.52
645.477	22141.59
645.83	22004.65
646.182	21938.21
646.535	21875.84
646.888	21885.78
647.24	21869.96
647.593	21864.09
647.945	21924.88
648.298	21856.18
648.65	21698.44
649.002	21711.77
649.355	21803.07
649.707	21675.62
650.059	21887.81
650.411	22207.58
650.763	22093.91
651.115	22448.93
651.467	22325.99
651.819	22211.42
652.171	22222.27
652.523	22202.61
652.875	22368.48
653.227	22134.59
653.578	22275.83
653.93	22350.85
654.282	22174.13
654.633	21971.65
654.985	22176.39
655.337	22251.87
655.688	22204.64
656.039	22187.92
656.391	22121.93
656.742	22067.24
657.094	22157.64
657.445	22253.91
657.796	22208.26
658.147	22119.9
658.498	22113.35
658.849	22225.88
659.2	22159.67
659.551	22080.13
659.902	22267.01
660.253	22162.38
660.604	22207.35
660.955	22094.59
661.306	22118.54
661.656	22107.24
662.007	22232.21
662.358	22179.56
662.708	22175.04
663.059	22155.15
663.409	22043.29
663.76	22115.6
664.11	22233.57
664.461	22174.13
664.811	22244.19
665.161	22145.66
665.511	22112.22
665.862	22167.58
666.212	22173.68
666.562	22282.15
666.912	22199.9
667.262	22190.18
667.612	22228.37
667.962	22068.37
668.312	22110.18
668.662	22312.66
669.011	22172.78
669.361	22115.6
669.711	22056.4
670.06	22071.54
670.41	22024.08
670.76	22013.01
671.109	22118.32
671.459	22099.79
671.808	22025.21
672.157	22088.49
672.507	21980.92
672.856	21964.65
673.205	21969.85
673.554	22052.33
673.904	21853.24
674.253	22098.2
674.602	21950.64
674.951	21647.82
675.3	21617.76
675.649	21857.76
675.998	21883.07
676.346	21879.23
676.695	21927.81
677.044	21799
677.393	21929.17
677.741	21871.77
678.09	21776.18
678.438	21695.95
678.787	21817.31
679.135	21740.93
679.484	21666.58
679.832	21726.24
680.181	21513.81
680.529	21666.13
680.877	21582.74
681.225	21568.5
681.573	21679.91
681.922	21551.78
682.27	21356.98
682.618	21497.32
682.966	21384.55
683.314	21463.87
683.661	21330.09
684.009	21217.1
684.357	21251.22
684.705	21158.12
685.053	21097.33
685.4	21101.17
685.748	20992.47
686.095	21051.9
686.443	20894.39
686.79	20860.27
687.138	20934.39
687.485	20975.3
687.832	20827.96
688.18	20818.69
688.527	20728.52
688.874	20699.82
689.221	20611.01
689.568	20555.42
689.915	20542.54
690.262	20632.48
690.609	20455.31
690.956	20451.92
691.303	20443.56
691.65	20251.25
691.997	20321.3
692.344	20119.27
692.69	20180.97
693.037	20138.93
693.383	19920.86
693.73	20023
694.077	19943.01
694.423	19841.77
694.769	19783.24
695.116	19827.08
695.462	19750.47
695.808	19670.25
696.155	19736.68
696.501	19557.03
696.847	19570.59
697.193	19330.82
697.539	19516.13
697.885	19328.33
698.231	19226.19
698.577	19260.09
698.923	19145.06
699.269	19098.28
699.614	19017.61
699.96	18851.06
700.306	18987.1
700.651	18942.36
700.997	18773.09
701.342	18804.05
701.688	18719.99
702.033	18594.12
702.379	18625.98
702.724	18613.32
703.069	18609.93
703.415	18324.29
703.76	18334.69
704.105	18431.86
704.45	18282.49
704.795	18230.28
705.14	18159.1
705.485	18121.36
705.83	17976.5
706.175	18012.66
706.52	17941.7
706.865	17880.01
707.209	17859.9
707.554	17770.86
707.899	17765.66
708.243	17729.73
708.588	17607.25
708.932	17574.93
709.277	17532.9
709.621	17596.18
709.966	17484.54
710.31	17498.55
710.654	17298.33
710.998	17404.32
711.342	17361.38
711.687	17292
712.031	17261.04
712.375	17154.15
712.719	17170.65
713.063	17162.06
713.407	17238.45
713.75	17094.95
714.094	17062.63
714.438	17045.46
714.782	17071.9
715.125	16911
715.469	16916.87
715.812	16911.9
716.156	16760.94
716.499	16766.37
716.843	16773.82
717.186	16726.37
717.53	16771.34
717.873	16773.6
718.216	16670.55
718.559	16575.86
718.902	16553.72
719.246	16522.31
719.589	16475.3
719.932	16462.87
720.275	16489.99
720.617	16402.99
720.96	16391.91
721.303	16414.51
721.646	16345.14
721.989	16334.74
722.331	16378.13
722.674	16280.73
723.016	16252.71
723.359	16303.1
723.701	16253.84
724.044	16170.68
724.386	16075.54
724.729	16235.53
725.071	16111.47
725.413	16164.12
725.755	16128.42
726.097	16041.64
726.439	16005.03
726.782	16000.74
727.124	16078.25
727.465	15945.15
727.807	16023.11
728.149	15942.89
728.491	16022.43
728.833	16026.95
729.175	15934.75
729.516	15905.6
729.858	15871.7
730.199	15882.55
730.541	15821.53
730.882	15838.03
731.224	15821.99
731.565	15844.13
731.906	15742.89
732.248	15769.11
732.589	15697.47
732.93	15694.3
733.271	15790.57
733.612	15622.67
733.953	15819.95
734.294	15687.75
734.635	15631.03
734.976	15699.5
735.317	15656.57
735.658	15606.85
735.999	15646.85
736.339	15652.5
736.68	15618.83
737.021	15654.76
737.361	15588.77
737.702	15727.52
738.042	15639.17
738.383	15598.26
738.723	15629.22
739.063	15596.68
739.404	15669.22
739.744	15577.7
740.084	15538.6
740.424	15545.83
740.764	15579.28
741.104	15616.79
741.444	15568.66
741.784	15552.16
742.124	15560.3
742.464	15615.89
742.804	15561.88
743.143	15509.22
743.483	15608.21
743.823	15547.42
744.162	15538.6
744.502	15655.66
744.841	15560.98
745.181	15666.51
745.52	15680.97
745.86	15683.46
746.199	15763.23
746.538	15752.16
746.877	15697.92
747.216	15838.93
747.556	15790.35
747.895	15852.04
748.234	15835.09
748.573	15949.21
748.911	15899.27
749.25	15978.14
749.589	16008.42
749.928	15981.53
750.267	16077.35
750.605	16100.17
750.944	16123.67
751.283	16084.35
751.621	16260.62
751.96	16182.88
752.298	16377.68
752.636	16392.14
752.975	16393.04
753.313	16351.46
753.651	16501.52
753.989	16541.06
754.327	16568.86
754.666	16537.9
755.004	16662.19
755.342	16807.95
755.679	16849.75
756.017	16828.96
756.355	17003.42
756.693	17028.28
757.031	17127.49
757.368	17096.3
757.706	17142.63
758.044	17131.56
758.381	17264.21
758.719	17403.86
759.056	17433.92
759.394	17535.16
759.731	17500.81
760.068	17633.24
760.405	17690.64
760.743	17710.07
761.08	17759.79
761.417	17855.38
761.754	17724.08
762.091	17863.06
762.428	17956.84
762.765	17912.1
763.102	17986.22
763.438	18024.19
763.775	17974.24
764.112	18158.42
764.449	18211.53
764.785	18242.26
765.122	18176.05
765.458	18159.32
765.795	18270.73
766.131	18336.04
766.467	18340.56
766.804	18199.32
767.14	18235.48
767.476	18303.5
767.812	18230.74
768.148	18328.36
768.485	18329.72
768.821	18226.89
769.157	18324.74
769.492	18355.25
769.828	18351.64
770.164	18164.75
770.5	18274.35
770.836	18349.6
771.171	18245.88
771.507	18317.51
771.842	18163.62
772.178	18233
772.513	18261.47
772.849	18178.08
773.184	18119.1
773.519	18172.43
773.855	18046.79
774.19	18047.24
774.525	18075.94
774.86	18025.99
775.195	18064.19
775.53	18029.84
775.865	18001.59
776.2	17848.15
776.535	17847.92
776.87	17758.66
777.205	17712.78
777.539	17659
777.874	17799.56
778.209	17553.92
778.543	17617.19
778.878	17541.71
779.212	17482.96
779.547	17476.63
779.881	17496.74
780.215	17379.68
780.55	17383.3
780.884	17312.34
781.218	17293.58
781.552	17281.16
781.886	17251.55
782.22	17201.16
782.554	17124.1
782.888	17013.14
783.222	16957.55
783.556	16901.05
783.889	16835.29
784.223	16745.35
784.557	16757.55
784.89	16816.99
785.224	16625.13
785.557	16753.94
785.891	16578.58
786.224	16498.13
786.558	16568.86
786.891	16402.53
787.224	16349.88
787.557	16362.54
787.891	16352.14
788.224	16286.38
788.557	16243.22
788.89	16141.75
789.223	16232.37
789.556	16082.32
789.888	16081.87
790.221	15968.87
790.554	15877.8
790.887	15817.01
791.219	15844.13
791.552	15817.92
791.884	15722.55
792.217	15614.53
792.549	15668.09
792.882	15492.73
793.214	15511.03
793.546	15436.23
793.879	15334.31
794.211	15307.2
794.543	15341.77
794.875	15243.47
795.207	15323.92
795.539	15169.35
795.871	15178.61
796.203	15028.79
796.535	15040.99
796.867	15009.58
797.198	14922.57
797.53	14961.67
797.862	14821.79
798.193	14869.47
798.525	14783.14
798.856	14833.99
799.188	14653.43
799.519	14631.73
799.85	14514.9
800.182	14552.41
800.513	14629.93
800.844	14436.03
801.175	14481
801.506	14420.67
801.837	14335.7
802.168	14371.4
802.499	14327.56
802.83	14232.42
803.161	14243.27
803.491	14188.36
803.822	14208.24
804.153	14214.57
804.483	14030.17
804.814	13989.72
805.145	13936.38
805.475	13953.56
805.805	13875.14
806.136	13907.23
806.466	13855.26
806.796	13866.1
807.126	13801.93
807.457	13731.19
807.787	13700.68
808.117	13691.87
808.447	13605.77
808.777	13657.3
809.107	13513.12
809.436	13460.01
809.766	13567.81
810.096	13434.7
810.426	13408.49
810.755	13454.82
811.085	13357.87
811.414	13329.4
811.744	13238.32
812.073	13188.83
812.403	13215.05
812.732	13109.74
813.061	13113.36
813.39	13041.95
813.719	12956.98
814.049	13007.82
814.378	12995.62
814.707	12915.39
815.036	12943.19
815.365	12899.58
815.693	12688.06
816.022	12790.88
816.351	12778
816.68	12726.47
817.008	12719.92
817.337	12578.23
817.665	12647.15
817.994	12623.2
818.322	12614.16
818.651	12564.44
818.979	12520.15
819.307	12516.99
819.636	12450.55
819.964	12477.44
820.292	12501.62
820.62	12482.64
820.948	12385.01
821.276	12417.78
821.604	12443.09
821.932	12440.61
822.259	12432.92
822.587	12395.63
822.915	12355.64
823.243	12462.75
823.57	12303.66
823.898	12403.54
824.225	12251.68
824.553	12325.81
824.88	12332.81
825.207	12424.79
825.535	12367.16
825.862	12373.71
826.189	12255.3
826.516	12427.95
826.843	12408.52
827.17	12345.47
827.497	12418.01
827.824	12312.25
828.151	12410.1
828.478	12350.44
828.805	12362.19
829.131	12247.62
829.458	12325.13
829.785	12235.41
830.111	12247.16
830.438	12400.38
830.764	12286.71
831.09	12375.97
831.417	12227.28
831.743	12314.51
832.069	12274.96
832.395	12245.36
832.722	12259.14
833.048	12204
833.374	12230.89
833.7	12212.59
834.026	12230.89
834.351	12194.06
834.677	12215.98
835.003	12252.59
835.329	12237.22
835.654	12175.98
835.98	12163.32
836.306	12148.86
836.631	12093.04
836.956	12109.99
837.282	12098.47
837.607	11992.48
837.932	12043.1
838.258	11968.3
838.583	12022.54
838.908	11923.33
839.233	11919.26
839.558	11923.56
839.883	11885.37
840.208	11879.26
840.533	11886.5
840.858	11922.2
841.182	11823.45
841.507	11807.18
841.832	11782.32
842.156	11733.73
842.481	11732.15
842.805	11701.87
843.13	11672.49
843.454	11669.33
843.778	11609.67
844.103	11563.79
844.427	11599.27
844.751	11584.81
845.075	11488.31
845.399	11523.57
845.723	11385.49
846.047	11481.08
846.371	11423.46
846.695	11326.06
847.019	11235.67
847.343	11295.55
847.666	11110.02
847.99	11090.81
848.313	11150.47
848.637	11026.18
848.96	10939.4
849.284	10993.19
849.607	10915.22
849.931	10867.31
850.254	10741.44
850.577	10757.94
850.9	10730.82
851.223	10652.4
851.546	10578.06
851.869	10620.09
852.192	10633.19
852.515	10495.12
852.838	10428.45
853.161	10506.19
853.483	10337.38
853.806	10303.03
854.129	10308.23
854.451	10238.18
854.774	10274.33
855.096	10224.39
855.419	10155.02
855.741	10119.99
856.063	10097.16
856.385	10066.43
856.708	10021.91
857.03	10053.1
857.352	9999.54
857.674	10050.16
857.996	9938.98
858.318	9929.03
858.64	9905.98
858.961	9820.56
859.283	9914.8
859.605	9822.14
859.926	9840.45
860.248	9800.67
860.57	9733.33
860.891	9713.67
861.212	9707.57
861.534	9658.98
861.855	9685.65
862.176	9672.54
862.498	9689.49
862.819	9677.51
863.14	9588.93
863.461	9593.67
863.782	9590.96
864.103	9560
864.424	9493.79
864.745	9499.44
865.065	9486.78
865.386	9473.9
865.707	9426.9
866.027	9513.68
866.348	9407.24
866.668	9454.24
866.989	9359.1
867.309	9313.23
867.63	9272.1
867.95	9341.25
868.27	9290.86
868.59	9339.44
868.91	9274.13
869.23	9261.71
869.55	9222.38
869.87	9234.36
870.19	9214.02
870.51	9234.81
870.83	9229.16
871.15	9203.18
871.469	9124.99
871.789	9162.73
872.109	9164.31
872.428	9124.99
872.748	9179
873.067	9099.45
873.386	9028.49
873.706	9014.93
874.025	9040.02
874.344	8964.09
874.663	9034.59
874.982	8985.55
875.301	9012.22
875.62	8908.49
875.939	8993.24
876.258	8941.26
876.577	8882.73
876.896	8834.37
877.214	8894.26
877.533	8883.86
877.852	8852.22
878.17	8794.6
878.489	8843.41
878.807	8815.84
879.125	8831.21
879.444	8836.18
879.762	8778.33
880.08	8750.98
880.398	8659.24
880.716	8668.95
881.034	8702.62
881.352	8725.67
881.67	8654.26
881.988	8670.53
882.306	8644.77
882.624	8638.67
882.941	8582.18
883.259	8532.91
883.577	8519.8
883.894	8536.3
884.212	8503.08
884.529	8490.2
884.846	8446.81
885.164	8430.99
885.481	8409.3
885.798	8424.67
886.115	8376.08
886.432	8427.15
886.75	8380.15
887.067	8376.31
887.383	8341.96
887.7	8287.49
888.017	8236.42
888.334	8303.76
888.651	8270.55
888.967	8246.37
889.284	8195.74
889.6	8115.07
889.917	8085.69
890.233	8129.53
890.55	8072.81
890.866	8024.22
891.182	8040.27
891.498	8006.6
891.815	8009.08
892.131	7940.16
892.447	7955.75
892.763	7892.93
893.079	7854.29
893.395	7925.24
893.71	7836.66
894.026	7872.36
894.342	7805.02
894.657	7781.29
894.973	7716.89
895.289	7642.31
895.604	7784.23
895.92	7702.2
896.235	7644.8
896.55	7633.95
896.865	7594.86
897.181	7584.91
897.496	7597.57
897.811	7478.48
898.126	7496.33
898.441	7442.54
898.756	7462.88
899.071	7443
899.386	7414.97
899.7	7375.43
900.015	7329.78
900.33	7315.09
900.644	7311.93
900.959	7271.48
901.273	7250.69
901.588	7244.58
901.902	7194.19
902.216	7172.95
902.531	7153.29
902.845	7132.5
903.159	7078.71
903.473	7043.01
903.787	7027.64
904.101	7003.23
904.415	6982.9
904.729	6983.35
905.042	6930.69
905.356	6922.56
905.67	6871.71
905.984	6833.52
906.297	6862.45
906.611	6758.72
906.924	6799.4
907.237	6743.13
907.551	6760.08
907.864	6713.3
908.177	6730.7
908.491	6738.16
908.804	6614.77
909.117	6551.04
909.43	6535.68
909.743	6559.86
910.056	6580.19
910.368	6565.05
910.681	6467.43
910.994	6428.11
911.307	6417.71
911.619	6378.84
911.932	6360.54
912.244	6338.39
912.557	6300.2
912.869	6273.54
913.181	6288.45
913.494	6277.15
913.806	6201.45
914.118	6173.2
914.43	6149.7
914.742	6156.25
915.054	6084.84
915.366	6069.02
915.678	6077.83
915.99	6079.87
916.302	5982.02
916.613	5949.7
916.925	5980.89
917.236	5931.4
917.548	5887.78
917.859	5911.74
918.171	5924.62
918.482	5817.05
918.794	5771.18
919.105	5791.97
919.416	5752.42
919.727	5770.27
920.038	5713.78
920.349	5693.21
920.66	5633.78
920.971	5686.88
921.282	5626.77
921.593	5614.12
921.903	5500.9
922.214	5547
922.525	5536.15
922.835	5497.51
923.146	5501.35
923.456	5479.66
923.767	5439.66
924.077	5458.19
924.387	5415.25
924.697	5380
925.008	5409.38
925.318	5313.33
925.628	5332.09
925.938	5281.25
926.248	5238.53
926.558	5231.76
926.867	5271.53
927.177	5205.99
927.487	5195.6
927.796	5153.79
928.106	5123.74
928.416	5168.25
928.725	5102.72
929.034	5062.95
929.344	5058.88
929.653	5053
929.962	5041.03
930.271	5046
930.581	4939.33
930.89	5002.83
931.199	4891.2
931.508	4929.39
931.817	4918.54
932.125	4890.3
932.434	4846.23
932.743	4818.88
933.051	4774.59
933.36	4795.61
933.669	4770.98
933.977	4783.41
934.286	4699.79
934.594	4697.31
934.902	4663.18
935.21	4662.96
935.519	4641.04
935.827	4661.15
936.135	4576.86
936.443	4576.41
936.751	4551.77
937.059	4595.61
937.367	4517.88
937.674	4521.04
937.982	4520.14
938.29	4490.98
938.597	4483.53
938.905	4398.78
939.213	4417.31
939.52	4402.62
939.827	4458.44
940.135	4371.21
940.442	4341.38
940.749	4365.11
941.056	4323.3
941.363	4283.08
941.67	4279.01
941.977	4253.02
942.284	4234.49
942.591	4231.33
942.898	4186.58
943.205	4220.71
943.511	4190.43
943.818	4179.81
944.125	4162.63
944.431	4119.92
944.738	4081.5
945.044	4125.57
945.35	4078.79
945.657	4083.08
945.963	4000.6
946.269	4015.97
946.575	3994.27
946.881	3976.19
947.187	3945.69
947.493	3898.23
947.799	3959.02
948.105	3925.12
948.41	3902.3
948.716	3908.17
949.022	3857.55
949.327	3865.69
949.633	3808.06
949.938	3816.43
950.244	3818.23
950.549	3767.84
950.854	3762.64
951.16	3721.29
951.465	3716.99
951.77	3676.54
952.075	3708.63
952.38	3697.11
952.685	3727.84
952.99	3657.56
953.294	3612.14
953.599	3592.02
953.904	3569.65
954.209	3615.3
954.513	3550.44
954.818	3533.95
955.122	3580.73
955.426	3548.41
955.731	3485.59
956.035	3499.37
956.339	3520.39
956.643	3446.04
956.948	3447.85
957.252	3468.19
957.556	3448.75
957.86	3406.04
958.163	3399.26
958.467	3405.14
958.771	3372.82
959.075	3388.64
959.378	3340.96
959.682	3343.44
959.985	3326.72
960.289	3280.39
960.592	3286.27
960.896	3233.16
961.199	3277
961.502	3236.33
961.805	3229.32
962.108	3204.92
962.411	3179.38
962.714	3197.91
963.017	3166.27
963.32	3159.27
963.623	3192.03
963.926	3151.58
964.228	3107.97
964.531	3063.9
964.833	3102.77
965.136	3089.66
965.438	3086.05
965.741	3079.27
966.043	3010.34
966.345	3076.33
966.648	3002.21
966.95	2944.81
967.252	2934.19
967.554	2997.24
967.856	2975.77
968.158	2939.61
968.46	2948.2
968.761	2953.17
969.063	2928.99
969.365	2886.73
969.666	2858.71
969.968	2829.78
970.269	2841.76
970.571	2882.66
970.872	2886.73
971.174	2813.51
971.475	2830.01
971.776	2814.42
972.077	2792.5
972.378	2817.81
972.679	2796.34
972.98	2761.09
973.281	2745.27
973.582	2722.44
973.883	2743.91
974.183	2713.4
974.484	2698.26
974.785	2682.22
975.085	2678.38
975.386	2673.18
975.686	2639.51
975.986	2647.42
976.287	2634.31
976.587	2613.29
976.887	2599.73
977.187	2604.03
977.487	2552.5
977.787	2574.88
978.087	2570.81
978.387	2542.11
978.687	2547.31
978.987	2489.23
979.286	2524.48
979.586	2494.88
979.885	2474.09
980.185	2490.81
980.484	2494.2
980.784	2468.21
981.083	2439.29
981.382	2452.39
981.682	2437.03
981.981	2433.41
982.28	2376.01
982.579	2398.16
982.878	2403.35
983.177	2390.7
983.475	2382.79
983.774	2334.66
984.073	2376.01
984.372	2340.53
984.67	2319.06
984.969	2303.92
985.267	2312.51
985.566	2329.91
985.864	2318.84
986.162	2301.66
986.461	2270.25
986.759	2274.77
987.057	2221.44
987.355	2225.28
987.653	2246.52
987.951	2215.56
988.249	2222.57
988.547	2235.22
988.844	2186.41
989.142	2194.09
989.44	2146.86
989.737	2166.3
990.035	2157.03
990.332	2144.38
990.63	2139.63
990.927	2102.57
991.224	2089.46
991.521	2087.66
991.819	2115
992.116	2070.71
992.413	2084.72
992.71	2060.31
993.006	2064.83
993.303	2068.67
993.6	2022.57
993.897	2025.74
994.193	2029.81
994.49	2018.73
994.787	2007.89
995.083	1981.67
995.379	2009.92
995.676	2003.37
995.972	1980.09
996.268	1957.49
996.565	1937.38
996.861	1929.02
997.157	1937.83
997.453	1935.8
997.749	1907.77
998.044	1917.49
998.34	1902.35
998.636	1900.09
998.932	1876.14
999.227	1853.76
999.523	1852.86
999.818	1859.87
1000.114	1847.21
1000.409	1854.44
1000.704	1822.58
1001	1798.4
1001.295	1814.22
1001.59	1797.04
1001.885	1802.01
1002.18	1754.78
1002.475	1765.41
1002.77	1735.8
1003.065	1734.9
1003.359	1722.24
1003.654	1744.16
1003.949	1719.31
1004.243	1688.35
1004.538	1724.5
1004.832	1705.97
1005.127	1664.84
1005.421	1670.94
1005.715	1668.23
1006.009	1666.88
1006.304	1656.26
1006.598	1653.32
1006.892	1623.49
1007.186	1622.13
1007.48	1618.74
1007.773	1599.76
1008.067	1600.44
1008.361	1540.1
1008.655	1593.21
1008.948	1556.37
1009.242	1552.98
1009.535	1551.85
1009.829	1548.46
1010.122	1542.13
1010.415	1546.65
1010.708	1510.72
1011.001	1531.74
1011.295	1493.32
1011.588	1501.23
1011.881	1482.02
1012.173	1466.2
1012.466	1484.28
1012.759	1451.29
1013.052	1446.54
1013.344	1440.67
1013.637	1473.89
1013.93	1411.52
1014.222	1421.01
1014.514	1406.77
1014.807	1425.75
1015.099	1396.6
1015.391	1387.11
1015.683	1395.7
1015.976	1385.75
1016.268	1367.22
1016.56	1360.22
1016.851	1343.27
1017.143	1322.48
1017.435	1341.69
1017.727	1334.91
1018.018	1315.02
1018.31	1335.36
1018.602	1312.76
1018.893	1280.45
1019.185	1296.04
1019.476	1258.3
1019.767	1256.49
1020.058	1255.36
1020.35	1239.77
1020.641	1258.3
1020.932	1261.01
1021.223	1223.05
1021.514	1244.97
1021.804	1234.35
1022.095	1200.45
1022.386	1207
1022.677	1188.92
1022.967	1180.11
1023.258	1176.72
1023.548	1203.84
1023.839	1157.29
1024.129	1202.71
1024.419	1175.14
1024.709	1154.12
1025	1178.08
1025.29	1143.05
1025.58	1127
1025.87	1102.82
1026.16	1133.33
1026.449	1098.08
1026.739	1116.61
1027.029	1099.89
1027.319	1087.91
1027.608	1070.06
1027.898	1084.29
1028.187	1065.08
1028.477	1064.63
1028.766	1056.05
1029.055	1023.28
1029.344	1051.98
1029.634	1032.09
1029.923	1054.24
1030.212	1040.9
1030.501	1009.72
1030.79	1007.46
1031.078	1011.75
1031.367	1008.36
1031.656	965.65
1031.945	973.34
1032.233	991.19
1032.522	955.94
1032.81	934.47
1033.099	975.82
1033.387	981.47
1033.675	950.96
1033.963	915.94
1034.251	952.77
1034.54	915.71
1034.828	929.5
1035.116	921.13
1035.403	913.45
1035.691	921.81
1035.979	880.68
1036.267	904.41
1036.554	895.37
1036.842	881.36
1037.129	890.85
1037.417	870.97
1037.704	853.11
1037.992	873.68
1038.279	881.59
1038.566	855.37
1038.853	855.37
1039.14	855.37
