Data from hue_330_FLMS001491_61.txt Node
Date: Mon Feb 06 15:45:43 GMT 2017
User: dcchb
Spectrometer: FLMS00149
Trigger mode: 0
Integration Time (sec): 2.000000E-2
Scans to average: 10
Electric dark correction enabled: true
Nonlinearity correction enabled: false
Boxcar width: 0
XAxis mode: Wavelengths
Number of Pixels in Spectrum: 2048
>>>>>Begin Spectral Data<<<<<
341.393	-29.63
341.776	-29.63
342.16	-29.63
342.543	-52
342.927	-68.28
343.31	-68.5
343.693	-52.68
344.077	-62.85
344.46	-60.14
344.843	-66.47
345.226	-42.29
345.61	-34.15
345.993	-25.79
346.376	8.56
346.759	5.62
347.142	39.97
347.525	25.73
347.908	54.66
348.291	60.08
348.674	111.16
349.057	107.09
349.44	105.05
349.823	150.7
350.206	165.17
350.588	189.8
350.971	203.13
351.354	216.92
351.737	249.46
352.119	246.07
352.502	262.11
352.884	295.33
353.267	295.33
353.65	304.37
354.032	282.22
354.414	306.86
354.797	319.29
355.179	319.96
355.562	327.42
355.944	330.36
356.326	335.1
356.709	331.49
357.091	343.92
357.473	356.12
357.855	331.04
358.238	348.66
358.62	330.58
359.002	344.14
359.384	340.3
359.766	341.43
360.148	350.25
360.53	346.18
360.912	342.56
361.294	331.94
361.676	342.56
362.057	346.86
362.439	342.11
362.821	326.52
363.203	309.57
363.584	322.45
363.966	318.38
364.348	317.48
364.729	317.03
365.111	309.57
365.493	316.35
365.874	333.3
366.256	322.22
366.637	322.45
367.019	318.83
367.4	324.48
367.781	328.78
368.163	335.33
368.544	291.72
368.925	316.8
369.306	324.26
369.688	317.03
370.069	310.47
370.45	312.96
370.831	288.55
371.212	295.78
371.593	296.24
371.974	312.51
372.355	317.25
372.736	312.51
373.117	309.57
373.498	295.33
373.879	297.14
374.26	295.56
374.641	344.82
375.021	309.34
375.402	299.62
375.783	339.85
376.163	310.92
376.544	313.41
376.925	311.6
377.305	323.81
377.686	315.22
378.066	336.69
378.447	334.88
378.827	337.14
379.208	324.48
379.588	319.74
379.968	329
380.349	321.32
380.729	321.09
381.109	338.95
381.489	340.08
381.87	330.13
382.25	347.08
382.63	330.36
383.01	337.36
383.39	331.26
383.77	330.36
384.15	347.99
384.53	329.68
384.91	326.97
385.29	325.61
385.67	339.17
386.049	352.05
386.429	330.58
386.809	340.08
387.189	357.25
387.568	321.77
387.948	354.99
388.328	340.3
388.707	351.6
389.087	351.6
389.466	326.74
389.846	359.06
390.225	359.28
390.605	352.5
390.984	354.09
391.363	367.87
391.743	352.05
392.122	363.35
392.501	355.89
392.881	363.13
393.26	360.41
393.639	385.72
394.018	362
394.397	373.07
394.776	381.88
395.155	367.87
395.534	358.61
395.913	371.71
396.292	372.84
396.671	393.41
397.05	393.18
397.429	404.71
397.808	390.92
398.186	378.49
398.565	377.36
398.944	374.65
399.323	390.92
399.701	371.04
400.08	395.44
400.458	387.53
400.837	391.15
401.215	399.28
401.594	391.15
401.972	393.18
402.351	394.76
402.729	392.28
403.107	391.6
403.486	414.42
403.864	413.97
404.242	415.1
404.62	409.45
404.999	413.07
405.377	429.56
405.755	414.2
406.133	417.36
406.511	416.01
406.889	413.29
407.267	427.08
407.645	454.88
408.023	438.83
408.401	434.76
408.779	445.38
409.156	449.9
409.534	466.17
409.912	453.75
410.29	469.34
410.667	468.21
411.045	482.9
411.422	446.29
411.8	471.15
412.178	470.02
412.555	478.15
412.933	470.47
413.31	493.97
413.687	518.38
414.065	516.79
414.442	525.38
414.819	539.17
415.197	525.16
415.574	540.3
415.951	532.39
416.328	533.97
416.705	544.59
417.082	569.9
417.46	549.79
417.837	565.15
418.214	586.85
418.591	552.73
418.967	582.33
419.344	568.77
419.721	586.17
420.098	587.3
420.475	584.14
420.852	621.65
421.228	621.65
421.605	612.39
421.982	620.97
422.358	627.53
422.735	629.79
423.111	627.75
423.488	638.83
423.864	633.63
424.241	668.88
424.617	644.25
424.994	660.97
425.37	655.32
425.746	677.92
426.123	672.27
426.499	674.08
426.875	698.94
427.251	683.34
427.627	700.52
428.003	694.19
428.379	709.11
428.756	728.54
429.132	724.7
429.507	766.51
429.883	748.65
430.259	768.99
430.635	765.6
431.011	762.66
431.387	773.74
431.763	772.38
432.138	780.29
432.514	793.62
432.89	804.02
433.265	808.76
433.641	809.44
434.016	789.78
434.392	849.21
434.767	861.64
435.143	818.71
435.518	875.2
435.894	886.5
436.269	874.75
436.644	906.16
437.02	870.01
437.395	892.83
437.77	885.37
438.145	896.45
438.52	898.48
438.895	930.57
439.271	903.9
439.646	923.11
440.021	950.91
440.395	953.17
440.77	945.03
441.145	951.81
441.52	954.07
441.895	983
442.27	989.55
442.645	956.1
443.019	985.03
443.394	981.64
443.769	1013.05
444.143	998.82
444.518	996.1
444.892	1024.8
445.267	1013.05
445.641	1025.48
446.016	1010.57
446.39	1039.72
446.764	1037.01
447.139	1032.71
447.513	1042.43
447.887	1046.5
448.262	1036.78
448.636	1067.51
449.01	1051.02
449.384	1046.27
449.758	1073.84
450.132	1094.63
450.506	1096.21
450.88	1076.78
451.254	1083.56
451.628	1094.86
452.002	1081.53
452.376	1109.77
452.75	1090.56
453.123	1119.04
453.497	1124.24
453.871	1129.43
454.244	1142.31
454.618	1113.16
454.992	1166.72
455.365	1157.91
455.739	1194.52
456.112	1165.14
456.486	1168.3
456.859	1197.45
457.232	1225.7
457.606	1191.8
457.979	1228.87
458.352	1234.97
458.725	1230
459.099	1235.42
459.472	1242.65
459.845	1276.32
460.218	1277.9
460.591	1286.27
460.964	1298.69
461.337	1298.92
461.71	1308.86
462.083	1330.56
462.456	1352.48
462.829	1341.63
463.201	1337.11
463.574	1349.77
463.947	1355.42
464.32	1411.23
464.692	1401.06
465.065	1400.84
465.438	1400.61
465.81	1442.65
466.183	1449.65
466.555	1460.05
466.928	1468.18
467.3	1484
467.672	1482.87
468.045	1513.83
468.417	1520.38
468.789	1488.97
469.161	1550.44
469.534	1534.62
469.906	1576.43
470.278	1610.55
470.65	1603.77
471.022	1655.75
471.394	1660.27
471.766	1644.67
472.138	1673.83
472.51	1712.02
472.882	1723.09
473.253	1723.99
473.625	1759.25
473.997	1748.17
474.369	1757.21
474.74	1769.19
475.112	1804.9
475.484	1852.13
475.855	1866.82
476.227	1821.39
476.598	1918.79
476.97	1950.88
477.341	1938.45
477.713	1952.24
478.084	1992.46
478.455	2040.14
478.827	2048.28
479.198	2074.72
479.569	2117.88
479.94	2161.04
480.311	2131.89
480.682	2161.04
481.053	2227.48
481.424	2225
481.795	2282.62
482.166	2321.04
482.537	2319.68
482.908	2337.99
483.279	2367.59
483.65	2378.67
484.021	2433.81
484.391	2471.09
484.762	2442.62
485.133	2473.13
485.503	2530.98
485.874	2550.87
486.244	2565.33
486.615	2627.25
486.985	2622.05
487.356	2679.22
487.726	2691.43
488.097	2757.19
488.467	2742.72
488.837	2781.14
489.207	2829.73
489.578	2816.17
489.948	2861.37
490.318	2901.59
490.688	2903.62
491.058	2982.72
491.428	2968.03
491.798	2970.97
492.168	3074.24
492.538	3038.08
492.908	3083.96
493.278	3109.95
493.648	3143.62
494.017	3166.22
494.387	3226.55
494.757	3197.18
495.126	3232.2
495.496	3207.57
495.866	3258.19
496.235	3281.69
496.605	3278.3
496.974	3298.19
497.344	3329.83
497.713	3324.86
498.082	3385.87
498.452	3407.34
498.821	3431.97
499.19	3422.48
499.559	3458.86
499.928	3457.51
500.298	3419.32
500.667	3509.48
501.036	3499.54
501.405	3482.82
501.774	3547.68
502.143	3534.79
502.512	3567.34
502.88	3610.05
503.249	3567.79
503.618	3624.74
503.987	3609.37
504.356	3659.31
504.724	3642.59
505.093	3626.32
505.462	3661.12
505.83	3667.22
506.199	3714.22
506.567	3707.22
506.936	3705.19
507.304	3748.12
507.672	3744.05
508.041	3764.62
508.409	3789.25
508.777	3833.09
509.145	3837.16
509.514	3853.66
509.882	3807.56
510.25	3829.48
510.618	3825.86
510.986	3857.95
511.354	3895.01
511.722	3926.65
512.09	3968
512.458	3950.38
512.826	3929.59
513.193	3925.07
513.561	3953.77
513.929	4002.35
514.297	3981.56
514.664	3995.35
515.032	3974.56
515.4	4038.74
515.767	4041.22
516.135	4072.86
516.502	4039.19
516.869	4080.32
517.237	4074.21
517.604	4072.86
517.972	4080.99
518.339	4130.03
518.706	4132.52
519.073	4156.92
519.44	4064.95
519.808	4177.49
520.175	4165.96
520.542	4184.04
520.909	4199.41
521.276	4208.67
521.643	4221.1
522.009	4225.85
522.376	4274.21
522.743	4256.13
523.11	4305.17
523.477	4313.76
523.843	4343.13
524.21	4363.47
524.577	4354.21
524.943	4350.37
525.31	4421.1
525.676	4475.56
526.043	4467.88
526.409	4490.93
526.776	4465.39
527.142	4504.26
527.508	4520.98
527.874	4590.81
528.241	4560.76
528.607	4600.75
528.973	4635.56
529.339	4633.75
529.705	4624.93
530.071	4699.74
530.437	4689.11
530.803	4733.18
531.169	4742.67
531.535	4767.53
531.901	4784.25
532.267	4782.67
532.632	4823.12
532.998	4828.77
533.364	4834.42
533.73	4854.76
534.095	4900.63
534.461	4919.84
534.826	4937.02
535.192	4954.64
535.557	4948.77
535.923	5002.1
536.288	4992.38
536.653	4988.09
537.019	5010.46
537.384	5006.17
537.749	5048.2
538.114	5068.77
538.479	5095.66
538.845	5137.24
539.21	5132.04
539.575	5172.04
539.94	5190.34
540.305	5227.63
540.67	5245.48
541.034	5247.07
541.399	5282.77
541.764	5255.43
542.129	5315.99
542.494	5330.91
542.858	5348.08
543.223	5372.26
543.587	5361.64
543.952	5403.67
544.316	5414.74
544.681	5438.02
545.045	5428.76
545.41	5504.23
545.774	5541.97
546.138	5520.73
546.503	5515.31
546.867	5570.45
547.231	5651.35
547.595	5602.54
547.959	5654.29
548.324	5619.49
548.688	5625.36
549.052	5692.7
549.416	5713.27
549.779	5731.35
550.143	5720.73
550.507	5802.08
550.871	5769.76
551.235	5802.08
551.599	5853.38
551.962	5841.63
552.326	5858.35
552.689	5898.12
553.053	5868.52
553.417	5916.2
553.78	5945.13
554.143	5972.92
554.507	5945.8
554.87	5951.91
555.234	6002.53
555.597	6018.8
555.96	6035.75
556.323	6061.96
556.686	6014.05
557.05	6089.76
557.413	6087.72
557.776	6067.83
558.139	6121.39
558.502	6159.58
558.865	6134.5
559.228	6191.45
559.59	6236.42
559.953	6209.07
560.316	6322.29
560.679	6274.16
561.041	6340.37
561.404	6286.36
561.767	6372.23
562.129	6327.49
562.492	6402.29
562.854	6355.51
563.217	6385.57
563.579	6422.18
563.941	6450.2
564.304	6407.26
564.666	6471.44
565.028	6516.18
565.39	6554.83
565.753	6550.76
566.115	6541.72
566.477	6589.18
566.839	6594.37
567.201	6639.8
567.563	6626.69
567.925	6705.78
568.287	6675.28
568.648	6739.91
569.01	6757.08
569.372	6793.24
569.734	6771.32
570.095	6861.94
570.457	6910.3
570.819	6882.05
571.18	6905.78
571.542	6954.82
571.903	6970.86
572.265	6995.04
572.626	7054.25
572.987	7087.24
573.349	7115.49
573.71	7232.1
574.071	7219.89
574.432	7277.07
574.794	7319.33
575.155	7384.18
575.516	7386.44
575.877	7465.31
576.238	7519.1
576.599	7571.07
576.96	7615.36
577.32	7706.89
577.681	7790.28
578.042	7894.91
578.403	7869.6
578.763	8006.54
579.124	8158.85
579.485	8218.74
579.845	8280.66
580.206	8425.74
580.566	8468
580.927	8527.43
581.287	8727.65
581.648	8794.99
582.008	9034.99
582.368	9104.59
582.728	9223.68
583.089	9373.96
583.449	9520.17
583.809	9667.51
584.169	9883.33
584.529	9978.69
584.889	10222.53
585.249	10380.94
585.609	10579.13
585.969	10789.07
586.329	10916.29
586.688	11167.81
587.048	11255.27
587.408	11581.36
587.768	11744.97
588.127	11946.1
588.487	12173.44
588.846	12516.7
589.206	12606.19
589.565	12904.72
589.925	13299.96
590.284	13403.46
590.643	13691.59
591.003	13933.16
591.362	14286.38
591.721	14462.87
592.08	14755.29
592.44	15022.18
592.799	15332
593.158	15531.77
593.517	15771.53
593.876	16125.42
594.235	16336.49
594.593	16661.45
594.952	16963.37
595.311	17214.21
595.67	17559.74
596.029	17917.47
596.387	18239.49
596.746	18502.76
597.104	18786.6
597.463	19017.78
597.822	19401.95
598.18	19608.95
598.538	19838.55
598.897	20337.06
599.255	20413.67
599.613	20889.59
599.972	21126.2
600.33	21429.92
600.688	21643.7
601.046	22011.6
601.404	22331.14
601.762	22586.72
602.12	22881.86
602.478	23140.61
602.836	23447.94
603.194	23501.73
603.552	23824.66
603.91	23975.39
604.268	24412.21
604.625	24542.83
604.983	24939.88
605.341	24903.72
605.698	25468
606.056	25660.99
606.413	25814.43
606.771	26072.05
607.128	26357.02
607.485	26422.55
607.843	26778.93
608.2	27132.14
608.557	27358.12
608.914	27347.05
609.272	27812.57
609.629	27997.2
609.986	28314.93
610.343	28480.13
610.7	28772.32
611.057	28978.42
611.414	29151.52
611.771	29264.74
612.127	29546.54
612.484	29733.43
612.841	29924.61
613.198	29997.6
613.554	30223.36
613.911	30647.98
614.267	30687.98
614.624	30654.31
614.98	31050.91
615.337	31320.96
615.693	31388.52
616.05	31521.4
616.406	31765.92
616.762	31741.51
617.118	31899.92
617.475	32037.1
617.831	32230.76
618.187	32527.48
618.543	32553.24
618.899	32867.81
619.255	32839.11
619.611	33037.97
619.967	33195.03
620.323	33418.53
620.678	33360
621.034	33343.28
621.39	33438.19
621.746	33566.32
622.101	34059.42
622.457	33868.23
622.812	34008.8
623.168	34246.98
623.523	34255.57
623.879	34478.16
624.234	34305.74
624.589	34503.47
624.945	34572.85
625.3	34723.58
625.655	34660.08
626.01	34847.19
626.365	34954.53
626.72	34914.08
627.075	34906.4
627.43	35049.22
627.785	35028.2
628.14	35152.04
628.495	35337.57
628.85	35371.7
629.205	35254.86
629.559	35540.05
629.914	35389.55
630.269	35417.12
630.623	35440.85
630.978	35365.82
631.332	35618.92
631.687	35730.78
632.041	35604.46
632.396	35658.92
632.75	35541.86
633.104	35811.69
633.459	35479.94
633.813	35674.97
634.167	35604.46
634.521	35686.72
634.875	35766.71
635.229	35733.04
635.583	35564.46
635.937	35730.33
636.291	35685.81
636.645	35726.49
636.999	35600.17
637.352	35849.88
637.706	35698.24
638.06	35770.33
638.413	35767.84
638.767	35708.64
639.121	35732.59
639.474	35619.15
639.828	35644.68
640.181	35834.28
640.534	35776.21
640.888	35629.09
641.241	35589.54
641.594	35587.96
641.947	35782.31
642.301	35540.51
642.654	35716.09
643.007	35658.47
643.36	35511.58
643.713	35590.22
644.066	35787.28
644.419	35520.17
644.771	35291.25
645.124	34996.57
645.477	34993.18
645.83	34895.1
646.182	34687.2
646.535	34678.83
646.888	34736.46
647.24	34592.96
647.593	34787.53
647.945	34562.23
648.298	34520.87
648.65	34453.08
649.002	34511.38
649.355	34507.76
649.707	34405.85
650.059	34678.16
650.411	35061.87
650.763	35075.21
651.115	35358.14
651.467	35300.51
651.819	35293.51
652.171	35292.6
652.523	35288.31
652.875	35268.87
653.227	35014.64
653.578	35328.99
653.93	35135.09
654.282	35060.97
654.633	35049.9
654.985	35109.33
655.337	35147.3
655.688	35070.46
656.039	35192.49
656.391	34950.01
656.742	34988.2
657.094	35127.18
657.445	34988.2
657.796	35161.53
658.147	34868.66
658.498	34930.58
658.849	35118.82
659.2	35020.07
659.551	34945.04
659.902	35105.49
660.253	34893.97
660.604	35095.77
660.955	34913.4
661.306	34923.8
661.656	34904.82
662.007	34919.96
662.358	34849
662.708	34884.48
663.059	34941.88
663.409	34736.01
663.76	34975.78
664.11	34921.77
664.461	35020.97
664.811	34892.39
665.161	34819.62
665.511	34813.29
665.862	34865.5
666.212	34990.01
666.562	34950.24
666.912	34964.48
667.262	34741.66
667.612	34922.67
667.962	34759.74
668.312	34665.5
668.662	34986.62
669.011	34964.48
669.361	34799.73
669.711	34725.16
670.06	34734.65
670.41	34650.36
670.76	34662.34
671.109	34890.35
671.459	34871.82
671.808	34783.92
672.157	34790.24
672.507	34541.66
672.856	34713.64
673.205	34591.83
673.554	34759.51
673.904	34606.97
674.253	34724.03
674.602	34643.58
674.951	34127.21
675.3	33969.7
675.649	34424.83
675.998	34523.58
676.346	34458.95
676.695	34549.12
677.044	34319.97
677.393	34351.84
677.741	34518.61
678.09	34461.66
678.438	34270.26
678.787	34409.24
679.135	34411.27
679.484	34177.15
679.832	34270.94
680.181	34141.22
680.529	34153.88
680.877	34212.41
681.225	34029.36
681.573	34344.83
681.922	34025.52
682.27	34000.66
682.618	34111.39
682.966	33865.3
683.314	33886.99
683.661	33788.46
684.009	33543.72
684.357	33593.21
684.705	33575.81
685.053	33595.92
685.4	33570.84
685.748	33293.33
686.095	33508.47
686.443	33345.54
686.79	33319.55
687.138	33225.76
687.485	33229.38
687.832	33217.4
688.18	33254.46
688.527	33082.72
688.874	32953.46
689.221	32896.96
689.568	32781.71
689.915	32819.67
690.262	32870.75
690.609	32721.15
690.956	32621.26
691.303	32619.91
691.65	32509.17
691.997	32489.06
692.344	32419.68
692.69	32284.55
693.037	32289.97
693.383	31963.43
693.73	32070.77
694.077	32093.37
694.423	32047.04
694.769	31944.22
695.116	31765.01
695.462	31733.37
695.808	31638.69
696.155	31715.52
696.501	31351.01
696.847	31489.31
697.193	31235.76
697.539	31331.13
697.885	31213.16
698.231	31017.46
698.577	31076.67
698.923	30977.69
699.269	30781.99
699.614	30778.15
699.96	30702.44
700.306	30725.94
700.651	30604.59
700.997	30389.91
701.342	30363.47
701.688	30294.32
702.033	30356.69
702.379	30273.07
702.724	30110.59
703.069	30243.7
703.415	29841.45
703.76	29871.5
704.105	29933.2
704.45	29929.35
704.795	29625.18
705.14	29549.03
705.485	29537.27
705.83	29414.79
706.175	29398.07
706.52	29368.69
706.865	29199.2
707.209	29232.42
707.554	29098.87
707.899	29195.59
708.243	29046.89
708.588	28921.47
708.932	28811.42
709.277	28751.08
709.621	28709.5
709.966	28516.28
710.31	28813
710.654	28509.5
710.998	28481.48
711.342	28461.14
711.687	28373.01
712.031	28228.61
712.375	28270.87
712.719	28257.31
713.063	28254.37
713.407	28237.65
713.75	28040.82
714.094	28030.42
714.438	27902.97
714.782	28017.54
715.125	27842.4
715.469	27809.41
715.812	27724.21
716.156	27614.39
716.499	27584.33
716.843	27773.48
717.186	27535.07
717.53	27498.46
717.873	27619.13
718.216	27540.72
718.559	27375.52
718.902	27148.86
719.246	27285.13
719.589	27141.18
719.932	27069.54
720.275	27069.54
720.617	27008.53
720.96	26942.77
721.303	27002.65
721.646	26928.76
721.989	26776.44
722.331	26813.96
722.674	26749.55
723.016	26815.09
723.359	26740.51
723.701	26692.83
724.044	26510.01
724.386	26443.12
724.729	26702.77
725.071	26624.36
725.413	26559.05
725.755	26444.25
726.097	26290.81
726.439	26319.05
726.782	26203.35
727.124	26468.2
727.465	26206.06
727.807	26181.88
728.149	26221.88
728.491	26036.58
728.833	26042.22
729.175	25929.01
729.516	25940.08
729.858	25843.59
730.199	25966.07
730.541	25860.31
730.882	25728.79
731.224	25848.56
731.565	25644.5
731.906	25750.71
732.248	25671.16
732.589	25696.92
732.93	25522.69
733.271	25628.22
733.612	25525.18
733.953	25512.52
734.294	25404.95
734.635	25391.62
734.976	25520.2
735.317	25321.11
735.658	25264.39
735.999	25294.22
736.339	25151.4
736.68	25379.64
737.021	25207.22
737.361	25105.07
737.702	25107.56
738.042	25116.83
738.383	24998.64
738.723	25066.43
739.063	24941.46
739.404	25040.44
739.744	24907.57
740.084	24858.08
740.424	24850.62
740.764	24721.58
741.104	24875.25
741.444	24698.31
741.784	24630.74
742.124	24695.14
742.464	24633
742.804	24565.88
743.143	24558.65
743.483	24562.04
743.823	24348.48
744.162	24450.85
744.502	24483.17
744.841	24310.52
745.181	24369.5
745.52	24150.3
745.86	24331.76
746.199	24271.42
746.538	24134.48
746.877	24253.12
747.216	24228.71
747.556	24171.31
747.895	24015.61
748.234	24000.47
748.573	23978.55
748.911	23970.41
749.25	23913.92
749.589	23898.33
749.928	23849.51
750.267	23777.2
750.605	23777.43
750.944	23721.38
751.283	23560.48
751.621	23736.07
751.96	23500.14
752.298	23460.6
752.636	23559.13
752.975	23362.3
753.313	23384.67
753.651	23405.01
753.989	23179.93
754.327	23255.86
754.666	23105.13
755.004	23206.37
755.342	23122.75
755.679	23141.06
756.017	22987.16
756.355	23087.73
756.693	22901.74
757.031	22901.29
757.368	22865.59
757.706	22714.18
758.044	22705.14
758.381	22669.43
758.719	22582.2
759.056	22556.44
759.394	22493.62
759.731	22263.34
760.068	22324.58
760.405	22223.57
760.743	22130.01
761.08	22278.71
761.417	22093.18
761.754	22022.44
762.091	22077.81
762.428	22000.07
762.765	21875.78
763.102	21819.29
763.438	21659.97
763.775	21651.61
764.112	21777.7
764.449	21606.18
764.785	21572.96
765.122	21336.36
765.458	21391.05
765.795	21248.23
766.131	21247.32
766.467	21201.67
766.804	21115.35
767.14	20984.96
767.476	20976.6
767.812	20955.58
768.148	20888.91
768.485	20845.3
768.821	20623.84
769.157	20646.21
769.492	20575.93
769.828	20584.29
770.164	20334.13
770.5	20395.37
770.836	20389.72
771.171	20275.14
771.507	20147.69
771.842	20027.47
772.178	19975.49
772.513	19953.12
772.849	19942.95
773.184	19814.37
773.519	19818.66
773.855	19672.67
774.19	19619.34
774.525	19599.23
774.86	19506.8
775.195	19503.41
775.53	19437.88
775.865	19335.28
776.2	19233.36
776.535	19081.96
776.87	19053.03
777.205	19078.57
777.539	18917.21
777.874	18956.54
778.209	18867.5
778.543	18793.38
778.878	18721.74
779.212	18601.74
779.547	18554.51
779.881	18530.78
780.215	18388.64
780.55	18425.48
780.884	18284.91
781.218	18248.08
781.552	18218.02
781.886	18209.44
782.22	18087.63
782.554	17987.07
782.888	17768.09
783.222	17813.06
783.556	17642.67
783.889	17657.13
784.223	17540.53
784.557	17581.66
784.89	17492.17
785.224	17455.11
785.557	17404.26
785.891	17312.51
786.224	17274.32
786.558	17241.55
786.891	17083.59
787.224	17076.36
787.557	16966.98
787.891	16943.03
788.224	16985.74
788.557	16856.93
788.89	16860.55
789.223	16729.02
789.556	16611.96
789.888	16618.74
790.221	16615.81
790.554	16346.89
790.887	16473.21
791.219	16401.57
791.552	16274.8
791.884	16234.57
792.217	16194.8
792.549	16182.6
792.882	16112.77
793.214	15979.44
793.546	15946.67
793.879	15835.49
794.211	15783.74
794.543	15892.89
794.875	15795.49
795.207	15792.55
795.539	15731.31
795.871	15736.28
796.203	15492.22
796.535	15419.68
796.867	15439.57
797.198	15354.6
797.53	15413.13
797.862	15234.6
798.193	15351.43
798.525	15205.45
798.856	15249.51
799.188	14983.53
799.519	15051.1
799.85	14933.36
800.182	14991.44
800.513	14939.92
800.844	14867.38
801.175	14929.07
801.506	14840.71
801.837	14774.27
802.168	14681.85
802.499	14675.97
802.83	14596.88
803.161	14621.06
803.491	14552.58
803.822	14512.81
804.153	14485.69
804.483	14329.76
804.814	14283.21
805.145	14221.29
805.475	14324.11
805.805	14205.02
806.136	14217.45
806.466	14235.98
806.796	14129.09
807.126	14007.97
807.457	13996.21
807.787	14015.87
808.117	13986.5
808.447	13922.77
808.777	13964.58
809.107	13897.91
809.436	13825.14
809.766	13797.8
810.096	13754.86
810.426	13731.81
810.755	13713.51
811.085	13648.43
811.414	13693.4
811.744	13560.75
812.073	13478.04
812.403	13473.52
812.732	13420.86
813.061	13440.97
813.39	13345.38
813.719	13264.26
814.049	13323.92
814.378	13329.56
814.707	13266.29
815.036	13269
815.365	13154.2
815.693	12997.37
816.022	13034.88
816.351	13024.26
816.68	12961.89
817.008	13010.25
817.337	12834.21
817.665	12803.02
817.994	12954.89
818.322	12882.57
818.651	12748.56
818.979	12686.19
819.307	12796.02
819.636	12730.26
819.964	12644.84
820.292	12635.57
820.62	12691.39
820.948	12527.33
821.276	12637.38
821.604	12656.81
821.932	12596.93
822.259	12534.11
822.587	12584.05
822.915	12571.84
823.243	12699.3
823.57	12541.34
823.898	12587.44
824.225	12590.15
824.553	12511.96
824.88	12558.96
825.207	12533.2
825.535	12534.78
825.862	12618.62
826.189	12498.4
826.516	12610.04
826.843	12668.34
827.17	12607.32
827.497	12604.39
827.824	12535.69
828.151	12458.4
828.478	12497.72
828.805	12561.22
829.131	12535.69
829.458	12478.51
829.785	12524.39
830.111	12511.96
830.438	12613.2
830.764	12511.51
831.09	12569.36
831.417	12435.58
831.743	12551.96
832.069	12484.62
832.395	12409.59
832.722	12484.39
833.048	12415.46
833.374	12461.11
833.7	12326.65
834.026	12434.45
834.351	12382.92
834.677	12365.07
835.003	12387.22
835.329	12390.38
835.654	12359.42
835.98	12272.42
836.306	12352.19
836.631	12219.54
836.956	12307.22
837.282	12321.23
837.607	12253.21
837.932	12224.96
838.258	12168.69
838.583	12219.31
838.908	12117.39
839.233	12144.06
839.558	12139.54
839.883	11998.53
840.208	11992.42
840.533	12037.17
840.858	12039.43
841.182	12002.37
841.507	11935.93
841.832	11847.34
842.156	11918.98
842.481	11865.65
842.805	11798.76
843.13	11835.14
843.454	11803.28
843.778	11748.59
844.103	11735.26
844.427	11764.86
844.751	11709.72
845.075	11679.21
845.399	11669.04
845.723	11567.58
846.047	11575.71
846.371	11492.32
846.695	11476.05
847.019	11463.63
847.343	11293.91
847.666	11279
847.99	11256.4
848.313	11261.14
848.637	11188.38
848.96	11151.77
849.284	11194.03
849.607	11032.22
849.931	11060.25
850.254	10963.07
850.577	10919.46
850.9	10863.41
851.223	10835.85
851.546	10712.01
851.869	10645.57
852.192	10718.79
852.515	10675.85
852.838	10638.56
853.161	10644.21
853.483	10521.28
853.806	10534.16
854.129	10436.76
854.451	10381.62
854.774	10382.52
855.096	10281.06
855.419	10321.73
855.741	10310.44
856.063	10180.72
856.385	10197.9
856.708	10134.62
857.03	10166.71
857.352	10150.67
857.674	10084.9
857.996	10172.59
858.318	9999.03
858.64	10002.42
858.961	10036.32
859.283	10023.66
859.605	9898.92
859.926	10003.55
860.248	9888.53
860.57	9844.23
860.891	9918.36
861.212	9807.62
861.534	9819.83
861.855	9721.98
862.176	9769.43
862.498	9714.74
862.819	9737.34
863.14	9682.43
863.461	9744.35
863.782	9664.35
864.103	9656.67
864.424	9593.17
864.745	9594.3
865.065	9541.87
865.386	9530.34
865.707	9512.26
866.027	9559.72
866.348	9471.14
866.668	9517.91
866.989	9434.53
867.309	9452.38
867.63	9409.44
867.95	9463
868.27	9388.65
868.59	9428.88
868.91	9394.3
869.23	9353.17
869.55	9293.51
869.87	9335.77
870.19	9284.47
870.51	9352.72
870.83	9338.71
871.15	9258.03
871.469	9232.95
871.789	9249.9
872.109	9240.41
872.428	9167.19
872.748	9223.46
873.067	9175.1
873.386	9216.9
873.706	9155.66
874.025	9131.48
874.344	9180.97
874.663	9079.96
874.982	9101.65
875.301	9094.42
875.62	9046.51
875.939	9013.97
876.258	9055.78
876.577	9010.58
876.896	8981.2
877.214	8958.38
877.533	8971.49
877.852	8923.35
878.17	8983.01
878.489	8968.78
878.807	8954.99
879.125	8901.43
879.444	8910.25
879.762	8841.55
880.08	8892.17
880.398	8834.09
880.716	8792.06
881.034	8818.5
881.352	8808.1
881.67	8710.48
881.988	8759.06
882.306	8715.45
882.624	8688.56
882.941	8704.83
883.259	8615.11
883.577	8636.81
883.894	8616.47
884.212	8574.89
884.529	8541.44
884.846	8639.74
885.164	8545.96
885.481	8555.23
885.798	8574.66
886.115	8466.87
886.432	8437.49
886.75	8397.94
887.067	8442.46
887.383	8404.5
887.7	8374.67
888.017	8357.27
888.334	8330.83
888.651	8363.37
888.967	8293.76
889.284	8291.28
889.6	8212.41
889.917	8192.75
890.233	8218.51
890.55	8169.93
890.866	8151.4
891.182	8158.85
891.498	8053.55
891.815	8040.21
892.131	8121.79
892.447	8062.36
892.763	7954.56
893.079	7987.11
893.395	7978.29
893.71	7884.51
894.026	7919.31
894.342	7922.93
894.657	7869.82
894.973	7846.77
895.289	7803.16
895.604	7803.16
895.92	7793.89
896.235	7736.94
896.55	7745.76
896.865	7732.88
897.181	7660.79
897.496	7730.84
897.811	7638.41
898.126	7580.34
898.441	7624.86
898.756	7627.34
899.071	7513.45
899.386	7529.94
899.7	7462.6
900.015	7433.45
900.33	7381.02
900.644	7338.54
900.959	7419.89
901.273	7320.23
901.588	7309.38
901.902	7282.27
902.216	7233.68
902.531	7214.92
902.845	7197.52
903.159	7164.3
903.473	7192.1
903.787	7089.05
904.101	7039.11
904.415	7078.2
904.729	7039.33
905.042	7033.91
905.356	7000.24
905.67	6955.95
905.984	6946.68
906.297	6956.62
906.611	6828.49
906.924	6863.97
907.237	6832.56
907.551	6809.06
907.864	6827.81
908.177	6784.65
908.491	6772.9
908.804	6661.27
909.117	6704.2
909.43	6614.04
909.743	6618.78
910.056	6653.13
910.368	6635.5
910.681	6599.57
910.994	6512.79
911.307	6563.41
911.619	6459.46
911.932	6471.89
912.244	6423.53
912.557	6411.33
912.869	6347.83
913.181	6385.57
913.494	6341.05
913.806	6281.39
914.118	6282.07
914.43	6216.31
914.742	6191
915.054	6147.15
915.366	6130.43
915.678	6128.4
915.99	6148.51
916.302	6092.24
916.613	6064.45
916.925	6059.47
917.236	6010.44
917.548	6024.9
917.859	6015.41
918.171	5941.74
918.482	5901.29
918.794	5901.96
919.105	5907.39
919.416	5803.43
919.727	5806.15
920.038	5829.42
920.349	5751.01
920.66	5713.27
920.971	5712.82
921.282	5696.09
921.593	5629.65
921.903	5672.36
922.214	5639.15
922.525	5599.15
922.835	5595.76
923.146	5497.45
923.456	5594.17
923.767	5515.76
924.077	5517.11
924.387	5488.42
924.697	5470.34
925.008	5472.37
925.318	5376.33
925.628	5455.2
925.938	5344.92
926.248	5329.32
926.558	5336.33
926.867	5315.31
927.177	5272.15
927.487	5232.6
927.796	5221.08
928.106	5226.28
928.416	5177.69
928.725	5165.71
929.034	5091.36
929.344	5122.32
929.653	5097.46
929.962	5070.35
930.271	5043
930.581	4987.41
930.89	5031.03
931.199	5033.06
931.508	5003
931.817	4930.01
932.125	4949.9
932.434	4904.93
932.743	4850.01
933.051	4869
933.36	4821.09
933.669	4848.43
933.977	4796
934.286	4796
934.594	4786.96
934.902	4718.27
935.21	4761.2
935.519	4703.35
935.827	4700.19
936.135	4633.3
936.443	4620.87
936.751	4630.13
937.059	4612.05
937.367	4560.53
937.674	4591.49
937.982	4572.51
938.29	4515.33
938.597	4525.73
938.905	4485.28
939.213	4450.02
939.52	4431.95
939.827	4496.58
940.135	4433.98
940.442	4375.68
940.749	4409.12
941.056	4376.13
941.363	4370.93
941.67	4323.93
941.977	4349.69
942.284	4297.71
942.591	4282.35
942.898	4261.55
943.205	4264.49
943.511	4192.86
943.818	4189.69
944.125	4172.29
944.431	4185.85
944.738	4139.3
945.044	4124.61
945.35	4118.06
945.657	4126.87
945.963	4053.42
946.269	4094.1
946.575	4015.23
946.881	4038.06
947.187	4043.03
947.493	4022.69
947.799	4013.43
948.105	3949.47
948.41	3941.79
948.716	3933.65
949.022	3857.05
949.327	3910.83
949.633	3897.72
949.938	3884.39
950.244	3834.9
950.549	3846.65
950.854	3810.49
951.16	3808.91
951.465	3802.13
951.77	3754.68
952.075	3700.21
952.38	3668.35
952.685	3727.11
952.99	3710.16
953.294	3655.92
953.599	3636.49
953.904	3671.74
954.209	3647.56
954.513	3610.05
954.818	3546.09
955.122	3575.47
955.426	3538.64
955.731	3517.85
956.035	3521.91
956.339	3521.91
956.643	3484.4
956.948	3520.78
957.252	3482.37
957.556	3427.45
957.86	3440.11
958.163	3426.1
958.467	3416.61
958.771	3403.95
959.075	3396.04
959.378	3325.08
959.682	3344.52
959.985	3319.43
960.289	3345.19
960.592	3340
960.896	3311.3
961.199	3270.17
961.502	3283.5
961.805	3243.95
962.108	3249.6
962.411	3229.94
962.714	3229.49
963.017	3203.96
963.32	3236.95
963.623	3191.98
963.926	3217.29
964.228	3144.75
964.531	3195.59
964.833	3107.46
965.136	3104.07
965.438	3071.53
965.741	3075.37
966.043	3071.76
966.345	3030.17
966.648	3050.06
966.95	3004.86
967.252	3035.82
967.554	3000.57
967.856	2977.07
968.158	3002.83
968.46	2978.42
968.761	2979.1
969.063	2942.49
969.365	2980.23
969.666	2928.26
969.968	2916.28
970.269	2905.66
970.571	2905.43
970.872	2868.14
971.174	2829.73
971.475	2856.39
971.776	2849.61
972.077	2819.11
972.378	2838.32
972.679	2821.82
972.98	2776.17
973.281	2766.45
973.582	2742.05
973.883	2767.13
974.183	2760.8
974.484	2732.33
974.785	2737.98
975.085	2725.32
975.386	2702.95
975.686	2665.44
975.986	2659.34
976.287	2657.75
976.587	2632.22
976.887	2611.88
977.187	2629.73
977.487	2589.96
977.787	2607.81
978.087	2614.37
978.387	2568.49
978.687	2581.82
978.987	2557.19
979.286	2553.8
979.586	2517.42
979.885	2523.75
980.185	2517.19
980.484	2512
980.784	2512.22
981.083	2482.39
981.382	2456.63
981.682	2458.44
981.981	2431.09
982.28	2457.08
982.579	2410.76
982.878	2418.44
983.177	2425.44
983.475	2403.52
983.774	2403.52
984.073	2363.53
984.372	2344.77
984.67	2352.45
984.969	2335.96
985.267	2320.59
985.566	2339.12
985.864	2309.29
986.162	2309.74
986.461	2297.31
986.759	2319.01
987.057	2276.07
987.355	2268.16
987.653	2266.13
987.951	2238.78
988.249	2198.78
988.547	2195.85
988.844	2211.44
989.142	2193.59
989.44	2204.21
989.737	2161.72
990.035	2158.56
990.332	2151.78
990.63	2149.07
990.927	2119.69
991.224	2144.55
991.521	2111.55
991.819	2114.04
992.116	2093.7
992.413	2086.7
992.71	2073.59
993.006	2072.91
993.303	2072.46
993.6	2087.83
993.897	2060.26
994.193	2032.46
994.49	2039.01
994.787	2059.8
995.083	2017.32
995.379	1982.52
995.676	2013.7
995.972	1983.42
996.268	1954.27
996.565	1936.87
996.861	1944.33
997.157	1949.3
997.453	1937.1
997.749	1945.68
998.044	1907.72
998.34	1926.02
998.636	1896.65
998.932	1884.22
999.227	1882.18
999.523	1876.98
999.818	1846.93
1000.114	1848.28
1000.409	1840.83
1000.704	1863.2
1001	1806.48
1001.295	1763.99
1001.59	1807.16
1001.885	1811
1002.18	1787.95
1002.475	1754.5
1002.77	1760.15
1003.065	1752.24
1003.359	1749.76
1003.654	1761.28
1003.949	1731.23
1004.243	1737.33
1004.538	1723.32
1004.832	1695.52
1005.127	1719.93
1005.421	1678.57
1005.715	1685.8
1006.009	1658.91
1006.304	1669.76
1006.598	1660.95
1006.892	1657.33
1007.186	1651.91
1007.48	1638.12
1007.773	1627.05
1008.067	1626.14
1008.361	1621.62
1008.655	1575.52
1008.948	1577.11
1009.242	1588.86
1009.535	1588.63
1009.829	1547.73
1010.122	1523.77
1010.415	1545.47
1010.708	1532.81
1011.001	1521.29
1011.295	1511.34
1011.588	1505.24
1011.881	1526.26
1012.173	1491.23
1012.466	1496.43
1012.759	1474.96
1013.052	1464.34
1013.344	1451.46
1013.637	1446.94
1013.93	1413.04
1014.222	1436.77
1014.514	1435.87
1014.807	1413.49
1015.099	1415.08
1015.391	1392.25
1015.683	1407.17
1015.976	1408.75
1016.268	1382.08
1016.56	1356.77
1016.851	1398.58
1017.143	1345.02
1017.435	1351.12
1017.727	1352.48
1018.018	1345.02
1018.31	1324.23
1018.602	1321.74
1018.893	1324.46
1019.185	1309.09
1019.476	1286.49
1019.767	1277
1020.058	1264.57
1020.35	1262.09
1020.641	1261.18
1020.932	1280.62
1021.223	1242.42
1021.514	1241.97
1021.804	1220.05
1022.095	1226.15
1022.386	1209.88
1022.677	1218.24
1022.967	1194.29
1023.258	1183.9
1023.548	1173.27
1023.839	1175.31
1024.129	1187.74
1024.419	1181.86
1024.709	1158.59
1025	1145.25
1025.29	1145.93
1025.58	1135.08
1025.87	1102.32
1026.16	1123.56
1026.449	1115.2
1026.739	1101.41
1027.029	1104.12
1027.319	1094.41
1027.608	1093.95
1027.898	1070
1028.187	1062.54
1028.477	1058.47
1028.766	1052.15
1029.055	1024.13
1029.344	1076.78
1029.634	1032.94
1029.923	1012.15
1030.212	1028.65
1030.501	1024.35
1030.79	1025.93
1031.078	983
1031.367	1001.53
1031.656	1009.44
1031.945	975.31
1032.233	993.84
1032.522	999.95
1032.81	972.15
1033.099	975.77
1033.387	979.83
1033.675	928.31
1033.963	971.47
1034.251	942.09
1034.54	904.13
1034.828	933.51
1035.116	924.92
1035.403	923.34
1035.691	911.36
1035.979	908.65
1036.267	909.1
1036.554	874.75
1036.842	894.41
1037.129	875.2
1037.417	862.77
1037.704	884.69
1037.992	859.84
1038.279	865.94
1038.566	860.06
1038.853	860.06
1039.14	860.06
