Data from hue_340_FLMS001491_81.txt Node
Date: Mon Feb 06 15:43:43 GMT 2017
User: dcchb
Spectrometer: FLMS00149
Trigger mode: 0
Integration Time (sec): 2.000000E-2
Scans to average: 10
Electric dark correction enabled: true
Nonlinearity correction enabled: false
Boxcar width: 0
XAxis mode: Wavelengths
Number of Pixels in Spectrum: 2048
>>>>>Begin Spectral Data<<<<<
341.393	-5.35
341.776	-5.35
342.16	-5.35
342.543	-58.46
342.927	-74.96
343.31	-49.65
343.693	-57.1
344.077	-58.68
344.46	-67.27
344.843	-39.48
345.226	-48.52
345.61	-20.49
345.993	-11.45
346.376	2.33
346.759	10.92
347.142	23.8
347.525	27.19
347.908	40.07
348.291	61.09
348.674	80.52
349.057	106.73
349.44	127.98
349.823	126.17
350.206	172.27
350.588	190.57
350.971	206.17
351.354	220.63
351.737	227.41
352.119	247.97
352.502	253.4
352.884	241.19
353.267	285.94
353.65	291.14
354.032	297.92
354.414	300.4
354.797	299.72
355.179	300.63
355.562	313.51
355.944	323.9
356.326	348.08
356.709	330.91
357.091	330.68
357.473	335.88
357.855	330.68
358.238	327.07
358.62	344.69
359.002	341.3
359.384	333.85
359.766	353.28
360.148	324.13
360.53	348.08
360.912	327.29
361.294	330.01
361.676	333.85
362.057	330.91
362.439	312.83
362.821	313.96
363.203	328.42
363.584	332.94
363.966	296.79
364.348	321.42
364.729	332.04
365.111	325.03
365.493	307.63
365.874	336.56
366.256	305.15
366.637	308.54
367.019	307.41
367.4	309.67
367.781	298.59
368.163	296.33
368.544	290.01
368.925	300.18
369.306	308.31
369.688	309.44
370.069	311.47
370.45	310.34
370.831	304.47
371.212	293.62
371.593	306.05
371.974	317.8
372.355	316.67
372.736	315.99
373.117	308.09
373.498	297.01
373.879	290.68
374.26	307.63
374.641	323.45
375.021	323.9
375.402	329.55
375.783	306.73
376.163	297.69
376.544	305.6
376.925	311.93
377.305	309.67
377.686	329.55
378.066	325.26
378.447	328.88
378.827	333.17
379.208	334.75
379.588	312.38
379.968	351.7
380.349	320.97
380.729	316.22
381.109	327.52
381.489	325.03
381.87	334.07
382.25	348.76
382.63	311.25
383.01	328.65
383.39	306.96
383.77	353.06
384.15	321.64
384.53	323.9
384.91	333.4
385.29	332.27
385.67	337.24
386.049	341.08
386.429	347.63
386.809	335.88
387.189	330.68
387.568	363.22
387.948	337.24
388.328	328.42
388.707	345.82
389.087	326.39
389.466	348.08
389.846	346.95
390.225	343.56
390.605	337.91
390.984	367.97
391.363	341.08
391.743	347.18
392.122	337.24
392.501	349.89
392.881	373.85
393.26	348.99
393.639	353.51
394.018	360.74
394.397	359.16
394.776	355.09
395.155	370.46
395.534	399.38
395.913	363.45
396.292	386.28
396.671	381.3
397.05	376.56
397.429	379.5
397.808	362.09
398.186	366.61
398.565	369.55
398.944	382.43
399.323	380.17
399.701	362.09
400.08	386.5
400.458	367.29
400.837	395.99
401.215	377.69
401.594	360.97
401.972	388.53
402.351	381.3
402.729	404.13
403.107	390.57
403.486	391.02
403.864	399.38
404.242	404.58
404.62	389.44
404.999	416.1
405.377	414.3
405.755	407.52
406.133	422.21
406.511	398.93
406.889	402.55
407.267	433.28
407.645	431.02
408.023	417.69
408.401	443.67
408.779	437.12
409.156	432.83
409.534	435.77
409.912	424.24
410.29	426.73
410.667	440.51
411.045	420.85
411.422	438.03
411.8	470.57
412.178	466.95
412.555	459.95
412.933	456.56
413.31	495.2
413.687	466.5
414.065	448.19
414.442	483.67
414.819	497.01
415.197	483.45
415.574	470.11
415.951	495.65
416.328	475.99
416.705	534.97
417.082	504.46
417.46	520.28
417.837	527.51
418.214	532.94
418.591	522.99
418.967	518.48
419.344	532.49
419.721	542.66
420.098	530.23
420.475	559.83
420.852	542.43
421.228	549.89
421.605	557.34
421.982	578.13
422.358	562.77
422.735	580.85
423.111	557.34
423.488	573.84
423.864	593.73
424.241	559.83
424.617	599.83
424.994	608.42
425.37	581.3
425.746	608.64
426.123	614.74
426.499	616.33
426.875	611.81
427.251	602.31
427.627	611.35
428.003	639.6
428.379	637.57
428.756	642.77
429.132	645.03
429.507	659.04
429.883	664.91
430.259	671.01
430.635	689.32
431.011	680.96
431.387	687.28
431.763	692.03
432.138	704.23
432.514	698.81
432.89	701.97
433.265	700.17
433.641	698.81
434.016	725.93
434.392	734.74
434.767	758.02
435.143	745.14
435.518	745.81
435.894	758.24
436.269	751.69
436.644	777.23
437.02	778.36
437.395	784.91
437.77	799.15
438.145	779.94
438.52	796.89
438.895	802.54
439.271	792.82
439.646	838.69
440.021	819.71
440.395	834.4
440.77	829.43
441.145	839.14
441.52	831.46
441.895	835.98
442.27	834.62
442.645	856.09
443.019	868.97
443.394	865.13
443.769	871.46
444.143	847.51
444.518	872.82
444.892	901.74
445.267	895.41
445.641	867.39
446.016	902.19
446.39	900.84
446.764	883.66
447.139	902.65
447.513	885.92
447.887	902.19
448.262	937.67
448.636	906.04
449.01	902.65
449.384	941.74
449.758	920.72
450.132	938.8
450.506	928.63
450.88	933.38
451.254	942.19
451.628	968.63
452.002	972.47
452.376	959.14
452.75	966.6
453.123	971.12
453.497	974.28
453.871	984.23
454.244	994.62
454.618	1002.76
454.992	1004.56
455.365	994.62
455.739	1023.55
456.112	1032.59
456.486	1025.13
456.859	1041.85
457.232	1075.52
457.606	1060.61
457.979	1090.21
458.352	1081.85
458.725	1124.79
459.099	1111.68
459.472	1132.7
459.845	1141.74
460.218	1125.01
460.591	1150.32
460.964	1125.46
461.337	1146.48
461.71	1168.4
462.083	1177.21
462.456	1175.86
462.829	1185.35
463.201	1211.56
463.574	1211.11
463.947	1240.04
464.32	1237.33
464.692	1261.05
465.065	1276.87
465.438	1281.17
465.81	1264.67
466.183	1333.59
466.555	1315.97
466.928	1342.63
467.3	1337.44
467.672	1351
468.045	1381.28
468.417	1379.92
468.789	1352.13
469.161	1414.04
469.534	1413.82
469.906	1438
470.278	1484.33
470.65	1476.42
471.022	1490.2
471.394	1500.37
471.766	1521.16
472.138	1558.67
472.51	1564.1
472.882	1561.16
473.253	1599.12
473.625	1604.32
473.997	1638.67
474.369	1665.11
474.74	1678.9
475.112	1711.66
475.484	1708.5
475.855	1758.67
476.227	1762.74
476.598	1821.27
476.97	1823.3
477.341	1868.95
477.713	1886.8
478.084	1870.53
478.455	1925.9
478.827	1920.92
479.198	2001.83
479.569	1990.07
479.94	2046.34
480.311	2059.23
480.682	2082.95
481.053	2118.43
481.424	2164.08
481.795	2171.54
482.166	2219.67
482.537	2211.76
482.908	2267.81
483.279	2288.82
483.65	2326.11
484.021	2366.11
484.391	2419.67
484.762	2423.96
485.133	2455.83
485.503	2491.98
485.874	2543.96
486.244	2564.52
486.615	2586.9
486.985	2634.58
487.356	2651.75
487.726	2716.61
488.097	2762.48
488.467	2722.94
488.837	2824.4
489.207	2816.27
489.578	2854.01
489.948	2906.43
490.318	2919.54
490.688	2929.26
491.058	2938.98
491.428	3011.74
491.798	3032.53
492.168	3102.36
492.538	3110.5
492.908	3173.32
493.278	3197.27
493.648	3196.6
494.017	3232.98
494.387	3252.41
494.757	3305.52
495.126	3320.66
495.496	3336.71
495.866	3336.71
496.235	3366.08
496.605	3395.24
496.974	3402.47
497.344	3490.37
497.713	3486.31
498.082	3477.49
498.452	3477.95
498.821	3551.16
499.19	3535.57
499.559	3590.71
499.928	3599.07
500.298	3592.74
500.667	3653.76
501.036	3647.43
501.405	3649.47
501.774	3653.76
502.143	3709.13
502.512	3723.14
502.88	3760.65
503.249	3760.2
503.618	3784.83
503.987	3810.37
504.356	3787.09
504.724	3831.38
505.093	3806.52
505.462	3828.44
505.83	3862.12
506.199	3910.7
506.567	3946.18
506.936	3952.96
507.304	4004.03
507.672	3953.41
508.041	4010.59
508.409	4015.78
508.777	4056.46
509.145	4073.41
509.514	4078.16
509.882	4090.58
510.25	4091.26
510.618	4112.73
510.986	4074.99
511.354	4134.43
511.722	4140.53
512.09	4172.84
512.458	4257.13
512.826	4227.08
513.193	4212.84
513.561	4249
513.929	4251.94
514.297	4285.61
514.664	4298.71
515.032	4270.92
515.4	4323.12
515.767	4323.8
516.135	4328.09
516.502	4354.98
516.869	4349.11
517.237	4385.72
517.604	4350.01
517.972	4400.41
518.339	4427.07
518.706	4409.45
519.073	4479.5
519.44	4493.06
519.808	4523.79
520.175	4505.71
520.542	4537.8
520.909	4553.62
521.276	4552.72
521.643	4582.77
522.009	4595.43
522.376	4606.28
522.743	4622.1
523.11	4703.9
523.477	4686.73
523.843	4714.97
524.21	4796.33
524.577	4783.22
524.943	4796.55
525.31	4792.71
525.676	4815.99
526.043	4875.87
526.409	4864.12
526.776	4945.93
527.142	4886.95
527.508	4932.6
527.874	4966.04
528.241	5051.01
528.607	5020.28
528.973	5068.19
529.339	5041.52
529.705	5149.77
530.071	5160.16
530.437	5140.27
530.803	5163.1
531.169	5204.23
531.535	5158.58
531.901	5226.6
532.267	5230.67
532.632	5273.6
532.998	5284.45
533.364	5279.25
533.73	5307.95
534.095	5340.95
534.461	5375.52
534.826	5399.25
535.192	5406.03
535.557	5456.2
535.923	5455.29
536.288	5446.93
536.653	5462.75
537.019	5503.43
537.384	5485.35
537.749	5538
538.114	5576.87
538.479	5583.2
538.845	5618.45
539.21	5645.12
539.575	5646.93
539.94	5681.28
540.305	5695.29
540.67	5726.93
541.034	5742.07
541.399	5803.76
541.764	5822.97
542.129	5794.49
542.494	5887.15
542.858	5855.51
543.223	5901.16
543.587	5934.83
543.952	5977.99
544.316	5940.25
544.681	5924.43
545.045	5950.65
545.41	6025.45
545.774	6086.24
546.138	6063.64
546.503	6050.98
546.867	6056.63
547.231	6133.92
547.595	6168.72
547.959	6189.51
548.324	6204.43
548.688	6164.2
549.052	6234.03
549.416	6213.01
549.779	6240.81
550.143	6251.88
550.507	6307.7
550.871	6324.2
551.235	6352.22
551.599	6399.9
551.962	6406.91
552.326	6424.76
552.689	6454.36
553.053	6474.93
553.417	6461.82
553.78	6512.22
554.143	6493.23
554.507	6474.02
554.87	6598.32
555.234	6589.73
555.597	6588.82
555.96	6622.95
556.323	6620.69
556.686	6658.2
557.05	6692.32
557.413	6633.79
557.776	6667.47
558.139	6775.03
558.502	6761.02
558.865	6748.37
559.228	6783.4
559.59	6822.26
559.953	6823.17
560.316	6916.05
560.679	6895.71
561.041	6949.04
561.404	6957.85
561.767	6980
562.129	6982.03
562.492	7011.64
562.854	7017.74
563.217	7031.75
563.579	7071.75
563.941	7152.42
564.304	7134.8
564.666	7222.03
565.028	7182.25
565.39	7192.42
565.753	7222.48
566.115	7279.65
566.477	7259.54
566.839	7282.37
567.201	7318.75
567.563	7380.67
567.925	7385.19
568.287	7382.02
568.648	7405.98
569.01	7441.68
569.372	7537.95
569.734	7501.79
570.095	7529.14
570.457	7560.78
570.819	7650.04
571.18	7628.12
571.542	7711.73
571.903	7818.85
572.265	7797.15
572.626	7805.52
572.987	7804.39
573.349	7844.38
573.71	7907.89
574.071	7978.17
574.432	7937.49
574.794	8070.37
575.155	8132.29
575.516	8127.99
575.877	8243.92
576.238	8225.17
576.599	8302
576.96	8330.47
577.32	8405.95
577.681	8523.91
578.042	8617.7
578.403	8667.87
578.763	8713.74
579.124	8849.33
579.485	8944.24
579.845	9031.7
580.206	9101.53
580.566	9249.54
580.927	9269.66
581.287	9414.96
581.648	9551.01
582.008	9734.96
582.368	9887.49
582.728	9973.59
583.089	10095.85
583.449	10227.15
583.809	10381.04
584.169	10590.07
584.529	10608.38
584.889	10865.32
585.249	11017.41
585.609	11115.48
585.969	11437.06
586.329	11593.44
586.688	11747.78
587.048	12038.62
587.408	12150.71
587.768	12324.27
588.127	12561.32
588.487	12806.51
588.846	13071.37
589.206	13258.93
589.565	13405.14
589.925	13718.13
590.284	13969.42
590.643	14313.59
591.003	14475.62
591.362	14842.62
591.721	14929.85
592.08	15178.43
592.44	15557.63
592.799	15702.71
593.158	15954.45
593.517	16335.69
593.876	16597.83
594.235	16860.19
594.593	17096.8
594.952	17535.65
595.311	17637.35
595.67	18012.25
596.029	18361.62
596.387	18648.85
596.746	18943.98
597.104	19101.94
597.463	19334.7
597.822	19756.16
598.18	19942.82
598.538	20249.26
598.897	20590.49
599.255	20618.96
599.613	21214.43
599.972	21440.64
600.33	21780.97
600.688	21935.09
601.046	22244.68
601.404	22606.03
601.762	22759.25
602.12	23231.78
602.478	23410.3
602.836	23616.4
603.194	23861.59
603.552	24056.39
603.91	24295.93
604.268	24575.92
604.625	24727.56
604.983	25136.81
605.341	25173.65
605.698	25543.58
606.056	25833.06
606.413	26025.6
606.771	26329.55
607.128	26572.71
607.485	26762.76
607.843	26851.12
608.2	27251.56
608.557	27545.11
608.914	27558.89
609.272	27994.81
609.629	28151.65
609.986	28416.72
610.343	28510.06
610.7	28877.96
611.057	28949.37
611.414	29093.09
611.771	29433.87
612.127	29646.75
612.484	29744.15
612.841	30081.99
613.198	30108.66
613.554	30198.15
613.911	30592.71
614.267	30780.05
614.624	30847.85
614.98	30923.55
615.337	31292.58
615.693	31355.86
616.05	31534.83
616.406	31872
616.762	31851.21
617.118	31930.98
617.475	32010.75
617.831	32223.18
618.187	32487.13
618.543	32604.19
618.899	32877.85
619.255	32856.38
619.611	32967.57
619.967	33281.23
620.323	33318.52
620.678	33349.02
621.034	33390.61
621.39	33566.65
621.746	33598.96
622.101	34201.66
622.457	33827.88
622.812	34003.47
623.168	34049.57
623.523	34261.09
623.879	34395.1
624.234	34203.69
624.589	34492.95
624.945	34565.04
625.3	34562.55
625.655	34855.43
626.01	34735.88
626.365	34933.62
626.72	34965.48
627.075	34871.24
627.43	34973.84
627.785	34990.34
628.14	35097.45
628.495	35257.22
628.85	35253.15
629.205	35278.01
629.559	35494.05
629.914	35323.89
630.269	35490.89
630.623	35455.18
630.978	35453.6
631.332	35708.96
631.687	35614.05
632.041	35633.26
632.396	35740.37
632.75	35590.32
633.104	35568.17
633.459	35486.82
633.813	35533.83
634.167	35612.02
634.521	35620.83
634.875	35788.51
635.229	35577.67
635.583	35594.39
635.937	35608.17
636.291	35614.73
636.645	35712.13
636.999	35630.32
637.352	35701.5
637.706	35624.9
638.06	35831.67
638.413	35631
638.767	35741.28
639.121	35719.36
639.474	35510.1
639.828	35529.08
640.181	35642.98
640.534	35650.66
640.888	35583.54
641.241	35309.2
641.594	35490.44
641.947	35667.61
642.301	35669.64
642.654	35559.81
643.007	35582.64
643.36	35597.33
643.713	35539.7
644.066	35656.31
644.419	35467.61
644.771	35134.29
645.124	34819.72
645.477	34925.03
645.83	34652.72
646.182	34534.53
646.535	34493.17
646.888	34521.65
647.24	34225.16
647.593	34619.73
647.945	34563.91
648.298	34303.58
648.65	34314.2
649.002	34320.52
649.355	34460.18
649.707	34270.13
650.059	34437.13
650.411	35017
650.763	34927.29
651.115	35345.81
651.467	35236.66
651.819	35259.48
652.171	35037.57
652.523	35079.6
652.875	35059.71
653.227	34841.64
653.578	35167.06
653.93	35062.88
654.282	35005.7
654.633	34897.01
654.985	35049.54
655.337	35033.05
655.688	34993.95
656.039	35078.02
656.391	34792.15
656.742	34859.72
657.094	34793.73
657.445	35048.64
657.796	34944.91
658.147	35005.93
658.498	34854.52
658.849	34813.62
659.2	34788.53
659.551	34761.87
659.902	35007.29
660.253	34827.18
660.604	34856.33
660.955	34752.6
661.306	34878.7
661.656	34814.75
662.007	34748.76
662.358	34648.65
662.708	34781.08
663.059	34714.19
663.409	34621.99
663.76	34738.82
664.11	34787.63
664.461	34724.36
664.811	34668.76
665.161	34684.36
665.511	34678.93
665.862	34748.99
666.212	34811.81
666.562	34840.74
666.912	34780.85
667.262	34701.76
667.612	34690.23
667.962	34775.2
668.312	34732.49
668.662	34762.55
669.011	34570.69
669.361	34526.85
669.711	34597.58
670.06	34502.89
670.41	34521.65
670.76	34411.82
671.109	34654.3
671.459	34681.19
671.808	34569.11
672.157	34620.63
672.507	34374.99
672.856	34390.58
673.205	34445.27
673.554	34549.22
673.904	34467.64
674.253	34609.56
674.602	34555.55
674.951	33873.08
675.3	33853.42
675.649	34402.78
675.998	34254.76
676.346	34456.79
676.695	34524.81
677.044	34216.35
677.393	34325.27
677.741	34385.83
678.09	34233.29
678.438	34226.74
678.787	34260.64
679.135	34370.92
679.484	34074.43
679.832	34110.36
680.181	33969.35
680.529	34032.85
680.877	33970.02
681.225	33967.09
681.573	34146.97
681.922	33808
682.27	33813.64
682.618	33749.69
682.966	33673.54
683.314	33810.48
683.661	33681.44
684.009	33529.81
684.357	33400.55
684.705	33484.61
685.053	33513.09
685.4	33432.86
685.748	33264.73
686.095	33326.88
686.443	33182.25
686.79	33040.56
687.138	33173.21
687.485	33044.63
687.832	33044.63
688.18	32982.03
688.527	32753.56
688.874	32827
689.221	32707.01
689.568	32723.28
689.915	32563.28
690.262	32648.93
690.609	32515.37
690.956	32393.57
691.303	32468.6
691.65	32215.04
691.997	32095.27
692.344	32127.14
692.69	32127.81
693.037	32064.76
693.383	31708.62
693.73	31983.18
694.077	31736.64
694.423	31796.52
694.769	31728.28
695.116	31598.79
695.462	31657.32
695.808	31448.51
696.155	31467.49
696.501	31244.45
696.847	31173.04
697.193	30978.47
697.539	31092.59
697.885	30929.88
698.231	30845.14
698.577	30899.15
698.923	30846.49
699.269	30703.44
699.614	30600.17
699.96	30545.26
700.306	30499.38
700.651	30402.44
700.997	30302.32
701.342	30241.76
701.688	30249.44
702.033	30031.82
702.379	30102.56
702.724	29889.23
703.069	29902.79
703.415	29712.51
703.76	29671.61
704.105	29721.32
704.45	29504.38
704.795	29453.99
705.14	29416.92
705.485	29336.47
705.83	29285.85
706.175	29382.57
706.52	29329.47
706.865	29179.42
707.209	29159.08
707.554	29000.89
707.899	29067.33
708.243	28853.55
708.588	28864.85
708.932	28731.29
709.277	28622.14
709.621	28666.89
709.966	28551.41
710.31	28587.12
710.654	28349.16
710.998	28279.33
711.342	28338.76
711.687	28318.87
712.031	28152.55
712.375	28074.81
712.719	28117.3
713.063	27936.06
713.407	28136.05
713.75	27886.57
714.094	27948.26
714.438	27719.57
714.782	27907.59
715.125	27694.03
715.469	27682.73
715.812	27613.13
716.156	27480.7
716.499	27487.26
716.843	27488.39
717.186	27271.44
717.53	27336.98
717.873	27358.45
718.216	27383.08
718.559	27173.37
718.902	27022.18
719.246	27182.41
719.589	27123.88
719.932	26929.31
720.275	27031.9
720.617	26809.54
720.96	26862.19
721.303	26797.56
721.646	26821.29
721.989	26633.95
722.331	26807.5
722.674	26646.6
723.016	26626.26
723.359	26567.06
723.701	26630.56
724.044	26356.44
724.386	26319.15
724.729	26436.66
725.071	26411.13
725.413	26385.82
725.755	26350.79
726.097	26269.44
726.439	26066.5
726.782	26082.77
727.124	26202.32
727.465	25995.77
727.807	26102.66
728.149	25860.18
728.491	25908.99
728.833	25918.94
729.175	25812.05
729.516	25847.75
729.858	25818.37
730.199	25777.47
730.541	25775.44
730.882	25690.92
731.224	25671.71
731.565	25514.2
731.906	25574.09
732.248	25545.84
732.589	25484.82
732.93	25289.8
733.271	25299.97
733.612	25367.09
733.953	25342.23
734.294	25229.92
734.635	25212.97
734.976	25303.81
735.317	25174.32
735.658	24993.99
735.999	25146.3
736.339	25013.2
736.68	25142.46
737.021	25054.78
737.361	24939.53
737.702	25079.64
738.042	25022.01
738.383	24803.26
738.723	24966.87
739.063	24896.82
739.404	25015.46
739.744	24903.37
740.084	24684.39
740.424	24598.07
740.764	24628.8
741.104	24754.67
741.444	24672.19
741.784	24463.83
742.124	24570.05
742.464	24485.53
742.804	24462.48
743.143	24409.37
743.483	24427
743.823	24344.74
744.162	24359.66
744.502	24348.36
744.841	24138.87
745.181	24315.59
745.52	24184.29
745.86	24173.45
746.199	24105.65
746.538	24177.29
746.877	24187.01
747.216	24083.51
747.556	24069.72
747.895	24053.68
748.234	23866.11
748.573	23791.08
748.911	23812.55
749.25	23827.92
749.589	23625.66
749.928	23707.24
750.267	23778.2
750.605	23617.98
750.944	23532.56
751.283	23556.51
751.621	23539.56
751.96	23448.72
752.298	23407.82
752.636	23464.31
752.975	23295.96
753.313	23095.06
753.651	23396.07
753.989	23128.95
754.327	23258.44
754.666	23122.85
755.004	23044.21
755.342	23042.85
755.679	23024.78
756.017	22876.31
756.355	22954.04
756.693	22767.38
757.031	22843.09
757.368	22777.55
757.706	22706.59
758.044	22701.17
758.381	22680.15
758.719	22504.34
759.056	22507.05
759.394	22516.99
759.731	22325.59
760.068	22353.83
760.405	22256.89
760.743	22122.65
761.08	22283.55
761.417	22018.02
761.754	21941.64
762.091	22036.1
762.428	21946.61
762.765	21736.22
763.102	21800.4
763.438	21750.01
763.775	21663.68
764.112	21597.24
764.449	21612.61
764.785	21430.92
765.122	21294.43
765.458	21282.45
765.795	21192.73
766.131	21223.47
766.467	21113.19
766.804	20998.16
767.14	20914.32
767.476	20912.29
767.812	20823.03
768.148	20790.71
768.485	20642.24
768.821	20686.98
769.157	20699.19
769.492	20517.95
769.828	20439.99
770.164	20358.86
770.5	20309.59
770.836	20268.24
771.171	20091.75
771.507	20108.92
771.842	19990.28
772.178	20021.01
772.513	19930.62
772.849	19833.22
773.184	19794.13
773.519	19745.31
773.855	19695.37
774.19	19550.74
774.525	19599.33
774.86	19543.06
775.195	19420.58
775.53	19301.26
775.865	19229.4
776.2	19150.53
776.535	19100.13
776.87	18990.98
777.205	18885.45
777.539	18809.29
777.874	18831.89
778.209	18700.37
778.543	18671.9
778.878	18484.78
779.212	18554.39
779.547	18462.86
779.881	18541.05
780.215	18335.86
780.55	18367.72
780.884	18404.33
781.218	18140.38
781.552	18147.84
781.886	18099.26
782.22	17953.72
782.554	17946.49
782.888	17763.67
783.222	17696.55
783.556	17708.08
783.889	17634.64
784.223	17494.3
784.557	17440.52
784.89	17456.33
785.224	17414.98
785.557	17325.26
785.891	17327.3
786.224	17249.11
786.558	17252.27
786.891	17062.22
787.224	16929.34
787.557	16829.01
787.891	16976.8
788.224	16890.47
788.557	16869.23
788.89	16825.39
789.223	16806.63
789.556	16578.39
789.888	16585.85
790.221	16500.43
790.554	16428.79
790.887	16446.64
791.219	16334.56
791.552	16273.99
791.884	16213.66
792.217	16161.91
792.549	16119.87
792.882	16043.72
793.214	15934.11
793.546	16107.9
793.879	15915.58
794.211	15687.34
794.543	15855.92
794.875	15784.97
795.207	15718.3
795.539	15670.39
795.871	15615.71
796.203	15547.91
796.535	15420.23
796.867	15429.27
797.198	15311.98
797.53	15325.77
797.862	15307.01
798.193	15196.73
798.525	15195.38
798.856	15182.04
799.188	15002.61
799.519	14906.12
799.85	14882.17
800.182	14935.05
800.513	14944.08
800.844	14745.9
801.175	14819.12
801.506	14794.48
801.837	14715.16
802.168	14657.54
802.499	14589.07
802.83	14534.38
803.161	14481.5
803.491	14556.3
803.822	14575.51
804.153	14476.53
804.483	14300.03
804.814	14292.35
805.145	14208.96
805.475	14255.74
805.805	14200.38
806.136	14129.42
806.466	14176.87
806.796	14104.78
807.126	14037.22
807.457	13932.36
807.787	13951.12
808.117	13916.99
808.447	13912.93
808.777	13923.09
809.107	13790.67
809.436	13778.69
809.766	13696.43
810.096	13710.22
810.426	13636.77
810.755	13611.46
811.085	13575.08
811.414	13568.75
811.744	13469.32
812.073	13431.58
812.403	13419.6
812.732	13355.88
813.061	13306.84
813.39	13264.13
813.719	13214.19
814.049	13274.75
814.378	13199.5
814.707	13174.64
815.036	13182.32
815.365	13132.15
815.693	13017.36
816.022	12987.98
816.351	12997.24
816.68	12880.41
817.008	12910.01
817.337	12831.15
817.665	12821.2
817.994	12812.16
818.322	12874.99
818.651	12774.88
818.979	12680.42
819.307	12724.71
819.636	12738.49
819.964	12607.87
820.292	12660.75
820.62	12605.16
820.948	12627.08
821.276	12643.58
821.604	12568.55
821.932	12649.68
822.259	12560.19
822.587	12626.86
822.915	12491.72
823.243	12625.5
823.57	12483.36
823.898	12501.66
824.225	12576.46
824.553	12505.96
824.88	12509.35
825.207	12568.33
825.535	12513.41
825.862	12572.4
826.189	12472.51
826.516	12514.54
826.843	12558.38
827.17	12531.72
827.497	12520.42
827.824	12525.17
828.151	12601.32
828.478	12429.35
828.805	12521.55
829.131	12479.97
829.458	12459.86
829.785	12399.52
830.111	12431.83
830.438	12476.13
830.764	12458.95
831.09	12514.77
831.417	12409.69
831.743	12444.72
832.069	12437.03
832.395	12383.7
832.722	12460.76
833.048	12395.68
833.374	12359.29
833.7	12248.79
834.026	12362.01
834.351	12376.92
834.677	12295.57
835.003	12341.44
835.329	12287.43
835.654	12316.58
835.98	12303.25
836.306	12279.07
836.631	12238.39
836.956	12285.62
837.282	12232.97
837.607	12177.15
837.932	12091.96
838.258	12220.77
838.583	12178.51
838.908	12082.46
839.233	12097.61
839.558	12095.12
839.883	12032.3
840.208	12045.4
840.533	11988.23
840.858	11963.82
841.182	11958.17
841.507	11922.69
841.832	11855.13
842.156	11851.51
842.481	11924.05
842.805	11829.82
843.13	11795.47
843.454	11839.31
843.778	11744.17
844.103	11758.18
844.427	11679.54
844.751	11701.01
845.075	11644.96
845.399	11681.35
845.723	11554.8
846.047	11645.19
846.371	11441.13
846.695	11526.55
847.019	11397.51
847.343	11252.2
847.666	11289.27
847.99	11188.48
848.313	11248.36
848.637	11127.69
848.96	11106.22
849.284	11047.69
849.607	11105.09
849.931	11066.67
850.254	10997.07
850.577	10861.71
850.9	10719.79
851.223	10893.34
851.546	10661.49
851.869	10649.28
852.192	10675.95
852.515	10672.56
852.838	10539.45
853.161	10556.18
853.483	10523.18
853.806	10539.91
854.129	10468.72
854.451	10458.78
854.774	10406.8
855.096	10317.54
855.419	10313.02
855.741	10163.87
856.063	10256.75
856.385	10197.09
856.708	10099.92
857.03	10184.21
857.352	10093.59
857.674	10133.59
857.996	10008.4
858.318	10009.75
858.64	10045.23
858.961	9963.42
859.283	9943.09
859.605	9865.57
859.926	9873.48
860.248	9882.97
860.57	9872.35
860.891	9799.36
861.212	9803.65
861.534	9768.4
861.855	9760.27
862.176	9807.27
862.498	9723.2
862.819	9760.72
863.14	9682.08
863.461	9664.45
863.782	9650.89
864.103	9582.19
864.424	9633.04
864.745	9613.38
865.065	9627.61
865.386	9478.69
865.707	9543.32
866.027	9527.5
866.348	9464.23
866.668	9449.31
866.989	9484.79
867.309	9317.11
867.63	9464.45
867.95	9412.03
868.27	9335.87
868.59	9351.01
868.91	9391.91
869.23	9326.15
869.55	9308.98
869.87	9303.55
870.19	9294.52
870.51	9263.78
870.83	9337
871.15	9232.14
871.469	9219.72
871.789	9251.58
872.109	9199.38
872.428	9140.62
872.748	9247.96
873.067	9195.76
873.386	9167.51
873.706	9137.68
874.025	9123.45
874.344	9116.22
874.663	9097.68
874.982	9098.81
875.301	9045.26
875.62	9006.16
875.939	9031.25
876.258	9030.79
876.577	8931.59
876.896	8967.52
877.214	8904.02
877.533	9006.16
877.852	8954.64
878.17	8943.79
878.489	8925.03
878.807	8885.03
879.125	8900.18
879.444	8892.72
879.762	8858.37
880.08	8850.23
880.398	8748.32
880.716	8819.95
881.034	8830.35
881.352	8770.46
881.67	8677.36
881.988	8737.47
882.306	8660.41
882.624	8624.02
882.941	8519.62
883.259	8648.66
883.577	8607.08
883.894	8527.98
884.212	8596
884.529	8518.49
884.846	8548.09
885.164	8438.04
885.481	8484.37
885.798	8431.71
886.115	8470.81
886.432	8410.7
886.75	8462.45
887.067	8389.45
887.383	8348.78
887.7	8452.5
888.017	8315.11
888.334	8368.89
888.651	8330.7
888.967	8352.39
889.284	8299.97
889.6	8244.6
889.917	8166.41
890.233	8215.22
890.55	8192.85
890.866	8179.29
891.182	8162.57
891.498	8132.51
891.815	8117.37
892.131	8069.46
892.447	8121.89
892.763	7996.24
893.079	7983.59
893.395	7929.13
893.71	7931.39
894.026	7929.58
894.342	7880.77
894.657	7807.1
894.973	7824.05
895.289	7783.37
895.604	7772.52
895.92	7746.31
896.235	7723.71
896.55	7714.22
896.865	7713.31
897.181	7696.59
897.496	7668.12
897.811	7591.28
898.126	7540.66
898.441	7603.49
898.756	7524.17
899.071	7483.49
899.386	7524.84
899.7	7426.99
900.015	7361.46
900.33	7368.46
900.644	7302.93
900.959	7332.76
901.273	7292.31
901.588	7309.03
901.902	7245.53
902.216	7194.46
902.531	7193.55
902.845	7229.49
903.159	7163.5
903.473	7183.84
903.787	7079.43
904.101	7040.11
904.415	7129.6
904.729	7038.3
905.042	7039.66
905.356	6956.05
905.67	7009.6
905.984	6944.52
906.297	6888.25
906.611	6891.87
906.924	6889.61
907.237	6868.82
907.551	6780.46
907.864	6765.99
908.177	6777.75
908.491	6763.28
908.804	6673.57
909.117	6686
909.43	6673.79
909.743	6655.26
910.056	6628.14
910.368	6571.65
910.681	6498.66
910.994	6565.1
911.307	6496.4
911.619	6486.91
911.932	6476.06
912.244	6434.93
912.557	6424.31
912.869	6358.77
913.181	6303.41
913.494	6340.69
913.806	6283.75
914.118	6281.71
914.43	6203.75
914.742	6199.23
915.054	6166.24
915.366	6167.82
915.678	6136.41
915.99	6109.97
916.302	6118.1
916.613	6095.73
916.925	6039.91
917.236	6042.62
917.548	5975.96
917.859	6019.8
918.171	5933.93
918.482	5906.13
918.794	5890.31
919.105	5865
919.416	5825.91
919.727	5815.96
920.038	5798.56
920.349	5801.27
920.66	5747.04
920.971	5728.96
921.282	5681.5
921.593	5677.44
921.903	5688.06
922.214	5654.16
922.525	5644.44
922.835	5542.98
923.146	5522.86
923.456	5506.14
923.767	5534.61
924.077	5505.24
924.387	5483.54
924.697	5437.67
925.008	5441.28
925.318	5409.19
925.628	5429.53
925.938	5355.86
926.248	5308.41
926.558	5257.79
926.867	5335.75
927.177	5300.72
927.487	5234.74
927.796	5237.67
928.106	5222.76
928.416	5162.65
928.725	5130.78
929.034	5124
929.344	5098.02
929.653	5096.21
929.962	5032.71
930.271	5113.38
930.581	5028.64
930.89	5039.71
931.199	4962.88
931.508	4931.01
931.817	4974.86
932.125	4928.75
932.434	4932.6
932.743	4849.89
933.051	4875.65
933.36	4809.66
933.669	4804.92
933.977	4791.58
934.286	4804.69
934.594	4757.69
934.902	4721.75
935.21	4721.3
935.519	4724.47
935.827	4651.25
936.135	4713.84
936.443	4625.94
936.751	4607.63
937.059	4569.67
937.367	4545.94
937.674	4581.19
937.982	4581.87
938.29	4537.13
938.597	4528.77
938.905	4521.53
939.213	4413.97
939.52	4461.42
939.827	4462.78
940.135	4370.35
940.442	4407.19
940.749	4368.09
941.056	4387.98
941.363	4254.87
941.67	4321.31
941.977	4257.13
942.284	4269.34
942.591	4265.04
942.898	4194.76
943.205	4251.03
943.511	4241.77
943.818	4206.74
944.125	4163.8
944.431	4150.47
944.738	4174.65
945.044	4134.2
945.35	4141.2
945.657	4064.14
945.963	4053.75
946.269	4046.29
946.575	4047.65
946.881	4017.14
947.187	3998.84
947.493	3976.92
947.799	3936.01
948.105	3967.65
948.41	3927.65
948.716	3919.97
949.022	3909.35
949.327	3887.88
949.633	3837.03
949.938	3857.6
950.244	3832.29
950.549	3803.36
950.854	3795
951.16	3798.16
951.465	3763.36
951.77	3713.42
952.075	3759.07
952.38	3746.86
952.685	3746.64
952.99	3692.85
953.294	3688.56
953.599	3621.9
953.904	3610.6
954.209	3602.24
954.513	3615.79
954.818	3602.91
955.122	3570.82
955.426	3609.47
955.731	3552.29
956.035	3531.96
956.339	3533.99
956.643	3541.67
956.948	3475.91
957.252	3459.41
957.556	3455.35
957.86	3447.66
958.163	3417.38
958.467	3381.68
958.771	3401.56
959.075	3416.48
959.378	3381.68
959.682	3380.77
959.985	3352.52
960.289	3301
960.592	3320.89
960.896	3295.58
961.199	3280.89
961.502	3276.14
961.805	3261.45
962.108	3244.05
962.411	3250.38
962.714	3211.06
963.017	3220.55
963.32	3181.91
963.623	3190.72
963.926	3138.29
964.228	3151.85
964.531	3149.37
964.833	3123.83
965.136	3114.34
965.438	3097.62
965.741	3058.75
966.043	3028.01
966.345	3070.05
966.648	3017.84
966.95	3025.98
967.252	2954.57
967.554	3016.71
967.856	2988.47
968.158	2975.13
968.46	2967.22
968.761	2952.31
969.063	2953.89
969.365	2936.94
969.666	2948.47
969.968	2844.29
970.269	2866.21
970.571	2872.54
970.872	2832.99
971.174	2814.91
971.475	2836.83
971.776	2784.86
972.077	2811.75
972.378	2791.64
972.679	2793.9
972.98	2798.42
973.281	2778.3
973.582	2761.58
973.883	2740.34
974.183	2746.21
974.484	2726.55
974.785	2731.75
975.085	2718.19
975.386	2722.48
975.686	2665.54
975.986	2665.99
976.287	2666.22
976.587	2611.53
976.887	2644.97
977.187	2630.28
977.487	2569.27
977.787	2620.57
978.087	2581.47
978.387	2572.66
978.687	2575.14
978.987	2533.56
979.286	2517.74
979.586	2545.09
979.885	2526.11
980.185	2514.81
980.484	2480.91
980.784	2467.12
981.083	2461.93
981.382	2500.12
981.682	2417.41
981.981	2420.12
982.28	2435.26
982.579	2420.8
982.878	2395.94
983.177	2435.26
983.475	2422.15
983.774	2363.4
984.073	2362.04
984.372	2374.47
984.67	2334.7
984.969	2357.97
985.267	2353.46
985.566	2304.42
985.864	2287.02
986.162	2334.47
986.461	2287.47
986.759	2282.95
987.057	2228.03
987.355	2287.02
987.653	2246.57
987.951	2234.14
988.249	2230.29
988.547	2240.01
988.844	2189.39
989.142	2202.05
989.44	2202.95
989.737	2172.44
990.035	2149.84
990.332	2132.22
990.63	2123.18
990.927	2126.12
991.224	2124.31
991.521	2145.32
991.819	2107.13
992.116	2101.94
992.413	2118.66
992.71	2099.22
993.006	2083.63
993.303	2083.41
993.6	2050.19
993.897	2053.58
994.193	2061.49
994.49	2006.8
994.787	1987.36
995.083	1994.59
995.379	1984.88
995.676	1974.71
995.972	1986.69
996.268	1968.83
996.565	1937.65
996.861	1928.16
997.157	1909.4
997.453	1939.91
997.749	1924.54
998.044	1908.04
998.34	1915.73
998.636	1902.39
998.932	1903.98
999.227	1877.08
999.523	1864.88
999.818	1860.59
1000.114	1848.61
1000.409	1836.41
1000.704	1808.84
1001	1831.21
1001.295	1830.08
1001.59	1807.25
1001.885	1797.54
1002.18	1775.17
1002.475	1789.85
1002.77	1734.71
1003.065	1746.24
1003.359	1721.16
1003.654	1745.11
1003.949	1712.34
1004.243	1720.93
1004.538	1715.51
1004.832	1720.25
1005.127	1720.48
1005.421	1710.53
1005.715	1691.33
1006.009	1661.27
1006.304	1664.89
1006.598	1651.78
1006.892	1655.39
1007.186	1654.72
1007.48	1651.55
1007.773	1598.9
1008.067	1597.77
1008.361	1571.1
1008.655	1573.36
1008.948	1567.49
1009.242	1568.16
1009.535	1554.15
1009.829	1543.76
1010.122	1538.34
1010.415	1552.8
1010.708	1533.59
1011.001	1531.78
1011.295	1509.18
1011.588	1499.47
1011.881	1494.04
1012.173	1509.41
1012.466	1472.35
1012.759	1476.42
1013.052	1455.4
1013.344	1458.34
1013.637	1456.76
1013.93	1455.85
1014.222	1439.35
1014.514	1416.3
1014.807	1411.33
1015.099	1389.86
1015.391	1378.79
1015.683	1397.1
1015.976	1376.31
1016.268	1364.55
1016.56	1370.2
1016.851	1358
1017.143	1329.3
1017.435	1332.01
1017.727	1361.84
1018.018	1307.15
1018.31	1317.1
1018.602	1318
1018.893	1299.25
1019.185	1332.24
1019.476	1283.2
1019.767	1277.1
1020.058	1246.14
1020.35	1248.17
1020.641	1263.54
1020.932	1240.72
1021.223	1228.51
1021.514	1240.26
1021.804	1212.47
1022.095	1207.27
1022.386	1214.28
1022.677	1191.9
1022.967	1172.02
1023.258	1184.22
1023.548	1202.98
1023.839	1158.01
1024.129	1157.55
1024.419	1152.36
1024.709	1169.98
1025	1132.47
1025.29	1127.72
1025.58	1125.01
1025.87	1098.57
1026.16	1121.62
1026.449	1139.93
1026.739	1107.84
1027.029	1086.82
1027.319	1056.09
1027.608	1067.61
1027.898	1091.57
1028.187	1051.79
1028.477	1080.04
1028.766	1063.09
1029.055	1036.88
1029.344	1027.16
1029.634	1021.51
1029.923	1016.99
1030.212	1006.82
1030.501	1027.61
1030.79	1015.86
1031.078	1028.74
1031.367	1005.24
1031.656	983.1
1031.945	965.92
1032.233	989.2
1032.522	962.76
1032.81	944
1033.099	960.95
1033.387	953.94
1033.675	961.85
1033.963	950.78
1034.251	935.19
1034.54	942.42
1034.828	916.2
1035.116	924.11
1035.403	906.49
1035.691	896.09
1035.979	899.71
1036.267	914.62
1036.554	888.41
1036.842	874.17
1037.129	860.61
1037.417	877.79
1037.704	878.24
1037.992	886.37
1038.279	887.5
1038.566	860.16
1038.853	860.16
1039.14	860.16
