Data from hue_260_FLMS001491_00043.txt Node
Date: Tue Feb 07 15:59:03 GMT 2017
User: dcchb
Spectrometer: FLMS00149
Trigger mode: 0
Integration Time (sec): 2.000000E-2
Scans to average: 10
Electric dark correction enabled: true
Nonlinearity correction enabled: false
Boxcar width: 0
XAxis mode: Wavelengths
Number of Pixels in Spectrum: 2048
>>>>>Begin Spectral Data<<<<<
341.393	-6.51
341.776	-6.51
342.16	-6.51
342.543	-66.4
342.927	-50.35
343.31	-84.48
343.693	-41.99
344.077	-60.07
344.46	-56.45
344.843	-51.03
345.226	-49.9
345.61	-41.99
345.993	-12.61
346.376	-12.61
346.759	6.37
347.142	13.15
347.525	38.91
347.908	61.28
348.291	84.56
348.674	107.84
349.057	99.02
349.44	136.54
349.823	145.12
350.206	155.07
350.588	200.26
350.971	217.21
351.354	204.33
351.737	212.47
352.119	227.83
352.502	249.75
352.884	277.1
353.267	266.7
353.65	273.71
354.032	291.11
354.414	292.01
354.797	319.81
355.179	296.08
355.562	305.12
355.944	312.35
356.326	317.1
356.709	323.2
357.091	324.78
357.473	321.16
357.855	323.65
358.238	308.06
358.62	319.13
359.002	331.79
359.384	346.93
359.766	335.4
360.148	326.81
360.53	322.07
360.912	309.41
361.294	326.36
361.676	325.01
362.057	315.06
362.439	328.17
362.821	302.41
363.203	315.97
363.584	318.23
363.966	324.1
364.348	305.35
364.729	315.74
365.111	306.02
365.493	320.26
365.874	314.61
366.256	321.84
366.637	300.15
367.019	291.33
367.4	305.12
367.781	287.04
368.163	306.02
368.544	317.32
368.925	303.31
369.306	307.6
369.688	304.67
370.069	289.98
370.45	318.45
370.831	292.92
371.212	329.53
371.593	314.16
371.974	297.44
372.355	314.16
372.736	320.26
373.117	300.83
373.498	295.18
373.879	301.96
374.26	321.16
374.641	307.38
375.021	313.93
375.402	312.12
375.783	301.96
376.163	315.97
376.544	300.37
376.925	317.77
377.305	317.77
377.686	316.19
378.066	318.23
378.447	330.66
378.827	325.01
379.208	325.46
379.588	305.8
379.968	323.88
380.349	322.29
380.729	327.72
381.109	328.4
381.489	348.28
381.87	310.09
382.25	329.75
382.63	327.72
383.01	321.84
383.39	348.28
383.77	330.88
384.15	354.38
384.53	333.37
384.91	332.24
385.29	334.5
385.67	346.25
386.049	351.67
386.429	330.88
386.809	354.61
387.189	348.28
387.568	345.34
387.948	366.13
388.328	349.64
388.707	354.38
389.087	370.43
389.466	351.22
389.846	368.62
390.225	354.38
390.605	366.59
390.984	348.28
391.363	364.78
391.743	372.91
392.122	340.82
392.501	353.03
392.881	345.34
393.26	382.41
393.639	358.9
394.018	363.65
394.397	357.1
394.776	398.22
395.155	397.55
395.534	383.54
395.913	374.72
396.292	377.66
396.671	400.03
397.05	403.2
397.429	372.24
397.808	406.13
398.186	393.03
398.565	403.42
398.944	393.25
399.323	391.44
399.701	404.55
400.08	389.18
400.458	402.07
400.837	414.95
401.215	381.05
401.594	386.47
401.972	418.56
402.351	437.32
402.729	409.98
403.107	410.88
403.486	424.89
403.864	413.36
404.242	409.52
404.62	438.9
404.999	420.6
405.377	414.04
405.755	420.37
406.133	433.25
406.511	466.24
406.889	447.94
407.267	430.09
407.645	459.01
408.023	473.48
408.401	459.24
408.779	459.92
409.156	488.62
409.534	454.72
409.912	493.36
410.29	509.86
410.667	498.33
411.045	513.93
411.422	513.48
411.8	542.18
412.178	512.8
412.555	515.74
412.933	537.88
413.31	552.8
413.687	557.77
414.065	551.44
414.442	591.21
414.819	590.08
415.197	588.05
415.574	588.95
415.951	591.21
416.328	569.74
416.705	619.01
417.082	601.61
417.46	608.61
417.837	623.75
418.214	641.83
418.591	657.65
418.967	637.54
419.344	641.16
419.721	649.06
420.098	668.05
420.475	689.97
420.852	683.87
421.228	690.42
421.605	713.02
421.982	720.48
422.358	726.8
422.735	728.61
423.111	747.37
423.488	749.85
423.864	756.63
424.241	750.53
424.617	797.54
424.994	782.62
425.37	809.96
425.746	798.21
426.123	816.07
426.499	828.04
426.875	847.25
427.251	858.55
427.627	886.12
428.003	871.88
428.379	886.12
428.756	876.86
429.132	892.67
429.507	941.26
429.883	935.61
430.259	913.46
430.635	934.03
431.011	951.66
431.387	974.25
431.763	993.91
432.138	987.14
432.514	994.37
432.89	1017.64
433.265	1034.37
433.641	1061.03
434.016	1055.16
434.392	1097.41
434.767	1115.49
435.143	1113.91
435.518	1150.75
435.894	1132.44
436.269	1162.27
436.644	1192.78
437.02	1190.75
437.395	1206.34
437.77	1243.4
438.145	1230.74
438.52	1262.38
438.895	1272.33
439.271	1288.82
439.646	1302.83
440.021	1311.87
440.395	1335.37
440.77	1343.06
441.145	1354.81
441.52	1379.67
441.895	1402.27
442.27	1411.08
442.645	1454.24
443.019	1430.74
443.394	1448.59
443.769	1442.26
444.143	1448.37
444.518	1481.59
444.892	1482.49
445.267	1498.31
445.641	1524.75
446.016	1515.93
446.39	1552.32
446.764	1559.32
447.139	1567.91
447.513	1540.11
447.887	1549.15
448.262	1558.19
448.636	1578.31
449.01	1596.84
449.384	1617.63
449.758	1621.69
450.132	1661.47
450.506	1652.2
450.88	1679.55
451.254	1678.64
451.628	1684.07
452.002	1692.43
452.376	1731.97
452.75	1711.64
453.123	1743.73
453.497	1781.92
453.871	1781.01
454.244	1790.28
454.618	1804.51
454.992	1820.33
455.365	1858.07
455.739	1876.6
456.112	1862.37
456.486	1889.94
456.859	1929.26
457.232	1974.91
457.606	1939.65
457.979	1977.39
458.352	2032.98
458.725	2038.63
459.099	2048.8
459.472	2084.51
459.845	2101
460.218	2146.2
460.591	2129.25
460.964	2144.17
461.337	2206.76
461.71	2212.19
462.083	2229.36
462.456	2224.62
462.829	2264.84
463.201	2241.79
463.574	2278.85
463.947	2307.55
464.32	2380.54
464.692	2372.18
465.065	2394.33
465.438	2413.99
465.81	2460.99
466.183	2468
466.555	2541.22
466.928	2557.26
467.3	2518.39
467.672	2571.73
468.045	2620.54
468.417	2660.99
468.789	2661.22
469.161	2675.9
469.534	2712.29
469.906	2805.62
470.278	2759.07
470.65	2797.93
471.022	2854.88
471.394	2882.45
471.766	2903.92
472.138	2963.35
472.51	3013.3
472.882	3063.24
473.253	3098.72
473.625	3127.64
473.997	3175.78
474.369	3180.98
474.74	3205.16
475.112	3241.99
475.484	3308.66
475.855	3342.55
476.227	3349.11
476.598	3475.43
476.97	3475.21
477.341	3518.37
477.713	3597.91
478.084	3629.55
478.455	3654.64
478.827	3700.51
479.198	3820.51
479.569	3820.05
479.94	3920.17
480.311	3943.44
480.682	4016.89
481.053	4100.95
481.424	4121.29
481.795	4144.11
482.166	4236.77
482.537	4225.02
482.908	4342.3
483.279	4372.13
483.65	4446.25
484.021	4522.86
484.391	4538.23
484.762	4580.71
485.133	4609.86
485.503	4685.79
485.874	4771.44
486.244	4735.51
486.615	4890.08
486.985	4872.23
487.356	4970.08
487.726	4961.27
488.097	5086.01
488.467	5136.18
488.837	5176.18
489.207	5242.39
489.578	5281.94
489.948	5376.4
490.318	5401.26
490.688	5385.44
491.058	5466.79
491.428	5507.02
491.798	5568.94
492.168	5695.49
492.538	5714.47
492.908	5737.52
493.278	5796.73
493.648	5829.72
494.017	5884.18
494.387	5883.73
494.757	5913.56
495.126	5972.31
495.496	6015.25
495.866	6044.86
496.235	6136.83
496.605	6104.06
496.974	6129.37
497.344	6246.66
497.713	6236.49
498.082	6293.66
498.452	6288.01
498.821	6333.89
499.19	6341.57
499.559	6407.56
499.928	6436.03
500.298	6446.88
500.667	6492.98
501.036	6494.79
501.405	6526.42
501.774	6557.61
502.143	6590.38
502.512	6629.25
502.88	6628.79
503.249	6674.67
503.618	6673.77
503.987	6680.77
504.356	6783.59
504.724	6742.24
505.093	6761.45
505.462	6755.57
505.83	6805.74
506.199	6850.26
506.567	6925.28
506.936	6921.67
507.304	6943.14
507.672	6992.17
508.041	6988.79
508.409	7023.59
508.777	7057.94
509.145	7080.08
509.514	7065.62
509.882	7063.81
510.25	7096.13
510.618	7119.63
510.986	7051.83
511.354	7185.16
511.722	7114.21
512.09	7185.39
512.458	7237.82
512.826	7273.3
513.193	7296.8
513.561	7269.46
513.929	7320.3
514.297	7357.36
514.664	7317.14
515.032	7374.99
515.4	7442.33
515.767	7398.72
516.135	7395.78
516.502	7358.49
516.869	7434.65
517.237	7473.74
517.604	7440.3
517.972	7526.17
518.339	7578.37
518.706	7501.09
519.073	7512.39
519.44	7555.55
519.808	7576.34
520.175	7543.57
520.542	7655.66
520.909	7649.56
521.276	7688.65
521.643	7714.19
522.009	7687.98
522.376	7738.6
522.743	7740.18
523.11	7750.35
523.477	7786.96
523.843	7774.53
524.21	7788.76
524.577	7874.86
524.943	7884.35
525.31	7839.16
525.676	7948.76
526.043	7908.76
526.409	7928.2
526.776	7923.68
527.142	8018.14
527.508	7967.52
527.874	8014.52
528.241	7991.7
528.607	8011.36
528.973	7998.93
529.339	8008.87
529.705	8069.66
530.071	8089.77
530.437	8090.45
530.803	8084.12
531.169	8074.41
531.535	8079.38
531.901	8090.68
532.267	8044.58
532.632	8047.97
532.998	8141.3
533.364	8070.56
533.73	8043.9
534.095	8081.64
534.461	8096.1
534.826	8087.29
535.192	8068.98
535.557	8106.95
535.923	8106.5
536.288	8171.8
536.653	8187.85
537.019	8075.08
537.384	8079.38
537.749	8050.9
538.114	8061.3
538.479	8068.3
538.845	8101.98
539.21	8064.01
539.575	8112.15
539.94	8009.1
540.305	8027.4
540.67	8019.49
541.034	8052.71
541.399	8007.29
541.764	8027.4
542.129	8029.66
542.494	7955.77
542.858	7971.36
543.223	8066.72
543.587	8054.52
543.952	7986.5
544.316	7930.46
544.681	7965.93
545.045	7970.23
545.41	7973.39
545.774	7991.7
546.138	7966.61
546.503	7927.74
546.867	7918.03
547.231	7934.75
547.595	7920.74
547.959	7842.77
548.324	7880.06
548.688	7879.16
549.052	7861.3
549.416	7901.08
549.779	7836.9
550.143	7828.09
550.507	7895.43
550.871	7852.04
551.235	7841.64
551.599	7826.5
551.962	7767.3
552.326	7816.11
552.689	7847.52
553.053	7789.22
553.417	7814.53
553.78	7914.41
554.143	7835.32
554.507	7889.1
554.87	7807.75
555.234	7857.69
555.597	7819.27
555.96	7756
556.323	7805.49
556.686	7814.07
557.05	7813.62
557.413	7833.28
557.776	7821.98
558.139	7779.95
558.502	7821.98
558.865	7804.81
559.228	7873.73
559.59	7845.03
559.953	7873.06
560.316	7922.77
560.679	7850.46
561.041	7899.72
561.404	7906.5
561.767	7937.91
562.129	7919.83
562.492	8036.89
562.854	7984.92
563.217	7940.85
563.579	7949.89
563.941	7936.33
564.304	8005.03
564.666	8024.01
565.028	7980.17
565.39	8011.81
565.753	8127.06
566.115	8082.32
566.477	8096.55
566.839	8047.29
567.201	8148.3
567.563	8148.98
567.925	8196.44
568.287	8132.03
568.648	8139.49
569.01	8225.36
569.372	8271.01
569.734	8238.7
570.095	8308.3
570.457	8304.23
570.819	8266.49
571.18	8293.38
571.542	8344
571.903	8299.71
572.265	8303.1
572.626	8377.22
572.987	8426.04
573.349	8382.65
573.71	8380.84
574.071	8461.74
574.432	8474.62
574.794	8546.03
575.155	8481.18
575.516	8534.06
575.877	8606.37
576.238	8534.96
576.599	8611.34
576.96	8632.58
577.32	8640.95
577.681	8642.75
578.042	8642.75
578.403	8738.57
578.763	8702.86
579.124	8697.21
579.485	8669.19
579.845	8803.65
580.206	8768.4
580.566	8681.62
580.927	8833.93
581.287	8900.6
581.648	8770.89
582.008	8874.84
582.368	8858.79
582.728	8861.05
583.089	8893.37
583.449	8872.35
583.809	8919.81
584.169	8958.45
584.529	8926.81
584.889	9043.42
585.249	8921.62
585.609	8913.48
585.969	8994.38
586.329	8984.21
586.688	9052.01
587.048	9014.72
587.408	9046.36
587.768	9086.36
588.127	9044.55
588.487	8996.64
588.846	9142.4
589.206	9086.13
589.565	9130.88
589.925	9186.92
590.284	9181.5
590.643	9117.77
591.003	9200.7
591.362	9197.99
591.721	9205.22
592.08	9184.89
592.44	9253.81
592.799	9270.08
593.158	9248.84
593.517	9306.24
593.876	9244.77
594.235	9339.68
594.593	9277.31
594.952	9297.88
595.311	9265.11
595.67	9269.86
596.029	9401.38
596.387	9281.15
596.746	9440.7
597.104	9398.21
597.463	9304.66
597.822	9341.04
598.18	9320.02
598.538	9389.17
598.897	9462.62
599.255	9327.93
599.613	9432.34
599.972	9433.47
600.33	9418.33
600.688	9368.61
601.046	9420.13
601.404	9429.4
601.762	9390.08
602.12	9527.02
602.478	9474.14
602.836	9517.31
603.194	9474.14
603.552	9473.01
603.91	9453.81
604.268	9489.74
604.625	9482.73
604.983	9411.77
605.341	9402.28
605.698	9512.33
606.056	9533.35
606.413	9463.75
606.771	9545.55
607.128	9565.67
607.485	9503.3
607.843	9491.54
608.2	9559.11
608.557	9615.16
608.914	9565.21
609.272	9599.56
609.629	9659.22
609.986	9702.16
610.343	9589.85
610.7	9774.47
611.057	9630.07
611.414	9689.51
611.771	9784.42
612.127	9734.25
612.484	9666.45
612.841	9641.37
613.198	9722.5
613.554	9678.21
613.911	9741.71
614.267	9674.82
614.624	9768.15
614.98	9723.85
615.337	9709.84
615.693	9784.42
616.05	9760.46
616.406	9829.61
616.762	9728.6
617.118	9787.13
617.475	9772.21
617.831	9805.43
618.187	9851.31
618.543	9819.45
618.899	9912.32
619.255	9853.57
619.611	9823.06
619.967	9861.7
620.323	9909.84
620.678	9862.16
621.034	9842.04
621.39	9862.38
621.746	9892.66
622.101	9939.44
622.457	9878.2
622.812	9856.73
623.168	9887.92
623.523	9916.17
623.879	9932.44
624.234	9894.47
624.589	9889.73
624.945	9872.78
625.3	9917.52
625.655	9915.26
626.01	9833.91
626.365	9877.52
626.72	9847.69
627.075	9860.57
627.43	9842.04
627.785	9827.58
628.14	9864.42
628.495	9809.28
628.85	9887.01
629.205	9811.31
629.559	9843.17
629.914	9827.35
630.269	9827.58
630.623	9772.67
630.978	9749.39
631.332	9823.06
631.687	9776.28
632.041	9814.7
632.396	9831.87
632.75	9765.21
633.104	9746.23
633.459	9666.91
633.813	9776.06
634.167	9720.69
634.521	9682.27
634.875	9728.6
635.229	9722.95
635.583	9706.68
635.937	9639.34
636.291	9639.79
636.645	9705.32
636.999	9577.87
637.352	9580.36
637.706	9613.35
638.06	9643.18
638.413	9588.49
638.767	9571.09
639.121	9550.98
639.474	9484.09
639.828	9537.19
640.181	9512.33
640.534	9483.86
640.888	9467.14
641.241	9461.04
641.594	9460.13
641.947	9514.14
642.301	9501.71
642.654	9479.57
643.007	9491.32
643.36	9459.68
643.713	9465.78
644.066	9456.52
644.419	9383.3
644.771	9384.2
645.124	9247.48
645.477	9269.63
645.83	9180.14
646.182	9206.58
646.535	9137.2
646.888	9141.95
647.24	9109.41
647.593	9175.85
647.945	9192.34
648.298	9119.12
648.65	9100.37
649.002	9079.8
649.355	9131.33
649.707	9083.19
650.059	9129.75
650.411	9239.57
650.763	9214.94
651.115	9290.65
651.467	9311.66
651.819	9302.4
652.171	9324.09
652.523	9274.6
652.875	9222.62
653.227	9335.62
653.578	9373.58
653.93	9368.61
654.282	9218.78
654.633	9276.41
654.985	9293.81
655.337	9268.27
655.688	9303.07
656.039	9284.09
656.391	9215.17
656.742	9295.62
657.094	9253.13
657.445	9307.37
657.796	9286.8
658.147	9276.86
658.498	9298.55
658.849	9329.51
659.2	9278.67
659.551	9259.23
659.902	9277.54
660.253	9298.78
660.604	9287.71
660.955	9220.36
661.306	9376.97
661.656	9291.1
662.007	9247.93
662.358	9281.61
662.708	9303.98
663.059	9281.83
663.409	9244.09
663.76	9327.93
664.11	9312.11
664.461	9313.02
664.811	9325.22
665.161	9297.88
665.511	9314.37
665.862	9341.94
666.212	9316.63
666.562	9317.99
666.912	9287.48
667.262	9199.8
667.612	9292
667.962	9286.35
668.312	9277.09
668.662	9302.17
669.011	9324.99
669.361	9337.42
669.711	9274.83
670.06	9264.88
670.41	9237.09
670.76	9271.21
671.109	9320.93
671.459	9244.55
671.808	9255.84
672.157	9304.43
672.507	9213.36
672.856	9299.01
673.205	9217.43
673.554	9243.19
673.904	9190.54
674.253	9241.83
674.602	9177.88
674.951	9177.43
675.3	9047.71
675.649	9186.02
675.998	9185.79
676.346	9188.73
676.695	9227.6
677.044	9121.84
677.393	9115.06
677.741	9068.73
678.09	9102.18
678.438	9074.15
678.787	9126.13
679.135	9090.65
679.484	9047.49
679.832	9030.54
680.181	9042.06
680.529	9021.5
680.877	8993.93
681.225	9056.53
681.573	9060.14
681.922	8900.6
682.27	8961.39
682.618	8961.16
682.966	8903.54
683.314	8896.53
683.661	8866.48
684.009	8928.62
684.357	8851.79
684.705	8824.9
685.053	8804.33
685.4	8834.84
685.748	8739.47
686.095	8837.55
686.443	8772.69
686.79	8746.25
687.138	8791.68
687.485	8668.06
687.832	8674.84
688.18	8699.7
688.527	8624
688.874	8632.58
689.221	8614.28
689.568	8576.31
689.915	8568.18
690.262	8545.81
690.609	8500.38
690.956	8451.12
691.303	8446.15
691.65	8449.76
691.997	8413.38
692.344	8356.43
692.69	8271.01
693.037	8329.09
693.383	8267.85
693.73	8302.87
694.077	8216.1
694.423	8249.77
694.769	8186.72
695.116	8182.2
695.462	8102.43
695.808	8150.56
696.155	8147.85
696.501	8020.4
696.847	8048.64
697.193	7994.63
697.539	8014.97
697.885	7920.51
698.231	7922.09
698.577	7937.91
698.923	7934.07
699.269	7773.85
699.614	7805.71
699.96	7772.72
700.306	7764.13
700.651	7760.06
700.997	7608.88
701.342	7703.57
701.688	7678.48
702.033	7641.42
702.379	7605.72
702.724	7640.52
703.069	7646.85
703.415	7477.81
703.76	7512.16
704.105	7534.08
704.45	7488.89
704.795	7443.46
705.14	7443.46
705.485	7401.2
705.83	7393.52
706.175	7372.28
706.52	7360.75
706.865	7346.29
707.209	7264.71
707.554	7252.28
707.899	7306.29
708.243	7239.17
708.588	7226.29
708.932	7136.13
709.277	7177.93
709.621	7168.22
709.966	7149.91
710.31	7165.05
710.654	7049.35
710.998	7053.87
711.342	7068.33
711.687	7007.99
712.031	7003.47
712.375	6977.03
712.719	7026.98
713.063	6925.96
713.407	6995.79
713.75	7007.09
714.094	6951.95
714.438	6923.02
714.782	6916.02
715.125	6883.93
715.469	6923.48
715.812	6872.4
716.156	6848.9
716.499	6777.49
716.843	6855.68
717.186	6820.88
717.53	6781.11
717.873	6846.19
718.216	6832.41
718.559	6767.1
718.902	6771.39
719.246	6749.02
719.589	6748.11
719.932	6722.13
720.275	6713.09
720.617	6707.44
720.96	6728.68
721.303	6720.77
721.646	6694.78
721.989	6677.38
722.331	6682.13
722.674	6692.07
723.016	6700.43
723.359	6706.53
723.701	6621.56
724.044	6622.69
724.386	6652.07
724.729	6634.44
725.071	6632.18
725.413	6601.9
725.755	6642.81
726.097	6566.65
726.439	6575.91
726.782	6562.36
727.124	6629.02
727.465	6604.16
727.807	6535.24
728.149	6562.13
728.491	6626.08
728.833	6596.93
729.175	6526.42
729.516	6589.47
729.858	6519.87
730.199	6585.18
730.541	6564.84
730.882	6522.81
731.224	6540.89
731.565	6471.28
731.906	6477.39
732.248	6521.68
732.589	6521.45
732.93	6515.13
733.271	6542.92
733.612	6502.47
733.953	6537.5
734.294	6524.16
734.635	6516.93
734.976	6508.12
735.317	6528.68
735.658	6455.01
735.999	6481
736.339	6493.66
736.68	6516.48
737.021	6546.76
737.361	6476.03
737.702	6575.24
738.042	6490.95
738.383	6467.89
738.723	6547.67
739.063	6533.2
739.404	6570.94
739.744	6628.34
740.084	6584.28
740.424	6607.1
740.764	6563.49
741.104	6549.47
741.444	6561.9
741.784	6559.19
742.124	6590.15
742.464	6652.97
742.804	6573.88
743.143	6610.04
743.483	6623.6
743.823	6653.65
744.162	6578.85
744.502	6625.63
744.841	6631.28
745.181	6728.9
745.52	6765.29
745.86	6788.11
746.199	6751.96
746.538	6831.73
746.877	6855.46
747.216	6855.23
747.556	6909.24
747.895	6953.08
748.234	6953.76
748.573	7063.81
748.911	6998.28
749.25	7093.42
749.589	7172.74
749.928	7248.44
750.267	7303.58
750.605	7299.74
750.944	7371.6
751.283	7414.31
751.621	7518.04
751.96	7510.58
752.298	7614.08
752.636	7681.65
752.975	7709.22
753.313	7770.23
753.651	7875.09
753.989	7992.15
754.327	8064.92
754.666	8111.24
755.004	8251.8
755.342	8408.41
755.679	8450.44
756.017	8468.52
756.355	8619.93
756.693	8714.84
757.031	8846.82
757.368	8882.29
757.706	9057.43
758.044	9113.93
758.381	9294.04
758.719	9339.01
759.056	9554.14
759.394	9600.92
759.731	9703.74
760.068	9885.88
760.405	9948.93
760.743	10059.21
761.08	10220.79
761.417	10342.82
761.754	10442.71
762.091	10540.56
762.428	10635.92
762.765	10758.63
763.102	10905.29
763.438	11080.65
763.775	11127.43
764.112	11251.72
764.449	11379.18
764.785	11464.37
765.122	11563.13
765.458	11733.52
765.795	11831.14
766.131	11959.95
766.467	12105.49
766.804	12141.64
767.14	12145.71
767.476	12237.46
767.812	12345.48
768.148	12494.86
768.485	12614.85
768.821	12584.34
769.157	12807.16
769.492	12827.05
769.828	12983.88
770.164	12977.78
770.5	13069.53
770.836	13205.12
771.171	13225.91
771.507	13328.28
771.842	13309.75
772.178	13353.14
772.513	13498.9
772.849	13592.91
773.184	13569.63
773.519	13630.87
773.855	13690.08
774.19	13702.73
774.525	13683.3
774.86	13787.25
775.195	13752.9
775.53	13839.45
775.865	13944.08
776.2	13884.2
776.535	13904.31
776.87	13925.78
777.205	13892.56
777.539	13964.65
777.874	13981.37
778.209	13946.12
778.543	13997.41
778.878	14050.07
779.212	14018.43
779.547	14040.58
779.881	14044.64
780.215	14052.78
780.55	14038.54
780.884	14048.94
781.218	14027.7
781.552	14157.64
781.886	14015.04
782.22	14035.38
782.554	14075.15
782.888	13967.81
783.222	14002.84
783.556	14006.68
783.889	13967.36
784.223	13933.01
784.557	13918.09
784.89	13999.9
785.224	13985.21
785.557	13869.73
785.891	13867.47
786.224	13851.43
786.558	13893.01
786.891	13836.74
787.224	13814.82
787.557	13754.26
787.891	13777.08
788.224	13871.09
788.557	13781.15
788.89	13824.54
789.223	13824.76
789.556	13700.47
789.888	13657.31
790.221	13662.28
790.554	13587.93
790.887	13554.71
791.219	13489.86
791.552	13527.6
791.884	13601.94
792.217	13492.57
792.549	13475.62
792.882	13440.59
793.214	13403.98
793.546	13412.12
793.879	13359.47
794.211	13244.44
794.543	13341.16
794.875	13262.52
795.207	13301.39
795.539	13195.4
795.871	13224.33
796.203	13152.69
796.535	13123.54
796.867	13099.13
797.198	13096.2
797.53	13105.91
797.862	12971.45
798.193	13005.35
798.525	12931
798.856	12928.74
799.188	12835.19
799.519	12779.37
799.85	12796.99
800.182	12725.58
800.513	12807.84
800.844	12768.75
801.175	12837.9
801.506	12743.66
801.837	12580.95
802.168	12672.48
802.499	12625.25
802.83	12538.7
803.161	12575.76
803.491	12504.57
803.822	12510
804.153	12489.66
804.483	12281.3
804.814	12335.09
805.145	12356.1
805.475	12387.51
805.805	12231.59
806.136	12294.63
806.466	12238.14
806.796	12285.14
807.126	12233.17
807.457	12209.21
807.787	12139.84
808.117	12131.93
808.447	12070.01
808.777	12068.88
809.107	11996.34
809.436	12016.9
809.766	11987.52
810.096	12026.17
810.426	11915.66
810.755	11939.62
811.085	11987.3
811.414	11896.9
811.744	11780.52
812.073	11785.5
812.403	11783.91
812.732	11722.67
813.061	11798.15
813.39	11673.41
813.719	11645.61
814.049	11674.09
814.378	11658.04
814.707	11534.65
815.036	11550.25
815.365	11649.45
815.693	11457.82
816.022	11474.54
816.351	11482.23
816.68	11411.49
817.008	11442
817.337	11358.39
817.665	11408.1
817.994	11363.36
818.322	11429.8
818.651	11277.71
818.979	11255.34
819.307	11371.72
819.636	11283.36
819.964	11284.72
820.292	11295.11
820.62	11293.53
820.948	11204.95
821.276	11215.34
821.604	11207.43
821.932	11193.65
822.259	11210.6
822.587	11126.53
822.915	11130.15
823.243	11213.08
823.57	11190.26
823.898	11199.52
824.225	11157.26
824.553	11130.6
824.88	11215.79
825.207	11211.05
825.535	11149.58
825.862	11228.45
826.189	11144.16
826.516	11266.41
826.843	11348.22
827.17	11238.16
827.497	11233.87
827.824	11202.69
828.151	11320.65
828.478	11252.4
828.805	11254.66
829.131	11254.44
829.458	11221.22
829.785	11107.09
830.111	11164.27
830.438	11260.54
830.764	11272.97
831.09	11261.89
831.417	11140.77
831.743	11179.41
832.069	11217.83
832.395	11138.28
832.722	11208.34
833.048	11058.28
833.374	11185.28
833.7	11135.34
834.026	11125.17
834.351	11178.51
834.677	11083.14
835.003	11211.5
835.329	11050.37
835.654	11084.04
835.98	11067.77
836.306	11117.72
836.631	11040.2
836.956	11103.71
837.282	11114.55
837.607	11000.43
837.932	10989.13
838.258	11011.28
838.583	10983.26
838.908	10902.35
839.233	10865.07
839.558	10866.88
839.883	10835.01
840.208	10822.36
840.533	10818.74
840.858	10765.18
841.182	10831.85
841.507	10733.32
841.832	10703.26
842.156	10727.9
842.481	10741.68
842.805	10679.99
843.13	10715.24
843.454	10590.95
843.778	10708.91
844.103	10618.75
844.427	10527.68
844.751	10510.95
845.075	10451.97
845.399	10537.39
845.723	10503.27
846.047	10399.77
846.371	10371.52
846.695	10364.29
847.019	10284.97
847.343	10239.1
847.666	10268.47
847.99	10164.52
848.313	10159.78
848.637	10135.82
848.96	10078.87
849.284	10083.39
849.607	9968.82
849.931	9969.72
850.254	9981.25
850.577	9863.06
850.9	9817.19
851.223	9802.04
851.546	9748.03
851.869	9638.66
852.192	9718.2
852.515	9681.37
852.838	9586.23
853.161	9574.71
853.483	9572.67
853.806	9490.64
854.129	9456.97
854.451	9503.97
854.774	9369.29
855.096	9356.41
855.419	9325.67
855.741	9422.39
856.063	9332.9
856.385	9311.89
856.708	9254.26
857.03	9223.98
857.352	9240.48
857.674	9130.2
857.996	9200.03
858.318	9123.64
858.64	9154.83
858.961	9096.3
859.283	9057.21
859.605	9046.36
859.926	9031.67
860.248	8932.01
860.57	9004.33
860.891	8997.09
861.212	8915.29
861.534	8910.99
861.855	8846.14
862.176	8896.31
862.498	8861.5
862.819	8849.3
863.14	8800.71
863.461	8866.93
863.782	8815.18
864.103	8770.43
864.424	8764.56
864.745	8773.37
865.065	8745.58
865.386	8689.76
865.707	8697.44
866.027	8654.5
866.348	8639.36
866.668	8749.64
866.989	8623.54
867.309	8605.92
867.63	8607.73
867.95	8584
868.27	8595.97
868.59	8532.93
868.91	8570.21
869.23	8535.41
869.55	8475.53
869.87	8576.99
870.19	8471.01
870.51	8496.09
870.83	8501.74
871.15	8388.97
871.469	8444.79
871.789	8495.86
872.109	8468.97
872.428	8368.41
872.748	8355.98
873.067	8385.58
873.386	8339.94
873.706	8378.81
874.025	8334.96
874.344	8285.93
874.663	8250.22
874.982	8318.69
875.301	8330.67
875.62	8351.24
875.939	8255.42
876.258	8271.46
876.577	8191.47
876.896	8266.49
877.214	8218.36
877.533	8225.59
877.852	8157.34
878.17	8201.18
878.489	8200.28
878.807	8127.74
879.125	8138.59
879.444	8162.09
879.762	8070.56
880.08	8112.6
880.398	8093.84
880.716	8059.72
881.034	8029.21
881.352	8082.32
881.67	8024.92
881.988	7971.81
882.306	8047.74
882.624	8019.94
882.941	7931.59
883.259	7875.54
883.577	7916.9
883.894	7862.21
884.212	7893.39
884.529	7894.3
884.846	7770.46
885.164	7870.12
885.481	7832.15
885.798	7822.89
886.115	7744.25
886.432	7758.71
886.75	7673.29
887.067	7738.37
887.383	7721.87
887.7	7706.96
888.017	7696.79
888.334	7650.69
888.651	7607.53
888.967	7636
889.284	7553.06
889.6	7561.88
889.917	7506.29
890.233	7477.36
890.55	7491.82
890.866	7475.33
891.182	7462.22
891.498	7359.85
891.815	7352.17
892.131	7407.08
892.447	7333.41
892.763	7406.4
893.079	7286.4
893.395	7256.12
893.71	7286.18
894.026	7287.53
894.342	7199.63
894.657	7182
894.973	7165.96
895.289	7168.44
895.604	7173.19
895.92	7088.9
896.235	7027.2
896.55	7044.83
896.865	7003.25
897.181	6990.37
897.496	7031.72
897.811	6994.43
898.126	6938.84
898.441	6942.68
898.756	6906.75
899.071	6879.86
899.386	6849.35
899.7	6760.54
900.015	6777.72
900.33	6733.88
900.644	6763.25
900.959	6744.05
901.273	6741.11
901.588	6735.91
901.902	6595.58
902.216	6666.99
902.531	6594.9
902.845	6566.88
903.159	6536.59
903.473	6485.75
903.787	6479.65
904.101	6482.81
904.415	6468.12
904.729	6479.65
905.042	6408.91
905.356	6365.07
905.67	6384.51
905.984	6406.43
906.297	6395.58
906.611	6296.15
906.924	6279.2
907.237	6247.34
907.551	6294.57
907.864	6199.88
908.177	6200.11
908.491	6147.9
908.804	6138.86
909.117	6112.42
909.43	6105.64
909.743	6051.18
910.056	6026.78
910.368	5980.68
910.681	6005.31
910.994	5956.95
911.307	5958.76
911.619	5888.7
911.932	5924.63
912.244	5882.83
912.557	5823.84
912.869	5800.79
913.181	5798.99
913.494	5731.19
913.806	5709.5
914.118	5681.25
914.43	5678.31
914.742	5681.47
915.054	5618.2
915.366	5652.1
915.678	5651.87
915.99	5576.84
916.302	5516.51
916.613	5514.93
916.925	5504.76
917.236	5479.45
917.548	5467.7
917.859	5446.45
918.171	5409.84
918.482	5416.4
918.794	5414.36
919.105	5375.72
919.416	5330.75
919.727	5340.01
920.038	5320.35
920.349	5249.62
920.66	5332.78
920.971	5225.89
921.282	5217.08
921.593	5169.62
921.903	5142.73
922.214	5158.32
922.525	5104.77
922.835	5126.46
923.146	5100.93
923.456	5092.79
923.767	5050.53
924.077	5086.01
924.387	4985.45
924.697	4982.96
925.008	5006.92
925.318	4960.59
925.628	4935.51
925.938	4916.75
926.248	4879.69
926.558	4852.12
926.867	4862.06
927.177	4857.09
927.487	4799.46
927.796	4836.07
928.106	4788.62
928.416	4785
928.725	4757.43
929.034	4728.05
929.344	4714.72
929.653	4700.48
929.962	4661.16
930.271	4601.73
930.581	4631.33
930.89	4581.16
931.199	4566.93
931.508	4599.47
931.817	4547.27
932.125	4550.88
932.434	4524.67
932.743	4519.47
933.051	4470.89
933.36	4473.37
933.669	4441.96
933.977	4402.64
934.286	4370.32
934.594	4382.98
934.902	4355.41
935.21	4326.71
935.519	4361.51
935.827	4300.04
936.135	4311.12
936.443	4274.28
936.751	4230.44
937.059	4273.38
937.367	4193.83
937.674	4244
937.982	4164
938.29	4155.64
938.597	4198.8
938.905	4158.8
939.213	4135.3
939.52	4095.98
939.827	4093.04
940.135	4086.49
940.442	4071.12
940.749	4090.33
941.056	4044.23
941.363	4032.25
941.67	4013.27
941.977	3935.08
942.284	3942.76
942.591	3931.46
942.898	3954.06
943.205	3947.06
943.511	3886.95
943.818	3912.93
944.125	3820.05
944.431	3835.42
944.738	3823.22
945.044	3831.13
945.35	3763.56
945.657	3773.73
945.963	3747.74
946.269	3750.23
946.575	3723.11
946.881	3707.52
947.187	3709.32
947.493	3670
947.799	3627.74
948.105	3681.75
948.41	3634.52
948.716	3668.42
949.022	3555.2
949.327	3608.99
949.633	3572.38
949.938	3563.11
950.244	3587.97
950.549	3538.93
950.854	3537.58
951.16	3534.86
951.465	3479.5
951.77	3458.26
952.075	3462.1
952.38	3448.31
952.685	3443.79
952.99	3374.64
953.294	3414.19
953.599	3397.92
953.904	3374.64
954.209	3372.38
954.513	3357.92
954.818	3343.68
955.122	3359.73
955.426	3311.14
955.731	3287.64
956.035	3287.41
956.339	3265.72
956.643	3257.58
956.948	3237.7
957.252	3223.01
957.556	3224.14
957.86	3173.07
958.163	3168.09
958.467	3171.71
958.771	3188.66
959.075	3145.72
959.378	3151.6
959.682	3126.51
959.985	3089
960.289	3077.25
960.592	3075.22
960.896	3060.07
961.199	3063.69
961.502	3010.81
961.805	3001.55
962.108	2996.35
962.411	2979.85
962.714	3011.49
963.017	3000.42
963.32	2951.15
963.623	2957.7
963.926	2943.02
964.228	2918.38
964.531	2898.95
964.833	2919.97
965.136	2870.48
965.438	2843.58
965.741	2843.13
966.043	2843.13
966.345	2823.24
966.648	2827.31
966.95	2802
967.252	2790.25
967.554	2757.48
967.856	2771.49
968.158	2740.54
968.46	2745.05
968.761	2759.29
969.063	2729.24
969.365	2724.49
969.666	2709.58
969.968	2717.49
970.269	2678.39
970.571	2701.89
970.872	2704.38
971.174	2643.14
971.475	2645.85
971.776	2607.43
972.077	2630.26
972.378	2586.64
972.679	2586.42
972.98	2581.67
973.281	2563.14
973.582	2552.74
973.883	2559.07
974.183	2521.33
974.484	2519.52
974.785	2516.59
975.085	2532.18
975.386	2520.65
975.686	2472.75
975.986	2494.67
976.287	2533.31
976.587	2461.45
976.887	2428
977.187	2432.07
977.487	2438.85
977.787	2440.2
978.087	2406.31
978.387	2397.04
978.687	2386.65
978.987	2377.83
979.286	2363.6
979.586	2345.97
979.885	2338.96
980.185	2314.78
980.484	2313.2
980.784	2306.2
981.083	2297.16
981.382	2263.49
981.682	2320.43
981.981	2279.08
982.28	2263.03
982.579	2258.51
982.878	2269.36
983.177	2264.39
983.475	2241.57
983.774	2199.31
984.073	2225.97
984.372	2201.57
984.67	2181.68
984.969	2174.22
985.267	2162.47
985.566	2166.77
985.864	2168.12
986.162	2159.99
986.461	2177.16
986.759	2116.6
987.057	2087.45
987.355	2096.03
987.653	2103.94
987.951	2101.23
988.249	2078.41
988.547	2051.51
988.844	2051.06
989.142	2063.72
989.44	2060.78
989.737	2039.76
990.035	2036.82
990.332	2041.12
990.63	2006.32
990.927	2007.45
991.224	1968.35
991.521	1999.31
991.819	1974.45
992.116	1969.26
992.413	1944.62
992.71	1932.87
993.006	1946.66
993.303	1935.81
993.6	1916.15
993.897	1908.47
994.193	1910.5
994.49	1910.27
994.787	1867.11
995.083	1843.16
995.379	1836.38
995.676	1850.62
995.972	1880.9
996.268	1854.91
996.565	1857.39
996.861	1823.95
997.157	1824.18
997.453	1802.48
997.749	1797.51
998.044	1775.59
998.34	1800.67
998.636	1765.87
998.932	1779.88
999.227	1756.38
999.523	1758.64
999.818	1746.66
1000.114	1705.31
1000.409	1711.86
1000.704	1705.31
1001	1693.56
1001.295	1682.48
1001.59	1692.65
1001.885	1660.79
1002.18	1648.59
1002.475	1675.25
1002.77	1650.17
1003.065	1646.55
1003.359	1623.5
1003.654	1634.35
1003.949	1648.59
1004.243	1605.2
1004.538	1606.55
1004.832	1575.59
1005.127	1565.2
1005.421	1584.41
1005.715	1575.14
1006.009	1554.8
1006.304	1570.85
1006.598	1540.79
1006.892	1530.62
1007.186	1537.86
1007.48	1534.01
1007.773	1506.9
1008.067	1498.76
1008.361	1459.67
1008.655	1477.07
1008.948	1489.49
1009.242	1447.01
1009.535	1471.42
1009.829	1468.25
1010.122	1426.45
1010.415	1433.9
1010.708	1425.32
1011.001	1399.55
1011.295	1428.93
1011.588	1402.72
1011.881	1376.73
1012.173	1388.48
1012.466	1377.63
1012.759	1352.32
1013.052	1359.1
1013.344	1363.85
1013.637	1365.88
1013.93	1333.34
1014.222	1326.34
1014.514	1350.74
1014.807	1318.65
1015.099	1324.75
1015.391	1306
1015.683	1318.43
1015.976	1284.75
1016.268	1288.6
1016.56	1287.47
1016.851	1253.34
1017.143	1231.65
1017.435	1256.28
1017.727	1249.28
1018.018	1239.33
1018.31	1219.67
1018.602	1226
1018.893	1205.21
1019.185	1195.49
1019.476	1207.69
1019.767	1211.99
1020.058	1181.03
1020.35	1175.6
1020.641	1152.55
1020.932	1170.41
1021.223	1136.96
1021.514	1143.29
1021.804	1138.54
1022.095	1152.33
1022.386	1155.49
1022.677	1137.87
1022.967	1126.11
1023.258	1112.1
1023.548	1108.71
1023.839	1106.45
1024.129	1091.09
1024.419	1092.44
1024.709	1068.49
1025	1066
1025.29	1086.79
1025.58	1066.91
1025.87	1033.01
1026.16	1039.56
1026.449	1054.03
1026.739	1036.85
1027.029	1032.56
1027.319	1014.03
1027.608	1009.51
1027.898	970.64
1028.187	992.78
1028.477	977.19
1028.766	1000.69
1029.055	994.14
1029.344	969.96
1029.634	969.06
1029.923	935.84
1030.212	965.67
1030.501	962.5
1030.79	954.59
1031.078	966.8
1031.367	934.48
1031.656	925.44
1031.945	924.09
1032.233	924.31
1032.522	903.75
1032.81	903.75
1033.099	895.61
1033.387	894.26
1033.675	884.76
1033.963	877.99
1034.251	864.65
1034.54	873.69
1034.828	868.04
1035.116	860.36
1035.403	874.14
1035.691	843.86
1035.979	853.81
1036.267	857.42
1036.554	844.99
1036.842	821.04
1037.129	816.07
1037.417	812.45
1037.704	818.1
1037.992	813.35
1038.279	801.6
1038.566	814.71
1038.853	814.71
1039.14	814.71
