Data from hue_90_FLMS001491_7.txt Node
Date: Mon Feb 06 15:24:36 GMT 2017
User: dcchb
Spectrometer: FLMS00149
Trigger mode: 0
Integration Time (sec): 2.000000E-2
Scans to average: 10
Electric dark correction enabled: true
Nonlinearity correction enabled: false
Boxcar width: 0
XAxis mode: Wavelengths
Number of Pixels in Spectrum: 2048
>>>>>Begin Spectral Data<<<<<
341.393	6.09
341.776	6.09
342.16	6.09
342.543	-51.54
342.927	-37.08
343.31	-72.1
343.693	-63.97
344.077	-66.23
344.46	-65.78
344.843	-41.37
345.226	-53.57
345.61	-35.04
345.993	-5.44
346.376	-1.37
346.759	1.79
347.142	18.06
347.525	42.7
347.908	69.81
348.291	89.48
348.674	80.44
349.057	102.58
349.44	131.28
349.823	152.98
350.206	144.39
350.588	181.9
350.971	222.13
351.354	213.31
351.737	225.06
352.119	238.4
352.502	245.63
352.884	275.23
353.267	292.41
353.65	274.33
354.032	294.67
354.414	320.2
354.797	324.72
355.179	331.5
355.562	315.91
355.944	310.26
356.326	344.61
356.709	360.65
357.091	345.51
357.473	327.89
357.855	324.72
358.238	353.65
358.62	349.13
359.002	348.9
359.384	350.26
359.766	353.65
360.148	329.24
360.53	358.85
360.912	347.32
361.294	343.03
361.676	318.4
362.057	334.67
362.439	335.34
362.821	336.93
363.203	322.46
363.584	323.82
363.966	319.75
364.348	314.55
364.729	334.89
365.111	324.5
365.493	309.13
365.874	297.83
366.256	321.11
366.637	314.55
367.019	327.66
367.4	332.41
367.781	323.82
368.163	293.31
368.544	318.85
368.925	299.19
369.306	308.23
369.688	301.67
370.069	302.58
370.45	306.42
370.831	319.53
371.212	328.11
371.593	288.34
371.974	308.45
372.355	311.39
372.736	308.45
373.117	308
373.498	315.68
373.879	296.93
374.26	312.29
374.641	327.43
375.021	323.59
375.402	329.02
375.783	313.2
376.163	316.14
376.544	327.21
376.925	334.44
377.305	325.18
377.686	325.4
378.066	328.11
378.447	324.27
378.827	319.07
379.208	338.73
379.588	311.16
379.968	303.71
380.349	310.26
380.729	325.4
381.109	315.23
381.489	317.72
381.87	340.54
382.25	352.74
382.63	355.91
383.01	328.56
383.39	326.76
383.77	336.25
384.15	353.2
384.53	336.47
384.91	337.15
385.29	325.85
385.67	348.45
386.049	362.46
386.429	350.71
386.809	351.62
387.189	338.96
387.568	351.39
387.948	333.08
388.328	343.93
388.707	348.45
389.087	347.32
389.466	351.39
389.846	358.17
390.225	347.77
390.605	376.47
390.984	355.91
391.363	349.58
391.743	349.13
392.122	339.19
392.501	356.81
392.881	368.56
393.26	378.73
393.639	370.82
394.018	350.49
394.397	375.12
394.776	387.77
395.155	404.5
395.534	375.57
395.913	383.03
396.292	378.28
396.671	390.94
397.05	401.11
397.429	377.15
397.808	377.15
398.186	387.55
398.565	386.87
398.944	377.6
399.323	386.87
399.701	391.84
400.08	402.46
400.458	396.81
400.837	421.22
401.215	402.69
401.594	398.85
401.972	392.29
402.351	412.18
402.729	401.78
403.107	414.66
403.486	406.08
403.864	431.16
404.242	416.02
404.62	413.53
404.999	428
405.377	418.51
405.755	397.94
406.133	429.13
406.511	396.81
406.889	440.43
407.267	444.72
407.645	420.99
408.023	441.56
408.401	442.46
408.779	442.91
409.156	449.69
409.534	453.53
409.912	449.47
410.29	456.47
410.667	446.08
411.045	455.34
411.422	484.27
411.8	469.35
412.178	465.06
412.555	468.22
412.933	461.67
413.31	473.19
413.687	471.61
414.065	479.75
414.442	476.58
414.819	485.85
415.197	502.57
415.574	487.88
415.951	477.49
416.328	493.31
416.705	502.12
417.082	520.42
417.46	498.05
417.837	488.33
418.214	505.51
418.591	522.46
418.967	514.1
419.344	526.98
419.721	513.64
420.098	519.97
420.475	534.89
420.852	532.18
421.228	540.54
421.605	521.55
421.982	524.04
422.358	525.17
422.735	531.72
423.111	532.63
423.488	560.65
423.864	557.26
424.241	549.8
424.617	548.45
424.994	551.16
425.37	567.65
425.746	547.99
426.123	559.29
426.499	586.64
426.875	595.22
427.251	586.19
427.627	594.09
428.003	583.7
428.379	603.36
428.756	617.14
429.132	600.2
429.507	597.26
429.883	626.64
430.259	619.18
430.635	613.76
431.011	619.86
431.387	620.99
431.763	629.35
432.138	649.69
432.514	635.9
432.89	666.18
433.265	648.78
433.641	678.16
434.016	680.65
434.392	673.87
434.767	691.95
435.143	712.51
435.518	692.17
435.894	713.87
436.269	702.57
436.644	727.2
437.02	709.57
437.395	689.46
437.77	717.03
438.145	733.53
438.52	753.86
438.895	753.19
439.271	728.1
439.646	747.99
440.021	766.29
440.395	776.91
440.77	761.55
441.145	770.81
441.52	797.25
441.895	792.96
442.27	799.06
442.645	827.76
443.019	784.82
443.394	783.02
443.769	794.32
444.143	777.14
444.518	813.07
444.892	821.89
445.267	835.44
445.641	846.52
446.016	857.14
446.39	833.41
446.764	832.28
447.139	855.1
447.513	854.65
447.887	852.84
448.262	872.28
448.636	873.64
449.01	867.76
449.384	879.96
449.758	883.58
450.132	885.16
450.506	891.04
450.88	890.58
451.254	894.43
451.628	902.79
452.002	932.84
452.376	931.94
452.75	929.45
453.123	937.81
453.497	968.1
453.871	969.9
454.244	971.26
454.618	984.14
454.992	996.34
455.365	983.69
455.739	1032.73
456.112	1031.15
456.486	1051.71
456.859	1028.66
457.232	1055.33
457.606	1063.91
457.979	1061.65
458.352	1073.63
458.725	1093.52
459.099	1126.06
459.472	1131.48
459.845	1139.39
460.218	1135.55
460.591	1161.54
460.964	1127.19
461.337	1218.48
461.71	1227.98
462.083	1211.93
462.456	1241.54
462.829	1221.42
463.201	1277.47
463.574	1254.87
463.947	1288.77
464.32	1306.62
464.692	1309.1
465.065	1335.54
465.438	1356.56
465.81	1364.47
466.183	1381.19
466.555	1413.51
466.928	1423.9
467.3	1421.64
467.672	1440.85
468.045	1483.56
468.417	1491.92
468.789	1521.98
469.161	1538.93
469.534	1553.62
469.906	1626.61
470.278	1607.4
470.65	1662.32
471.022	1675.2
471.394	1721.52
471.766	1715.42
472.138	1754.06
472.51	1813.05
472.882	1858.47
473.253	1895.3
473.625	1906.6
473.997	1964.91
474.369	1978.69
474.74	1999.48
475.112	2080.16
475.484	2128.52
475.855	2161.96
476.227	2164.9
476.598	2258.68
476.97	2286.71
477.341	2341.85
477.713	2404.22
478.084	2452.58
478.455	2560.14
478.827	2592.23
479.198	2697.54
479.569	2724.21
479.94	2808.73
480.311	2858.44
480.682	2915.39
481.053	3042.84
481.424	3095.72
481.795	3128.49
482.166	3220.01
482.537	3328.94
482.908	3416.62
483.279	3459.33
483.65	3573.45
484.021	3671.08
484.391	3768.7
484.762	3802.82
485.133	3942.48
485.503	4035.36
485.874	4136.37
486.244	4256.6
486.615	4321.68
486.985	4439.64
487.356	4578.85
487.726	4631.28
488.097	4783.14
488.467	4895.22
488.837	4984.71
489.207	5106.29
489.578	5248.21
489.948	5334.31
490.318	5498.6
490.688	5515.32
491.058	5696.33
491.428	5796.22
491.798	5910.34
492.168	6032.37
492.538	6105.36
492.908	6258.58
493.278	6383.32
493.648	6468.52
494.017	6637.55
494.387	6746.48
494.757	6798.23
495.126	6937.2
495.496	6990.54
495.866	7116.18
496.235	7268.5
496.605	7364.31
496.974	7449.28
497.344	7655.38
497.713	7629.62
498.082	7776.28
498.452	7898.08
498.821	8027.8
499.19	8062.6
499.559	8179.88
499.928	8256.49
500.298	8322.25
500.667	8456.71
501.036	8521.57
501.405	8644.96
501.774	8682.92
502.143	8805.86
502.512	8861
502.88	8902.58
503.249	9040.2
503.618	9114.77
503.987	9135.79
504.356	9325.84
504.724	9305.05
505.093	9410.36
505.462	9429.34
505.83	9510.24
506.199	9614.42
506.567	9709.11
506.936	9669.79
507.304	9839.5
507.672	9982.32
508.041	9978.93
508.409	10019.38
508.777	10133.28
509.145	10134.18
509.514	10208.08
509.882	10341.63
510.25	10313.84
510.618	10335.08
510.986	10449.43
511.354	10492.59
511.722	10560.39
512.09	10610.78
512.458	10610.78
512.826	10666.37
513.193	10721.29
513.561	10766.71
513.929	10831.34
514.297	10874.95
514.664	10962.86
515.032	10979.13
515.4	11010.77
515.767	11111.33
516.135	11070.43
516.502	11011.67
516.869	11225
517.237	11177.77
517.604	11226.13
517.972	11250.31
518.339	11270.42
518.706	11338.44
519.073	11351.78
519.44	11407.82
519.808	11486.92
520.175	11419.35
520.542	11524.43
520.909	11583.64
521.276	11576.86
521.643	11598.78
522.009	11646.23
522.376	11727.14
522.743	11751.09
523.11	11857.75
523.477	11866.11
523.843	11880.58
524.21	11954.47
524.577	12003.74
524.943	11961.93
525.31	11956.51
525.676	12010.29
526.043	12001.48
526.409	12089.61
526.776	12142.27
527.142	12162.6
527.508	12161.02
527.874	12236.73
528.241	12205.99
528.607	12257.74
528.973	12321.02
529.339	12192.43
529.705	12338.87
530.071	12352.88
530.437	12337.51
530.803	12372.09
531.169	12306.1
531.535	12290.06
531.901	12281.02
532.267	12288.02
532.632	12372.32
532.998	12257.29
533.364	12291.41
533.73	12304.97
534.095	12324.86
534.461	12276.05
534.826	12339.1
535.192	12240.79
535.557	12356.72
535.923	12261.36
536.288	12252.32
536.653	12276.27
537.019	12210.96
537.384	12170.51
537.749	12161.25
538.114	12151.76
538.479	12109.05
538.845	12183.85
539.21	12124.19
539.575	12052.1
539.94	12112.44
540.305	12092.78
540.67	12007.35
541.034	11994.02
541.399	12108.82
541.764	12080.57
542.129	12024.75
542.494	12008.26
542.858	11934.36
543.223	11894.81
543.587	11876.06
543.952	11864.98
544.316	11829.51
544.681	11798.09
545.045	11744.99
545.41	11799
545.774	11842.61
546.138	11737.53
546.503	11643.97
546.867	11671.09
547.231	11728.94
547.595	11712.22
547.959	11723.97
548.324	11592.68
548.688	11590.64
549.052	11619.12
549.416	11529.85
549.779	11474.94
550.143	11458.67
550.507	11531.21
550.871	11494.6
551.235	11463.87
551.599	11507.71
551.962	11409.18
552.326	11427.71
552.689	11420.93
553.053	11321.95
553.417	11420.48
553.78	11490.08
554.143	11340.93
554.507	11370.99
554.87	11315.62
555.234	11362.85
555.597	11300.48
555.96	11326.24
556.323	11323.3
556.686	11243.98
557.05	11236.75
557.413	11310.42
557.776	11233.14
558.139	11284.21
558.502	11160.82
558.865	11303.87
559.228	11311.1
559.59	11233.14
559.953	11314.94
560.316	11420.25
560.679	11262.51
561.041	11298.22
561.404	11385.9
561.767	11367.82
562.129	11275.17
562.492	11340.03
562.854	11352
563.217	11309.29
563.579	11305
563.941	11384.77
564.304	11376.18
564.666	11462.74
565.028	11423.41
565.39	11383.87
565.753	11494.82
566.115	11474.94
566.477	11411.66
566.839	11434.94
567.201	11562.39
567.563	11480.36
567.925	11595.84
568.287	11586.35
568.648	11566.24
569.01	11650.3
569.372	11636.74
569.734	11491.21
570.095	11538.21
570.457	11647.82
570.819	11634.48
571.18	11652.79
571.542	11680.81
571.903	11662.28
572.265	11636.29
572.626	11688.72
572.987	11740.47
573.349	11637.65
573.71	11762.39
574.071	11743.41
574.432	11783.86
574.794	11924.87
575.155	11844.87
575.516	11766.91
575.877	11782.27
576.238	11843.74
576.599	11820.24
576.96	11804.65
577.32	11853.46
577.681	11925.55
578.042	11914.25
578.403	11843.52
578.763	11950.86
579.124	11930.75
579.485	11864.98
579.845	11958.32
580.206	11899.56
580.566	11922.16
580.927	11859.11
581.287	11922.84
581.648	11823.4
582.008	11914.47
582.368	11838.54
582.728	11905.44
583.089	11798.32
583.449	11866.11
583.809	11815.49
584.169	11771.2
584.529	11859.11
584.889	11961.48
585.249	11820.47
585.609	11779.56
585.969	11821.37
586.329	11885.78
586.688	11849.17
587.048	11826.34
587.408	11797.87
587.768	11791.54
588.127	11797.19
588.487	11764.42
588.846	11825.89
589.206	11711.54
589.565	11738.21
589.925	11763.07
590.284	11740.02
590.643	11698.44
591.003	11803.52
591.362	11750.64
591.721	11729.85
592.08	11736.63
592.44	11757.64
592.799	11726.23
593.158	11661.15
593.517	11655.27
593.876	11693.69
594.235	11652.79
594.593	11740.69
594.952	11755.61
595.311	11633.35
595.67	11719.68
596.029	11718.32
596.387	11755.61
596.746	11678.77
597.104	11602.17
597.463	11623.18
597.822	11704.99
598.18	11712.22
598.538	11613.24
598.897	11691.66
599.255	11550.19
599.613	11775.27
599.972	11667.48
600.33	11701.15
600.688	11663.41
601.046	11720.81
601.404	11736.85
601.762	11686.91
602.12	11655.5
602.478	11728.49
602.836	11715.84
603.194	11587.93
603.552	11561.94
603.91	11654.14
604.268	11692.11
604.625	11637.42
604.983	11724.88
605.341	11582.96
605.698	11653.46
606.056	11744.54
606.413	11644.43
606.771	11728.72
607.128	11707.02
607.485	11664.09
607.843	11691.66
608.2	11753.35
608.557	11760.35
608.914	11634.93
609.272	11748.38
609.629	11696.85
609.986	11813.69
610.343	11825.44
610.7	11871.76
611.057	11795.61
611.414	11744.08
611.771	11871.54
612.127	11803.74
612.484	11814.82
612.841	11894.14
613.198	11827.25
613.554	11809.62
613.911	11876.96
614.267	11804.87
614.624	11903.63
614.98	11910.18
615.337	11974.13
615.693	11949.95
616.05	11925.77
616.406	11973.91
616.762	11910.41
617.118	11922.38
617.475	11943.4
617.831	12013.46
618.187	12027.01
618.543	11969.84
618.899	12083.28
619.255	12039.44
619.611	11941.59
619.967	12116.73
620.323	12097.52
620.678	12032.66
621.034	11996.51
621.39	11977.3
621.746	11973.91
622.101	12077.18
622.457	11996.05
622.812	12037.86
623.168	11964.64
623.523	12077.18
623.879	12130.51
624.234	12088.48
624.589	12136.39
624.945	12049.61
625.3	12022.95
625.655	12143.85
626.01	12100.23
626.365	12081.25
626.72	12007.58
627.075	11973.68
627.43	12021.14
627.785	12000.57
628.14	12022.49
628.495	11981.37
628.85	11991.53
629.205	11909.73
629.559	11984.3
629.914	12000.35
630.269	11955.15
630.623	11921.25
630.978	11868.6
631.332	11946.11
631.687	11973.46
632.041	11945.43
632.396	11943.63
632.75	11948.6
633.104	11909.28
633.459	11847.13
633.813	11848.71
634.167	11823.86
634.521	11851.65
634.875	11821.6
635.229	11772.78
635.583	11755.38
635.937	11726.68
636.291	11708.6
636.645	11790.86
636.999	11725.55
637.352	11741.82
637.706	11670.87
638.06	11704.76
638.413	11635.16
638.767	11670.87
639.121	11702.28
639.474	11561.94
639.828	11595.61
640.181	11670.87
640.534	11612.79
640.888	11595.16
641.241	11566.46
641.594	11621.83
641.947	11569.85
642.301	11574.37
642.654	11568.5
643.007	11592
643.36	11565.33
643.713	11487.59
644.066	11582.51
644.419	11401.49
644.771	11406.47
645.124	11332.34
645.477	11217.54
645.83	11232.68
646.182	11200.6
646.535	11093.93
646.888	11226.13
647.24	11133.25
647.593	11216.19
647.945	11139.35
648.298	11117.21
648.65	11068.62
649.002	11101.16
649.355	11100.71
649.707	11042.41
650.059	11113.59
650.411	11316.3
650.763	11212.8
651.115	11372.79
651.467	11298.22
651.819	11318.11
652.171	11330.54
652.523	11290.76
652.875	11321.04
653.227	11273.81
653.578	11387.03
653.93	11387.03
654.282	11330.54
654.633	11230.65
654.985	11278.79
655.337	11277.66
655.688	11268.39
656.039	11284.89
656.391	11307.49
656.742	11310.2
657.094	11246.92
657.445	11329.86
657.796	11294.38
658.147	11296.41
658.498	11272.91
658.849	11326.92
659.2	11327.15
659.551	11276.53
659.902	11339.57
660.253	11299.35
660.604	11355.85
660.955	11210.31
661.306	11279.69
661.656	11286.47
662.007	11291.21
662.358	11347.94
662.708	11293.93
663.059	11328.95
663.409	11251.44
663.76	11415.96
664.11	11394.49
664.461	11408.27
664.811	11337.54
665.161	11338.22
665.511	11341.61
665.862	11340.03
666.212	11349.29
666.562	11320.37
666.912	11264.32
667.262	11267.49
667.612	11350.65
667.962	11319.69
668.312	11321.5
668.662	11382.29
669.011	11319.24
669.361	11276.3
669.711	11292.8
670.06	11322.17
670.41	11343.64
670.76	11266.36
671.109	11376.64
671.459	11291.89
671.808	11250.31
672.157	11288.28
672.507	11220.71
672.856	11250.99
673.205	11244.66
673.554	11286.69
673.904	11221.16
674.253	11323.08
674.602	11280.37
674.951	11107.04
675.3	11082.63
675.649	11211.22
675.998	11208.96
676.346	11117.43
676.695	11265.23
677.044	11065.46
677.393	11179.8
677.741	11178.22
678.09	11063.2
678.438	11098.23
678.787	11152.46
679.135	11073.82
679.484	11066.59
679.832	11090.99
680.181	10935.52
680.529	11052.58
680.877	10979.36
681.225	10974.61
681.573	11044.67
681.922	10969.87
682.27	10911.34
682.618	10890.32
682.966	10830.44
683.314	10895.97
683.661	10819.81
684.009	10792.92
684.357	10808.97
684.705	10738.91
685.053	10768.97
685.4	10729.42
685.748	10730.1
686.095	10693.26
686.443	10626.6
686.79	10534.17
687.138	10628.41
687.485	10570.1
687.832	10579.59
688.18	10521.74
688.527	10458.02
688.874	10495.3
689.221	10498.92
689.568	10415.98
689.915	10360.84
690.262	10442.42
690.609	10331.69
690.956	10309.32
691.303	10355.87
691.65	10269.55
691.997	10240.85
692.344	10146.16
692.69	10232.94
693.037	10174.18
693.383	10118.36
693.73	10141.87
694.077	10081.75
694.423	10037.46
694.769	10006.73
695.116	9982.1
695.462	9919.5
695.808	9907.07
696.155	9949.1
696.501	9814.19
696.847	9769.45
697.193	9727.19
697.539	9793.85
697.885	9713.63
698.231	9695.32
698.577	9612.39
698.923	9650.58
699.269	9543.46
699.614	9504.14
699.96	9566.74
700.306	9507.98
700.651	9444.48
700.997	9430.02
701.342	9406.97
701.688	9397.48
702.033	9359.29
702.379	9361.55
702.724	9279.97
703.069	9333.07
703.415	9150.25
703.76	9206.98
704.105	9214.21
704.45	9157.94
704.795	9118.39
705.14	9095.34
705.485	9085.62
705.83	9011.5
706.175	8995.68
706.52	9011.5
706.865	8996.81
707.209	8935.57
707.554	8898.96
707.899	8912.97
708.243	8826.42
708.588	8798.62
708.932	8784.61
709.277	8773.09
709.621	8741.22
709.966	8701.45
710.31	8702.58
710.654	8597.27
710.998	8708.68
711.342	8628.69
711.687	8642.47
712.031	8597.73
712.375	8591.4
712.719	8554.79
713.063	8545.75
713.407	8568.57
713.75	8522.93
714.094	8562.92
714.438	8524.73
714.782	8521.34
715.125	8449.93
715.469	8417.62
715.812	8351.63
716.156	8332.42
716.499	8325.19
716.843	8392.08
717.186	8340.11
717.53	8391.18
717.873	8352.31
718.216	8299.2
718.559	8360.9
718.902	8241.35
719.246	8298.98
719.589	8287.45
719.932	8207
720.275	8247.45
720.617	8205.87
720.96	8194.8
721.303	8265.76
721.646	8159.77
721.989	8195.02
722.331	8158.19
722.674	8114.12
723.016	8161.58
723.359	8211.97
723.701	8125.42
724.044	8154.12
724.386	8085.42
724.729	8176.49
725.071	8114.57
725.413	8131.3
725.755	8099.43
726.097	8158.42
726.439	8032.54
726.782	8027.12
727.124	8096.27
727.465	8029.15
727.807	8013.33
728.149	8021.7
728.491	7976.27
728.833	8051.53
729.175	7969.04
729.516	7993.22
729.858	8008.36
730.199	8017.85
730.541	8009.72
730.882	7984.86
731.224	7981.24
731.565	7971.53
731.906	7948.25
732.248	7920.23
732.589	7891.53
732.93	7929.95
733.271	7881.59
733.612	7933.79
733.953	7912.77
734.294	7936.95
734.635	7890.63
734.976	7981.02
735.317	7917.74
735.658	7987.12
735.999	7953.68
736.339	7926.78
736.68	7954.8
737.021	7983.73
737.361	7962.94
737.702	8013.33
738.042	7994.58
738.383	7961.36
738.723	8028.25
739.063	8034.35
739.404	7943.28
739.744	7994.35
740.084	7958.19
740.424	7973.34
740.764	7943.51
741.104	8029.83
741.444	7983.05
741.784	7998.65
742.124	8060.11
742.464	8069.83
742.804	8036.16
743.143	8044.29
743.483	8022.6
743.823	8051.75
744.162	8102.6
744.502	8144.18
744.841	8166.55
745.181	8180.34
745.52	8205.87
745.86	8220.56
746.199	8301.24
746.538	8186.44
746.877	8358.64
747.216	8324.74
747.556	8386.88
747.895	8417.17
748.234	8432.08
748.573	8481.8
748.911	8519.31
749.25	8537.16
749.589	8597.73
749.928	8580.55
750.267	8771.28
750.605	8758.17
750.944	8870.04
751.283	8865.06
751.621	8973.76
751.96	9019.86
752.298	9120.65
752.636	9223.7
752.975	9231.16
753.313	9311.15
753.651	9445.39
753.989	9494.88
754.327	9571.94
754.666	9590.69
755.004	9768.09
755.342	9866.62
755.679	9952.04
756.017	10039.5
756.355	10204.46
756.693	10288.3
757.031	10399.03
757.368	10524.23
757.706	10561.97
758.044	10714.73
758.381	10871.79
758.719	10962.64
759.056	11116.98
759.394	11192.69
759.731	11304.77
760.068	11411.66
760.405	11569.63
760.743	11642.39
761.08	11899.56
761.417	11950.63
761.754	12169.16
762.091	12245.77
762.428	12341.58
762.765	12453.44
763.102	12691.4
763.438	12723.04
763.775	12833.32
764.112	13069.02
764.449	13229.24
764.785	13353.08
765.122	13388.33
765.458	13598.5
765.795	13671.49
766.131	13785.61
766.467	13929.56
766.804	13937.7
767.14	13991.03
767.476	14162.33
767.812	14228.76
768.148	14461.98
768.485	14510.11
768.821	14574.07
769.157	14665.14
769.492	14778.81
769.828	14917.56
770.164	14950.55
770.5	15003.89
770.836	15198.23
771.171	15167.27
771.507	15281.62
771.842	15315.74
772.178	15312.13
772.513	15473.25
772.849	15583.76
773.184	15617.43
773.519	15706.24
773.855	15696.52
774.19	15736.52
774.525	15780.14
774.86	15854.03
775.195	15896.07
775.53	15953.01
775.865	15969.51
776.2	15915.95
776.535	15980.36
776.87	15990.3
777.205	16010.86
777.539	15985.33
777.874	16107.58
778.209	16010.41
778.543	16014.71
778.878	16112.78
779.212	16174.02
779.547	16133.57
779.881	16249.05
780.215	16158.21
780.55	16246.56
780.884	16117.75
781.218	16122.27
781.552	16217.19
781.886	16163.4
782.22	16221.71
782.554	16150.97
782.888	16102.84
783.222	16120.47
783.556	16048.83
783.889	16088.38
784.223	15994.59
784.557	16023.52
784.89	16093.12
785.224	15952.33
785.557	15982.84
785.891	15940.81
786.224	15955.05
786.558	16054.7
786.891	15914.6
787.224	15834.82
787.557	15870.3
787.891	15800.7
788.224	15837.99
788.557	15938.32
788.89	15912.34
789.223	15858.1
789.556	15694.04
789.888	15794.6
790.221	15783.07
790.554	15633.47
790.887	15642.51
791.219	15645.22
791.552	15700.14
791.884	15562.51
792.217	15639.12
792.549	15545.57
792.882	15445
793.214	15450.88
793.546	15487.49
793.879	15324.33
794.211	15266.48
794.543	15410.2
794.875	15285.01
795.207	15354.61
795.539	15275.06
795.871	15312.35
796.203	15072.13
796.535	15077.33
796.867	15103.09
797.198	15112.58
797.53	15053.15
797.862	14984.9
798.193	15010.44
798.525	14817.22
798.856	15005.02
799.188	14782.42
799.519	14777.22
799.85	14734.51
800.182	14681.63
800.513	14736.55
800.844	14661.97
801.175	14717.79
801.506	14659.49
801.837	14667.62
802.168	14576.78
802.499	14454.75
802.83	14473.73
803.161	14397.12
803.491	14442.09
803.822	14410.23
804.153	14339.5
804.483	14305.82
804.814	14171.14
805.145	14083.46
805.475	14311.93
805.805	14049.33
806.136	14113.74
806.466	14137.69
806.796	14127.3
807.126	14013.85
807.457	13963.46
807.787	13988.77
808.117	13899.06
808.447	13902.9
808.777	13931.14
809.107	13880.52
809.436	13803.92
809.766	13797.14
810.096	13758.72
810.426	13769.34
810.755	13758.72
811.085	13771.15
811.414	13669.91
811.744	13573.64
812.073	13502.46
812.403	13580.42
812.732	13408.22
813.061	13531.16
813.39	13421.1
813.719	13427.66
814.049	13505.39
814.378	13473.98
814.707	13338.17
815.036	13375.23
815.365	13289.58
815.693	13173.42
816.022	13192.18
816.351	13216.81
816.68	13079.87
817.008	13136.59
817.337	12953.54
817.665	13002.81
817.994	13071.73
818.322	13063.37
818.651	12948.8
818.979	12905.64
819.307	13011.85
819.636	12937.95
819.964	12861.57
820.292	12883.49
820.62	12876.26
820.948	12903.6
821.276	12868.35
821.604	12849.37
821.932	12976.37
822.259	12902.7
822.587	12820.89
822.915	12908.35
823.243	12958.74
823.57	12825.86
823.898	12828.58
824.225	12744.96
824.553	12810.27
824.88	12831.06
825.207	12920.55
825.535	12854.34
825.862	12878.97
826.189	12822.47
826.516	12894.56
826.843	12909.93
827.17	12867.67
827.497	12903.6
827.824	12942.24
828.151	12927.56
828.478	12873.09
828.805	12957.16
829.131	12858.86
829.458	12823.15
829.785	12726.43
830.111	12797.62
830.438	12826.77
830.764	12868.8
831.09	12884.84
831.417	12816.82
831.743	12868.57
832.069	12821.12
832.395	12774.11
832.722	12818.41
833.048	12730.05
833.374	12846.2
833.7	12699.31
834.026	12757.39
834.351	12771.18
834.677	12764.4
835.003	12811.63
835.329	12734.79
835.654	12614.12
835.98	12647.79
836.306	12673.55
836.631	12630.39
836.956	12622.25
837.282	12648.47
837.607	12621.12
837.932	12532.09
838.258	12564.18
838.583	12555.14
838.908	12499.32
839.233	12603.95
839.558	12512.88
839.883	12510.39
840.208	12355.14
840.533	12457.29
840.858	12431.07
841.182	12413.9
841.507	12452.99
841.832	12290.74
842.156	12279.44
842.481	12266.1
842.805	12320.34
843.13	12223.62
843.454	12245.77
843.778	12086.45
844.103	12224.07
844.427	12102.04
844.751	12185.2
845.075	12058.2
845.399	12026.56
845.723	11932.78
846.047	11992.21
846.371	11837.41
846.695	11902.27
847.019	11802.39
847.343	11806.46
847.666	11697.31
847.99	11626.12
848.313	11639
848.637	11650.98
848.96	11599.91
849.284	11552.9
849.607	11426.35
849.931	11465.22
850.254	11398.78
850.577	11265.23
850.9	11231.55
851.223	11253.93
851.546	11187.49
851.869	11094.61
852.192	11100.71
852.515	10999.02
852.838	10968.96
853.161	10975.97
853.483	10886.25
853.806	10944.1
854.129	10930.32
854.451	10855.52
854.774	10790.89
855.096	10788.85
855.419	10721.74
855.741	10684.22
856.063	10609.42
856.385	10609.2
856.708	10546.15
857.03	10524
857.352	10491.46
857.674	10525.13
857.996	10519.94
858.318	10411.24
858.64	10436.32
858.961	10414.18
859.283	10320.17
859.605	10318.81
859.926	10294.86
860.248	10288.08
860.57	10244.91
860.891	10232.49
861.212	10219.83
861.534	10206.72
861.855	10092.38
862.176	10163.79
862.498	10125.82
862.819	10120.85
863.14	10044.02
863.461	10092.38
863.782	10031.13
864.103	10055.31
864.424	9894.19
864.745	10026.16
865.065	9962.66
865.386	9899.16
865.707	9922.66
866.027	9950.46
866.348	9864.36
866.668	9883.57
866.989	9900.29
867.309	9734.87
867.63	9790.24
867.95	9694.65
868.27	9752.05
868.59	9788.43
868.91	9756.11
869.23	9644.03
869.55	9681.54
869.87	9765.6
870.19	9722.22
870.51	9677.47
870.83	9651.94
871.15	9651.26
871.469	9643.8
871.789	9623.69
872.109	9686.96
872.428	9556.34
872.748	9565.38
873.067	9564.48
873.386	9573.97
873.706	9519.06
874.025	9481.77
874.344	9443.13
874.663	9466.63
874.982	9442
875.301	9465.5
875.62	9355.22
875.939	9434.31
876.258	9341.66
876.577	9378.95
876.896	9330.36
877.214	9345.28
877.533	9395.9
877.852	9268.22
878.17	9255.34
878.489	9253.3
878.807	9319.74
879.125	9225.96
879.444	9160.2
879.762	9205.62
880.08	9208.33
880.398	9129.24
880.716	9190.93
881.034	9114.32
881.352	9126.75
881.67	9088.11
881.988	9080.43
882.306	9111.38
882.624	9105.96
882.941	9020.31
883.259	9025.29
883.577	9057.15
883.894	9010.82
884.212	8957.94
884.529	8959.98
884.846	8880.88
885.164	8900.09
885.481	8883.59
885.798	8919.53
886.115	8838.17
886.432	8815.12
886.75	8744.84
887.067	8826.42
887.383	8734.45
887.7	8757.04
888.017	8696.25
888.334	8724.05
888.651	8709.14
888.967	8669.59
889.284	8641.57
889.6	8609.25
889.917	8562.47
890.233	8545.52
890.55	8474.79
890.866	8479.76
891.182	8448.58
891.498	8468.01
891.815	8446.09
892.131	8388.92
892.447	8346.43
892.763	8345.3
893.079	8358.64
893.395	8294.23
893.71	8372.42
894.026	8209.94
894.342	8230.5
894.657	8191.86
894.973	8248.81
895.289	8137.17
895.604	8148.92
895.92	8073.45
896.235	8053.33
896.55	7994.35
896.865	8034.12
897.181	8050.17
897.496	7984.18
897.811	7923.85
898.126	7869.38
898.441	7881.36
898.756	7900.57
899.071	7800.91
899.386	7789.16
899.7	7729.5
900.015	7753.91
900.33	7664.64
900.644	7672.55
900.959	7626
901.273	7597.53
901.588	7575.61
901.902	7562.72
902.216	7498.77
902.531	7510.3
902.845	7468.26
903.159	7456.74
903.473	7416.29
903.787	7373.35
904.101	7375.61
904.415	7342.84
904.729	7275.27
905.042	7218.33
905.356	7257.42
905.67	7201.38
905.984	7170.19
906.297	7149.18
906.611	7169.29
906.924	7099.01
907.237	7083.87
907.551	7070.08
907.864	7019.91
908.177	7008.39
908.491	7017.88
908.804	6981.05
909.117	6942.4
909.43	6894.04
909.743	6812.01
910.056	6764.1
910.368	6826.93
910.681	6732.46
910.994	6775.17
911.307	6705.12
911.619	6684.56
911.932	6653.82
912.244	6605.91
912.557	6637.33
912.869	6621.05
913.181	6548.74
913.494	6567.5
913.806	6510.78
914.118	6504.45
914.43	6454.73
914.742	6446.37
915.054	6438.23
915.366	6389.65
915.678	6336.09
915.99	6379.48
916.302	6306.26
916.613	6258.35
916.925	6292.02
917.236	6231.01
917.548	6209.99
917.859	6204.79
918.171	6165.93
918.482	6117.79
918.794	6118.92
919.105	6020.84
919.416	6074.63
919.727	6043.89
920.038	6035.76
920.349	5973.84
920.66	5931.58
920.971	5973.61
921.282	5944.46
921.593	5863.56
921.903	5847.74
922.214	5794.64
922.525	5862.43
922.835	5777.91
923.146	5738.82
923.456	5725.94
923.767	5706.73
924.077	5700.85
924.387	5659.5
924.697	5643.23
925.008	5615.66
925.318	5645.49
925.628	5621.53
925.938	5575.88
926.248	5585.15
926.558	5528.43
926.867	5556.9
927.177	5473.74
927.487	5444.59
927.796	5450.92
928.106	5372.05
928.416	5403.46
928.725	5359.17
929.034	5315.33
929.344	5324.37
929.653	5346.96
929.962	5291.82
930.271	5264.03
930.581	5264.71
930.89	5209.79
931.199	5172.73
931.508	5119.63
931.817	5157.59
932.125	5178.15
932.434	5120.76
932.743	5079.17
933.051	5092.06
933.36	5019.97
933.669	5019.51
933.977	4986.75
934.286	4975.45
934.594	4978.16
934.902	4911.5
935.21	4895.22
935.519	4938.16
935.827	4888.22
936.135	4844.6
936.443	4858.62
936.751	4821.1
937.059	4755.34
937.367	4784.04
937.674	4776.13
937.982	4769.58
938.29	4695.91
938.597	4748.11
938.905	4674.67
939.213	4699.3
939.52	4634.21
939.827	4639.64
940.135	4572.97
940.442	4582.92
940.749	4572.97
941.056	4548.34
941.363	4530.71
941.67	4501.79
941.977	4463.37
942.284	4460.66
942.591	4447.55
942.898	4435.58
943.205	4422.02
943.511	4392.86
943.818	4403.71
944.125	4304.51
944.431	4304.28
944.738	4304.73
945.044	4309.48
945.35	4285.07
945.657	4273.77
945.963	4254.11
946.269	4231.29
946.575	4249.59
946.881	4181.34
947.187	4198.52
947.493	4161.46
947.799	4173.21
948.105	4145.19
948.41	4098.64
948.716	4100.67
949.022	4095.7
949.327	4062.25
949.633	4007.79
949.938	3991.52
950.244	4030.61
950.549	3979.32
950.854	3958.3
951.16	3951.07
951.465	3928.47
951.77	3928.47
952.075	3880.34
952.38	3865.42
952.685	3822.94
952.99	3832.65
953.294	3818.87
953.599	3830.85
953.904	3800.34
954.209	3810.06
954.513	3780.23
954.818	3757.63
955.122	3777.06
955.426	3741.58
955.731	3693.22
956.035	3686.44
956.339	3672.88
956.643	3653.9
956.948	3648.25
957.252	3627.91
957.556	3654.81
957.86	3584.07
958.163	3644.41
958.467	3574.58
958.771	3597.41
959.075	3540.46
959.378	3544.98
959.682	3554.02
959.985	3508.59
960.289	3486.67
960.592	3454.13
960.896	3467.24
961.199	3426.79
961.502	3436.96
961.805	3413.68
962.108	3412.1
962.411	3375.94
962.714	3348.82
963.017	3363.97
963.32	3400.57
963.623	3319.45
963.926	3301.37
964.228	3285.78
964.531	3304.76
964.833	3300.01
965.136	3269.28
965.438	3235.38
965.741	3223.4
966.043	3207.81
966.345	3178.66
966.648	3186.12
966.95	3166
967.252	3135.72
967.554	3186.12
967.856	3139.56
968.158	3117.19
968.46	3098.44
968.761	3081.71
969.063	3090.07
969.365	3063.18
969.666	3071.32
969.968	3045.56
970.269	3015.05
970.571	3015.27
970.872	3010.98
971.174	2946.58
971.475	2982.51
971.776	2920.81
972.077	2919.91
972.378	2926.24
972.679	2910.19
972.98	2902.73
973.281	2890.98
973.582	2895.95
973.883	2875.39
974.183	2854.6
974.484	2872.45
974.785	2828.84
975.085	2819.35
975.386	2810.31
975.686	2788.61
975.986	2788.61
976.287	2780.48
976.587	2761.27
976.887	2776.64
977.187	2744.77
977.487	2698.9
977.787	2700.25
978.087	2675.4
978.387	2726.02
978.687	2702.74
978.987	2668.16
979.286	2645.57
979.586	2647.15
979.885	2640.37
980.185	2604.89
980.484	2594.49
980.784	2588.62
981.083	2578
981.382	2580.26
981.682	2565.34
981.981	2549.3
982.28	2517.89
982.579	2522.41
982.878	2546.36
983.177	2521.73
983.475	2498.68
983.774	2496.64
984.073	2447.38
984.372	2486.7
984.67	2448.06
984.969	2453.25
985.267	2467.94
985.566	2457.77
985.864	2412.58
986.162	2393.14
986.461	2400.15
986.759	2375.06
987.057	2357.21
987.355	2368.06
987.653	2343.2
987.951	2360.83
988.249	2375.74
988.547	2318.79
988.844	2283.77
989.142	2330.32
989.44	2293.03
989.737	2266.37
990.035	2247.38
990.332	2272.02
990.63	2194.05
990.927	2224.79
991.224	2209.87
991.521	2232.24
991.819	2198.12
992.116	2185.92
992.413	2168.97
992.71	2176.43
993.006	2160.16
993.303	2173.94
993.6	2164.22
993.897	2158.57
994.193	2148.4
994.49	2120.16
994.787	2108.41
995.083	2076.77
995.379	2106.82
995.676	2088.74
995.972	2074.96
996.268	2068.86
996.565	2046.26
996.861	2048.52
997.157	2063.66
997.453	2036.09
997.749	1992.02
998.044	1976.66
998.34	1980.95
998.636	1975.98
998.932	1973.27
999.227	1945.7
999.523	1951.57
999.818	1919.03
1000.114	1912.7
1000.409	1945.92
1000.704	1904.34
1001	1876.77
1001.295	1906.38
1001.59	1850.56
1001.885	1884.46
1002.18	1870.45
1002.475	1844.46
1002.77	1843.55
1003.065	1851.24
1003.359	1793.16
1003.654	1818.47
1003.949	1788.64
1004.243	1781.18
1004.538	1786.38
1004.832	1780.73
1005.127	1769.2
1005.421	1752.03
1005.715	1754.97
1006.009	1733.27
1006.304	1750.45
1006.598	1729.21
1006.892	1702.77
1007.186	1668.42
1007.48	1672.48
1007.773	1667.96
1008.067	1653.28
1008.361	1651.92
1008.655	1649.43
1008.948	1629.55
1009.242	1613.28
1009.535	1635.88
1009.829	1588.42
1010.122	1586.61
1010.415	1595.2
1010.708	1597.91
1011.001	1574.18
1011.295	1564.46
1011.588	1574.41
1011.881	1545.71
1012.173	1541.64
1012.466	1573.05
1012.759	1532.83
1013.052	1527.18
1013.344	1484.92
1013.637	1517.46
1013.93	1461.87
1014.222	1490.12
1014.514	1476.33
1014.807	1441.53
1015.099	1452.15
1015.391	1458.7
1015.683	1476.33
1015.976	1447.63
1016.268	1449.44
1016.56	1415.09
1016.851	1400.18
1017.143	1417.8
1017.435	1381.42
1017.727	1395.2
1018.018	1358.59
1018.31	1387.97
1018.602	1364.7
1018.893	1361.76
1019.185	1336.22
1019.476	1351.36
1019.767	1315.21
1020.058	1302.55
1020.35	1312.27
1020.641	1303.23
1020.932	1282.66
1021.223	1293.96
1021.514	1273.62
1021.804	1261.42
1022.095	1267.3
1022.386	1262.78
1022.677	1244.92
1022.967	1241.76
1023.258	1207.19
1023.548	1224.36
1023.839	1218.71
1024.129	1208.09
1024.419	1181.88
1024.709	1173.51
1025	1189.33
1025.29	1156.57
1025.58	1146.85
1025.87	1178.03
1026.16	1167.86
1026.449	1148.66
1026.739	1143.23
1027.029	1145.94
1027.319	1133.52
1027.608	1106.62
1027.898	1109.34
1028.187	1133.97
1028.477	1086.06
1028.766	1130.35
1029.055	1075.89
1029.344	1091.26
1029.634	1061.2
1029.923	1087.19
1030.212	1054.87
1030.501	1063.91
1030.79	1052.61
1031.078	1035.44
1031.367	1042.44
1031.656	1032.73
1031.945	1025.04
1032.233	998.38
1032.522	1015.55
1032.81	1005.16
1033.099	973.97
1033.387	992.28
1033.675	1029.34
1033.963	995.67
1034.251	969
1034.54	959.96
1034.828	956.57
1035.116	961.54
1035.403	941.66
1035.691	961.09
1035.979	928.78
1036.267	926.97
1036.554	902.79
1036.842	914.31
1037.129	917.7
1037.417	889
1037.704	886.06
1037.992	889.45
1038.279	890.36
1038.566	878.83
1038.853	878.83
1039.14	878.83
