Data from hue_100_FLMS001491_00069.txt Node
Date: Tue Feb 07 17:03:31 GMT 2017
User: dcchb
Spectrometer: FLMS00149
Trigger mode: 0
Integration Time (sec): 2.000000E-2
Scans to average: 10
Electric dark correction enabled: true
Nonlinearity correction enabled: false
Boxcar width: 0
XAxis mode: Wavelengths
Number of Pixels in Spectrum: 2048
>>>>>Begin Spectral Data<<<<<
341.393	-10.8
341.776	-10.8
342.16	-10.8
342.543	-35.66
342.927	-60.07
343.31	-60.75
343.693	-67.53
344.077	-62.1
344.46	-66.62
344.843	-57.36
345.226	-37.92
345.61	-43.35
345.993	-34.76
346.376	-26.17
346.759	10.66
347.142	37.1
347.525	47.72
347.908	57.22
348.291	92.7
348.674	80.27
349.057	130.89
349.44	135.18
349.823	140.38
350.206	164.78
350.588	201.62
350.971	190.32
351.354	229.87
351.737	242.97
352.119	266.48
352.502	290.43
352.884	282.52
353.267	291.79
353.65	297.21
354.032	294.05
354.414	321.39
354.797	338.11
355.179	336.53
355.562	343.08
355.944	313.48
356.326	321.39
356.709	334.95
357.091	332.69
357.473	343.99
357.855	336.3
358.238	345.34
358.62	339.47
359.002	342.63
359.384	345.12
359.766	360.71
360.148	341.95
360.53	362.29
360.912	359.81
361.294	357.77
361.676	324.55
362.057	327.27
362.439	353.25
362.821	324.78
363.203	331.56
363.584	332.69
363.966	317.32
364.348	312.12
364.729	327.94
365.111	321.84
365.493	331.56
365.874	320.03
366.256	333.14
366.637	310.99
367.019	309.19
367.4	299.24
367.781	337.89
368.163	319.58
368.544	322.97
368.925	309.19
369.306	328.17
369.688	321.39
370.069	310.77
370.45	317.77
370.831	328.62
371.212	297.66
371.593	312.58
371.974	341.5
372.355	325.23
372.736	309.19
373.117	311.67
373.498	327.27
373.879	329.07
374.26	313.48
374.641	323.65
375.021	331.56
375.402	315.51
375.783	323.2
376.163	350.54
376.544	313.25
376.925	350.09
377.305	327.94
377.686	321.84
378.066	336.98
378.447	346.02
378.827	341.73
379.208	347.6
379.588	330.43
379.968	341.05
380.349	335.17
380.729	338.11
381.109	330.2
381.489	326.36
381.87	373.14
382.25	352.12
382.63	361.61
383.01	353.03
383.39	350.09
383.77	348.28
384.15	346.25
384.53	367.94
384.91	380.6
385.29	369.07
385.67	366.59
386.049	358.45
386.429	366.13
386.809	366.59
387.189	374.72
387.568	380.37
387.948	379.02
388.328	380.82
388.707	364.55
389.087	371.56
389.466	366.13
389.846	383.08
390.225	366.81
390.605	377.66
390.984	400.03
391.363	388.96
391.743	387.6
392.122	374.04
392.501	391.9
392.881	390.31
393.26	373.59
393.639	394.83
394.018	389.18
394.397	391.44
394.776	411.56
395.155	389.18
395.534	395.06
395.913	391.22
396.292	400.26
396.671	393.93
397.05	414.04
397.429	419.24
397.808	435.51
398.186	415.4
398.565	401.16
398.944	413.36
399.323	414.27
399.701	420.37
400.08	407.72
400.458	416.98
400.837	440.48
401.215	431.67
401.594	419.47
401.972	433.7
402.351	414.72
402.729	423.76
403.107	419.92
403.486	445.68
403.864	463.31
404.242	447.94
404.62	429.64
404.999	445.91
405.377	450.88
405.755	436.64
406.133	467.37
406.511	461.5
406.889	467.83
407.267	430.31
407.645	458.56
408.023	460.82
408.401	458.56
408.779	465.11
409.156	487.04
409.534	486.36
409.912	481.61
410.29	463.76
410.667	467.15
411.045	475.28
411.422	510.54
411.8	521.38
412.178	480.71
412.555	480.48
412.933	514.15
413.31	520.03
413.687	496.53
414.065	515.06
414.442	544.43
414.819	538.11
415.197	541.05
415.574	513.93
415.951	537.66
416.328	549.41
416.705	538.56
417.082	532.23
417.46	541.5
417.837	553.02
418.214	550.76
418.591	564.77
418.967	566.58
419.344	575.39
419.721	595.96
420.098	558.67
420.475	594.38
420.852	592.8
421.228	583.08
421.605	576.3
421.982	587.37
422.358	602.51
422.735	626.47
423.111	583.98
423.488	592.8
423.864	614.04
424.241	610.2
424.617	634.38
424.994	621.72
425.37	644.09
425.746	634.38
426.123	640.48
426.499	638.67
426.875	622.17
427.251	672.57
427.627	662.4
428.003	641.83
428.379	675.05
428.756	658.56
429.132	694.71
429.507	662.62
429.883	678.44
430.259	701.49
430.635	683.41
431.011	685.67
431.387	736.07
431.763	727.93
432.138	713.02
432.514	724.09
432.89	724.54
433.265	754.82
433.641	740.36
434.016	759.34
434.392	761.83
434.767	773.36
435.143	778.78
435.518	784.2
435.894	779.46
436.269	807.93
436.644	811.55
437.02	815.16
437.395	830.3
437.77	813.35
438.145	842.51
438.52	835.73
438.895	848.38
439.271	852.9
439.646	879.34
440.021	854.48
440.395	868.49
440.77	869.4
441.145	891.54
441.52	896.52
441.895	879.57
442.27	893.58
442.645	908.72
443.019	914.37
443.394	937.42
443.769	943.97
444.143	934.93
444.518	931.32
444.892	915.95
445.267	958.21
445.641	948.49
446.016	948.72
446.39	967.47
446.764	966.8
447.139	974.25
447.513	973.12
447.887	978.77
448.262	994.14
448.636	1013.12
449.01	1020.13
449.384	1005.21
449.758	1008.83
450.132	1042.95
450.506	1037.08
450.88	1053.57
451.254	1059.9
451.628	1073.01
452.002	1083.4
452.376	1080.01
452.75	1083.63
453.123	1094.25
453.497	1151.42
453.871	1130.86
454.244	1130.18
454.618	1158.2
454.992	1154.59
455.365	1149.16
455.739	1185.77
456.112	1180.8
456.486	1217.64
456.859	1215.15
457.232	1244.08
457.606	1246.79
457.979	1244.08
458.352	1287.47
458.725	1297.41
459.099	1339.67
459.472	1327.24
459.845	1324.08
460.218	1387.58
460.591	1365.2
460.964	1377.41
461.337	1407.91
461.71	1413.79
462.083	1447.46
462.456	1451.98
462.829	1442.26
463.201	1500.34
463.574	1507.35
463.947	1545.76
464.32	1525.43
464.692	1585.76
465.065	1578.31
465.438	1603.16
465.81	1640.9
466.183	1690.85
466.555	1704.86
466.928	1707.57
467.3	1731.75
467.672	1745.08
468.045	1804.74
468.417	1853.55
468.789	1863.95
469.161	1851.75
469.534	1886.55
469.906	1941.01
470.278	1967
470.65	2024.62
471.022	2055.13
471.394	2095.81
471.766	2090.16
472.138	2142.36
472.51	2197.27
472.882	2274.11
473.253	2254.9
473.625	2301.45
473.997	2408.11
474.369	2471.84
474.74	2507.1
475.112	2568.34
475.484	2603.14
475.855	2650.82
476.227	2702.34
476.598	2837.71
476.97	2855.56
477.341	2941.43
477.713	2987.53
478.084	3075.44
478.455	3160.64
478.827	3237.7
479.198	3323.12
479.569	3364.47
479.94	3523.57
480.311	3600.85
480.682	3728.98
481.053	3825.48
481.424	3889.21
481.795	3996.55
482.166	4096.43
482.537	4199.71
482.908	4354.73
483.279	4444.9
483.65	4617.1
484.021	4671.56
484.391	4798.33
484.762	4911.1
485.133	5068.38
485.503	5171.43
485.874	5409.84
486.244	5489.84
486.615	5620.69
486.985	5752.43
487.356	5912.2
487.726	6057.74
488.097	6216.15
488.467	6281.69
488.837	6536.59
489.207	6657.49
489.578	6884.38
489.948	7015.45
490.318	7202.79
490.688	7270.36
491.058	7458.15
491.428	7633.74
491.798	7826.05
492.168	8074.41
492.538	8139.49
492.908	8243.22
493.278	8515.07
493.648	8571.34
494.017	8828.51
494.387	8911.67
494.757	9168.61
495.126	9237.77
495.496	9387.14
495.866	9468.27
496.235	9741.71
496.605	9868.48
496.974	9958.88
497.344	10136.05
497.713	10288.36
498.082	10443.38
498.452	10550.05
498.821	10654.23
499.19	10743.94
499.559	11008.79
499.928	11044.5
500.298	11209.92
500.667	11331.27
501.036	11425.73
501.405	11610.13
501.774	11692.62
502.143	11757.47
502.512	11885.15
502.88	12034.75
503.249	12062.78
503.618	12322.88
503.987	12374.86
504.356	12387.97
504.724	12524.01
505.093	12622.76
505.462	12712.25
505.83	12832.7
506.199	12919.48
506.567	13150.43
506.936	13179.58
507.304	13301.84
507.672	13412.57
508.041	13458.45
508.409	13615.05
508.777	13666.35
509.145	13805.1
509.514	13739.12
509.882	13942.05
510.25	13982.5
510.618	14091.2
510.986	14086.45
511.354	14203.74
511.722	14309.5
512.09	14410.28
512.458	14413.9
512.826	14530.73
513.193	14549.04
513.561	14686.44
513.929	14749.94
514.297	14800.78
514.664	14887.11
515.032	14947.67
515.4	15005.75
515.767	15029.25
516.135	15118.74
516.502	15019.76
516.869	15236.48
517.237	15305.85
517.604	15202.58
517.972	15482.12
518.339	15516.7
518.706	15410.26
519.073	15454.33
519.44	15524.83
519.808	15710.82
520.175	15608.45
520.542	15758.72
520.909	15828.55
521.276	15806.18
521.643	15834.65
522.009	15909.68
522.376	15996.01
522.743	15998.72
523.11	16173.85
523.477	16282.33
523.843	16342.89
524.21	16467.63
524.577	16460.17
524.943	16448.65
525.31	16454.75
525.676	16576.1
526.043	16694.52
526.409	16619.04
526.776	16752.82
527.142	16658.36
527.508	16759.38
527.874	16827.62
528.241	16847.96
528.607	16759.15
528.973	16902.87
529.339	16866.27
529.705	16975.87
530.071	16986.94
530.437	17057.22
530.803	16940.61
531.169	17014.06
531.535	17031.23
531.901	17008.18
532.267	17004.79
532.632	17080.05
532.998	17003.89
533.364	17004.57
533.73	16976.09
534.095	17063.1
534.461	17067.84
534.826	17032.81
535.192	17001.18
535.557	17098.58
535.923	17026.26
536.288	16965.7
536.653	16944
537.019	16840.5
537.384	16933.61
537.749	16925.47
538.114	16867.4
538.479	16926.83
538.845	16870.56
539.21	16853.38
539.575	16749.66
539.94	16670.11
540.305	16749.21
540.67	16649.1
541.034	16697.23
541.399	16622.66
541.764	16634.18
542.129	16587.63
542.494	16688.42
542.858	16587.4
543.223	16517.57
543.587	16565.48
543.952	16358.26
544.316	16473.51
544.681	16416.79
545.045	16353.51
545.41	16358.03
545.774	16316.45
546.138	16227.64
546.503	16251.82
546.867	16252.04
547.231	16175.44
547.595	16160.52
547.959	16154.87
548.324	16156.68
548.688	16065.38
549.052	16056.57
549.416	15980.64
549.779	15953.07
550.143	15938.83
550.507	15963.69
550.871	15958.72
551.235	15794.43
551.599	15903.35
551.962	15891.6
552.326	15868.33
552.689	15696.8
553.053	15711.04
553.417	15750.81
553.78	15799.4
554.143	15640.99
554.507	15671.04
554.87	15589.01
555.234	15785.16
555.597	15586.98
555.96	15706.75
556.323	15601.21
556.686	15551.95
557.05	15575
557.413	15575.9
557.776	15588.56
558.139	15560.54
558.502	15544.27
558.865	15530.71
559.228	15584.04
559.59	15590.82
559.953	15540.2
560.316	15689.8
560.679	15662.46
561.041	15758.95
561.404	15653.87
561.767	15684.6
562.129	15611.38
562.492	15737.71
562.854	15577.71
563.217	15596.02
563.579	15580.65
563.941	15746.75
564.304	15647.54
564.666	15687.54
565.028	15684.38
565.39	15746.52
565.753	15813.86
566.115	15778.16
566.477	15760.98
566.839	15872.17
567.201	15856.8
567.563	15862.22
567.925	15840.98
568.287	15842.34
568.648	15920.3
569.01	15903.35
569.372	15927.53
569.734	15953.97
570.095	15958.27
570.457	15956.46
570.819	15955.1
571.18	15921.88
571.542	16039.17
571.903	16064.7
572.265	16041.2
572.626	16026.06
572.987	16043.01
573.349	16069.22
573.71	16123.69
574.071	16165.72
574.432	16147.87
574.794	16254.08
575.155	16125.27
575.516	16246.39
575.877	16229.22
576.238	16188.09
576.599	16286.85
576.96	16212.5
577.32	16246.17
577.681	16270.58
578.042	16269.22
578.403	16259.05
578.763	16131.82
579.124	16265.15
579.485	16339.95
579.845	16207.75
580.206	16312.83
580.566	16148.77
580.927	16283
581.287	16219.73
581.648	16094.08
582.008	16250.24
582.368	16241.88
582.728	16307.64
583.089	16220.41
583.449	16252.27
583.809	16250.01
584.169	16294.76
584.529	16138.6
584.889	16272.16
585.249	16103.8
585.609	16027.19
585.969	16139.96
586.329	16177.92
586.688	16110.35
587.048	16138.38
587.408	16088.21
587.768	16091.37
588.127	16124.14
588.487	16037.13
588.846	16122.33
589.206	15935.44
589.565	16033.97
589.925	16104.25
590.284	16128.88
590.643	15969.11
591.003	16122.1
591.362	16047.53
591.721	16008.44
592.08	16076.68
592.44	16099.73
592.799	15989.68
593.158	15977.7
593.517	15924.37
593.876	15903.13
594.235	15963.01
594.593	15944.48
594.952	15962.33
595.311	15889.12
595.67	15953.07
596.029	16017.02
596.387	15926.86
596.746	15972.73
597.104	15882.34
597.463	15906.06
597.822	15952.17
598.18	15871.26
598.538	15838.04
598.897	15959.17
599.255	15837.82
599.613	15979.28
599.972	15978.61
600.33	15892.73
600.688	15792.4
601.046	15927.31
601.404	15975.22
601.762	15964.14
602.12	16012.05
602.478	15901.77
602.836	15960.75
603.194	15817.71
603.552	15927.31
603.91	15812.96
604.268	15956.01
604.625	15909.91
604.983	15902.9
605.341	15887.53
605.698	15862.9
606.056	15923.47
606.413	15919.85
606.771	15933.41
607.128	16000.07
607.485	15902.22
607.843	16007.76
608.2	15907.65
608.557	16049.11
608.914	15969.57
609.272	16078.94
609.629	16041.65
609.986	16146.74
610.343	16035.55
610.7	16076.23
611.057	16092.73
611.414	15998.94
611.771	16059.28
612.127	16214.31
612.484	16130.92
612.841	16194.42
613.198	16131.82
613.554	16113.52
613.911	16246.17
614.267	16178.83
614.624	16143.8
614.98	16144.93
615.337	16234.64
615.693	16180.18
616.05	16218.6
616.406	16374.75
616.762	16163.01
617.118	16207.53
617.475	16203.23
617.831	16359.39
618.187	16263.12
618.543	16364.13
618.899	16331.59
619.255	16374.75
619.611	16395.32
619.967	16354.87
620.323	16474.19
620.678	16396.9
621.034	16407.07
621.39	16334.75
621.746	16327.52
622.101	16531.59
622.457	16345.38
622.812	16433.06
623.168	16440.06
623.523	16349.67
623.879	16528.42
624.234	16449.78
624.589	16445.71
624.945	16516.44
625.3	16448.2
625.655	16338.37
626.01	16386.05
626.365	16468.76
626.72	16365.49
627.075	16435.32
627.43	16372.49
627.785	16411.59
628.14	16430.8
628.495	16368.2
628.85	16406.62
629.205	16274.19
629.559	16401.65
629.914	16278.71
630.269	16351.02
630.623	16336.56
630.978	16221.76
631.332	16300.86
631.687	16330.46
632.041	16237.13
632.396	16328.88
632.75	16226.73
633.104	16230.8
633.459	16134.99
633.813	16098.38
634.167	16066.74
634.521	16138.38
634.875	16157.81
635.229	16081.88
635.583	16096.34
635.937	16054.31
636.291	16053.18
636.645	16056.12
636.999	15978.15
637.352	16036.68
637.706	16010.92
638.06	16026.74
638.413	15956.68
638.767	15944.03
639.121	15920.53
639.474	15707.88
639.828	15872.62
640.181	15860.42
640.534	15863.81
640.888	15781.32
641.241	15727.54
641.594	15732.06
641.947	15732.96
642.301	15762.11
642.654	15813.19
643.007	15765.28
643.36	15794.43
643.713	15744.71
644.066	15818.61
644.419	15682.79
644.771	15599.86
645.124	15464.72
645.477	15391.73
645.83	15387.43
646.182	15352.41
646.535	15230.83
646.888	15267.44
647.24	15180.43
647.593	15202.35
647.945	15191.06
648.298	15086.65
648.65	15125.97
649.002	15087.56
649.355	15133.43
649.707	15146.31
650.059	15208.91
650.411	15418.62
650.763	15405.96
651.115	15495
651.467	15510.37
651.819	15476.7
652.171	15516.02
652.523	15480.54
652.875	15579.75
653.227	15408
653.578	15515.11
653.93	15528.45
654.282	15408.9
654.633	15449.81
654.985	15491.39
655.337	15456.36
655.688	15556.7
656.039	15597.15
656.391	15358.73
656.742	15537.71
657.094	15476.02
657.445	15631.27
657.796	15490.93
658.147	15462.23
658.498	15455.68
658.849	15587.88
659.2	15538.16
659.551	15430.37
659.902	15589.91
660.253	15516.92
660.604	15548.56
660.955	15446.42
661.306	15544.72
661.656	15474.21
662.007	15505.62
662.358	15547.88
662.708	15506.53
663.059	15552.18
663.409	15523.02
663.76	15521.44
664.11	15528.22
664.461	15548.56
664.811	15632.17
665.161	15600.99
665.511	15492.74
665.862	15556.92
666.212	15631.5
666.562	15592.63
666.912	15576.13
667.262	15607.77
667.612	15608.9
667.962	15592.85
668.312	15460.2
668.662	15693.42
669.011	15560.54
669.361	15648.22
669.711	15610.48
670.06	15525.06
670.41	15518.5
670.76	15529.58
671.109	15651.61
671.459	15507.88
671.808	15552.63
672.157	15490.03
672.507	15366.87
672.856	15444.61
673.205	15429.02
673.554	15484.16
673.904	15422.24
674.253	15511.5
674.602	15379.75
674.951	15128.91
675.3	15007.56
675.649	15343.82
675.998	15314.67
676.346	15271.05
676.695	15399.19
677.044	15229.92
677.393	15249.58
677.741	15310.15
678.09	15263.37
678.438	15182.47
678.787	15168.46
679.135	15253.2
679.484	15204.16
679.832	15179.08
680.181	15179.76
680.529	15115.58
680.877	15028.8
681.225	15053.43
681.573	15133.43
681.922	14980.21
682.27	14980.44
682.618	15058.18
682.966	14978.18
683.314	14989.7
683.661	14886.43
684.009	14824.06
684.357	14758.3
684.705	14783.61
685.053	14773.67
685.4	14748.58
685.748	14653.67
686.095	14576.61
686.443	14504.75
686.79	14560.79
687.138	14612.09
687.485	14571.18
687.832	14417.52
688.18	14490.06
688.527	14403.96
688.874	14345.65
689.221	14389.95
689.568	14304.53
689.915	14290.06
690.262	14307.24
690.609	14256.62
690.956	14157.18
691.303	14120.35
691.65	14066.57
691.997	14039
692.344	13989.05
692.69	13922.16
693.037	13872.45
693.383	13841.26
693.73	13862.73
694.077	13799.23
694.423	13800.58
694.769	13727.82
695.116	13724.43
695.462	13657.99
695.808	13533.25
696.155	13619.12
696.501	13447.37
696.847	13423.19
697.193	13363.76
697.539	13434.72
697.885	13312.23
698.231	13214.61
698.577	13227.72
698.923	13126.7
699.269	13117.66
699.614	13011.9
699.96	12971.68
700.306	12965.35
700.651	12968.97
700.997	12849.42
701.342	12859.14
701.688	12806.49
702.033	12796.09
702.379	12738.01
702.724	12612.82
703.069	12735.75
703.415	12562.2
703.76	12572.82
704.105	12564.68
704.45	12454.63
704.795	12412.37
705.14	12344.58
705.485	12354.29
705.83	12250.57
706.175	12277.23
706.52	12302.32
706.865	12195.65
707.209	12144.58
707.554	12151.59
707.899	12077.46
708.243	12090.57
708.588	12016.22
708.932	11897.13
709.277	11917.7
709.621	11922.89
709.966	11819.84
710.31	11797.02
710.654	11739.62
710.998	11768.32
711.342	11755.89
711.687	11723.35
712.031	11662.56
712.375	11667.98
712.719	11613.75
713.063	11575.78
713.407	11677.02
713.75	11590.7
714.094	11534.65
714.438	11538.04
714.782	11552.51
715.125	11486.97
715.469	11539.4
715.812	11439.06
716.156	11323.81
716.499	11369.23
716.843	11393.87
717.186	11301.21
717.53	11408.1
717.873	11386.41
718.216	11284.94
718.559	11203.36
718.902	11203.36
719.246	11270.71
719.589	11205.17
719.932	11139.86
720.275	11140.77
720.617	11185.28
720.96	11179.41
721.303	11104.38
721.646	11152.74
721.989	11030.94
722.331	11041.33
722.674	11106.42
723.016	11057.83
723.359	10989.58
723.701	11043.82
724.044	11028.68
724.386	10892.41
724.729	11044.27
725.071	11035.68
725.413	11030.94
725.755	11037.04
726.097	11002.24
726.439	10986.87
726.782	10895.35
727.124	10964.73
727.465	10858.74
727.807	10934.67
728.149	10908.23
728.491	10903.94
728.833	10896.71
729.175	10895.12
729.516	10811.28
729.858	10845.18
730.199	10870.04
730.541	10834.33
730.882	10883.15
731.224	10849.7
731.565	10817.61
731.906	10806.99
732.248	10778.52
732.589	10722.25
732.93	10775.13
733.271	10756.82
733.612	10769.02
733.953	10802.7
734.294	10795.46
734.635	10734.22
734.976	10843.37
735.317	10768.12
735.658	10846.76
735.999	10810.61
736.339	10850.38
736.68	10849.93
737.021	10825.07
737.361	10813.32
737.702	10861
738.042	10808.8
738.383	10892.41
738.723	10924.05
739.063	10867.55
739.404	10941.9
739.744	10909.36
740.084	10898.74
740.424	10914.78
740.764	10808.8
741.104	10967.66
741.444	10893.32
741.784	10951.39
742.124	11013.09
742.464	10999.53
742.804	11003.82
743.143	10989.13
743.483	11021.9
743.823	11011.73
744.162	11035.68
744.502	11135.57
744.841	11078.62
745.181	11210.82
745.52	11166.3
745.86	11249.01
746.199	11435.45
746.538	11357.03
746.877	11507.76
747.216	11501.43
747.556	11601.09
747.895	11598.83
748.234	11667.76
748.573	11731.03
748.911	11799.73
749.25	11879.73
749.589	11852.61
749.928	12044.02
750.267	11984.81
750.605	12144.81
750.944	12220.06
751.283	12299.15
751.621	12444.01
751.96	12487.62
752.298	12641.97
752.636	12705.92
752.975	12726.49
753.313	12800.61
753.651	13091.22
753.989	13093.94
754.327	13205.8
754.666	13318.56
755.004	13465.9
755.342	13676.74
755.679	13824.76
756.017	13953.35
756.355	14125.55
756.693	14217.07
757.031	14422.26
757.368	14589.72
757.706	14683.27
758.044	14838.75
758.381	15097.27
758.719	15185.41
759.056	15436.47
759.394	15563.02
759.731	15705.17
760.068	15982.22
760.405	16135.44
760.743	16262.21
761.08	16526.39
761.417	16572.26
761.754	16834.18
762.091	16991.69
762.428	17253.37
762.765	17243.43
763.102	17569.3
763.438	17664.89
763.775	17874.37
764.112	18098.55
764.449	18350.97
764.785	18475.04
765.122	18483.85
765.458	18704.86
765.795	18903.5
766.131	19017.4
766.467	19183.94
766.804	19368.8
767.14	19468.46
767.476	19634.55
767.812	19754.33
768.148	19844.27
768.485	19969.23
768.821	20162.9
769.157	20210.81
769.492	20276.35
769.828	20589.33
770.164	20516.34
770.5	20689.22
770.836	20781.19
771.171	20850.12
771.507	20909.32
771.842	20936.89
772.178	21082.43
772.513	21223.67
772.849	21204.46
773.184	21326.49
773.519	21415.75
773.855	21419.14
774.19	21589.76
774.525	21495.07
774.86	21626.14
775.195	21774.84
775.53	21727.15
775.865	21894.83
776.2	21787.94
776.535	21680.83
776.87	21678.34
777.205	21848.73
777.539	21804.67
777.874	21864.55
778.209	21797.66
778.543	21879.02
778.878	21825.91
779.212	21877.21
779.547	21795.18
779.881	22027.71
780.215	21907.26
780.55	22069.07
780.884	21934.83
781.218	21943.42
781.552	22050.31
781.886	21908.39
782.22	21892.35
782.554	21930.09
782.888	21837.89
783.222	21841.95
783.556	21825.01
783.889	21769.19
784.223	21664.11
784.557	21733.93
784.89	22001.72
785.224	21706.14
785.557	21602.19
785.891	21709.98
786.224	21622.3
786.558	21669.98
786.891	21526.03
787.224	21470.44
787.557	21437.44
787.891	21409.65
788.224	21499.36
788.557	21475.64
788.89	21440.61
789.223	21432.93
789.556	21209.43
789.888	21293.04
790.221	21259.6
790.554	21095.31
790.887	21209.2
791.219	21032.71
791.552	20968.3
791.884	20902.77
792.217	20925.37
792.549	20962.2
792.882	20834.52
793.214	20726.5
793.546	20806.05
793.879	20646.73
794.211	20600.63
794.543	20638.6
794.875	20574.19
795.207	20664.13
795.539	20554.08
795.871	20457.58
796.203	20394.76
796.535	20260.75
796.867	20267.53
797.198	20273.63
797.53	20284.93
797.862	20140.76
798.193	20193.64
798.525	19985.51
798.856	20137.82
799.188	19806.98
799.519	19789.58
799.85	19747.09
800.182	19694.89
800.513	19792.97
800.844	19574.44
801.175	19774.21
801.506	19641.79
801.837	19620.54
802.168	19536.03
802.499	19546.42
802.83	19418.29
803.161	19456.25
803.491	19450.38
803.822	19464.84
804.153	19313.66
804.483	19072.54
804.814	19234.56
805.145	19140.1
805.475	19048.58
805.805	19032.99
806.136	19112.99
806.466	19011.29
806.796	18994.12
807.126	18895.59
807.457	18797.74
807.787	18848.59
808.117	18801.36
808.447	18691.3
808.777	18708.93
809.107	18533.34
809.436	18556.84
809.766	18513.45
810.096	18473
810.426	18422.38
810.755	18396.17
811.085	18334.02
811.414	18272.78
811.744	18163.63
812.073	18197.3
812.403	18192.11
812.732	18092.22
813.061	18089.51
813.39	18014.48
813.719	18068.04
814.049	18067.36
814.378	18071.88
814.707	17892.68
815.036	17851.32
815.365	17891.32
815.693	17653.59
816.022	17821.04
816.351	17738.78
816.68	17555.96
817.008	17792.34
817.337	17503.08
817.665	17518
817.994	17574.04
818.322	17459.7
818.651	17432.8
818.979	17393.71
819.307	17458.34
819.636	17277.1
819.964	17275.97
820.292	17245.92
820.62	17232.58
820.948	17212.47
821.276	17348.29
821.604	17205.47
821.932	17295.41
822.259	17274.16
822.587	17279.36
822.915	17328.4
823.243	17245.69
823.57	17191.23
823.898	17225.35
824.225	17190.32
824.553	17168.18
824.88	17141.74
825.207	17344.22
825.535	17177.44
825.862	17298.34
826.189	17200.49
826.516	17342.86
826.843	17298.34
827.17	17269.42
827.497	17254.28
827.824	17273.49
828.151	17313.26
828.478	17187.16
828.805	17272.81
829.131	17194.84
829.458	17201.85
829.785	17162.3
830.111	17141.74
830.438	17273.26
830.764	17289.53
831.09	17242.53
831.417	17224.22
831.743	17256.54
832.069	17244.79
832.395	17227.84
832.722	17245.46
833.048	17187.16
833.374	17148.97
833.7	17057.67
834.026	17097.45
834.351	17119.82
834.677	16958.69
835.003	17058.12
835.329	17015.64
835.654	17005.02
835.98	16921.41
836.306	16946.04
836.631	16882.08
836.956	16954.4
837.282	16900.61
837.607	16829.88
837.932	16793.95
838.258	16783.78
838.583	16808.87
838.908	16664.01
839.233	16759.83
839.558	16694.29
839.883	16657.91
840.208	16614.52
840.533	16587.4
840.858	16602.32
841.182	16599.15
841.507	16585.14
841.832	16530.23
842.156	16519.38
842.481	16459.5
842.805	16558.03
843.13	16422.89
843.454	16373.4
843.778	16208.43
844.103	16226.96
844.427	16238.94
844.751	16235.32
845.075	16096.79
845.399	16129.56
845.723	16048.66
846.047	16082.56
846.371	15926.86
846.695	16003.01
847.019	15800.08
847.343	15745.84
847.666	15669.01
847.99	15580.65
848.313	15576.13
848.637	15370.49
848.96	15389.69
849.284	15399.64
849.607	15280.09
849.931	15179.08
850.254	15170.94
850.577	15147.89
850.9	15082.36
851.223	15009.59
851.546	14873.55
851.869	14845.98
852.192	14857.05
852.515	14787.9
852.838	14627
853.161	14687.34
853.483	14715.36
853.806	14528.93
854.129	14523.5
854.451	14469.49
854.774	14306.11
855.096	14323.06
855.419	14215.04
855.741	14262.04
856.063	14190.18
856.385	14135.94
856.708	14123.06
857.03	14035.38
857.352	14077.86
857.674	13959.68
857.996	14047.13
858.318	13953.57
858.64	13950.86
858.961	13901.15
859.283	13896.4
859.605	13754.93
859.926	13758.55
860.248	13693.47
860.57	13677.65
860.891	13669.74
861.212	13603.07
861.534	13537.77
861.855	13438.33
862.176	13518.56
862.498	13545.9
862.819	13483.3
863.14	13425.23
863.461	13411.22
863.782	13421.38
864.103	13435.85
864.424	13439.01
864.745	13304.33
865.065	13281.05
865.386	13272.46
865.707	13206.7
866.027	13220.49
866.348	13109.53
866.668	13161.05
866.989	13167.38
867.309	13065.01
867.63	13135.52
867.95	13033.6
868.27	13025.24
868.59	13051.22
868.91	13035.18
869.23	12956.99
869.55	12891.91
869.87	12914.28
870.19	12920.61
870.51	12871.12
870.83	12937.56
871.15	12799.03
871.469	12797.67
871.789	12849.87
872.109	12882.64
872.428	12712.25
872.748	12777.11
873.067	12720.16
873.386	12739.37
873.706	12703.44
874.025	12666.15
874.344	12609.65
874.663	12606.94
874.982	12606.26
875.301	12577.34
875.62	12527.85
875.939	12540.5
876.258	12441.75
876.577	12502.09
876.896	12486.27
877.214	12433.39
877.533	12422.77
877.852	12393.61
878.17	12410.56
878.489	12400.85
878.807	12418.25
879.125	12298.02
879.444	12299.83
879.762	12296.22
880.08	12333.96
880.398	12248.76
880.716	12315.2
881.034	12275.65
881.352	12160.17
881.67	12157.24
881.988	12187.07
882.306	12159.5
882.624	12030.91
882.941	12022.55
883.259	11953.63
883.577	11945.04
883.894	11898.03
884.212	11924.02
884.529	12007.18
884.846	11865.95
885.164	11821.88
885.481	11786.17
885.798	11778.49
886.115	11689.23
886.432	11656.91
886.75	11703.69
887.067	11716.12
887.383	11660.75
887.7	11669.79
888.017	11646.74
888.334	11606.52
888.651	11529.46
888.967	11482.23
889.284	11506.41
889.6	11413.75
889.917	11379.63
890.233	11355
890.55	11342.57
890.866	11291.27
891.182	11311.16
891.498	11257.83
891.815	11206.98
892.131	11149.13
892.447	11068.23
892.763	11073.88
893.079	11057.6
893.395	11003.59
893.71	10999.3
894.026	10950.04
894.342	10865.97
894.657	10829.59
894.973	10842.02
895.289	10877.04
895.604	10847.44
895.92	10702.59
896.235	10710.04
896.55	10665.52
896.865	10626.66
897.181	10485.19
897.496	10648.12
897.811	10532.87
898.126	10578.3
898.441	10442.48
898.756	10447.9
899.071	10356.15
899.386	10364.29
899.7	10244.97
900.015	10207.01
900.33	10178.31
900.644	10168.81
900.959	10215.37
901.273	10183.96
901.588	10013.11
901.902	10062.15
902.216	10028.93
902.531	9955.26
902.845	9897.41
903.159	9908.26
903.473	9884.75
903.787	9843.85
904.101	9744.19
904.415	9813.34
904.729	9649.73
905.042	9667.58
905.356	9611.54
905.67	9613.8
905.984	9600.02
906.297	9593.91
906.611	9490.41
906.924	9514.82
907.237	9430.98
907.551	9407.03
907.864	9363.19
908.177	9329.29
908.491	9273.7
908.804	9282.06
909.117	9190.31
909.43	9143.3
909.743	9095.62
910.056	9060.14
910.368	9094.04
910.681	8991.67
910.994	9017.66
911.307	8903.76
911.619	8952.35
911.932	8833.03
912.244	8836.19
912.557	8789.64
912.869	8834.39
913.181	8714.84
913.494	8709.87
913.806	8649.98
914.118	8624.22
914.43	8586.26
914.742	8545.13
915.054	8549.87
915.366	8491.57
915.678	8423.55
915.99	8438.01
916.302	8329.09
916.613	8310.56
916.925	8261.97
917.236	8289.09
917.548	8297.23
917.859	8241.63
918.171	8179.26
918.482	8133.16
918.794	8061.98
919.105	8115.76
919.416	7993.96
919.727	7999.83
920.038	7970.23
920.349	7964.8
920.66	7913.96
920.971	7925.48
921.282	7911.47
921.593	7797.8
921.903	7712.16
922.214	7723
922.525	7734.08
922.835	7684.13
923.146	7596.45
923.456	7648.65
923.767	7511.94
924.077	7558.04
924.387	7522.33
924.697	7427.64
925.008	7411.37
925.318	7391.94
925.628	7421.54
925.938	7355.56
926.248	7321.88
926.558	7256.12
926.867	7273.07
927.177	7230.36
927.487	7252.28
927.796	7134.77
928.106	7038.95
928.416	7124.83
928.725	7090.48
929.034	7045.28
929.344	7066.07
929.653	7044.83
929.962	6905.62
930.271	6848.22
930.581	6905.62
930.89	6882.12
931.199	6849.35
931.508	6793.76
931.817	6790.6
932.125	6721.9
932.434	6692.07
932.743	6727.32
933.051	6669.25
933.36	6628.12
933.669	6595.8
933.977	6589.02
934.286	6543.83
934.594	6550.38
934.902	6472.87
935.21	6484.84
935.519	6453.66
935.827	6413.43
936.135	6424.73
936.443	6352.87
936.751	6376.82
937.059	6300.44
937.367	6299.54
937.674	6275.58
937.982	6270.84
938.29	6232.42
938.597	6199.43
938.905	6149.49
939.213	6065.42
939.52	6066.32
939.827	6070.17
940.135	6055.25
940.442	6032.43
940.749	5980.22
941.056	6019.55
941.363	5897.97
941.67	5936.61
941.977	5876.72
942.284	5849.38
942.591	5801.7
942.898	5817.29
943.205	5793.79
943.511	5785.65
943.818	5741.81
944.125	5748.14
944.431	5689.84
944.738	5646.67
945.044	5657.97
945.35	5648.03
945.657	5568.48
945.963	5486.68
946.269	5544.08
946.575	5507.92
946.881	5502.5
947.187	5478.77
947.493	5453.01
947.799	5392.89
948.105	5347.92
948.41	5406.68
948.716	5390.64
949.022	5335.27
949.327	5264.76
949.633	5238.55
949.938	5275.38
950.244	5245.33
950.549	5211.2
950.854	5159.68
951.16	5248.27
951.465	5140.92
951.77	5131.43
952.075	5131.88
952.38	5060.25
952.685	5064.32
952.99	5031.77
953.294	4993.36
953.599	5021.83
953.904	4925.79
954.209	4956.07
954.513	4929.86
954.818	4896.41
955.122	4868.84
955.426	4894.83
955.731	4815.28
956.035	4805.34
956.339	4833.59
956.643	4809.18
956.948	4716.3
957.252	4726.92
957.556	4691.9
957.86	4700.71
958.163	4640.6
958.467	4632.01
958.771	4648.28
959.075	4643.76
959.378	4581.84
959.682	4557.44
959.985	4587.49
960.289	4522.41
960.592	4514.5
960.896	4519.02
961.199	4513.14
961.502	4488.96
961.805	4422.52
962.108	4405.58
962.411	4401.51
962.714	4378.91
963.017	4354.96
963.32	4316.99
963.623	4350.21
963.926	4319.02
964.228	4259.14
964.531	4251.91
964.833	4257.56
965.136	4201.29
965.438	4204.68
965.741	4223.66
966.043	4136.88
966.345	4116.09
966.648	4124
966.95	4116.77
967.252	4085.36
967.554	4070.67
967.856	4077.45
968.158	4027.73
968.46	4026.38
968.761	4033.83
969.063	4023.67
969.365	4002.42
969.666	3947.06
969.968	3951.58
970.269	3949.54
970.571	3887.17
970.872	3881.07
971.174	3889.88
971.475	3871.13
971.776	3809.21
972.077	3818.47
972.378	3861.64
972.679	3795.87
972.98	3766.72
973.281	3743.9
973.582	3772.37
973.883	3717.01
974.183	3685.37
974.484	3703
974.785	3710
975.085	3668.65
975.386	3637.69
975.686	3596.33
975.986	3594.98
976.287	3552.94
976.587	3571.25
976.887	3573.73
977.187	3564.02
977.487	3552.94
977.787	3524.02
978.087	3521.08
978.387	3455.32
978.687	3494.19
978.987	3454.87
979.286	3422.1
979.586	3416.22
979.885	3414.42
980.185	3385.26
980.484	3388.88
980.784	3347.07
981.083	3387.3
981.382	3334.87
981.682	3298.94
981.981	3325.83
982.28	3296
982.579	3261.43
982.878	3276.57
983.177	3279.28
983.475	3218.49
983.774	3231.82
984.073	3220.07
984.372	3195.89
984.67	3197.25
984.969	3152.05
985.267	3124.93
985.566	3150.02
985.864	3114.76
986.162	3098.94
986.461	3064.14
986.759	3070.02
987.057	3056.91
987.355	3023.69
987.653	3033.41
987.951	3038.38
988.249	3023.01
988.547	2983.47
988.844	2976.69
989.142	2931.04
989.44	2916.58
989.737	2909.8
990.035	2920.64
990.332	2918.38
990.63	2880.42
990.927	2883.13
991.224	2863.92
991.521	2827.31
991.819	2819.86
992.116	2805.17
992.413	2771.27
992.71	2792.96
993.006	2783.7
993.303	2753.87
993.6	2797.71
993.897	2730.14
994.193	2724.94
994.49	2721.33
994.787	2685.4
995.083	2684.04
995.379	2672.29
995.676	2661.89
995.972	2644.94
996.268	2638.62
996.565	2610.14
996.861	2616.47
997.157	2657.6
997.453	2566.3
997.749	2569.69
998.044	2564.72
998.34	2530.6
998.636	2569.01
998.932	2539.18
999.227	2470.71
999.523	2475.23
999.818	2492.41
1000.114	2463.03
1000.409	2448.57
1000.704	2434.33
1001	2414.44
1001.295	2411.73
1001.59	2370.83
1001.885	2390.71
1002.18	2353.88
1002.475	2347.78
1002.77	2323.82
1003.065	2320.66
1003.359	2334.44
1003.654	2265.75
1003.949	2286.08
1004.243	2257.38
1004.538	2265.07
1004.832	2244.96
1005.127	2263.71
1005.421	2225.29
1005.715	2226.2
1006.009	2212.19
1006.304	2205.86
1006.598	2202.47
1006.892	2183.49
1007.186	2143.49
1007.48	2143.94
1007.773	2133.09
1008.067	2099.2
1008.361	2079.31
1008.655	2132.42
1008.948	2091.29
1009.242	2038.86
1009.535	2048.58
1009.829	2022.81
1010.122	2022.81
1010.415	2018.75
1010.708	2002.48
1011.001	1997.96
1011.295	1937.17
1011.588	1987.33
1011.881	1938.52
1012.173	1949.6
1012.466	1961.57
1012.759	1900.56
1013.052	1927
1013.344	1900.33
1013.637	1887.45
1013.93	1874.12
1014.222	1882.7
1014.514	1864.85
1014.807	1832.31
1015.099	1828.47
1015.391	1823.05
1015.683	1798.64
1015.976	1796.38
1016.268	1794.12
1016.56	1770.62
1016.851	1738.75
1017.143	1772.65
1017.435	1769.04
1017.727	1710.96
1018.018	1717.74
1018.31	1715.93
1018.602	1717.29
1018.893	1695.82
1019.185	1670.96
1019.476	1665.08
1019.767	1648.13
1020.058	1649.26
1020.35	1614.46
1020.641	1628.02
1020.932	1635.71
1021.223	1578.08
1021.514	1597.74
1021.804	1573.56
1022.095	1570.4
1022.386	1565.65
1022.677	1562.04
1022.967	1532.66
1023.258	1535.14
1023.548	1540.57
1023.839	1500.34
1024.129	1501.7
1024.419	1493.56
1024.709	1473.22
1025	1470.74
1025.29	1462.38
1025.58	1449.72
1025.87	1433.45
1026.16	1435.26
1026.449	1452.21
1026.739	1389.84
1027.029	1381.02
1027.319	1386.22
1027.608	1402.27
1027.898	1367.24
1028.187	1354.81
1028.477	1360.01
1028.766	1366.33
1029.055	1352.55
1029.344	1337.63
1029.634	1340.35
1029.923	1310.06
1030.212	1292.89
1030.501	1311.65
1030.79	1270.07
1031.078	1252.89
1031.367	1273
1031.656	1270.52
1031.945	1276.84
1032.233	1237.75
1032.522	1238.43
1032.81	1229.16
1033.099	1189.39
1033.387	1230.29
1033.675	1222.61
1033.963	1191.2
1034.251	1183.97
1034.54	1161.37
1034.828	1196.62
1035.116	1136.74
1035.403	1152.1
1035.691	1136.51
1035.979	1122.5
1036.267	1134.93
1036.554	1106.45
1036.842	1110.3
1037.129	1104.42
1037.417	1094.93
1037.704	1096.74
1037.992	1102.84
1038.279	1078.43
1038.566	1047.7
1038.853	1047.7
1039.14	1047.7
