Data from hue_00_FLMS001491_68.txt Node
Date: Mon Feb 06 15:30:04 GMT 2017
User: dcchb
Spectrometer: FLMS00149
Trigger mode: 0
Integration Time (sec): 2.000000E-2
Scans to average: 10
Electric dark correction enabled: true
Nonlinearity correction enabled: false
Boxcar width: 0
XAxis mode: Wavelengths
Number of Pixels in Spectrum: 2048
>>>>>Begin Spectral Data<<<<<
341.393	-6.79
341.776	-6.79
342.16	-6.79
342.543	-61.93
342.927	-70.07
343.31	-63.52
343.693	-62.84
344.077	-65.78
344.46	-56.74
344.843	-47.47
345.226	-31.2
345.61	-40.69
345.993	-4.08
346.376	-21.26
346.759	-2.05
347.142	18.74
347.525	41.11
347.908	64.62
348.291	99.42
348.674	87.67
349.057	84.05
349.44	126.76
349.823	139.87
350.206	153.65
350.588	206.76
350.971	189.13
351.354	230.49
351.737	234.56
352.119	236.14
352.502	276.59
352.884	259.64
353.267	260.54
353.65	276.14
354.032	310.49
354.414	297.61
354.797	305.29
355.179	328.56
355.562	321.33
355.944	299.86
356.326	320.43
356.709	325.85
357.091	334.67
357.473	341.9
357.855	346.19
358.238	343.03
358.62	342.35
359.002	335.12
359.384	326.53
359.766	322.46
360.148	348.45
360.53	328.34
360.912	336.93
361.294	337.6
361.676	317.49
362.057	329.24
362.439	330.37
362.821	317.94
363.203	330.82
363.584	309.36
363.966	315.91
364.348	320.66
364.729	313.88
365.111	313.88
365.493	334.67
365.874	318.62
366.256	299.86
366.637	310.03
367.019	311.16
367.4	313.2
367.781	326.76
368.163	313.88
368.544	320.43
368.925	319.75
369.306	312.52
369.688	308
370.069	340.54
370.45	300.32
370.831	306.19
371.212	303.03
371.593	302.35
371.974	326.76
372.355	308.68
372.736	312.75
373.117	326.53
373.498	305.97
373.879	314.33
374.26	325.4
374.641	296.25
375.021	306.87
375.402	310.03
375.783	327.66
376.163	303.03
376.544	314.33
376.925	311.62
377.305	327.21
377.686	317.49
378.066	329.02
378.447	329.69
378.827	306.19
379.208	323.82
379.588	312.07
379.968	333.99
380.349	319.07
380.729	327.21
381.109	325.18
381.489	314.1
381.87	321.11
382.25	324.5
382.63	324.05
383.01	334.89
383.39	302.8
383.77	337.38
384.15	339.86
384.53	340.32
384.91	340.77
385.29	337.15
385.67	352.52
386.049	353.65
386.429	338.06
386.809	338.06
387.189	345.51
387.568	350.26
387.948	362.24
388.328	355.68
388.707	357.49
389.087	348.9
389.466	340.77
389.846	345.51
390.225	346.19
390.605	348
390.984	360.88
391.363	352.97
391.743	354.55
392.122	352.07
392.501	356.81
392.881	365.4
393.26	338.96
393.639	350.94
394.018	351.39
394.397	343.93
394.776	359.98
395.155	369.92
395.534	359.52
395.913	356.81
396.292	372.86
396.671	381.44
397.05	367.21
397.429	377.83
397.808	369.92
398.186	373.76
398.565	384.38
398.944	378.51
399.323	369.02
399.701	373.54
400.08	366.53
400.458	383.25
400.837	383.7
401.215	375.8
401.594	383.48
401.972	392.97
402.351	394.78
402.729	390.71
403.107	380.77
403.486	411.95
403.864	386.42
404.242	389.81
404.62	397.72
404.999	393.65
405.377	393.87
405.755	423.7
406.133	397.26
406.511	393.2
406.889	421.22
407.267	414.21
407.645	423.48
408.023	394.78
408.401	437.94
408.779	407.21
409.156	404.04
409.534	423.03
409.912	428
410.29	432.97
410.667	415.57
411.045	448.11
411.422	426.42
411.8	427.77
412.178	432.52
412.555	458.96
412.933	437.04
413.31	446.75
413.687	463.93
414.065	464.61
414.442	477.04
414.819	479.07
415.197	482.23
415.574	436.58
415.951	457.6
416.328	460.09
416.705	465.51
417.082	466.64
417.46	481.78
417.837	469.8
418.214	492.4
418.591	499.63
418.967	482.23
419.344	490.37
419.721	502.57
420.098	474.32
420.475	494.89
420.852	477.94
421.228	506.64
421.605	506.64
421.982	528.56
422.358	506.87
422.735	538.95
423.111	546.86
423.488	524.04
423.864	514.77
424.241	519.75
424.617	537.15
424.994	531.72
425.37	503.7
425.746	533.08
426.123	556.81
426.499	525.85
426.875	543.25
427.251	567.65
427.627	562.68
428.003	552.74
428.379	575.79
428.756	576.92
429.132	550.93
429.507	585.73
429.883	578.73
430.259	581.89
430.635	586.64
431.011	580.31
431.387	584.83
431.763	617.6
432.138	624.6
432.514	620.31
432.89	606.75
433.265	638.16
433.641	638.61
434.016	617.6
434.392	645.39
434.767	667.31
435.143	644.04
435.518	668.67
435.894	654.43
436.269	686.75
436.644	641.1
437.02	657.14
437.395	668.67
437.77	681.78
438.145	679.06
438.52	688.78
438.895	685.39
439.271	699.18
439.646	719.51
440.021	705.05
440.395	684.94
440.77	714.09
441.145	722.9
441.52	728.33
441.895	733.07
442.27	709.8
442.645	743.7
443.019	741.21
443.394	734.43
443.769	727.65
444.143	738.95
444.518	760.64
444.892	750.47
445.267	729.68
445.641	758.16
446.016	740.98
446.39	764.71
446.764	753.41
447.139	764.94
447.513	790.47
447.887	781.21
448.262	790.02
448.636	768.33
449.01	787.99
449.384	785.5
449.758	802.45
450.132	807.42
450.506	824.6
450.88	799.74
451.254	816.46
451.628	823.47
452.002	851.94
452.376	832.73
452.75	830.02
453.123	864.6
453.497	837.93
453.871	838.38
454.244	863.01
454.618	878.61
454.992	882.22
455.365	900.08
455.739	859.4
456.112	920.19
456.486	894.88
456.859	933.07
457.232	917.7
457.606	920.41
457.979	924.26
458.352	934.42
458.725	981.2
459.099	979.62
459.472	974.65
459.845	955.44
460.218	989.79
460.591	994.99
460.964	985.27
461.337	1031.6
461.71	1042.22
462.083	1039.05
462.456	1058.94
462.829	1079.51
463.201	1077.7
463.574	1041.09
463.947	1118.15
464.32	1093.97
464.692	1095.55
465.065	1103.01
465.438	1132.16
465.81	1153.4
466.183	1152.95
466.555	1182.1
466.928	1191.37
467.3	1149.79
467.672	1184.81
468.045	1219.16
468.417	1240.18
468.789	1248.54
469.161	1248.09
469.534	1278.6
469.906	1298.93
470.278	1320.4
470.65	1319.27
471.022	1313.85
471.394	1364.47
471.766	1351.81
472.138	1381.19
472.51	1394.07
472.882	1429.55
473.253	1445.37
473.625	1456.22
473.997	1469.55
474.369	1528.99
474.74	1534.86
475.112	1557.69
475.484	1569.44
475.855	1639.49
476.227	1630.23
476.598	1623.22
476.97	1691.47
477.341	1714.97
477.713	1731.24
478.084	1729.66
478.455	1792.71
478.827	1819.37
479.198	1850.11
479.569	1870.22
479.94	1918.35
480.311	1937.79
480.682	1958.35
481.053	2014.17
481.424	2057.11
481.795	2080.84
482.166	2093.04
482.537	2114.05
482.908	2187.72
483.279	2213.04
483.65	2240.38
484.021	2262.07
484.391	2319.47
484.762	2328.29
485.133	2392.01
485.503	2420.26
485.874	2435.4
486.244	2463.65
486.615	2541.16
486.985	2535.74
487.356	2581.61
487.726	2628.62
488.097	2711.1
488.467	2711.1
488.837	2766.69
489.207	2780.7
489.578	2839.91
489.948	2877.42
490.318	2921.49
490.688	2912.68
491.058	2980.25
491.428	3000.58
491.798	3060.7
492.168	3100.47
492.538	3139.34
492.908	3175.04
493.278	3207.59
493.648	3201.03
494.017	3273.8
494.387	3264.53
494.757	3266.34
495.126	3338.43
495.496	3329.84
495.866	3392.89
496.235	3470.86
496.605	3453.91
496.974	3495.94
497.344	3510.18
497.713	3502.49
498.082	3544.98
498.452	3594.02
498.821	3634.47
499.19	3648.7
499.559	3677.86
499.928	3720.11
500.298	3741.13
500.667	3739.32
501.036	3755.59
501.405	3822.03
501.774	3791.52
502.143	3816.38
502.512	3851.41
502.88	3872.88
503.249	3847.34
503.618	3900
503.987	3935.93
504.356	3945.87
504.724	3997.17
505.093	4000.56
505.462	3992.88
505.83	4015.25
506.199	4045.98
506.567	4057.73
506.936	4074.68
507.304	4155.36
507.672	4127.33
508.041	4159.42
508.409	4163.04
508.777	4189.03
509.145	4208.24
509.514	4245.52
509.882	4287.78
510.25	4273.32
510.618	4312.41
510.986	4329.59
511.354	4332.08
511.722	4413.43
512.09	4355.58
512.458	4366.2
512.826	4421.79
513.193	4425.86
513.561	4436.71
513.929	4468.34
514.297	4450.04
514.664	4482.58
515.032	4513.31
515.4	4531.17
515.767	4527.55
516.135	4628.56
516.502	4521.67
516.869	4588.34
517.237	4607.55
517.604	4633.08
517.972	4632.63
518.339	4638.28
518.706	4666.3
519.073	4683.25
519.44	4700.65
519.808	4739.3
520.175	4679.64
520.542	4794.44
520.909	4743.82
521.276	4735.23
521.643	4810.48
522.009	4824.04
522.376	4881.67
522.743	4873.08
523.11	4944.94
523.477	4993.75
523.843	4963.02
524.21	5026.52
524.577	5008.44
524.943	5028.1
525.31	5020.87
525.676	5102.22
526.043	5086.18
526.409	5083.02
526.776	5181.77
527.142	5153.52
527.508	5168.89
527.874	5224.26
528.241	5304.03
528.607	5245.95
528.973	5308.09
529.339	5318.04
529.705	5374.76
530.071	5384.7
530.437	5437.36
530.803	5471.48
531.169	5476
531.535	5466.73
531.901	5483.46
532.267	5533.4
532.632	5559.16
532.998	5563
533.364	5660.85
533.73	5552.38
534.095	5658.14
534.461	5664.02
534.826	5703.11
535.192	5686.39
535.557	5772.26
535.923	5756.9
536.288	5819.27
536.653	5801.42
537.019	5802.77
537.384	5845.03
537.749	5893.84
538.114	5899.94
538.479	5895.2
538.845	5894.75
539.21	5922.32
539.575	5982.88
539.94	6004.35
540.305	6056.55
540.67	6022.88
541.034	6060.62
541.399	6086.38
541.764	6093.16
542.129	6129.54
542.494	6171.35
542.858	6172.48
543.223	6208.18
543.587	6204.57
543.952	6254.51
544.316	6294.74
544.681	6296.77
545.045	6307.62
545.41	6405.02
545.774	6339.71
546.138	6422.19
546.503	6470.55
546.867	6416.77
547.231	6514.16
547.595	6488.18
547.959	6520.04
548.324	6609.76
548.688	6632.58
549.052	6569.3
549.416	6587.16
549.779	6575.18
550.143	6615.86
550.507	6668.96
550.871	6734.72
551.235	6701.96
551.599	6756.42
551.962	6767.27
552.326	6750.99
552.689	6857.43
553.053	6797.1
553.417	6824.89
553.78	6894.04
554.143	6824.21
554.507	6881.39
554.87	6882.97
555.234	6994.15
555.597	7018.33
555.96	6982.85
556.323	7031.67
556.686	7068.27
557.05	7027.37
557.413	7090.65
557.776	7068.95
558.139	7120.48
558.502	7094.71
558.865	7143.53
559.228	7174.94
559.59	7187.59
559.953	7263.3
560.316	7304.2
560.679	7247.7
561.041	7341.49
561.404	7331.32
561.767	7400.7
562.129	7356.4
562.492	7450.86
562.854	7403.63
563.217	7421.03
563.579	7460.35
563.941	7491.54
564.304	7520.47
564.666	7570.41
565.028	7617.41
565.39	7585.32
565.753	7632.33
566.115	7631.65
566.477	7713
566.839	7702.61
567.201	7718.2
567.563	7702.83
567.925	7817.86
568.287	7851.3
568.648	7885.65
569.01	7893.79
569.372	7903.73
569.734	7936.05
570.095	8007.23
570.457	8067.57
570.819	8046.33
571.18	8084.97
571.542	8110.73
571.903	8176.95
572.265	8252.2
572.626	8242.48
572.987	8291.29
573.349	8300.33
573.71	8382.82
574.071	8416.94
574.432	8503.27
574.794	8555.24
575.155	8556.6
575.516	8645.18
575.877	8683.37
576.238	8748.23
576.599	8753.2
576.96	8827.55
577.32	8886.76
577.681	9051.5
578.042	9106.87
578.403	9154.1
578.763	9223.47
579.124	9299.4
579.485	9413.98
579.845	9562.45
580.206	9628.43
580.566	9706.85
580.927	9812.84
581.287	10025.03
581.648	10039.04
582.008	10181.64
582.368	10331.24
582.728	10507.73
583.089	10512.93
583.449	10749.31
583.809	10945.69
584.169	11091.9
584.529	11189.97
584.889	11469.74
585.249	11559.91
585.609	11681.26
585.969	11972.33
586.329	12059.33
586.688	12333.22
587.048	12524.18
587.408	12694.57
587.768	12968.46
588.127	13135.69
588.487	13310.14
588.846	13623.81
589.206	13840.53
589.565	14089.33
589.925	14277.35
590.284	14504.46
590.643	14797.56
591.003	15130.66
591.362	15383.76
591.721	15550.99
592.08	15781.94
592.44	16160.69
592.799	16493.56
593.158	16646.78
593.517	16935.81
593.876	17150.95
594.235	17434.78
594.593	17767.65
594.952	18057.59
595.311	18216.91
595.67	18582.55
596.029	18879.26
596.387	19198.8
596.746	19473.6
597.104	19734.61
597.463	19982.06
597.822	20367.13
598.18	20503.63
598.538	20771.19
598.897	21179.32
599.255	21267.22
599.613	21697.27
599.972	21984.72
600.33	22349.45
600.688	22532.73
601.046	22908.31
601.404	23197.34
601.762	23336.32
602.12	23757.1
602.478	23933.82
602.836	24203.87
603.194	24336.07
603.552	24742.16
603.91	24825.32
604.268	25096.28
604.625	25299.66
604.983	25619.2
605.341	25773.09
605.698	26211.5
606.056	26387.99
606.413	26654.88
606.771	26842.44
607.128	27294.64
607.485	27123.11
607.843	27536.21
608.2	27840.16
608.557	28055.29
608.914	28147.95
609.272	28538.22
609.629	28789.96
609.986	29008.26
610.343	29205.55
610.7	29431.08
611.057	29574.12
611.414	29741.58
611.771	29914.45
612.127	30049.14
612.484	30265.86
612.841	30629.24
613.198	30484.61
613.554	30845.28
613.911	31123.01
614.267	31317.35
614.624	31367.97
614.98	31586.73
615.337	31933.84
615.693	31870.11
616.05	31928.86
616.406	32305.13
616.762	32327.27
617.118	32447.49
617.475	32627.38
617.831	32748.05
618.187	33109.62
618.543	33125.89
618.899	33294.25
619.255	33489.05
619.611	33451.76
619.967	33655.82
620.323	33778.76
620.678	33874.8
621.034	33868.47
621.39	33938.3
621.746	34024.85
622.101	34490.38
622.457	34328.12
622.812	34474.79
623.168	34515.01
623.523	34588.23
623.879	34810.6
624.234	34756.13
624.589	34933.76
624.945	34965.39
625.3	35020.31
625.655	35152.73
626.01	35258.04
626.365	35260.75
626.72	35334.2
627.075	35429.11
627.43	35496.23
627.785	35423.46
628.14	35585.26
628.495	35785.94
628.85	35642.44
629.205	35663.45
629.559	35807.63
629.914	35820.74
630.269	35646.96
630.623	35786.16
630.978	35739.61
631.332	35927.63
631.687	35976.67
632.041	35940.28
632.396	36084.01
632.75	35877.46
633.104	36191.58
633.459	35876.1
633.813	36020.73
634.167	36068.42
634.521	36021.64
634.875	36030.22
635.229	35881.75
635.583	35896.44
635.937	36089.43
636.291	35921.08
636.645	36015.76
636.999	35990.23
637.352	36129.43
637.706	35912.71
638.06	36077.23
638.413	36085.82
638.767	36073.16
639.121	35942.77
639.474	35814.19
639.828	36095.53
640.181	36060.28
640.534	35914.07
640.888	35966.27
641.241	35755.2
641.594	35859.61
641.947	35953.39
642.301	35824.35
642.654	35971.24
643.007	35933.73
643.36	35921.53
643.713	35750.68
644.066	36044.46
644.419	35792.72
644.771	35522.22
645.124	35223.24
645.477	35172.62
645.83	34938.73
646.182	34988.9
646.535	34847.66
646.888	34785.96
647.24	34650.15
647.593	34861.44
647.945	34903.25
648.298	34707.55
648.65	34494.67
649.002	34571.96
649.355	34748.9
649.707	34600.21
650.059	34829.58
650.411	35220.53
650.763	35261.43
651.115	35558.15
651.467	35513.85
651.819	35558.6
652.171	35335.33
652.523	35311.6
652.875	35305.95
653.227	35239.51
653.578	35416.23
653.93	35257.36
654.282	35250.81
654.633	35134.66
654.985	35258.72
655.337	35232.96
655.688	35190.92
656.039	35359.28
656.391	34988.44
656.742	35168.1
657.094	35094.66
657.445	35207.65
657.796	35221.88
658.147	35154.77
658.498	35188.89
658.849	35186.63
659.2	35165.39
659.551	35023.7
659.902	35094.88
660.253	35107.76
660.604	35244.93
660.955	35029.35
661.306	35202.68
661.656	35029.57
662.007	34999.97
662.358	35077.71
662.708	35011.27
663.059	35112.73
663.409	34932.4
663.76	35110.93
664.11	35089.46
664.461	35175.11
664.811	34985.73
665.161	35125.62
665.511	34966.98
665.862	34971.5
666.212	34999.29
666.562	35064.6
666.912	34922.46
667.262	35015.56
667.612	34846.75
667.962	34933.3
668.312	34924.72
668.662	35109.35
669.011	34894.66
669.361	34816.7
669.711	34910.48
670.06	34867.32
670.41	34704.61
670.76	34800.88
671.109	34876.36
671.459	34826.19
671.808	34784.61
672.157	34873.87
672.507	34631.17
672.856	34603.14
673.205	34706.42
673.554	34720.88
673.904	34586.2
674.253	34776.7
674.602	34879.97
674.951	34309.82
675.3	34165.64
675.649	34639.3
675.998	34586.42
676.346	34630.71
676.695	34670.71
677.044	34455.8
677.393	34494.67
677.741	34631.84
678.09	34596.36
678.438	34441.57
678.787	34439.53
679.135	34410.61
679.484	34242.93
679.832	34457.38
680.181	34155.02
680.529	34356.6
680.877	34087.68
681.225	34145.08
681.573	34396.37
681.922	34168.13
682.27	33983.95
682.618	34097.17
682.966	33886.78
683.314	33981.01
683.661	33933.33
684.009	33705.09
684.357	33704.41
684.705	33609.72
685.053	33655.82
685.4	33465.55
685.748	33331.76
686.095	33379
686.443	33318.88
686.79	33498.09
687.138	33299
687.485	33280.01
687.832	33249.28
688.18	33318.43
688.527	33135.16
688.874	33087.25
689.221	32984.66
689.568	32948.05
689.915	32865.56
690.262	32790.31
690.609	32761.16
690.956	32593.93
691.303	32472.35
691.65	32431.9
691.997	32448.62
692.344	32440.94
692.69	32331.11
693.037	32409.98
693.383	32090.67
693.73	32230.55
694.077	32012.25
694.423	31924.34
694.769	31845.7
695.116	31877.79
695.462	31886.61
695.808	31618.82
696.155	31741.07
696.501	31505.15
696.847	31504.69
697.193	31316.45
697.539	31410.23
697.885	31013.63
698.231	31055.44
698.577	31152.39
698.923	30886.41
699.269	30857.48
699.614	30597.6
699.96	30641.89
700.306	30615
700.651	30574.55
700.997	30422.91
701.342	30349.02
701.688	30381.79
702.033	30219.53
702.379	30207.55
702.724	30071.96
703.069	30158.74
703.415	29751.75
703.76	29865.87
704.105	29859.31
704.45	29789.94
704.795	29587
705.14	29467.91
705.485	29583.39
705.83	29507.01
706.175	29426.1
706.52	29381.36
706.865	29219.78
707.209	29259.33
707.554	29174.59
707.899	29124.64
708.243	29142.04
708.588	29000.81
708.932	28815.05
709.277	28826.8
709.621	28854.14
709.966	28594.26
710.31	28758.1
710.654	28495.06
710.998	28517.2
711.342	28477.2
711.687	28336.42
712.031	28212.13
712.375	28131.45
712.719	28205.12
713.063	28091.22
713.407	28260.71
713.75	28086.48
714.094	27996.76
714.438	27818.01
714.782	27950.21
715.125	27841.97
715.469	27824.34
715.812	27690.56
716.156	27524.69
716.499	27550.22
716.843	27500.28
717.186	27373.28
717.53	27487.62
717.873	27512.26
718.216	27573.05
718.559	27405.82
718.902	27167.18
719.246	27306.61
719.589	27270.91
719.932	27045.38
720.275	27027.07
720.617	27151.81
720.96	26926.96
721.303	26999.5
721.646	26908.88
721.989	26755.44
722.331	26849.9
722.674	26821.43
723.016	26823.46
723.359	26700.3
723.701	26803.12
724.044	26644.26
724.386	26346.19
724.729	26597.48
725.071	26504.15
725.413	26400.2
725.755	26434.32
726.097	26312.29
726.439	26220.77
726.782	26224.83
727.124	26266.41
727.465	26081.56
727.807	26209.92
728.149	26026.42
728.491	26005.86
728.833	26016.25
729.175	25914.33
729.516	25795.01
729.858	25900.1
730.199	25860.55
730.541	25748.01
730.882	25733.32
731.224	25803.6
731.565	25615.13
731.906	25654.45
732.248	25633.89
732.589	25440.9
732.93	25456.94
733.271	25514.12
733.612	25518.41
733.953	25489.26
734.294	25373.78
734.635	25294.69
734.976	25337.85
735.317	25305.31
735.658	25259.21
735.999	25269.83
736.339	25165.43
736.68	25224.41
737.021	25096.28
737.361	25002.94
737.702	25213.56
738.042	25173.79
738.383	24973.57
738.723	25095.6
739.063	24929.27
739.404	24834.59
739.744	24878.88
740.084	24836.85
740.424	24781.48
740.764	24794.59
741.104	24930.4
741.444	24718.43
741.784	24598.66
742.124	24659
742.464	24613.35
742.804	24460.36
743.143	24550.75
743.483	24530.87
743.823	24416.97
744.162	24358.89
744.502	24457.42
744.841	24301.72
745.181	24368.84
745.52	24275.96
745.86	24273.02
746.199	24184.89
746.538	24241.38
746.877	24186.47
747.216	24165.68
747.556	24101.95
747.895	24055.4
748.234	23966.36
748.573	23875.74
748.911	23954.16
749.25	23901.28
749.589	23788.29
749.928	23749.87
750.267	23785.35
750.605	23719.59
750.944	23675.3
751.283	23631.23
751.621	23631.91
751.96	23511.68
752.298	23598.69
752.636	23632.58
752.975	23412.7
753.313	23359.37
753.651	23530.89
753.989	23363.89
754.327	23344.46
754.666	23116.67
755.004	23217
755.342	23180.62
755.679	23054.97
756.017	22907.86
756.355	22987.63
756.693	22950.12
757.031	22962.09
757.368	22810.01
757.706	22844.58
758.044	22693.85
758.381	22773.85
758.719	22663.12
759.056	22631.48
759.394	22646.4
759.731	22425.84
760.068	22456.8
760.405	22370.25
760.743	22252.51
761.08	22297.93
761.417	22155.11
761.754	22125.73
762.091	22083.47
762.428	21992.4
762.765	21986.3
763.102	21948.79
763.438	21802.58
763.775	21741.56
764.112	21740.66
764.449	21708.12
764.785	21772.75
765.122	21493.21
765.458	21431.74
765.795	21398.97
766.131	21399.65
766.467	21273.32
766.804	21248.47
767.14	21149.03
767.476	21156.49
767.812	20996.27
768.148	20967.12
768.485	20808.93
768.821	20801.47
769.157	20773.22
769.492	20777.74
769.828	20648.26
770.164	20429.73
770.5	20483.74
770.836	20482.84
771.171	20333.46
771.507	20295.5
771.842	20272.22
772.178	20055.73
772.513	20173.92
772.849	20010.31
773.184	19990.19
773.519	19968.5
773.855	19878.79
774.19	19853.7
774.525	19638.34
774.86	19738.22
775.195	19545.46
775.53	19535.74
775.865	19314.51
776.2	19353.83
776.535	19111.57
776.87	19113.83
777.205	19152.25
777.539	19008.07
777.874	19062.54
778.209	18871.13
778.543	18853.5
778.878	18651.7
779.212	18651.92
779.547	18565.83
779.881	18661.42
780.215	18526.5
780.55	18580.51
780.884	18400.86
781.218	18310.69
781.552	18372.16
781.886	18247.64
782.22	18154.31
782.554	18120.87
782.888	17839.74
783.222	17830.03
783.556	17781.89
783.889	17774.89
784.223	17695.11
784.557	17598.85
784.89	17682.01
785.224	17525.4
785.557	17465.06
785.891	17388.68
786.224	17310.49
786.558	17304.62
786.891	17251.96
787.224	17065.75
787.557	17055.81
787.891	17129.03
788.224	16998.86
788.557	17013.78
788.89	16944.85
789.223	16860.33
789.556	16730.17
789.888	16745.99
790.221	16645.42
790.554	16571.3
790.887	16489.27
791.219	16456.95
791.552	16381.93
791.884	16394.36
792.217	16263.51
792.549	16304.19
792.882	16117.3
793.214	16027.36
793.546	16074.59
793.879	16061.26
794.211	15875.27
794.543	15901.49
794.875	15921.83
795.207	15969.51
795.539	15691.55
795.871	15757.54
796.203	15702.17
796.535	15501.95
796.867	15535.85
797.198	15516.64
797.53	15523.19
797.862	15265.12
798.193	15353.93
798.525	15256.76
798.856	15224.67
799.188	15124.33
799.519	15087.72
799.85	15024.9
800.182	15025.35
800.513	15038.23
800.844	14924.57
801.175	15006.37
801.506	14969.08
801.837	14798.01
802.168	14809.99
802.499	14724.12
802.83	14654.52
803.161	14627.4
803.491	14591.24
803.822	14668.53
804.153	14437.12
804.483	14423.11
804.814	14374.98
805.145	14380.4
805.475	14329.78
805.805	14197.58
806.136	14304.69
806.466	14200.97
806.796	14191.03
807.126	14087.98
807.457	14003.01
807.787	14034.87
808.117	13939.28
808.447	14008.43
808.777	13922.11
809.107	13895.44
809.436	13844.14
809.766	13896.8
810.096	13806.18
810.426	13735.9
810.755	13739.96
811.085	13686.18
811.414	13728.21
811.744	13545.17
812.073	13531.38
812.403	13464.94
812.732	13456.36
813.061	13418.39
813.39	13349.24
813.719	13365.28
814.049	13433.76
814.378	13382.23
814.707	13306.98
815.036	13316.7
815.365	13212.97
815.693	13087.78
816.022	13108.79
816.351	13110.38
816.68	13031.06
817.008	13052.52
817.337	12956.03
817.665	12962.81
817.994	12949.93
818.322	12951.06
818.651	12821.12
818.979	12831.06
819.307	12874.68
819.636	12719.2
819.964	12721.01
820.292	12819.76
820.62	12718.52
820.948	12647.79
821.276	12721.69
821.604	12734.79
821.932	12648.47
822.259	12708.58
822.587	12700.67
822.915	12715.36
823.243	12736.15
823.57	12623.61
823.898	12663.16
824.225	12617.51
824.553	12577.28
824.88	12651.63
825.207	12725.75
825.535	12590.62
825.862	12675.81
826.189	12576.6
826.516	12653.89
826.843	12689.82
827.17	12642.37
827.497	12631.52
827.824	12681.23
828.151	12669.71
828.478	12620.44
828.805	12676.94
829.131	12581.35
829.458	12610.05
829.785	12656.38
830.111	12563.05
830.438	12610.5
830.764	12618.41
831.09	12629.26
831.417	12541.13
831.743	12611.18
832.069	12541.13
832.395	12452.09
832.722	12573.21
833.048	12466.1
833.374	12570.28
833.7	12478.08
834.026	12507
834.351	12489.15
834.677	12459.32
835.003	12479.88
835.329	12422.26
835.654	12360.34
835.98	12326.89
836.306	12304.3
836.631	12281.92
836.956	12341.81
837.282	12299.78
837.607	12317.63
837.932	12259.32
838.258	12222.49
838.583	12250.51
838.908	12172.55
839.233	12188.82
839.558	12102.04
839.883	12149.5
840.208	12064.53
840.533	12062.04
840.858	12107.24
841.182	12108.59
841.507	12014.59
841.832	12092.78
842.156	12013.46
842.481	11968.26
842.805	11926.23
843.13	11896.62
843.454	11836.28
843.778	11868.15
844.103	11890.97
844.427	11767.13
844.751	11811.43
845.075	11728.94
845.399	11729.62
845.723	11627.7
846.047	11671.77
846.371	11611.88
846.695	11571.66
847.019	11516.75
847.343	11438.1
847.666	11403.08
847.99	11355.62
848.313	11308.16
848.637	11223.42
848.96	11272.68
849.284	11125.12
849.607	11104.78
849.931	11111.56
850.254	11013.03
850.577	11058.45
850.9	10879.25
851.223	10907.27
851.546	10865.46
851.869	10789.31
852.192	10792.92
852.515	10705.47
852.838	10582.31
853.161	10721.51
853.483	10592.7
853.806	10507.96
854.129	10507.05
854.451	10534.85
854.774	10453.72
855.096	10413.72
855.419	10373.05
855.741	10385.7
856.063	10340.5
856.385	10281.52
856.708	10285.82
857.03	10193.16
857.352	10215.54
857.674	10148.87
857.996	10193.39
858.318	10098.03
858.64	10051.92
858.961	10075.88
859.283	9973.28
859.605	9954.3
859.926	10103.9
860.248	9975.99
860.57	9896.67
860.891	9951.81
861.212	9889.44
861.534	9877.92
861.855	9830.46
862.176	9836.56
862.498	9807.41
862.819	9790.91
863.14	9778.94
863.461	9735.78
863.782	9765.83
864.103	9705.72
864.424	9673.18
864.745	9737.36
865.065	9664.82
865.386	9562.9
865.707	9576.23
866.027	9651.03
866.348	9576.91
866.668	9551.6
866.989	9486.52
867.309	9479.74
867.63	9502.56
867.95	9461.43
868.27	9435.22
868.59	9466.86
868.91	9373.3
869.23	9432.28
869.55	9355.9
869.87	9417.59
870.19	9381.89
870.51	9325.39
870.83	9318.61
871.15	9253.3
871.469	9362.9
871.789	9384.37
872.109	9321.77
872.428	9270.93
872.748	9282.45
873.067	9267.54
873.386	9223.47
873.706	9237.26
874.025	9169.69
874.344	9126.3
874.663	9165.85
874.982	9140.99
875.301	9126.07
875.62	9113.19
875.939	9127.2
876.258	9086.75
876.577	9056.47
876.896	8994.78
877.214	9037.94
877.533	9033.42
877.852	9043.59
878.17	9029.8
878.489	9016.02
878.807	8999.52
879.125	8985.96
879.444	8957.04
879.762	8908.23
880.08	8912.97
880.398	8872.29
880.716	8879.07
881.034	8847.66
881.352	8889.47
881.67	8804.5
881.988	8870.71
882.306	8738.74
882.624	8755.01
882.941	8754.11
883.259	8687.44
883.577	8707.55
883.894	8669.81
884.212	8636.82
884.529	8627.33
884.846	8663.94
885.164	8604.73
885.481	8555.24
885.798	8715.24
886.115	8493.1
886.432	8568.8
886.75	8465.53
887.067	8505.98
887.383	8514.56
887.7	8441.35
888.017	8463.49
888.334	8468.24
888.651	8318.19
888.967	8369.26
889.284	8289.49
889.6	8311.18
889.917	8248.13
890.233	8258.3
890.55	8290.62
890.866	8224.4
891.182	8133.33
891.498	8139.43
891.815	8132.88
892.131	8112.54
892.447	8138.08
892.763	8113.22
893.079	7995.48
893.395	8016.27
893.71	8006.1
894.026	8007.01
894.342	7995.03
894.657	7945.09
894.973	7894.24
895.289	7961.81
895.604	7879.55
895.92	7818.54
896.235	7799.1
896.55	7788.26
896.865	7788.48
897.181	7772.21
897.496	7771.08
897.811	7652.67
898.126	7646.34
898.441	7624.19
898.756	7607.02
899.071	7570.63
899.386	7627.58
899.7	7501.26
900.015	7449.51
900.33	7449.28
900.644	7374.93
900.959	7376.06
901.273	7390.75
901.588	7336.97
901.902	7345.33
902.216	7330.87
902.531	7265.56
902.845	7222.39
903.159	7228.5
903.473	7200.93
903.787	7213.36
904.101	7117.54
904.415	7142.62
904.729	7100.36
905.042	7003.19
905.356	7042.74
905.67	7012.91
905.984	6981.5
906.297	7024.89
906.611	6966.81
906.924	6918.9
907.237	6904.66
907.551	6870.77
907.864	6876.19
908.177	6825.12
908.491	6791.9
908.804	6730.88
909.117	6735.18
909.43	6706.02
909.743	6631.9
910.056	6674.61
910.368	6536.09
910.681	6614.28
910.994	6542.64
911.307	6544.67
911.619	6523.88
911.932	6504
912.244	6428.52
912.557	6438.23
912.869	6420.38
913.181	6383.09
913.494	6361.17
913.806	6351.01
914.118	6284.34
914.43	6277.33
914.742	6243.44
915.054	6282.08
915.366	6244.34
915.678	6193.72
915.99	6180.39
916.302	6107.17
916.613	6067.4
916.925	6089.09
917.236	6074.63
917.548	6018.13
917.859	6017.68
918.171	6008.64
918.482	5942.65
918.794	5906.72
919.105	5914.63
919.416	5843.45
919.727	5905.14
920.038	5839.38
920.349	5809.55
920.66	5751.7
920.971	5761.64
921.282	5781.08
921.593	5689.55
921.903	5719.84
922.214	5727.52
922.525	5646.62
922.835	5643.91
923.146	5583.57
923.456	5564.13
923.767	5577.92
924.077	5521.42
924.387	5533.63
924.697	5524.59
925.008	5475.77
925.318	5422.89
925.628	5434.42
925.938	5409.34
926.248	5355.33
926.558	5319.17
926.867	5316.46
927.177	5299.96
927.487	5269
927.796	5248.44
928.106	5243.01
928.416	5210.24
928.725	5230.58
929.034	5161.43
929.344	5190.13
929.653	5126.4
929.962	5064.26
930.271	5065.16
930.581	5068.1
930.89	5016.8
931.199	5015
931.508	5006.63
931.817	5001.21
932.125	4964.6
932.434	4954.88
932.743	4903.13
933.051	4870.82
933.36	4874.66
933.669	4847.77
933.977	4826.98
934.286	4803.7
934.594	4804.83
934.902	4701.56
935.21	4751.73
935.519	4728.45
935.827	4770.93
936.135	4721.67
936.443	4685.96
936.751	4653.2
937.059	4642.58
937.367	4587.21
937.674	4588.11
937.982	4552.41
938.29	4510.83
938.597	4544.5
938.905	4499.75
939.213	4478.96
939.52	4448
939.827	4460.43
940.135	4484.84
940.442	4403.49
940.749	4458.4
941.056	4388.35
941.363	4332.75
941.67	4361.45
941.977	4330.04
942.284	4274.45
942.591	4303.15
942.898	4259.31
943.205	4264.05
943.511	4279.65
943.818	4206.2
944.125	4172.53
944.431	4131.18
944.738	4162.14
945.044	4161.01
945.35	4089.37
945.657	4114.68
945.963	4114.68
946.269	4031.52
946.575	4096.83
946.881	4050.73
947.187	4028.81
947.493	4009.82
947.799	3977.73
948.105	3951.97
948.41	3944.74
948.716	3986.55
949.022	3959.88
949.327	3906.55
949.633	3850.73
949.938	3935.02
950.244	3841.92
950.549	3814.57
950.854	3787.91
951.16	3835.37
951.465	3779.32
951.77	3788.81
952.075	3756.72
952.38	3741.13
952.685	3746.78
952.99	3716.72
953.294	3712.43
953.599	3691.19
953.904	3683.73
954.209	3623.39
954.513	3651.42
954.818	3636.73
955.122	3589.27
955.426	3594.92
955.731	3525.77
956.035	3544.75
956.339	3551.98
956.643	3543.62
956.948	3468.14
957.252	3520.12
957.556	3521.7
957.86	3495.94
958.163	3497.52
958.467	3447.8
958.771	3426.11
959.075	3439.9
959.378	3378.65
959.682	3401.48
959.985	3358.54
960.289	3349.28
960.592	3344.3
960.896	3342.5
961.199	3341.59
961.502	3305.44
961.805	3278.54
962.108	3258.88
962.411	3275.38
962.714	3253.69
963.017	3248.04
963.32	3228.83
963.623	3214.36
963.926	3212.1
964.228	3131.65
964.531	3160.58
964.833	3162.16
965.136	3128.94
965.438	3094.14
965.741	3126.68
966.043	3115.61
966.345	3072.45
966.648	3123.75
966.95	3035.16
967.252	3055.27
967.554	3053.01
967.856	3025.22
968.158	2990.87
968.46	2972.11
968.761	2967.82
969.063	2968.95
969.365	2938.89
969.666	2946.12
969.968	2937.99
970.269	2907.71
970.571	2916.97
970.872	2894.15
971.174	2867.93
971.475	2861.38
971.776	2871.55
972.077	2848.95
972.378	2833.36
972.679	2828.39
972.98	2819.12
973.281	2833.81
973.582	2801.95
973.883	2769.86
974.183	2769.63
974.484	2745.9
974.785	2705.45
975.085	2744.55
975.386	2708.39
975.686	2718.56
975.986	2693.7
976.287	2687.6
976.587	2650.76
976.887	2635.17
977.187	2624.1
977.487	2634.27
977.787	2611.22
978.087	2578.68
978.387	2570.54
978.687	2592.69
978.987	2549.3
979.286	2553.14
979.586	2553.37
979.885	2510.88
980.185	2515.17
980.484	2519.02
980.784	2512.24
981.083	2476.98
981.382	2460.94
981.682	2477.21
981.981	2461.62
982.28	2426.36
982.579	2422.97
982.878	2429.07
983.177	2405.57
983.475	2430.2
983.774	2407.61
984.073	2390.43
984.372	2405.12
984.67	2361.96
984.969	2377.1
985.267	2358.57
985.566	2352.24
985.864	2359.25
986.162	2310.66
986.461	2282.19
986.759	2310.21
987.057	2258.68
987.355	2298.46
987.653	2289.64
987.951	2251.68
988.249	2238.12
988.547	2249.19
988.844	2238.57
989.142	2224.33
989.44	2218.01
989.737	2199.48
990.035	2167.39
990.332	2188.85
990.63	2137.33
990.927	2142.3
991.224	2136.65
991.521	2111.57
991.819	2124
992.116	2120.61
992.413	2068.63
992.71	2081.97
993.006	2108.63
993.303	2098.46
993.6	2084.22
993.897	2100.95
994.193	2088.97
994.49	2061.4
994.787	2038.8
995.083	2031.12
995.379	2022.31
995.676	1980.5
995.972	2001.06
996.268	1952.93
996.565	1994.28
996.861	1962.87
997.157	1984.11
997.453	1941.63
997.749	1939.37
998.044	1940.5
998.34	1940.73
998.636	1888.3
998.932	1904.34
999.227	1893.04
999.523	1900.5
999.818	1865.47
1000.114	1852.37
1000.409	1819.83
1000.704	1842.88
1001	1829.09
1001.295	1819.15
1001.59	1804.01
1001.885	1768.53
1002.18	1791.8
1002.475	1784.35
1002.77	1761.75
1003.065	1785.25
1003.359	1768.98
1003.654	1764.23
1003.949	1755.87
1004.243	1733.5
1004.538	1722.88
1004.832	1709.09
1005.127	1681.52
1005.421	1677.46
1005.715	1686.72
1006.009	1666.61
1006.304	1681.52
1006.598	1662.09
1006.892	1647.4
1007.186	1635.88
1007.48	1642.43
1007.773	1627.97
1008.067	1620.51
1008.361	1601.53
1008.655	1564.69
1008.948	1606.72
1009.242	1594.75
1009.535	1580.51
1009.829	1570.34
1010.122	1562.43
1010.415	1535.99
1010.708	1515.43
1011.001	1535.76
1011.295	1534.86
1011.588	1517.01
1011.881	1497.8
1012.173	1472.94
1012.466	1503
1012.759	1490.34
1013.052	1491.02
1013.344	1463
1013.637	1465.48
1013.93	1439.5
1014.222	1407.63
1014.514	1437.91
1014.807	1404.69
1015.099	1408.08
1015.391	1393.4
1015.683	1414.41
1015.976	1380.06
1016.268	1393.85
1016.56	1391.14
1016.851	1368.09
1017.143	1359.05
1017.435	1343.45
1017.727	1348.2
1018.018	1328.76
1018.31	1319.5
1018.602	1307.75
1018.893	1297.35
1019.185	1287.18
1019.476	1292.83
1019.767	1275.88
1020.058	1294.19
1020.35	1265.72
1020.641	1260.52
1020.932	1254.87
1021.223	1248.54
1021.514	1232.72
1021.804	1235.66
1022.095	1186.85
1022.386	1227.3
1022.677	1221.42
1022.967	1195.43
1023.258	1190.46
1023.548	1197.02
1023.839	1179.62
1024.129	1197.92
1024.419	1154.08
1024.709	1167.19
1025	1135.32
1025.29	1104.14
1025.58	1119.96
1025.87	1112.5
1026.16	1131.26
1026.449	1128.54
1026.739	1081.31
1027.029	1089.45
1027.319	1094.42
1027.608	1083.12
1027.898	1083.8
1028.187	1084.25
1028.477	1087.41
1028.766	1093.52
1029.055	1035.89
1029.344	1041.09
1029.634	1024.59
1029.923	1028.89
1030.212	1029.34
1030.501	1038.15
1030.79	1022.11
1031.078	1016
1031.367	999.28
1031.656	999.28
1031.945	1001.99
1032.233	985.72
1032.522	993.63
1032.81	966.06
1033.099	976.46
1033.387	974.88
1033.675	963.58
1033.963	984.59
1034.251	992.05
1034.54	919.28
1034.828	905.27
1035.116	919.74
1035.403	922.67
1035.691	912.96
1035.979	919.28
1036.267	894.88
1036.554	893.3
1036.842	909.11
1037.129	896.46
1037.417	864.6
1037.704	847.2
1037.992	857.36
1038.279	881.54
1038.566	874.77
1038.853	874.77
1039.14	874.77
