Data from hue_170_FLMS001491_00041.txt Node
Date: Tue Feb 07 16:48:44 GMT 2017
User: dcchb
Spectrometer: FLMS00149
Trigger mode: 0
Integration Time (sec): 2.000000E-2
Scans to average: 10
Electric dark correction enabled: true
Nonlinearity correction enabled: false
Boxcar width: 0
XAxis mode: Wavelengths
Number of Pixels in Spectrum: 2048
>>>>>Begin Spectral Data<<<<<
341.393	-4.42
341.776	-4.42
342.16	-4.42
342.543	-69.05
342.927	-69.73
343.31	-66.34
343.693	-81.93
344.077	-74.48
344.46	-50.52
344.843	-51.2
345.226	-32.22
345.61	-38.54
345.993	-15.49
346.376	-11.43
346.759	13.66
347.142	22.25
347.525	49.82
347.908	38.52
348.291	81
348.674	96.82
349.057	120.1
349.44	140.66
349.823	126.65
350.206	151.28
350.588	193.54
350.971	211.84
351.354	229.47
351.737	241.9
352.119	257.72
352.502	276.7
352.884	277.38
353.267	268.79
353.65	286.19
354.032	314.21
354.414	304.95
354.797	327.55
355.179	324.61
355.562	307.44
355.944	311.96
356.326	335.23
356.709	330.26
357.091	313.54
357.473	349.92
357.855	361.45
358.238	339.3
358.62	330.26
359.002	332.52
359.384	328.68
359.766	347.89
360.148	328
360.53	338.17
360.912	338.62
361.294	324.61
361.676	313.31
362.057	313.08
362.439	335.46
362.821	318.06
363.203	330.49
363.584	320.77
363.966	326.87
364.348	307.89
364.729	300.2
365.111	356.25
365.493	321.45
365.874	332.75
366.256	325.74
366.637	319.41
367.019	324.16
367.4	303.59
367.781	333.65
368.163	337.04
368.544	311.73
368.925	326.19
369.306	310.6
369.688	310.15
370.069	309.02
370.45	319.19
370.831	311.28
371.212	334.55
371.593	312.86
371.974	304.27
372.355	329.13
372.736	329.81
373.117	315.12
373.498	304.5
373.879	300.43
374.26	326.19
374.641	315.57
375.021	320.54
375.402	323.03
375.783	337.94
376.163	329.58
376.544	326.87
376.925	351.5
377.305	321.45
377.686	346.76
378.066	351.28
378.447	341.56
378.827	334.78
379.208	319.64
379.588	331.84
379.968	339.3
380.349	333.2
380.729	349.69
381.109	341.33
381.489	332.52
381.87	334.55
382.25	326.19
382.63	357.15
383.01	320.09
383.39	343.14
383.77	339.75
384.15	364.38
384.53	362.35
384.91	366.64
385.29	341.11
385.67	345.17
386.049	371.39
386.429	327.77
386.809	336.36
387.189	349.92
387.568	335.68
387.948	372.07
388.328	365.96
388.707	345.63
389.087	366.19
389.466	372.97
389.846	374.33
390.225	358.96
390.605	355.8
390.984	392.4
391.363	360.99
391.743	368
392.122	363.93
392.501	382.24
392.881	376.13
393.26	377.04
393.639	388.79
394.018	385.85
394.397	379.3
394.776	379.3
395.155	383.82
395.534	388.79
395.913	382.91
396.292	400.77
396.671	370.26
397.05	385.85
397.429	426.53
397.808	407.77
398.186	395.57
398.565	393.08
398.944	397.15
399.323	408.9
399.701	400.09
400.08	406.19
400.458	424.72
400.837	399.86
401.215	442.8
401.594	440.09
401.972	407.77
402.351	446.19
402.729	433.31
403.107	417.94
403.486	417.72
403.864	422.91
404.242	424.72
404.62	416.81
404.999	427.43
405.377	424.49
405.755	455
406.133	451.39
406.511	460.65
406.889	446.41
407.267	461.1
407.645	452.97
408.023	463.82
408.401	481.67
408.779	462.23
409.156	487.32
409.534	489.8
409.912	492.97
410.29	512.63
410.667	484.61
411.045	505.62
411.422	527.99
411.8	498.84
412.178	505.17
412.555	524.15
412.933	534.1
413.31	525.96
413.687	539.29
414.065	535.68
414.442	535.45
414.819	558.5
415.197	560.31
415.574	566.41
415.951	566.19
416.328	571.38
416.705	583.59
417.082	571.84
417.46	586.52
417.837	583.36
418.214	596.47
418.591	582.46
418.967	604.83
419.344	599.18
419.721	611.38
420.098	601.66
420.475	633.08
420.852	612.51
421.228	644.83
421.605	629.46
421.982	650.03
422.358	647.31
422.735	662
423.111	687.99
423.488	687.09
423.864	709.23
424.241	687.31
424.617	712.85
424.994	701.32
425.37	709.23
425.746	717.37
426.123	745.39
426.499	723.7
426.875	739.29
427.251	746.75
427.627	760.08
428.003	771.38
428.379	771.83
428.756	753.75
429.132	801.43
429.507	797.37
429.883	805.73
430.259	808.44
430.635	811.83
431.011	856.8
431.387	838.27
431.763	838.27
432.138	860.19
432.514	865.16
432.89	876.69
433.265	890.02
433.641	894.54
434.016	911.04
434.392	917.59
434.767	945.84
435.143	951.94
435.518	960.3
435.894	980.86
436.269	930.92
436.644	975.89
437.02	987.42
437.395	974.99
437.77	1034.2
438.145	1019.06
438.52	1033.74
438.895	1035.78
439.271	1062.44
439.646	1067.87
440.021	1119.17
440.395	1109.22
440.77	1082.1
441.145	1102.22
441.52	1150.13
441.895	1122.56
442.27	1127.53
442.645	1168.2
443.019	1198.71
443.394	1180.63
443.769	1193.29
444.143	1193.74
444.518	1209.11
444.892	1199.16
445.267	1214.98
445.641	1237.13
446.016	1244.13
446.39	1247.75
446.764	1235.09
447.139	1274.64
447.513	1267.18
447.887	1298.14
448.262	1284.13
448.636	1288.65
449.01	1329.33
449.384	1329.78
449.758	1328.43
450.132	1346.96
450.506	1372.04
450.88	1383.34
451.254	1356.9
451.628	1404.36
452.002	1388.08
452.376	1400.51
452.75	1425.82
453.123	1471.47
453.497	1471.47
453.871	1489.1
454.244	1481.64
454.618	1513.28
454.992	1519.15
455.365	1561.19
455.739	1598.47
456.112	1606.38
456.486	1606.61
456.859	1595.99
457.232	1639.6
457.606	1672.15
457.979	1633.73
458.352	1731.8
458.725	1716.66
459.099	1730.22
459.472	1775.19
459.845	1781.29
460.218	1791.24
460.591	1849.09
460.964	1849.99
461.337	1882.99
461.71	1932.03
462.083	1934.29
462.456	1927.28
462.829	1953.95
463.201	2003.66
463.574	2011.12
463.947	2022.64
464.32	2098.8
464.692	2130.66
465.065	2127.95
465.438	2180.83
465.81	2209.08
466.183	2226.03
466.555	2296.76
466.928	2280.72
467.3	2302.86
467.672	2356.42
468.045	2396.19
468.417	2441.84
468.789	2462.41
469.161	2511.9
469.534	2535.85
469.906	2618.79
470.278	2628.28
470.65	2696.75
471.022	2749.86
471.394	2798.22
471.766	2802.74
472.138	2840.02
472.51	2937.42
472.882	2980.36
473.253	3044.76
473.625	3101.94
473.997	3187.81
474.369	3211.54
474.74	3229.84
475.112	3349.62
475.484	3452.89
475.855	3478.65
476.227	3521.36
476.598	3710.28
476.97	3714.35
477.341	3806.33
477.713	3884.52
478.084	3947.34
478.455	4059.2
478.827	4090.16
479.198	4289.03
479.569	4301.68
479.94	4478.17
480.311	4495.8
480.682	4680.88
481.053	4780.31
481.424	4830.03
481.795	4926.3
482.166	5056.92
482.537	5147.76
482.908	5304.14
483.279	5420.3
483.65	5523.34
484.021	5643.79
484.391	5763.34
484.762	5891.92
485.133	5952.48
485.503	6057.34
485.874	6237.67
486.244	6361.51
486.615	6500.72
486.985	6595.86
487.356	6796.08
487.726	6839.69
488.097	7041.72
488.467	7096.86
488.837	7342.96
489.207	7395.16
489.578	7513.12
489.948	7655.72
490.318	7800.35
490.688	7854.58
491.058	8136.16
491.428	8174.57
491.798	8264.97
492.168	8568.91
492.538	8575.47
492.908	8732.98
493.278	8852.52
493.648	8886.64
494.017	9134.1
494.387	9206.41
494.757	9310.81
495.126	9433.52
495.496	9474.2
495.866	9559.85
496.235	9697.02
496.605	9810.91
496.974	9885.49
497.344	10111.25
497.713	10073.28
498.082	10220.62
498.452	10301.3
498.821	10370.45
499.19	10391.01
499.559	10499.94
499.928	10577.22
500.298	10677.33
500.667	10845.69
501.036	10837.33
501.405	10882.98
501.774	10948.51
502.143	11058.34
502.512	11136.76
502.88	11318.67
503.249	11219.24
503.618	11296.53
503.987	11455.84
504.356	11421.04
504.724	11414.26
505.093	11569.96
505.462	11558.21
505.83	11659.91
506.199	11753.01
506.567	11912.1
506.936	11894.93
507.304	11982.83
507.672	12038.65
508.041	12052.21
508.409	12192.77
508.777	12286.56
509.145	12276.39
509.514	12309.61
509.882	12311.64
510.25	12325.42
510.618	12352.77
510.986	12410.85
511.354	12566.77
511.722	12531.75
512.09	12739.2
512.458	12628.92
512.826	12728.35
513.193	12770.38
513.561	12766.32
513.929	12865.3
514.297	12916.14
514.664	12997.05
515.032	12997.5
515.4	13047.44
515.767	13091.51
516.135	13178.74
516.502	12966.09
516.869	13200.2
517.237	13251.5
517.604	13102.58
517.972	13272.97
518.339	13295.57
518.706	13279.75
519.073	13234.55
519.44	13373.53
519.808	13418.73
520.175	13289.24
520.542	13513.42
520.909	13507.77
521.276	13442.68
521.643	13508.67
522.009	13581.89
522.376	13653.98
522.743	13630.02
523.11	13760.19
523.477	13748.44
523.843	13853.52
524.21	13871.15
524.577	13927.19
524.943	13860.53
525.31	13940.75
525.676	14000.41
526.043	13934.42
526.409	14023.23
526.776	14046.06
527.142	14047.87
527.508	14029.11
527.874	14123.57
528.241	14154.08
528.607	14168.77
528.973	14209.67
529.339	14067.07
529.705	14151.14
530.071	14202.44
530.437	14170.12
530.803	14185.04
531.169	14228.43
531.535	14135.09
531.901	14162.89
532.267	14099.62
532.632	14136.22
532.998	14140.74
533.364	14094.42
533.73	14164.92
534.095	14211.7
534.461	14024.14
534.826	14166.73
535.192	14057.36
535.557	14109.78
535.923	14062.1
536.288	14025.72
536.653	14129.67
537.019	13927.42
537.384	13921.54
537.749	13973.29
538.114	13907.3
538.479	13873.86
538.845	13856.23
539.21	13815.33
539.575	13799.51
539.94	13727.42
540.305	13743.24
540.67	13640.87
541.034	13638.84
541.399	13652.17
541.764	13619.18
542.129	13656.91
542.494	13599.74
542.858	13495.11
543.223	13484.04
543.587	13459.63
543.952	13324.04
544.316	13383.02
544.681	13313.87
545.045	13307.09
545.41	13348.45
545.774	13279.07
546.138	13322.69
546.503	13217.38
546.867	13166.53
547.231	13174.89
547.595	13136.93
547.959	13094.67
548.324	12995.01
548.688	12999.31
549.052	12979.87
549.416	12944.84
549.779	12978.51
550.143	12856.03
550.507	12864.62
550.871	12809.71
551.235	12755.92
551.599	12716.83
551.962	12712.53
552.326	12665.53
552.689	12748.69
553.053	12643.38
553.417	12547.57
553.78	12702.36
554.143	12571.97
554.507	12495.82
554.87	12515.25
555.234	12637.28
555.597	12524.29
555.96	12536.04
556.323	12439.77
556.686	12518.64
557.05	12476.38
557.413	12448.36
557.776	12522.03
558.139	12500.79
558.502	12463.5
558.865	12449.94
559.228	12526.78
559.59	12444.74
559.953	12372.88
560.316	12536.04
560.679	12365.42
561.041	12443.39
561.404	12436.61
561.767	12513.22
562.129	12355.71
562.492	12446.33
562.854	12438.87
563.217	12412.43
563.579	12411.75
563.941	12437.51
564.304	12448.36
564.666	12432.31
565.028	12463.73
565.39	12452.43
565.753	12514.12
566.115	12608.35
566.477	12514.12
566.839	12510.96
567.201	12581.01
567.563	12591.41
567.925	12608.13
568.287	12581.46
568.648	12557.06
569.01	12674.34
569.372	12620.11
569.734	12589.82
570.095	12598.41
570.457	12579.2
570.819	12693.1
571.18	12634.34
571.542	12693.55
571.903	12689.71
572.265	12689.03
572.626	12742.36
572.987	12748.46
573.349	12777.84
573.71	12739.88
574.071	12676.6
574.432	12746.88
574.794	12830.72
575.155	12799.76
575.516	12682.48
575.877	12771.97
576.238	12833.89
576.599	12758.86
576.96	12796.15
577.32	12821
577.681	12773.1
578.042	12842.02
578.403	12878.86
578.763	12825.52
579.124	12846.77
579.485	12805.86
579.845	12958.85
580.206	12825.75
580.566	12822.13
580.927	12789.59
581.287	12952.07
581.648	12764.06
582.008	12905.75
582.368	12847.67
582.728	12804.51
583.089	12735.13
583.449	12744.62
583.809	12748.92
584.169	12854.9
584.529	12842.47
584.889	12839.54
585.249	12785.3
585.609	12776.71
585.969	12760.44
586.329	12779.65
586.688	12780.55
587.048	12707.56
587.408	12685.42
587.768	12645.42
588.127	12704.85
588.487	12662.59
588.846	12674.57
589.206	12655.13
589.565	12635.25
589.925	12659.43
590.284	12664.85
590.643	12626.66
591.003	12605.42
591.362	12607.9
591.721	12621.91
592.08	12519.77
592.44	12644.29
592.799	12621.69
593.158	12514.35
593.517	12566.1
593.876	12590.73
594.235	12538.98
594.593	12555.25
594.952	12442.94
595.311	12465.31
595.67	12559.99
596.029	12623.72
596.387	12633.89
596.746	12578.3
597.104	12520.22
597.463	12445.87
597.822	12548.47
598.18	12519.54
598.538	12447
598.897	12527.23
599.255	12352.09
599.613	12547.11
599.972	12516.38
600.33	12494.23
600.688	12407
601.046	12524.74
601.404	12542.82
601.762	12590.05
602.12	12493.33
602.478	12597.06
602.836	12512.09
603.194	12492.2
603.552	12503.27
603.91	12432.54
604.268	12542.82
604.625	12419.66
604.983	12459.21
605.341	12489.49
605.698	12531.07
606.056	12482.48
606.413	12490.17
606.771	12552.31
607.128	12568.36
607.485	12464.4
607.843	12501.69
608.2	12608.13
608.557	12546.44
608.914	12531.29
609.272	12590.5
609.629	12613.78
609.986	12632.08
610.343	12590.28
610.7	12631.18
611.057	12648.35
611.414	12540.33
611.771	12615.59
612.127	12615.59
612.484	12655.81
612.841	12645.42
613.198	12624.63
613.554	12714.79
613.911	12642.93
614.267	12660.1
614.624	12651.74
614.98	12720.89
615.337	12722.25
615.693	12732.19
616.05	12708.24
616.406	12781.68
616.762	12714.79
617.118	12747.11
617.475	12791.85
617.831	12838.41
618.187	12756.83
618.543	12706.21
618.899	12785.53
619.255	12874.79
619.611	12891.51
619.967	12831.4
620.323	12808.8
620.678	12733.1
621.034	12782.36
621.39	12823.72
621.746	12841.34
622.101	12935.35
622.457	12883.83
622.812	12825.52
623.168	12842.25
623.523	12832.08
623.879	12893.09
624.234	12796.15
624.589	12839.99
624.945	12858.74
625.3	12930.38
625.655	12936.71
626.01	12816.03
626.365	12836.37
626.72	12792.76
627.075	12818.97
627.43	12792.3
627.785	12849.48
628.14	12810.84
628.495	12804.73
628.85	12802.47
629.205	12727.67
629.559	12816.03
629.914	12709.37
630.269	12704.17
630.623	12759.31
630.978	12657.62
631.332	12713.44
631.687	12779.42
632.041	12626.89
632.396	12704.4
632.75	12680.22
633.104	12729.48
633.459	12574.91
633.813	12619.88
634.167	12600.67
634.521	12566.55
634.875	12642.03
635.229	12513.22
635.583	12506.89
635.937	12498.98
636.291	12477.06
636.645	12433.9
636.999	12485.42
637.352	12486.78
637.706	12355.25
638.06	12399.55
638.413	12411.07
638.767	12324.75
639.121	12412.88
639.474	12268.25
639.828	12399.09
640.181	12370.62
640.534	12358.19
640.888	12279.32
641.241	12313.45
641.594	12335.59
641.947	12319.1
642.301	12277.74
642.654	12239.1
643.007	12313
643.36	12289.27
643.713	12277.29
644.066	12336.27
644.419	12176.05
644.771	12126.11
645.124	11991.65
645.477	12000.91
645.83	11903.29
646.182	11881.37
646.535	11850.18
646.888	11874.59
647.24	11859.45
647.593	11901.25
647.945	11857.87
648.298	11834.14
648.65	11830.97
649.002	11786
649.355	11782.61
649.707	11851.76
650.059	11842.73
650.411	12002.5
650.763	12031.42
651.115	12220.79
651.467	12130.4
651.819	12109.61
652.171	12094.7
652.523	12022.38
652.875	12050.86
653.227	12065.32
653.578	12096.28
653.93	12049.73
654.282	12010.18
654.633	11959.56
654.985	12051.31
655.337	12018.99
655.688	12075.49
656.039	12116.62
656.391	12030.97
656.742	12039.78
657.094	12043.4
657.445	12060.57
657.796	12055.38
658.147	11994.36
658.498	11999.78
658.849	12119.55
659.2	12078.2
659.551	12070.06
659.902	12110.29
660.253	12052.44
660.604	12010.86
660.955	12011.76
661.306	12081.59
661.656	12007.92
662.007	12114.36
662.358	12078.43
662.708	12165.65
663.059	12133.11
663.409	12026.9
663.76	12162.49
664.11	12089.27
664.461	12096.28
664.811	12119.33
665.161	12087.01
665.511	12011.99
665.862	12087.92
666.212	12128.59
666.562	12100.35
666.912	12096.05
667.262	12095.15
667.612	12110.51
667.962	12128.82
668.312	12121.59
668.662	12138.31
669.011	12189.16
669.361	12096.96
669.711	12113
670.06	12109.84
670.41	12102.61
670.76	12064.87
671.109	12078.65
671.459	12067.8
671.808	11984.64
672.157	12138.54
672.507	11947.81
672.856	12076.84
673.205	12019.22
673.554	12091.08
673.904	11910.97
674.253	12082.95
674.602	11991.87
674.951	11858.54
675.3	11731.32
675.649	12027.35
675.998	11958.65
676.346	11942.84
676.695	12055.83
677.044	11918.88
677.393	11920.46
677.741	11861.03
678.09	11904.42
678.438	11883.63
678.787	11868.94
679.135	11869.39
679.484	11797.3
679.832	11748.94
680.181	11760.69
680.529	11748.26
680.877	11750.07
681.225	11703.07
681.573	11729.28
681.922	11680.92
682.27	11698.77
682.618	11634.37
682.966	11591.88
683.314	11610.64
683.661	11608.83
684.009	11532.68
684.357	11551.21
684.705	11464.88
685.053	11499.46
685.4	11468.5
685.748	11441.38
686.095	11343.98
686.443	11374.72
686.79	11316.41
687.138	11328.84
687.485	11326.35
687.832	11291.55
688.18	11244.1
688.527	11244.1
688.874	11228.73
689.221	11130.88
689.568	11170.2
689.915	11085.91
690.262	11062.63
690.609	11026.93
690.956	10962.3
691.303	10994.16
691.65	10876.88
691.997	10925.46
692.344	10861.73
692.69	10811.11
693.037	10805.46
693.383	10751.23
693.73	10822.64
694.077	10738.35
694.423	10627.62
694.769	10610.44
695.116	10612.93
695.462	10600.72
695.808	10495.19
696.155	10555.53
696.501	10460.61
696.847	10436.89
697.193	10415.19
697.539	10404.12
697.885	10358.02
698.231	10328.19
698.577	10294.07
698.923	10302.2
699.269	10188.98
699.614	10097.01
699.96	10065.6
700.306	10117.8
700.651	10043.68
700.997	9997.58
701.342	9923.91
701.688	9911.25
702.033	9914.87
702.379	9904.47
702.724	9839.39
703.069	9836.68
703.415	9726.17
703.76	9704.48
704.105	9763.23
704.45	9666.51
704.795	9633.29
705.14	9590.13
705.485	9589
705.83	9597.13
706.175	9503.58
706.52	9498.61
706.865	9511.94
707.209	9463.13
707.554	9389.23
707.899	9383.81
708.243	9378.16
708.588	9381.55
708.932	9262
709.277	9201.89
709.621	9307.2
709.966	9193.3
710.31	9229.46
710.654	9183.36
710.998	9189.91
711.342	9137.03
711.687	9111.72
712.031	9078.96
712.375	9021.78
712.719	8988.56
713.063	8971.16
713.407	9029.69
713.75	8988.34
714.094	9008
714.438	8954.89
714.782	8949.02
715.125	8953.76
715.469	8948.11
715.812	8887.32
716.156	8867.44
716.499	8851.39
716.843	8834.89
717.186	8760.09
717.53	8900.43
717.873	8883.71
718.216	8793.77
718.559	8725.29
718.902	8726.65
719.246	8749.7
719.589	8706.31
719.932	8727.33
720.275	8675.58
720.617	8709.02
720.96	8721.68
721.303	8625.41
721.646	8589.7
721.989	8596.93
722.331	8644.17
722.674	8665.41
723.016	8606.2
723.359	8561.68
723.701	8624.28
724.044	8588.12
724.386	8505.86
724.729	8587.44
725.071	8539.54
725.413	8588.12
725.755	8571.62
726.097	8455.47
726.439	8519.65
726.782	8520.1
727.124	8524.39
727.465	8490.27
727.807	8471.06
728.149	8460.67
728.491	8477.62
728.833	8490.05
729.175	8509.03
729.516	8463.83
729.858	8441.46
730.199	8523.72
730.541	8427
730.882	8513.32
731.224	8502.25
731.565	8440.33
731.906	8503.83
732.248	8527.33
732.589	8424.28
732.93	8424.06
733.271	8471.51
733.612	8396.49
733.953	8492.08
734.294	8399.65
734.635	8427.9
734.976	8475.13
735.317	8412.53
735.658	8363.49
735.999	8481.91
736.339	8409.14
736.68	8473.77
737.021	8499.76
737.361	8435.13
737.702	8516.03
738.042	8449.59
738.383	8462.48
738.723	8479.88
739.063	8419.76
739.404	8490.5
739.744	8487.56
740.084	8478.52
740.424	8531.85
740.764	8571.17
741.104	8593.77
741.444	8561.68
741.784	8498.18
742.124	8602.81
742.464	8609.14
742.804	8584.28
743.143	8654.33
743.483	8617.95
743.823	8649.36
744.162	8660.44
744.502	8723.03
744.841	8759.19
745.181	8805.74
745.52	8791.51
745.86	8822.92
746.199	8794.22
746.538	8868.79
746.877	8967.77
747.216	8951.95
747.556	8996.7
747.895	9176.81
748.234	9098.84
748.573	9121.44
748.911	9232.17
749.25	9283.47
749.589	9302.23
749.928	9464.93
750.267	9571.37
750.605	9522.33
750.944	9648.66
751.283	9641.2
751.621	9834.42
751.96	9765.27
752.298	9865.38
752.636	10009.78
752.975	10100.17
753.313	10138.36
753.651	10314.86
753.989	10405.47
754.327	10505.13
754.666	10607.05
755.004	10806.37
755.342	10833.26
755.679	10955.07
756.017	11111.9
756.355	11280.71
756.693	11411.32
757.031	11421.95
757.368	11622.17
757.706	11714.37
758.044	11940.8
758.381	12123.62
758.719	12140.8
759.056	12395.25
759.394	12593.44
759.731	12714.11
760.068	12783.27
760.405	12945.52
760.743	13071.62
761.08	13387.54
761.417	13390.48
761.754	13626.86
762.091	13771.04
762.428	13896.46
762.765	14061.42
763.102	14349.78
763.438	14375.54
763.775	14513.84
764.112	14833.61
764.449	14911.57
764.785	15072.24
765.122	15116.99
765.458	15232.92
765.795	15508.39
766.131	15691.89
766.467	15802.62
766.804	15875.39
767.14	15965.33
767.476	16198.54
767.812	16212.78
768.148	16431.08
768.485	16445.09
768.821	16640.11
769.157	16789.26
769.492	16950.61
769.828	17095.69
770.164	17075.36
770.5	17158.52
770.836	17331.39
771.171	17356.25
771.507	17544.04
771.842	17570.48
772.178	17657.49
772.513	17787.43
772.849	17789.69
773.184	17839.86
773.519	18033.75
773.855	17975.22
774.19	18080.75
774.525	18164.82
774.86	18208.21
775.195	18295.66
775.53	18281.65
775.865	18387.41
776.2	18288.88
776.535	18406.85
776.87	18458.37
777.205	18469.44
777.539	18435.09
777.874	18635.32
778.209	18486.84
778.543	18551.48
778.878	18484.36
779.212	18610.01
779.547	18677.12
779.881	18791.02
780.215	18643
780.55	18822.65
780.884	18724.35
781.218	18722.77
781.552	18825.14
781.886	18733.84
782.22	18739.95
782.554	18750.79
782.888	18605.26
783.222	18603
783.556	18658.37
783.889	18733.84
784.223	18614.52
784.557	18553.74
784.89	18728.65
785.224	18607.52
785.557	18562.77
785.891	18468.77
786.224	18437.81
786.558	18504.02
786.891	18452.27
787.224	18423.57
787.557	18351.48
787.891	18420.18
788.224	18466.96
788.557	18431.7
788.89	18394.19
789.223	18440.52
789.556	18365.04
789.888	18352.16
790.221	18262.67
790.554	18169.79
790.887	18179.51
791.219	18111.26
791.552	18109
791.884	17972.06
792.217	18060.19
792.549	18113.97
792.882	17927.54
793.214	17916.24
793.546	17943.58
793.879	17884.6
794.211	17797.15
794.543	17878.95
794.875	17877.14
795.207	17837.14
795.539	17783.81
795.871	17773.19
796.203	17620.88
796.535	17530.03
796.867	17553.54
797.198	17522.58
797.53	17520.54
797.862	17408.68
798.193	17458.4
798.525	17364.84
798.856	17394.44
799.188	17284.39
799.519	17227.44
799.85	17087.33
800.182	17135.47
800.513	17189.25
800.844	16963.49
801.175	17178.63
801.506	16995.81
801.837	16954
802.168	16950.61
802.499	16895.93
802.83	16814.57
803.161	16797.62
803.491	16799.21
803.822	16765.31
804.153	16746.55
804.483	16609.83
804.814	16528.25
805.145	16509.04
805.475	16485.77
805.805	16537.97
806.136	16545.65
806.466	16466.78
806.796	16428.82
807.126	16248.71
807.457	16290.29
807.787	16227.02
808.117	16184.76
808.447	16166.91
808.777	16224.98
809.107	16149.96
809.436	16137.98
809.766	16070.41
810.096	16012.33
810.426	15946.35
810.755	16126.45
811.085	16015.72
811.414	15914.03
811.744	15792
812.073	15779.57
812.403	15755.16
812.732	15685.11
813.061	15759.68
813.39	15614.38
813.719	15653.7
814.049	15741.15
814.378	15621.16
814.707	15635.85
815.036	15580.71
815.365	15535.96
815.693	15359.47
816.022	15382.29
816.351	15337.32
816.68	15361.73
817.008	15345.91
817.337	15176.2
817.665	15198.57
817.994	15354.5
818.322	15244.44
818.651	15097.56
818.979	15086.03
819.307	15123.77
819.636	15126.03
819.964	14936.2
820.292	15039.03
820.62	15037.9
820.948	15080.38
821.276	15091.45
821.604	15014.62
821.932	15018.46
822.259	15069.31
822.587	14976.43
822.915	15052.81
823.243	14999.25
823.57	14988.18
823.898	14992.47
824.225	14924.9
824.553	14990.89
824.88	15056.2
825.207	15067.95
825.535	14952.7
825.862	15101.17
826.189	14960.84
826.516	15015.52
826.843	15010.1
827.17	15094.84
827.497	15120.61
827.824	15053.94
828.151	15077.44
828.478	15003.32
828.805	15096.2
829.131	14984.79
829.458	15095.52
829.785	15025.24
830.111	15012.81
830.438	15131.23
830.764	15042.64
831.09	15063.66
831.417	14968.29
831.743	15129.87
832.069	14993.38
832.395	14933.94
832.722	15071.79
833.048	14952.47
833.374	14955.41
833.7	14835.19
834.026	14887.84
834.351	14980.04
834.677	14929.88
835.003	15038.57
835.329	14907.28
835.654	14882.87
835.98	14809.65
836.306	14895.75
836.631	14808.98
836.956	14883.55
837.282	14887.17
837.607	14709.99
837.932	14714.74
838.258	14740.05
838.583	14701.63
838.908	14566.72
839.233	14701.63
839.558	14577.57
839.883	14582.31
840.208	14467.97
840.533	14579.6
840.858	14538.93
841.182	14557.23
841.507	14476.55
841.832	14392.94
842.156	14502.32
842.481	14470
842.805	14368.31
843.13	14401.08
843.454	14277.24
843.778	14246.5
844.103	14146.17
844.427	14180.74
844.751	14179.39
845.075	14130.8
845.399	14071.14
845.723	13992.5
846.047	14007.41
846.371	13884.71
846.695	13963.12
847.019	13765.61
847.343	13785.27
847.666	13678.38
847.99	13663.69
848.313	13669.8
848.637	13547.54
848.96	13557.93
849.284	13443.81
849.607	13341.22
849.931	13299.64
850.254	13306.64
850.577	13160.88
850.9	13182.13
851.223	13062.58
851.546	13068.23
851.869	12915.92
852.192	13040.43
852.515	12980.55
852.838	12850.83
853.161	12883.6
853.483	12761.35
853.806	12754.79
854.129	12732.65
854.451	12732.65
854.774	12516.15
855.096	12571.97
855.419	12595.47
855.741	12563.38
856.063	12365.2
856.385	12423.5
856.708	12390.28
857.03	12406.1
857.352	12293.56
857.674	12317.74
857.996	12238.65
858.318	12147.8
858.64	12192.55
858.961	12132.44
859.283	12091.31
859.605	12015.38
859.926	11994.13
860.248	11991.42
860.57	11962.5
860.891	11981.25
861.212	11895.15
861.534	11912.1
861.855	11809.73
862.176	11864.19
862.498	11748.94
862.819	11731.77
863.14	11773.8
863.461	11673.92
863.782	11698.55
864.103	11768.83
864.424	11642.73
864.745	11671.66
865.065	11639.57
865.386	11654.03
865.707	11515.05
866.027	11513.69
866.348	11576.07
866.668	11520.47
866.989	11443.64
867.309	11492
867.63	11447.71
867.95	11477.31
868.27	11429.18
868.59	11365.68
868.91	11406.35
869.23	11372
869.55	11303.08
869.87	11362.51
870.19	11358.67
870.51	11331.1
870.83	11406.8
871.15	11224.89
871.469	11271.89
871.789	11317.77
872.109	11159.35
872.428	11087.94
872.748	11161.39
873.067	11195.74
873.386	11205.23
873.706	11203.65
874.025	11076.64
874.344	11041.84
874.663	11073.93
874.982	11061.95
875.301	11082.97
875.62	11060.6
875.939	10941.05
876.258	11019.47
876.577	10990.09
876.896	11036.42
877.214	10874.39
877.533	10927.5
877.852	10892.24
878.17	10893.6
878.489	10857.89
878.807	10884.56
879.125	10848.4
879.444	10875.52
879.762	10823.09
880.08	10853.15
880.398	10694.51
880.716	10791.68
881.034	10742.42
881.352	10712.13
881.67	10640.95
881.988	10679.59
882.306	10560.05
882.624	10554.4
882.941	10548.07
883.259	10505.13
883.577	10529.31
883.894	10546.94
884.212	10464.68
884.529	10471.24
884.846	10464.23
885.164	10407.51
885.481	10424.91
885.798	10407.73
886.115	10288.87
886.432	10276.21
886.75	10259.94
887.067	10219.49
887.383	10217.68
887.7	10264.24
888.017	10145.59
888.334	10137.91
888.651	10090.68
888.967	10087.29
889.284	10019.72
889.6	9989.44
889.917	9944.92
890.233	9966.84
890.55	9957.35
890.866	9992.15
891.182	9841.65
891.498	9803.23
891.815	9843.68
892.131	9775.66
892.447	9746.28
892.763	9773.18
893.079	9689.34
893.395	9617.25
893.71	9638.04
894.026	9650.47
894.342	9535.22
894.657	9516.23
894.973	9534.76
895.289	9476.01
895.604	9524.14
895.92	9411.6
896.235	9374.32
896.55	9391.26
896.865	9370.47
897.181	9355.56
897.496	9315.79
897.811	9272.17
898.126	9252.06
898.441	9217.71
898.756	9167.32
899.071	9098.39
899.386	9088.9
899.7	9049.58
900.015	9035.12
900.33	8966.64
900.644	8930.71
900.959	8931.16
901.273	8905.63
901.588	8871.73
901.902	8815.46
902.216	8768
902.531	8704.5
902.845	8737.5
903.159	8622.47
903.473	8626.09
903.787	8583.15
904.101	8597.84
904.415	8618.86
904.729	8523.72
905.042	8449.37
905.356	8453.44
905.67	8393.32
905.984	8399.65
906.297	8365.75
906.611	8301.35
906.924	8356.26
907.237	8348.35
907.551	8260.45
907.864	8212.54
908.177	8201.69
908.491	8176.61
908.804	8103.61
909.117	8017.97
909.43	7992.88
909.743	7987.23
910.056	7999.66
910.368	7954.69
910.681	7903.17
910.994	7945.65
911.307	7889.83
911.619	7785.2
911.932	7835.83
912.244	7749.73
912.557	7775.26
912.869	7665.21
913.181	7672.89
913.494	7603.97
913.806	7620.92
914.118	7569.17
914.43	7470.18
914.742	7518.77
915.054	7455.27
915.366	7485.1
915.678	7427.47
915.99	7356.74
916.302	7382.05
916.613	7324.65
916.925	7247.82
917.236	7252.79
917.548	7213.69
917.859	7228.38
918.171	7146.58
918.482	7234.48
918.794	7074.04
919.105	7102.51
919.416	7054.15
919.727	7030.87
920.038	6982.29
920.349	6991.78
920.66	6981.84
920.971	6945.45
921.282	6909.07
921.593	6841.73
921.903	6846.25
922.214	6786.59
922.525	6813.71
922.835	6779.81
923.146	6756.76
923.456	6682.41
923.767	6700.71
924.077	6666.82
924.387	6606.03
924.697	6600.38
925.008	6567.84
925.318	6519.93
925.628	6505.24
925.938	6510.66
926.248	6458.01
926.558	6384.11
926.867	6412.36
927.177	6389.31
927.487	6311.8
927.796	6268.41
928.106	6316.99
928.416	6280.39
928.725	6247.62
929.034	6236.55
929.344	6286.71
929.653	6203.55
929.962	6103.67
930.271	6101.18
930.581	6095.08
930.89	6043.1
931.199	6022.77
931.508	5987.96
931.817	5982.99
932.125	5983.22
932.434	5953.84
932.743	5924.01
933.051	5839.27
933.36	5884.01
933.669	5827.74
933.977	5827.52
934.286	5795.88
934.594	5796.56
934.902	5720.4
935.21	5703.45
935.519	5735.77
935.827	5721.3
936.135	5611.48
936.443	5587.3
936.751	5570.8
937.059	5588.65
937.367	5554.53
937.674	5515.21
937.982	5498.71
938.29	5477.69
938.597	5478.15
938.905	5429.11
939.213	5405.61
939.52	5383.91
939.827	5400.18
940.135	5373.06
940.442	5314.54
940.749	5302.33
941.056	5301.43
941.363	5204.71
941.67	5260.75
941.977	5194.54
942.284	5182.79
942.591	5159.06
942.898	5170.13
943.205	5101.89
943.511	5121.55
943.818	5135.78
944.125	5077.03
944.431	5061.43
944.738	5028.44
945.044	4987.31
945.35	4959.74
945.657	4941.21
945.963	4915.68
946.269	4904.38
946.575	4893.76
946.881	4839.52
947.187	4856.92
947.493	4821.67
947.799	4813.08
948.105	4822.8
948.41	4779.41
948.716	4727.21
949.022	4728.56
949.327	4691.27
949.633	4726.53
949.938	4635.68
950.244	4703.48
950.549	4603.59
950.854	4590.49
951.16	4544.84
951.465	4576.25
951.77	4531.05
952.075	4577.83
952.38	4449.02
952.685	4524.27
952.99	4459.19
953.294	4457.61
953.599	4418.51
953.904	4374.9
954.209	4362.02
954.513	4431.17
954.818	4355.24
955.122	4286.99
955.426	4309.36
955.731	4296.94
956.035	4273.21
956.339	4222.36
956.643	4257.61
956.948	4228.91
957.252	4185.98
957.556	4189.14
957.86	4181.91
958.163	4139.2
958.467	4169.48
958.771	4096.94
959.075	4119.31
959.378	4061.69
959.682	4054.68
959.985	4028.69
960.289	4044.06
960.592	4067.34
960.896	3988.69
961.199	3986.66
961.502	3991.41
961.805	3895.82
962.108	3950.28
962.411	3912.99
962.714	3894.69
963.017	3882.03
963.32	3891.75
963.623	3864.18
963.926	3834.57
964.228	3804.29
964.531	3777.4
964.833	3842.71
965.136	3762.26
965.438	3727.23
965.741	3729.94
966.043	3728.36
966.345	3685.88
966.648	3672.32
966.95	3670.28
967.252	3666.67
967.554	3604.52
967.856	3612.89
968.158	3589.83
968.46	3574.69
968.761	3607.69
969.063	3565.65
969.365	3548.48
969.666	3539.67
969.968	3499.44
970.269	3492.44
970.571	3513
970.872	3451.76
971.174	3453.79
971.475	3424.42
971.776	3398.2
972.077	3410.86
972.378	3378.99
972.679	3373.8
972.98	3329.73
973.281	3339.22
973.582	3340.58
973.883	3312.1
974.183	3312.78
974.484	3263.97
974.785	3272.56
975.085	3260.35
975.386	3244.31
975.686	3262.39
975.986	3218.32
976.287	3247.47
976.587	3229.39
976.887	3140.58
977.187	3155.5
977.487	3139.9
977.787	3112.79
978.087	3096.29
978.387	3087.48
978.687	3090.41
978.987	3071.66
979.286	3035.27
979.586	3021.04
979.885	3052
980.185	2993.92
980.484	2981.94
980.784	2989.85
981.083	2985.78
981.382	2958.21
981.682	3002.28
981.981	2959.12
982.28	2921.15
982.579	2932.68
982.878	2906.46
983.177	2885.22
983.475	2888.38
983.774	2868.27
984.073	2841.83
984.372	2852
984.67	2849.97
984.969	2828.27
985.267	2858.78
985.566	2783.3
985.864	2784.21
986.162	2785.56
986.461	2736.75
986.759	2734.04
987.057	2710.54
987.355	2668.05
987.653	2690.42
987.951	2685.68
988.249	2694.72
988.547	2672.34
988.844	2649.75
989.142	2630.31
989.44	2606.58
989.737	2605.68
990.035	2591.9
990.332	2593.03
990.63	2567.04
990.927	2565.46
991.224	2560.48
991.521	2545.79
991.819	2506.93
992.116	2498.11
992.413	2518.45
992.71	2485.23
993.006	2499.69
993.303	2487.49
993.6	2449.53
993.897	2440.03
994.193	2439.36
994.49	2397.55
994.787	2426.48
995.083	2376.76
995.379	2387.38
995.676	2377.44
995.972	2369.3
996.268	2371.56
996.565	2362.3
996.861	2331.11
997.157	2308.74
997.453	2292.02
997.749	2317.1
998.044	2273.71
998.34	2265.35
998.636	2247.05
998.932	2234.62
999.227	2242.53
999.523	2217.89
999.818	2228.74
1000.114	2208.18
1000.409	2168.4
1000.704	2180.38
1001	2146.26
1001.295	2158.91
1001.59	2111.68
1001.885	2105.81
1002.18	2118.01
1002.475	2099.93
1002.77	2093.83
1003.065	2077.33
1003.359	2075.07
1003.654	2094.28
1003.949	2078.69
1004.243	2052.25
1004.538	2014.51
1004.832	2014.74
1005.127	2013.38
1005.421	1977
1005.715	1965.24
1006.009	1996.43
1006.304	1970.89
1006.598	1955.08
1006.892	1924.57
1007.186	1926.6
1007.48	1924.79
1007.773	1900.39
1008.067	1892.7
1008.361	1857.23
1008.655	1882.54
1008.948	1870.56
1009.242	1850.45
1009.535	1857.45
1009.829	1820.84
1010.122	1816.32
1010.415	1809.09
1010.708	1780.39
1011.001	1815.19
1011.295	1786.27
1011.588	1767.51
1011.881	1718.7
1012.173	1754.18
1012.466	1735.65
1012.759	1725.25
1013.052	1699.49
1013.344	1731.35
1013.637	1682.09
1013.93	1648.19
1014.222	1665.59
1014.514	1674.41
1014.807	1672.82
1015.099	1640.28
1015.391	1660.85
1015.683	1612.94
1015.976	1639.38
1016.268	1602.99
1016.56	1572.94
1016.851	1568.19
1017.143	1585.59
1017.435	1576.1
1017.727	1590.11
1018.018	1561.64
1018.31	1525.03
1018.602	1521.19
1018.893	1486.61
1019.185	1496.1
1019.476	1513.96
1019.767	1492.04
1020.058	1503.34
1020.35	1469.44
1020.641	1438.25
1020.932	1441.64
1021.223	1453.62
1021.514	1433.06
1021.804	1422.66
1022.095	1403.45
1022.386	1428.99
1022.677	1394.19
1022.967	1384.92
1023.258	1369.1
1023.548	1392.6
1023.839	1390.12
1024.129	1318.48
1024.419	1349.89
1024.709	1345.37
1025	1327.07
1025.29	1318.26
1025.58	1304.25
1025.87	1299.27
1026.16	1281.2
1026.449	1285.71
1026.739	1271.48
1027.029	1268.09
1027.319	1275.09
1027.608	1264.92
1027.898	1232.61
1028.187	1240.97
1028.477	1237.81
1028.766	1217.47
1029.055	1220.63
1029.344	1206.17
1029.634	1183.8
1029.923	1214.53
1030.212	1161.2
1030.501	1157.81
1030.79	1169.33
1031.078	1174.08
1031.367	1141.99
1031.656	1139.28
1031.945	1154.64
1032.233	1125.04
1032.522	1138.37
1032.81	1104.02
1033.099	1117.81
1033.387	1120.75
1033.675	1073.97
1033.963	1086.62
1034.251	1085.27
1034.54	1072.16
1034.828	1084.14
1035.116	1031.94
1035.403	1037.13
1035.691	1020.41
1035.979	1024.25
1036.267	1033.74
1036.554	1011.15
1036.842	1000.3
1037.129	998.26
1037.417	973.63
1037.704	1001.43
1037.992	979.51
1038.279	978.38
1038.566	991.26
1038.853	991.26
1039.14	991.26
