Data from hue_220_FLMS001491_00069.txt Node
Date: Tue Feb 07 16:39:48 GMT 2017
User: dcchb
Spectrometer: FLMS00149
Trigger mode: 0
Integration Time (sec): 2.000000E-2
Scans to average: 10
Electric dark correction enabled: true
Nonlinearity correction enabled: false
Boxcar width: 0
XAxis mode: Wavelengths
Number of Pixels in Spectrum: 2048
>>>>>Begin Spectral Data<<<<<
341.393	-20.73
341.776	-20.73
342.16	-20.73
342.543	-60.73
342.927	-71.13
343.31	-77.91
343.693	-67.74
344.077	-68.64
344.46	-60.96
344.843	-36.1
345.226	-51.02
345.61	-49.66
345.993	-24.8
346.376	5.03
346.759	3.45
347.142	34.63
347.525	56.33
347.908	54.07
348.291	79.15
348.674	93.39
349.057	110.79
349.44	119.15
349.823	133.16
350.206	157.79
350.588	184.23
350.971	210.22
351.354	212.03
351.737	219.26
352.119	228.3
352.502	259.94
352.884	286.15
353.267	279.6
353.65	299.03
354.032	285.47
354.414	282.31
354.797	306.72
355.179	304.68
355.562	311.01
355.944	339.93
356.326	335.19
356.709	334.06
357.091	323.44
357.473	322.76
357.855	334.06
358.238	338.35
358.62	334.74
359.002	342.42
359.384	334.96
359.766	309.43
360.148	323.21
360.53	332.03
360.912	327.05
361.294	325.7
361.676	326.38
362.057	331.8
362.439	306.04
362.821	314.4
363.203	323.44
363.584	296.55
363.966	314.17
364.348	322.76
364.729	307.39
365.111	320.73
365.493	303.78
365.874	312.82
366.256	317.11
366.637	300.39
367.019	300.61
367.4	303.33
367.781	319.14
368.163	304.91
368.544	300.16
368.925	309.2
369.306	330.22
369.688	306.94
370.069	308.3
370.45	312.82
370.831	288.41
371.212	301.52
371.593	279.37
371.974	309.88
372.355	292.03
372.736	325.47
373.117	313.04
373.498	320.05
373.879	309.88
374.26	310.33
374.641	305.81
375.021	295.19
375.402	327.51
375.783	306.94
376.163	333.61
376.544	307.39
376.925	314.85
377.305	323.89
377.686	304
378.066	306.26
378.447	327.96
378.827	320.95
379.208	319.37
379.588	326.6
379.968	337.9
380.349	325.47
380.729	326.15
381.109	321.18
381.489	324.34
381.87	319.82
382.25	320.95
382.63	346.94
383.01	334.06
383.39	340.39
383.77	350.56
384.15	339.48
384.53	353.72
384.91	307.39
385.29	312.82
385.67	326.83
386.049	334.06
386.429	331.12
386.809	330.67
387.189	351.69
387.568	329.77
387.948	337.9
388.328	350.33
388.707	352.59
389.087	341.97
389.466	368.63
389.846	340.39
390.225	352.82
390.605	368.41
390.984	343.32
391.363	358.01
391.743	362.76
392.122	393.94
392.501	381.74
392.881	377
393.26	377.45
393.639	364.57
394.018	352.59
394.397	368.63
394.776	379.26
395.155	371.57
395.534	382.65
395.913	402.08
396.292	374.51
396.671	387.62
397.05	376.09
397.429	367.73
397.808	381.06
398.186	381.29
398.565	406.6
398.944	392.36
399.323	379.71
399.701	393.27
400.08	387.84
400.458	396.2
400.837	398.69
401.215	418.12
401.594	392.81
401.972	407.5
402.351	408.86
402.729	413.6
403.107	399.14
403.486	412.93
403.864	404.34
404.242	407.73
404.62	429.42
404.999	425.58
405.377	418.58
405.755	434.62
406.133	447.05
406.511	467.84
406.889	443.21
407.267	457.67
407.645	461.51
408.023	465.58
408.401	464.9
408.779	469.2
409.156	469.87
409.534	471.23
409.912	487.28
410.29	494.05
410.667	502.64
411.045	495.64
411.422	506.71
411.8	503.77
412.178	549.65
412.555	542.19
412.933	544.67
413.31	543.55
413.687	583.32
414.065	593.49
414.442	575.86
414.819	559.36
415.197	581.06
415.574	603.88
415.951	638.46
416.328	607.95
416.705	617.22
417.082	606.82
417.46	631
417.837	650.66
418.214	648.4
418.591	657.21
418.967	652.69
419.344	680.72
419.721	669.19
420.098	684.33
420.475	704.67
420.852	724.56
421.228	723.65
421.605	730.88
421.982	724.33
422.358	732.47
422.735	760.26
423.111	763.65
423.488	781.05
423.864	811.56
424.241	823.31
424.617	839.36
424.994	859.24
425.37	872.12
425.746	835.51
426.123	880.71
426.499	872.58
426.875	915.06
427.251	916.19
427.627	935.63
428.003	946.92
428.379	934.5
428.756	967.94
429.132	953.25
429.507	978.34
429.883	1009.97
430.259	1041.39
430.635	1003.42
431.011	1018.11
431.387	1031.22
431.763	1067.15
432.138	1055.85
432.514	1072.8
432.89	1112.12
433.265	1095.62
433.641	1122.51
434.016	1139.46
434.392	1148.95
434.767	1217.88
435.143	1236.41
435.518	1218.56
435.894	1246.13
436.269	1280.47
436.644	1275.96
437.02	1326.12
437.395	1307.37
437.77	1348.95
438.145	1376.52
438.52	1404.09
438.895	1411.09
439.271	1429.4
439.646	1426.46
440.021	1477.31
440.395	1492.9
440.77	1482.73
441.145	1505.55
441.52	1539.23
441.895	1579
442.27	1579.22
442.645	1615.16
443.019	1625.1
443.394	1607.7
443.769	1638.66
444.143	1638.88
444.518	1675.94
444.892	1670.3
445.267	1692.44
445.641	1735.6
446.016	1742.38
446.39	1714.36
446.764	1761.59
447.139	1760.91
447.513	1770.18
447.887	1772.67
448.262	1760.91
448.636	1794.36
449.01	1839.1
449.384	1835.94
449.758	1839.1
450.132	1883.62
450.506	1876.84
450.88	1871.42
451.254	1901.7
451.628	1896.73
452.002	1920.23
452.376	1940.34
452.75	1970.4
453.123	1998.42
453.497	2048.82
453.871	2048.14
454.244	2051.53
454.618	2075.93
454.992	2097.18
455.365	2121.81
455.739	2136.5
456.112	2163.16
456.486	2167.91
456.859	2252.65
457.232	2275.48
457.606	2211.75
457.979	2264.63
458.352	2305.53
458.725	2358.41
459.099	2315.02
459.472	2372.2
459.845	2416.04
460.218	2436.83
460.591	2444.29
460.964	2433.66
461.337	2513.66
461.71	2505.98
462.083	2539.88
462.456	2585.3
462.829	2571.06
463.201	2628.24
463.574	2644.51
463.947	2700.78
464.32	2737.84
464.692	2738.29
465.065	2767.22
465.438	2836.59
465.81	2835.91
466.183	2862.81
466.555	2893.99
466.928	2908.91
467.3	2885.86
467.672	2953.65
468.045	3021.45
468.417	3044.04
468.789	3011.95
469.161	3095.34
469.534	3126.98
469.906	3213.98
470.278	3211.5
470.65	3256.47
471.022	3308.22
471.394	3369.01
471.766	3396.35
472.138	3429.8
472.51	3491.49
472.882	3513.64
473.253	3555.44
473.625	3602.22
473.997	3680.64
474.369	3643.35
474.74	3737.13
475.112	3810.58
475.484	3794.08
475.855	3898.03
476.227	3861.88
476.598	4003.79
476.97	4016.45
477.341	4069.55
477.713	4134.64
478.084	4140.74
478.455	4235.2
478.827	4294.18
479.198	4369.66
479.569	4410.79
479.94	4526.94
480.311	4563.78
480.682	4610.78
481.053	4733.49
481.424	4742.76
481.795	4842.64
482.166	4886.26
482.537	4882.19
482.908	4980.26
483.279	5034.05
483.65	5122.18
484.021	5189.3
484.391	5232.91
484.762	5290.09
485.133	5309.52
485.503	5401.5
485.874	5497.31
486.244	5512.45
486.615	5567.37
486.985	5641.72
487.356	5744.99
487.726	5752.67
488.097	5922.84
488.467	5891.43
488.837	5982.72
489.207	6067.92
489.578	6136.17
489.948	6181.36
490.318	6220.68
490.688	6270.17
491.058	6292.32
491.428	6400.57
491.798	6406.89
492.168	6550.84
492.538	6556.49
492.908	6580.67
493.278	6696.6
493.648	6701.12
494.017	6767.34
494.387	6822.25
494.757	6832.19
495.126	6874
495.496	6862.7
495.866	6916.71
496.235	6977.73
496.605	7072.19
496.974	7041.91
497.344	7075.8
497.713	7155.12
498.082	7154.67
498.452	7243.93
498.821	7209.36
499.19	7249.13
499.559	7314.89
499.928	7334.1
500.298	7327.55
500.667	7392.18
501.036	7348.11
501.405	7476.02
501.774	7442.8
502.143	7424.72
502.512	7516.92
502.88	7545.39
503.249	7565.73
503.618	7569.57
503.987	7602.34
504.356	7638.27
504.724	7597.14
505.093	7651.15
505.462	7653.87
505.83	7715.11
506.199	7795.11
506.567	7803.92
506.936	7767.76
507.304	7916.91
507.672	7902
508.041	7859.06
508.409	7890.02
508.777	7963.01
509.145	7997.81
509.514	8014.31
509.882	7976.12
510.25	8019.28
510.618	7992.16
510.986	8019.51
511.354	8040.3
511.722	8096.57
512.09	8085.95
512.458	8077.58
512.826	8124.36
513.193	8190.35
513.561	8171.59
513.929	8203.46
514.297	8204.59
514.664	8254.98
515.032	8197.36
515.4	8243.46
515.767	8244.59
516.135	8229.67
516.502	8208.2
516.869	8276.68
517.237	8296.11
517.604	8239.61
517.972	8228.77
518.339	8296.79
518.706	8287.07
519.073	8254.98
519.44	8274.19
519.808	8373.4
520.175	8290.69
520.542	8404.81
520.909	8323.45
521.276	8318.26
521.643	8381.08
522.009	8370.23
522.376	8369.55
522.743	8394.41
523.11	8417.01
523.477	8424.02
523.843	8436.67
524.21	8433.28
524.577	8479.16
524.943	8476.9
525.31	8501.75
525.676	8533.62
526.043	8551.92
526.409	8510.57
526.776	8551.47
527.142	8568.19
527.508	8522.54
527.874	8569.55
528.241	8546.05
528.607	8534.3
528.973	8575.2
529.339	8511.7
529.705	8596.89
530.071	8622.65
530.437	8555.31
530.803	8524.58
531.169	8486.16
531.535	8545.37
531.901	8376.79
532.267	8431.25
532.632	8512.15
532.998	8486.84
533.364	8484.81
533.73	8475.77
534.095	8546.95
534.461	8438.7
534.826	8417.46
535.192	8443.45
535.557	8468.53
535.923	8375.2
536.288	8382.43
536.653	8367.52
537.019	8341.53
537.384	8351.7
537.749	8279.61
538.114	8236.45
538.479	8286.84
538.845	8257.24
539.21	8264.02
539.575	8223.34
539.94	8173.17
540.305	8203.68
540.67	8144.48
541.034	8172.5
541.399	8064.48
541.764	8096.11
542.129	8080.97
542.494	8076
542.858	8043.46
543.223	8080.97
543.587	8006.4
543.952	8000.75
544.316	7949
544.681	7877.36
545.045	7887.76
545.41	7914.65
545.774	7819.96
546.138	7894.99
546.503	7839.85
546.867	7724.15
547.231	7740.19
547.595	7745.39
547.959	7732.51
548.324	7742.23
548.688	7700.64
549.052	7653.64
549.416	7709.01
549.779	7604.6
550.143	7622.91
550.507	7590.37
550.871	7599.4
551.235	7571.61
551.599	7545.39
551.962	7517.6
552.326	7488.9
552.689	7503.14
553.053	7417.49
553.417	7477.6
553.78	7509.69
554.143	7413.87
554.507	7436.25
554.87	7424.27
555.234	7427.21
555.597	7289.58
555.96	7334.1
556.323	7360.77
556.686	7321.22
557.05	7323.71
557.413	7343.59
557.776	7311.05
558.139	7259.3
558.502	7330.49
558.865	7292.97
559.228	7230.6
559.59	7274.44
559.953	7238.96
560.316	7309.02
560.679	7256.81
561.041	7329.58
561.404	7292.75
561.767	7259.98
562.129	7265.18
562.492	7356.25
562.854	7280.99
563.217	7256.81
563.579	7263.59
563.941	7324.16
564.304	7194.67
564.666	7334.33
565.028	7246.65
565.39	7273.76
565.753	7241.45
566.115	7312.86
566.477	7312.63
566.839	7347.43
567.201	7409.58
567.563	7341.11
567.925	7389.69
568.287	7368
568.648	7371.84
569.01	7352.63
569.372	7466.75
569.734	7380.88
570.095	7444.38
570.457	7382.01
570.819	7464.27
571.18	7401.44
571.542	7442.8
571.903	7452.97
572.265	7466.07
572.626	7517.15
572.987	7477.83
573.349	7481.22
573.71	7546.98
574.071	7495.9
574.432	7450.48
574.794	7569.12
575.155	7545.39
575.516	7563.93
575.877	7553.76
576.238	7606.86
576.599	7646.64
576.96	7616.81
577.32	7594.89
577.681	7643.02
578.042	7676.92
578.403	7640.08
578.763	7645.51
579.124	7727.08
579.485	7704.71
579.845	7738.84
580.206	7685.05
580.566	7778.38
580.927	7756.01
581.287	7815.44
581.648	7768.67
582.008	7870.81
582.368	7803.02
582.728	7801.66
583.089	7841.21
583.449	7805.73
583.809	7861.32
584.169	7830.59
584.529	7901.54
584.889	7949.23
585.249	7904.48
585.609	7901.09
585.969	7977.47
586.329	7959.85
586.688	7948.77
587.048	7979.73
587.408	7941.32
587.768	7971.37
588.127	7977.02
588.487	7998.72
588.846	7967.98
589.206	7993.52
589.565	8111.48
589.925	8052.5
590.284	7988.55
590.643	7986.51
591.003	8056.79
591.362	8107.64
591.721	8118.94
592.08	8111.93
592.44	8149.22
592.799	8083.01
593.158	8113.29
593.517	8101.31
593.876	8110.13
594.235	8182.89
594.593	8167.07
594.952	8139.73
595.311	8156
595.67	8181.76
596.029	8237.81
596.387	8214.3
596.746	8267.86
597.104	8197.36
597.463	8221.76
597.822	8231.03
598.18	8215.66
598.538	8219.5
598.897	8311.7
599.255	8213.63
599.613	8264.47
599.972	8252.72
600.33	8292.95
600.688	8244.36
601.046	8353.06
601.404	8334.07
601.762	8280.74
602.12	8358.03
602.478	8338.37
602.836	8388.08
603.194	8365.03
603.552	8312.15
603.91	8304.7
604.268	8333.62
604.625	8344.7
604.983	8375.43
605.341	8282.32
605.698	8360.06
606.056	8377.24
606.413	8352.15
606.771	8464.01
607.128	8447.29
607.485	8392.6
607.843	8312.61
608.2	8460.85
608.557	8471.25
608.914	8386.05
609.272	8448.42
609.629	8539.49
609.986	8451.13
610.343	8466.27
610.7	8471.25
611.057	8550.34
611.414	8521.64
611.771	8424.69
612.127	8589.66
612.484	8508.99
612.841	8532.71
613.198	8524.13
613.554	8565.48
613.911	8547.4
614.267	8598.25
614.624	8533.84
614.98	8622.43
615.337	8609.1
615.693	8596.67
616.05	8582.2
616.406	8610.23
616.762	8589.21
617.118	8623.56
617.475	8610.23
617.831	8649.55
618.187	8661.52
618.543	8714.63
618.899	8702.65
619.255	8705.36
619.611	8706.04
619.967	8682.99
620.323	8645.03
620.678	8684.8
621.034	8716.44
621.39	8635.08
621.746	8622.2
622.101	8719.15
622.457	8677.57
622.812	8702.43
623.168	8670.79
623.523	8678.47
623.879	8667.63
624.234	8653.39
624.589	8687.74
624.945	8725.25
625.3	8683.9
625.655	8725.25
626.01	8721.41
626.365	8669.89
626.72	8735.19
627.075	8684.8
627.43	8692.03
627.785	8663.78
628.14	8659.26
628.495	8669.43
628.85	8664.01
629.205	8656.78
629.559	8711.24
629.914	8592.15
630.269	8633.73
630.623	8600.06
630.978	8614.75
631.332	8674.4
631.687	8638.25
632.041	8569.32
632.396	8591.92
632.75	8572.49
633.104	8589.66
633.459	8546.95
633.813	8548.53
634.167	8579.94
634.521	8626.5
634.875	8502.21
635.229	8481.87
635.583	8460.17
635.937	8483
636.291	8480.51
636.645	8423.79
636.999	8447.29
637.352	8440.51
637.706	8391.02
638.06	8465.6
638.413	8447.07
638.767	8440.29
639.121	8426.73
639.474	8379.05
639.828	8423.34
640.181	8405.71
640.534	8398.93
640.888	8346.73
641.241	8334.3
641.594	8274.87
641.947	8281.87
642.301	8345.83
642.654	8336.11
643.007	8369.78
643.36	8410.46
643.713	8307.63
644.066	8340.85
644.419	8310.8
644.771	8290.69
645.124	8158.94
645.477	8170.24
645.83	8181.08
646.182	8134.08
646.535	8073.29
646.888	8116.23
647.24	8101.99
647.593	8122.78
647.945	8083.91
648.298	8055.21
648.65	8065.38
649.002	8002.33
649.355	8089.34
649.707	8018.83
650.059	8116
650.411	8191.48
650.763	8191.93
651.115	8262.66
651.467	8212.95
651.819	8268.54
652.171	8297.24
652.523	8220.41
652.875	8228.09
653.227	8124.81
653.578	8227.64
653.93	8212.5
654.282	8085.72
654.633	8150.35
654.985	8183.57
655.337	8155.32
655.688	8182.89
656.039	8223.12
656.391	8140.18
656.742	8253.4
657.094	8192.38
657.445	8307.41
657.796	8202.78
658.147	8247.3
658.498	8207.52
658.849	8225.38
659.2	8235.32
659.551	8222.67
659.902	8197.81
660.253	8225.38
660.604	8239.84
660.955	8255.21
661.306	8293.85
661.656	8285.49
662.007	8261.53
662.358	8264.92
662.708	8258.6
663.059	8240.97
663.409	8204.36
663.76	8261.53
664.11	8319.84
664.461	8326.39
664.811	8300.63
665.161	8315.09
665.511	8331.36
665.862	8302.66
666.212	8390.12
666.562	8304.7
666.912	8311.7
667.262	8292.27
667.612	8311.02
667.962	8349.44
668.312	8321.87
668.662	8289.33
669.011	8255.66
669.361	8308.31
669.711	8291.59
670.06	8299.73
670.41	8272.83
670.76	8304.02
671.109	8338.14
671.459	8198.26
671.808	8250.24
672.157	8296.11
672.507	8239.39
672.856	8293.62
673.205	8256.34
673.554	8295.88
673.904	8226.05
674.253	8250.91
674.602	8270.35
674.951	8223.12
675.3	8113.97
675.649	8220.86
675.998	8214.98
676.346	8186.73
676.695	8177.92
677.044	8133.85
677.393	8128.88
677.741	8172.05
678.09	8155.77
678.438	8152.16
678.787	8142.44
679.135	8175.43
679.484	8040.3
679.832	8110.35
680.181	8084.59
680.529	8093.63
680.877	8062.9
681.225	8051.14
681.573	8068.54
681.922	7984.71
682.27	7966.85
682.618	8003.91
682.966	8018.6
683.314	7950.58
683.661	7938.15
684.009	7918.72
684.357	7899.28
684.705	7888.66
685.053	7897.48
685.4	7840.53
685.748	7786.97
686.095	7850.25
686.443	7754.88
686.79	7784.71
687.138	7744.03
687.485	7810.7
687.832	7722.11
688.18	7695
688.527	7660.65
688.874	7710.81
689.221	7592.63
689.568	7620.42
689.915	7575.45
690.262	7657.93
690.609	7546.3
690.956	7531.38
691.303	7496.81
691.65	7479.86
691.997	7410.48
692.344	7411.39
692.69	7489.35
693.037	7393.99
693.383	7360.54
693.73	7347.66
694.077	7357.6
694.423	7286.87
694.769	7334.33
695.116	7309.24
695.462	7280.32
695.808	7243.71
696.155	7269.7
696.501	7187.89
696.847	7142.92
697.193	7127.78
697.539	7085.07
697.885	7047.1
698.231	7079.87
698.577	6995.13
698.923	7016.82
699.269	6921.68
699.614	6950.38
699.96	6889.59
700.306	6919.42
700.651	6876.71
700.997	6839.2
701.342	6831.97
701.688	6795.36
702.033	6766.21
702.379	6802.59
702.724	6744.96
703.069	6748.35
703.415	6697.28
703.76	6664.29
704.105	6625.87
704.45	6663.61
704.795	6597.17
705.14	6577.51
705.485	6610.28
705.83	6532.09
706.175	6546.1
706.52	6495.48
706.865	6484.18
707.209	6438.08
707.554	6432.43
707.899	6470.17
708.243	6372.09
708.588	6376.84
708.932	6361.92
709.277	6330.96
709.621	6379.55
709.966	6279.89
710.31	6340.68
710.654	6249.84
710.998	6212.55
711.342	6245.77
711.687	6283.06
712.031	6229.05
712.375	6210.06
712.719	6193.57
713.063	6219.33
713.407	6176.39
713.75	6114.25
714.094	6119.9
714.438	6104.98
714.782	6069.28
715.125	6081.7
715.469	6088.26
715.812	6099.11
716.156	6090.52
716.499	6023.85
716.843	6085.55
717.186	6074.25
717.53	6009.39
717.873	6052.33
718.216	6056.17
718.559	6076.51
718.902	6027.24
719.246	5998.54
719.589	5952.44
719.932	5921.48
720.275	5978.88
720.617	5985.89
720.96	5945.66
721.303	5908.15
721.646	5993.35
721.989	5878.55
722.331	5909.96
722.674	5933.91
723.016	5871.31
723.359	5930.97
723.701	5903.63
724.044	5900.47
724.386	5918.32
724.729	5886.68
725.071	5867.25
725.413	5874.25
725.755	5921.03
726.097	5844.87
726.439	5812.79
726.782	5824.08
727.124	5849.39
727.465	5865.44
727.807	5788.83
728.149	5784.54
728.491	5773.92
728.833	5848.49
729.175	5859.79
729.516	5827.25
729.858	5821.6
730.199	5829.06
730.541	5796.74
730.882	5828.15
731.224	5826.57
731.565	5815.95
731.906	5806.68
732.248	5803.75
732.589	5820.47
732.93	5776.63
733.271	5827.93
733.612	5839.45
733.953	5845.55
734.294	5811.88
734.635	5802.16
734.976	5834.48
735.317	5761.03
735.658	5790.19
735.999	5806.46
736.339	5834.25
736.68	5860.24
737.021	5842.39
737.361	5805.1
737.702	5832.9
738.042	5852.11
738.383	5830.86
738.723	5904.53
739.063	5851.65
739.404	5937.98
739.744	5946.11
740.084	5908.38
740.424	5925.78
740.764	5907.7
741.104	5958.09
741.444	5951.54
741.784	5950.63
742.124	5994.48
742.464	5993.57
742.804	5986.34
743.143	6018.43
743.483	6075.15
743.823	5988.83
744.162	6095.04
744.502	6129.61
744.841	6132.78
745.181	6199.67
745.52	6127.35
745.86	6181.81
746.199	6198.76
746.538	6241.93
746.877	6361.25
747.216	6401.47
747.556	6358.76
747.895	6489.15
748.234	6469.72
748.573	6477.4
748.911	6606.66
749.25	6648.24
749.589	6610.05
749.928	6760.33
750.267	6822.25
750.605	6911.29
750.944	6944.51
751.283	6982.47
751.621	7099.98
751.96	7122.58
752.298	7205.29
752.636	7328.68
752.975	7393.08
753.313	7490.48
753.651	7569.8
753.989	7669.01
754.327	7757.37
754.666	7874.2
755.004	7977.25
755.342	8162.78
755.679	8286.62
756.017	8369.55
756.355	8508.53
756.693	8648.19
757.031	8763.22
757.368	8870.11
757.706	9035.98
758.044	9189.42
758.381	9382.86
758.719	9415.85
759.056	9635.51
759.394	9765.45
759.731	9889.29
760.068	10062.39
760.405	10135.38
760.743	10366.11
761.08	10513.68
761.417	10688.14
761.754	10880.22
762.091	11001.35
762.428	11198.18
762.765	11334.22
763.102	11558.17
763.438	11672.74
763.775	11768.11
764.112	12027.08
764.449	12187.08
764.785	12353.4
765.122	12456.9
765.458	12498.94
765.795	12791.58
766.131	12987.29
766.467	13023.22
766.804	13195.19
767.14	13332.59
767.476	13425.69
767.812	13672.92
768.148	13774.38
768.485	13821.61
768.821	14008.05
769.157	14138.89
769.492	14325.78
769.828	14457.98
770.164	14460.24
770.5	14653.46
770.836	14782.27
771.171	14827.01
771.507	14975.48
771.842	15023.62
772.178	15203.95
772.513	15211.18
772.849	15349.94
773.184	15378.18
773.519	15498.41
773.855	15542.02
774.19	15663.15
774.525	15665.41
774.86	15887.1
775.195	15918.96
775.53	15929.58
775.865	16035.57
776.2	16000.09
776.535	16036.25
776.87	16179.97
777.205	16205.28
777.539	16265.62
777.874	16304.03
778.209	16269.91
778.543	16341.77
778.878	16311.04
779.212	16381.77
779.547	16373.64
779.881	16535.21
780.215	16445.05
780.55	16664.93
780.884	16470.58
781.218	16511.03
781.552	16622.44
781.886	16622.9
782.22	16565.95
782.554	16558.04
782.888	16496.35
783.222	16471.94
783.556	16526.18
783.889	16520.98
784.223	16392.85
784.557	16463.13
784.89	16588.09
785.224	16560.53
785.557	16547.64
785.891	16448.44
786.224	16444.82
786.558	16613.4
786.891	16374.32
787.224	16436.01
787.557	16317.14
787.891	16471.94
788.224	16359.63
788.557	16529.11
788.89	16496.12
789.223	16460.41
789.556	16382.9
789.888	16292.96
790.221	16259.74
790.554	16281.89
790.887	16310.59
791.219	16335.45
791.552	16280.98
791.884	16217.48
792.217	16146.98
792.549	16172.51
792.882	16092.97
793.214	16094.77
793.546	16102.91
793.879	15986.53
794.211	15977.26
794.543	16099.52
794.875	15969.81
795.207	16064.94
795.539	15993.08
795.871	16056.81
796.203	15836.48
796.535	15754.44
796.867	15789.47
797.198	15735.24
797.53	15768
797.862	15708.57
798.193	15758.96
798.525	15621.79
798.856	15667.22
799.188	15541.12
799.519	15479.2
799.85	15416.83
800.182	15426.09
800.513	15487.11
800.844	15401.01
801.175	15429.26
801.506	15424.51
801.837	15336.6
802.168	15207.11
802.499	15205.76
802.83	15191.97
803.161	15194.23
803.491	15128.7
803.822	15205.31
804.153	15125.08
804.483	14978.42
804.814	15010.51
805.145	14999.21
805.475	15078.98
805.805	14916.27
806.136	14892.32
806.466	14877.18
806.796	14809.61
807.126	14737.97
807.457	14602.16
807.787	14736.84
808.117	14621.37
808.447	14650.29
808.777	14733.23
809.107	14628.82
809.436	14579.56
809.766	14501.14
810.096	14580.69
810.426	14422.28
810.755	14506.34
811.085	14500.92
811.414	14414.37
811.744	14390.64
812.073	14401.71
812.403	14282.17
812.732	14173.24
813.061	14246.91
813.39	14264.54
813.719	14166.01
814.049	14258.44
814.378	14143.41
814.707	14074.71
815.036	14094.38
815.365	14065.45
815.693	13889.41
816.022	13968.73
816.351	13897.54
816.68	13884.89
817.008	13871.78
817.337	13891.22
817.665	13784.33
817.994	13763.76
818.322	13827.49
818.651	13769.19
818.979	13624.78
819.307	13785.46
819.636	13736.64
819.964	13664.56
820.292	13709.98
820.62	13673.14
820.948	13652.8
821.276	13687.83
821.604	13683.54
821.932	13773.48
822.259	13701.62
822.587	13649.42
822.915	13636.08
823.243	13649.19
823.57	13663.88
823.898	13627.95
824.225	13554.05
824.553	13581.85
824.88	13588.4
825.207	13723.76
825.535	13692.13
825.862	13755.63
826.189	13564.45
826.516	13648.29
826.843	13735.51
827.17	13769.86
827.497	13706.14
827.824	13819.81
828.151	13741.39
828.478	13651.9
828.805	13820.48
829.131	13670.43
829.458	13675.18
829.785	13662.52
830.111	13800.15
830.438	13745.46
830.764	13674.05
831.09	13750.88
831.417	13642.18
831.743	13713.59
832.069	13663.43
832.395	13622.3
832.722	13644.22
833.048	13611.68
833.374	13711.79
833.7	13653.26
834.026	13622.75
834.351	13644.44
834.677	13626.59
835.003	13585.24
835.329	13662.75
835.654	13569.64
835.98	13568.06
836.306	13593.6
836.631	13508.85
836.956	13573.03
837.282	13489.19
837.607	13484.45
837.932	13446.93
838.258	13469.76
838.583	13424.34
838.908	13399.93
839.233	13418.91
839.558	13380.72
839.883	13378.24
840.208	13273.38
840.533	13289.88
840.858	13277.67
841.182	13258.46
841.507	13276.77
841.832	13166.94
842.156	13202.65
842.481	13053.72
842.805	13050.33
843.13	13067.96
843.454	13057.57
843.778	12987.29
844.103	12902.54
844.427	12970.34
844.751	12948.64
845.075	12885.37
845.399	12902.99
845.723	12809.89
846.047	12792.26
846.371	12721.53
846.695	12743.68
847.019	12644.02
847.343	12585.71
847.666	12493.97
847.99	12512.27
848.313	12419.84
848.637	12356.12
848.96	12294.2
849.284	12304.37
849.607	12156.57
849.931	12151.38
850.254	12194.76
850.577	12092.39
850.9	11991.61
851.223	12037.03
851.546	11934.88
851.869	11849.69
852.192	11897.37
852.515	11780.31
852.838	11799.75
853.161	11727.88
853.483	11688.79
853.806	11603.37
854.129	11589.13
854.451	11488.12
854.774	11425.29
855.096	11445.18
855.419	11457.16
855.741	11388.01
856.063	11309.59
856.385	11296.93
856.708	11288.8
857.03	11190.5
857.352	11302.81
857.674	11244.73
857.996	11208.35
858.318	11075.25
858.64	11073.66
858.961	11116.37
859.283	11016.49
859.605	11005.19
859.926	11017.17
860.248	10917.06
860.57	10936.72
860.891	10875.25
861.212	10832.54
861.534	10824.4
861.855	10853.33
862.176	10824.63
862.498	10796.61
862.819	10799.32
863.14	10790.51
863.461	10723.84
863.782	10754.12
864.103	10738.31
864.424	10704.63
864.745	10744.63
865.065	10597.29
865.386	10665.99
865.707	10597.74
866.027	10679.1
866.348	10569.04
866.668	10475.26
866.989	10530.85
867.309	10483.17
867.63	10542.6
867.95	10546.9
868.27	10435.26
868.59	10493.79
868.91	10404.3
869.23	10378.99
869.55	10327.92
869.87	10411.08
870.19	10330.63
870.51	10268.94
870.83	10366.11
871.15	10294.02
871.469	10305.77
871.789	10307.36
872.109	10282.05
872.428	10245.21
872.748	10278.43
873.067	10238.21
873.386	10277.75
873.706	10144.65
874.025	10210.18
874.344	10079.11
874.663	10163.63
874.982	10095.61
875.301	10093.12
875.62	10055.16
875.939	10027.82
876.258	10062.16
876.577	10036.18
876.896	9955.27
877.214	9927.25
877.533	10049.96
877.852	9933.81
878.17	9967.48
878.489	9887.71
878.807	9944.43
879.125	9942.85
879.444	9918.21
879.762	9832.34
880.08	9836.41
880.398	9840.93
880.716	9840.48
881.034	9776.3
881.352	9790.53
881.67	9731.55
881.988	9702.4
882.306	9676.41
882.624	9642.06
882.941	9618.11
883.259	9573.59
883.577	9554.83
883.894	9590.31
884.212	9565.45
884.529	9572.69
884.846	9559.58
885.164	9574.27
885.481	9447.72
885.798	9560.03
886.115	9424.89
886.432	9423.09
886.75	9408.4
887.067	9349.87
887.383	9319.36
887.7	9372.24
888.017	9308.96
888.334	9337.66
888.651	9332.47
888.967	9271.68
889.284	9204.79
889.6	9145.8
889.917	9143.32
890.233	9141.06
890.55	9046.37
890.866	9045.24
891.182	9000.72
891.498	9000.05
891.815	9000.27
892.131	8948.97
892.447	8956.21
892.763	8908.97
893.079	8915.08
893.395	8873.04
893.71	8811.12
894.026	8837.11
894.342	8794.85
894.657	8688.42
894.973	8746.95
895.289	8747.85
895.604	8645.48
895.92	8625.37
896.235	8600.28
896.55	8614.29
896.865	8564.58
897.181	8522.09
897.496	8488.19
897.811	8478.25
898.126	8475.77
898.441	8389.89
898.756	8415.65
899.071	8372.27
899.386	8309.67
899.7	8233.29
900.015	8245.94
900.33	8141.54
900.644	8189.22
900.959	8166.62
901.273	8179.95
901.588	8142.22
901.902	8062.67
902.216	8061.99
902.531	7975.21
902.845	7955.78
903.159	7960.53
903.473	7886.63
903.787	7937.02
904.101	7832.84
904.415	7840.98
904.729	7735.67
905.042	7781.55
905.356	7712.85
905.67	7702
905.984	7699.97
906.297	7596.24
906.611	7642.34
906.924	7569.12
907.237	7567.99
907.551	7509.46
907.864	7460.65
908.177	7470.82
908.491	7442.8
908.804	7425.62
909.117	7375.46
909.43	7348.56
909.743	7257.27
910.056	7317.38
910.368	7254.33
910.681	7202.13
910.994	7214.33
911.307	7148.57
911.619	7094.11
911.932	7124.39
912.244	7034.9
912.557	7078.74
912.869	7073.32
913.181	7036.48
913.494	6994.9
913.806	6963.94
914.118	6943.15
914.43	6916.26
914.742	6870.61
915.054	6775.25
915.366	6778.64
915.678	6768.24
915.99	6756.26
916.302	6722.59
916.613	6707.68
916.925	6700.9
917.236	6661.58
917.548	6573.22
917.859	6555.14
918.171	6550.17
918.482	6559.66
918.794	6494.57
919.105	6479.89
919.416	6442.6
919.727	6406.89
920.038	6396.27
920.349	6396.72
920.66	6368.93
920.971	6327.57
921.282	6299.33
921.593	6281.47
921.903	6243.96
922.214	6203.28
922.525	6166.67
922.835	6227.46
923.146	6127.13
923.456	6103.17
923.767	6102.49
924.077	6067.47
924.387	6029.28
924.697	6027.02
925.008	6005.77
925.318	5947.7
925.628	5950.41
925.938	5931.2
926.248	5888.04
926.558	5886.68
926.867	5857.76
927.177	5852.11
927.487	5801.26
927.796	5805.33
928.106	5744.09
928.416	5729.62
928.725	5721.71
929.034	5697.53
929.344	5686.46
929.653	5673.58
929.962	5643.75
930.271	5620.7
930.581	5567.82
930.89	5542.28
931.199	5462.96
931.508	5496.18
931.817	5477.43
932.125	5435.39
932.434	5500.93
932.743	5418.9
933.051	5406.69
933.36	5332.57
933.669	5324.66
933.977	5355.4
934.286	5290.54
934.594	5297.32
934.902	5282.4
935.21	5227.94
935.519	5238.11
935.827	5237.66
936.135	5177.77
936.443	5139.81
936.751	5130.09
937.059	5123.09
937.367	5113.82
937.674	5100.94
937.982	5050.09
938.29	5040.83
938.597	5009.64
938.905	4977.78
939.213	4971.68
939.52	4911.11
939.827	4964.45
940.135	4938.68
940.442	4873.15
940.749	4935.97
941.056	4865.24
941.363	4799.93
941.67	4842.87
941.977	4741.63
942.284	4772.13
942.591	4717.45
942.898	4724.68
943.205	4736.66
943.511	4692.14
943.818	4659.14
944.125	4641.29
944.431	4634.51
944.738	4612.82
945.044	4573.04
945.35	4580.05
945.657	4528.07
945.963	4514.06
946.269	4502.31
946.575	4540.95
946.881	4442.65
947.187	4438.13
947.493	4401.07
947.799	4429.77
948.105	4373.5
948.41	4368.08
948.716	4413.5
949.022	4327.63
949.327	4324.01
949.633	4267.51
949.938	4308.19
950.244	4265.93
950.549	4207.18
950.854	4255.54
951.16	4247.18
951.465	4220.51
951.77	4176.9
952.075	4151.81
952.38	4149.1
952.685	4150
952.99	4122.66
953.294	4123.34
953.599	4085.6
953.904	4012.83
954.209	4026.17
954.513	3976.9
954.818	3959.95
955.122	4010.57
955.426	3967.18
955.731	3932.16
956.035	3923.57
956.339	3888.99
956.643	3892.61
956.948	3872.5
957.252	3865.27
957.556	3848.54
957.86	3826.4
958.163	3807.87
958.467	3792.73
958.771	3764.25
959.075	3790.47
959.378	3734.65
959.682	3778.49
959.985	3726.74
960.289	3723.8
960.592	3717.7
960.896	3663.01
961.199	3667.3
961.502	3608.32
961.805	3636.57
962.108	3609.91
962.411	3560.19
962.714	3578.27
963.017	3536.46
963.32	3560.19
963.623	3542.34
963.926	3529.91
964.228	3521.77
964.531	3492.17
964.833	3504.82
965.136	3466.18
965.438	3454.88
965.741	3416.92
966.043	3431.38
966.345	3416.01
966.648	3409.46
966.95	3395.9
967.252	3337.82
967.554	3325.39
967.856	3305.51
968.158	3324.04
968.46	3301.21
968.761	3274.32
969.063	3273.19
969.365	3282
969.666	3205.85
969.968	3237.71
970.269	3178.28
970.571	3240.2
970.872	3186.19
971.174	3171.27
971.475	3150.71
971.776	3164.04
972.077	3135.79
972.378	3111.39
972.679	3090.37
972.98	3088.56
973.281	3078.85
973.582	3083.37
973.883	3034.33
974.183	3048.79
974.484	3012.63
974.785	2997.49
975.085	2997.04
975.386	3003.14
975.686	2965.4
975.986	2960.88
976.287	2965.85
976.587	2923.37
976.887	2875.01
977.187	2883.82
977.487	2900.09
977.787	2857.38
978.087	2851.73
978.387	2855.35
978.687	2852.86
978.987	2835.91
979.286	2803.82
979.586	2850.6
979.885	2771.74
980.185	2784.16
980.484	2797.5
980.784	2766.54
981.083	2746.65
981.382	2733.54
981.682	2739.42
981.981	2709.82
982.28	2722.92
982.579	2664.62
982.878	2682.47
983.177	2657.84
983.475	2661.91
983.774	2655.35
984.073	2670.72
984.372	2632.08
984.67	2605.41
984.969	2603.15
985.267	2599.54
985.566	2588.24
985.864	2538.97
986.162	2567.45
986.461	2573.77
986.759	2494.91
987.057	2496.71
987.355	2468.69
987.653	2472.08
987.951	2471.4
988.249	2468.47
988.547	2465.53
988.844	2458.3
989.142	2442.93
989.44	2400.45
989.737	2426.43
990.035	2384.4
990.332	2412.87
990.63	2381.46
990.927	2367.68
991.224	2346.21
991.521	2357.51
991.819	2321.13
992.116	2329.26
992.413	2324.74
992.71	2284.52
993.006	2291.3
993.303	2299.21
993.6	2291.07
993.897	2262.14
994.193	2255.36
994.49	2269.15
994.787	2218.3
995.083	2199.77
995.379	2199.55
995.676	2186.67
995.972	2203.61
996.268	2154.58
996.565	2145.08
996.861	2141.47
997.157	2131.98
997.453	2101.92
997.749	2129.72
998.044	2109.61
998.34	2110.51
998.636	2104.41
998.932	2080
999.227	2053.11
999.523	2055.82
999.818	2089.95
1000.114	2015.82
1000.409	2030.74
1000.704	2021.92
1001	2009.95
1001.295	2016.95
1001.59	1966.33
1001.885	1987.12
1002.18	2007.01
1002.475	1990.51
1002.77	1951.19
1003.065	1927.46
1003.359	1945.77
1003.654	1927.46
1003.949	1925.43
1004.243	1887.24
1004.538	1879.33
1004.832	1903.51
1005.127	1824.87
1005.421	1838.65
1005.715	1815.83
1006.009	1845.43
1006.304	1831.19
1006.598	1806.11
1006.892	1802.04
1007.186	1795.72
1007.48	1776.96
1007.773	1750.07
1008.067	1724.53
1008.361	1774.02
1008.655	1713.68
1008.948	1749.16
1009.242	1706.68
1009.535	1673.01
1009.829	1707.36
1010.122	1660.58
1010.415	1676.4
1010.708	1696.74
1011.001	1650.63
1011.295	1657.87
1011.588	1656.74
1011.881	1649.05
1012.173	1617.87
1012.466	1605.44
1012.759	1622.16
1013.052	1592.33
1013.344	1583.07
1013.637	1574.7
1013.93	1578.32
1014.222	1541.48
1014.514	1523.63
1014.807	1529.96
1015.099	1534.93
1015.391	1520.02
1015.683	1523.41
1015.976	1511.66
1016.268	1505.55
1016.56	1504.42
1016.851	1459
1017.143	1501.03
1017.435	1463.75
1017.727	1486.35
1018.018	1437.76
1018.31	1454.93
1018.602	1444.54
1018.893	1407.03
1019.185	1425.56
1019.476	1396.63
1019.767	1363.18
1020.058	1373.81
1020.35	1388.72
1020.641	1325.45
1020.932	1360.7
1021.223	1348.04
1021.514	1340.13
1021.804	1335.84
1022.095	1323.86
1022.386	1289.51
1022.677	1295.16
1022.967	1280.25
1023.258	1262.4
1023.548	1273.92
1023.839	1253.13
1024.129	1270.98
1024.419	1263.07
1024.709	1247.93
1025	1223.08
1025.29	1226.01
1025.58	1227.37
1025.87	1214.71
1026.16	1207.93
1026.449	1223.53
1026.739	1188.27
1027.029	1200.48
1027.319	1203.41
1027.608	1184.43
1027.898	1198.67
1028.187	1162.29
1028.477	1166.58
1028.766	1128.39
1029.055	1110.76
1029.344	1121.38
1029.634	1145.56
1029.923	1128.84
1030.212	1099.46
1030.501	1105.34
1030.79	1080.93
1031.078	1074.38
1031.367	1093.14
1031.656	1061.95
1031.945	1062.63
1032.233	1053.14
1032.522	1035.28
1032.81	1048.16
1033.099	1002.97
1033.387	1022.85
1033.675	1007.04
1033.963	1021.05
1034.251	992.35
1034.54	1008.62
1034.828	1000.26
1035.116	1014.72
1035.403	989.63
1035.691	982.4
1035.979	970.65
1036.267	965.23
1036.554	956.42
1036.842	957.55
1037.129	926.81
1037.417	931.11
1037.704	920.94
1037.992	920.48
1038.279	917.77
1038.566	923.42
1038.853	923.42
1039.14	923.42
