Data from hue_200_FLMS001491_00006.txt Node
Date: Tue Feb 07 16:42:44 GMT 2017
User: dcchb
Spectrometer: FLMS00149
Trigger mode: 0
Integration Time (sec): 2.000000E-2
Scans to average: 10
Electric dark correction enabled: true
Nonlinearity correction enabled: false
Boxcar width: 0
XAxis mode: Wavelengths
Number of Pixels in Spectrum: 2048
>>>>>Begin Spectral Data<<<<<
341.393	11.27
341.776	11.27
342.16	11.27
342.543	-58.33
342.927	-74.83
343.31	-75.05
343.693	-75.28
344.077	-73.25
344.46	-31.89
344.843	-63.98
345.226	-44.32
345.61	-28.05
345.993	-10.88
346.376	-2.51
346.759	20.99
347.142	18.73
347.525	44.72
347.908	58.28
348.291	67.09
348.674	89.69
349.057	105.73
349.44	133.08
349.823	129.46
350.206	166.52
350.588	202.68
350.971	202.23
351.354	229.8
351.737	240.42
352.119	256.69
352.502	253.98
352.884	263.47
353.267	272.28
353.65	295.33
354.032	317.7
354.414	320.42
354.797	318.16
355.179	319.06
355.562	298.72
355.944	347.53
356.326	340.3
356.709	323.81
357.091	308.66
357.473	342.79
357.855	353.18
358.238	356.35
358.62	347.99
359.002	340.98
359.384	304.37
359.766	332.84
360.148	339.4
360.53	360.19
360.912	344.82
361.294	330.58
361.676	338.95
362.057	323.13
362.439	335.56
362.821	341.21
363.203	340.3
363.584	329.68
363.966	318.83
364.348	335.1
364.729	311.6
365.111	330.81
365.493	314.31
365.874	340.3
366.256	304.82
366.637	312.73
367.019	310.92
367.4	319.29
367.781	312.96
368.163	296.01
368.544	344.82
368.925	320.42
369.306	312.73
369.688	323.58
370.069	317.48
370.45	320.64
370.831	303.01
371.212	343.24
371.593	333.75
371.974	309.79
372.355	314.54
372.736	318.16
373.117	318.83
373.498	326.29
373.879	311.6
374.26	302.34
374.641	312.73
375.021	329.91
375.402	326.97
375.783	299.4
376.163	320.42
376.544	324.26
376.925	338.49
377.305	319.06
377.686	338.72
378.066	331.94
378.447	335.78
378.827	335.33
379.208	315.44
379.588	334.65
379.968	334.2
380.349	336.46
380.729	321.77
381.109	353.41
381.489	351.83
381.87	349.57
382.25	339.85
382.63	360.19
383.01	352.28
383.39	356.57
383.77	343.92
384.15	336.69
384.53	360.41
384.91	360.41
385.29	350.25
385.67	351.83
386.049	357.25
386.429	366.97
386.809	374.88
387.189	343.01
387.568	354.76
387.948	357.93
388.328	388.66
388.707	357.48
389.087	392.73
389.466	373.3
389.846	371.26
390.225	396.8
390.605	355.89
390.984	370.13
391.363	373.07
391.743	379.4
392.122	374.88
392.501	392.73
392.881	380.07
393.26	379.17
393.639	382.56
394.018	402
394.397	403.8
394.776	386.63
395.155	388.44
395.534	410.81
395.913	413.75
396.292	415.33
396.671	417.81
397.05	420.98
397.429	419.62
397.808	413.75
398.186	398.15
398.565	434.08
398.944	425.27
399.323	415.78
399.701	437.02
400.08	439.96
400.458	432.05
400.837	426.63
401.215	430.69
401.594	438.83
401.972	419.85
402.351	445.16
402.729	460.07
403.107	446.29
403.486	470.24
403.864	459.17
404.242	465.27
404.62	481.32
404.999	476.8
405.377	475.67
405.755	488.09
406.133	485.16
406.511	495.33
406.889	494.65
407.267	486.74
407.645	513.63
408.023	514.31
408.401	523.35
408.779	529.9
409.156	535.78
409.534	544.14
409.912	557.02
410.29	564.25
410.667	573.74
411.045	579.62
411.422	580.3
411.8	601.09
412.178	611.71
412.555	617.58
412.933	631.37
413.31	639.28
413.687	652.84
414.065	667.3
414.442	686.06
414.819	663.91
415.197	700.52
415.574	716.79
415.951	722.66
416.328	718.14
416.705	736
417.082	726.96
417.46	746.62
417.837	736.9
418.214	777.13
418.591	778.03
418.967	796.79
419.344	787.97
419.721	813.51
420.098	806.28
420.475	820.52
420.852	861.42
421.228	878.37
421.605	882.43
421.982	894.64
422.358	913.39
422.735	919.72
423.111	929.66
423.488	940.51
423.864	947.52
424.241	981.41
424.617	997.69
424.994	1015.54
425.37	1048.98
425.746	1073.16
426.123	1070.9
426.499	1082.2
426.875	1088.3
427.251	1124.91
427.627	1149.09
428.003	1137.57
428.379	1183.9
428.756	1191.58
429.132	1205.14
429.507	1197.23
429.883	1249.43
430.259	1252.37
430.635	1237.45
431.011	1268.64
431.387	1293.05
431.763	1312.25
432.138	1329.2
432.514	1338.69
432.89	1350.44
433.265	1405.58
433.641	1428.63
434.016	1447.39
434.392	1465.7
434.767	1496.43
435.143	1511.8
435.518	1560.16
435.894	1555.86
436.269	1592.47
436.644	1640.15
437.02	1659.82
437.395	1681.74
437.77	1753.6
438.145	1766.48
438.52	1800.15
438.895	1807.61
439.271	1841.73
439.646	1855.97
440.021	1899.13
440.395	1921.96
440.77	1907.49
441.145	1994.04
441.52	2015.51
441.895	2023.65
442.27	2057.77
442.645	2059.8
443.019	2081.05
443.394	2093.48
443.769	2143.87
444.143	2160.82
444.518	2182.97
444.892	2194.49
445.267	2194.49
445.641	2287.37
446.016	2269.52
446.39	2256.41
446.764	2315.62
447.139	2267.03
447.513	2341.15
447.887	2333.92
448.262	2330.31
448.636	2370.53
449.01	2416.86
449.384	2443.52
449.758	2484.2
450.132	2515.84
450.506	2475.16
450.88	2506.35
451.254	2519
451.628	2559.68
452.002	2594.48
452.376	2622.73
452.75	2647.36
453.123	2628.38
453.497	2721.26
453.871	2723.74
454.244	2759
454.618	2773.01
454.992	2820.69
455.365	2850.97
455.739	2940.46
456.112	2944.08
456.486	2991.76
456.859	2998.99
457.232	3038.08
457.606	3055.71
457.979	3081.02
458.352	3143.17
458.725	3196.95
459.099	3173.9
459.472	3275.14
459.845	3284.63
460.218	3319.88
460.591	3356.27
460.964	3383.61
461.337	3436.04
461.71	3501.12
462.083	3541.35
462.456	3595.58
462.829	3570.95
463.201	3611.63
463.574	3687.11
463.947	3690.27
464.32	3765.52
464.692	3845.29
465.065	3841.23
465.438	3882.58
465.81	3963.71
466.183	3993.54
466.555	4081.67
466.928	4103.82
467.3	4088.9
467.672	4113.99
468.045	4250.03
468.417	4250.48
468.789	4267.88
469.161	4395.56
469.534	4427.65
469.906	4554.88
470.278	4544.26
470.65	4654.54
471.022	4650.7
471.394	4770.92
471.766	4841.88
472.138	4893.18
472.51	4939.05
472.882	5004.81
473.253	5044.13
473.625	5105.6
473.997	5261.53
474.369	5242.09
474.74	5304.24
475.112	5414.74
475.484	5493.39
475.855	5591.69
476.227	5622.87
476.598	5753.94
476.97	5868.29
477.341	5916.43
477.713	6006.37
478.084	5984.22
478.455	6230.99
478.827	6268.06
479.198	6415.85
479.569	6450.88
479.94	6544.43
480.311	6621.72
480.682	6734.94
481.053	6897.87
481.424	6974.48
481.795	7055.61
482.166	7104.64
482.537	7233.91
482.908	7320.91
483.279	7387.57
483.65	7571.07
484.021	7677.74
484.391	7715.02
484.762	7826.21
485.133	7907.79
485.503	7985.3
485.874	8142.13
486.244	8231.62
486.615	8328.57
486.985	8424.83
487.356	8598.39
487.726	8637.03
488.097	8817.37
488.467	8849.46
488.837	9007.19
489.207	9081.54
489.578	9138.26
489.948	9245.83
490.318	9263.91
490.688	9336.45
491.058	9514.52
491.428	9610.34
491.798	9673.16
492.168	9819.37
492.538	9829.32
492.908	9974.4
493.278	10079.48
493.648	10074.51
494.017	10220.95
494.387	10300.72
494.757	10301.17
495.126	10400.15
495.496	10449.41
495.866	10563.31
496.235	10568.28
496.605	10685.79
496.974	10689.18
497.344	10816.86
497.713	10850.53
498.082	10873.13
498.452	10968.27
498.821	10985.45
499.19	10999.46
499.559	11059.57
499.928	11112.67
500.298	11113.35
500.667	11229.96
501.036	11235.83
501.405	11343.4
501.774	11329.39
502.143	11357.41
502.512	11446.45
502.88	11515.6
503.249	11449.16
503.618	11563.28
503.987	11571.87
504.356	11608.03
504.724	11648.25
505.093	11728.48
505.462	11721.02
505.83	11765.09
506.199	11825.88
506.567	11922.6
506.936	11868.13
507.304	11975.25
507.672	12011.18
508.041	12095.47
508.409	12112.42
508.777	12172.99
509.145	12286.2
509.514	12177.96
509.882	12195.58
510.25	12206.43
510.618	12241.68
510.986	12193.32
511.354	12399.42
511.722	12386.09
512.09	12449.36
512.458	12302.47
512.826	12513.32
513.193	12525.74
513.561	12487.1
513.929	12557.83
514.297	12605.29
514.664	12624.05
515.032	12683.71
515.4	12670.37
515.767	12760.54
516.135	12768.22
516.502	12631.5
516.869	12780.88
517.237	12765.96
517.604	12736.13
517.972	12770.03
518.339	12907.2
518.706	12789.47
519.073	12813.42
519.44	12836.02
519.808	12925.73
520.175	12834.44
520.542	12927.09
520.909	12989.91
521.276	12913.76
521.643	13059.52
522.009	13040.53
522.376	13047.54
522.743	13061.55
523.11	13096.58
523.477	13098.61
523.843	13104.49
524.21	13233.3
524.577	13214.77
524.943	13245.5
525.31	13248.66
525.676	13257.48
526.043	13288.89
526.409	13334.31
526.776	13434.87
527.142	13377.93
527.508	13432.84
527.874	13405.72
528.241	13503.8
528.607	13389.9
528.973	13425.83
529.339	13309.45
529.705	13469.22
530.071	13389.68
530.437	13430.35
530.803	13426.96
531.169	13378.38
531.535	13378.83
531.901	13335.44
532.267	13395.78
532.632	13420.86
532.998	13391.03
533.364	13358.04
533.73	13257.02
534.095	13269.45
534.461	13182.45
534.826	13303.58
535.192	13244.14
535.557	13156.91
535.923	13149.91
536.288	13126.41
536.653	13183.58
537.019	13068.1
537.384	13045.73
537.749	13104.71
538.114	13018.61
538.479	12855.23
538.845	12998.95
539.21	12939.97
539.575	12885.28
539.94	12872.85
540.305	12803.25
540.67	12746.08
541.034	12717.6
541.399	12739.07
541.764	12643.26
542.129	12590.15
542.494	12551.51
542.858	12564.84
543.223	12570.26
543.587	12477.84
543.952	12409.36
544.316	12400.55
544.681	12323.49
545.045	12361.45
545.41	12405.97
545.774	12275.81
546.138	12258.18
546.503	12172.31
546.867	12171.18
547.231	12139.99
547.595	12090.05
547.959	12100.22
548.324	12023.61
548.688	11861.13
549.052	11924.63
549.416	11897.74
549.779	11780.9
550.143	11807.34
550.507	11796.95
550.871	11721.25
551.235	11672.21
551.599	11633.34
551.962	11628.82
552.326	11615.49
552.689	11554.02
553.053	11457.52
553.417	11457.07
553.78	11515.15
554.143	11442.38
554.507	11438.54
554.87	11372.78
555.234	11437.86
555.597	11350.41
555.96	11368.49
556.323	11297.3
556.686	11296.85
557.05	11377.75
557.413	11286
557.776	11276.96
558.139	11248.94
558.502	11268.6
558.865	11181.37
559.228	11249.62
559.59	11147.02
559.953	11184.31
560.316	11265.66
560.679	11187.47
561.041	11147.93
561.404	11177.08
561.767	11247.81
562.129	11100.24
562.492	11185.44
562.854	11167.81
563.217	11104.54
563.579	11136.18
563.941	11147.25
564.304	11139.34
564.666	11155.38
565.028	11181.15
565.39	11169.17
565.753	11154.71
566.115	11170.98
566.477	11195.61
566.839	11185.21
567.201	11172.11
567.563	11192.67
567.925	11226.8
568.287	11157.64
568.648	11168.04
569.01	11224.99
569.372	11297.53
569.734	11210.07
570.095	11245.33
570.457	11224.99
570.819	11289.84
571.18	11216.85
571.542	11269.96
571.903	11279.68
572.265	11346.34
572.626	11319.45
572.987	11398.32
573.349	11369.84
573.71	11349.28
574.071	11407.13
574.432	11272.44
574.794	11385.89
575.155	11357.41
575.516	11316.28
575.877	11351.76
576.238	11396.51
576.599	11417.07
576.96	11375.27
577.32	11375.04
577.681	11391.54
578.042	11439.44
578.403	11346.57
578.763	11413.46
579.124	11448.94
579.485	11445.55
579.845	11394.02
580.206	11408.94
580.566	11421.59
580.927	11428.37
581.287	11448.03
581.648	11412.78
582.008	11449.61
582.368	11428.82
582.728	11416.39
583.089	11471.53
583.449	11384.31
583.809	11411.2
584.169	11414.81
584.529	11348.6
584.889	11438.99
585.249	11315.83
585.609	11336.17
585.969	11426.34
586.329	11361.25
586.688	11423.4
587.048	11402.38
587.408	11327.36
587.768	11325.1
588.127	11377.3
588.487	11251.43
588.846	11351.31
589.206	11270.18
589.565	11331.65
589.925	11332.78
590.284	11326.68
590.643	11367.13
591.003	11379.11
591.362	11349.28
591.721	11297.3
592.08	11354.25
592.44	11310.63
592.799	11347.47
593.158	11296.17
593.517	11304.08
593.876	11358.54
594.235	11278.32
594.593	11317.41
594.952	11275.38
595.311	11311.99
595.67	11198.32
596.029	11308.6
596.387	11316.51
596.746	11289.39
597.104	11278.09
597.463	11219.11
597.822	11288.49
598.18	11196.29
598.538	11178.43
598.897	11256.62
599.255	11130.75
599.613	11324.42
599.972	11174.14
600.33	11230.86
600.688	11189.96
601.046	11246.68
601.404	11253.91
601.762	11165.78
602.12	11287.81
602.478	11256.62
602.836	11276.74
603.194	11163.52
603.552	11234.03
603.91	11181.6
604.268	11190.86
604.625	11238.09
604.983	11247.13
605.341	11196.51
605.698	11254.59
606.056	11245.1
606.413	11190.86
606.771	11199.23
607.128	11191.32
607.485	11200.36
607.843	11180.24
608.2	11283.29
608.557	11257.08
608.914	11152.67
609.272	11314.25
609.629	11361.03
609.986	11332.78
610.343	11312.44
610.7	11314.48
611.057	11316.96
611.414	11263.18
611.771	11335.72
612.127	11376.85
612.484	11314.7
612.841	11352.67
613.198	11327.58
613.554	11333.46
613.911	11426.56
614.267	11427.02
614.624	11407.58
614.98	11424.98
615.337	11471.53
615.693	11429.95
616.05	11371.42
616.406	11503.4
616.762	11427.69
617.118	11398.09
617.475	11460.24
617.831	11453.68
618.187	11505.88
618.543	11464.3
618.899	11556.96
619.255	11546.11
619.611	11433.12
619.967	11512.89
620.323	11504.08
620.678	11510.18
621.034	11476.51
621.39	11445.55
621.746	11419.78
622.101	11547.01
622.457	11490.97
622.812	11472.66
623.168	11471.76
623.523	11479.44
623.879	11515.6
624.234	11435.15
624.589	11414.59
624.945	11516.73
625.3	11477.18
625.655	11450.07
626.01	11457.3
626.365	11476.05
626.72	11451.42
627.075	11519.44
627.43	11434.47
627.785	11385.89
628.14	11403.74
628.495	11464.98
628.85	11438.32
629.205	11419.78
629.559	11457.52
629.914	11380.69
630.269	11351.99
630.623	11438.09
630.978	11362.38
631.332	11388.15
631.687	11354.48
632.041	11323.29
632.396	11332.1
632.75	11287.81
633.104	11297.53
633.459	11291.88
633.813	11284.65
634.167	11221.82
634.521	11264.99
634.875	11254.82
635.229	11211.65
635.583	11227.93
635.937	11130.75
636.291	11139.11
636.645	11176.4
636.999	11147.7
637.352	11111.54
637.706	11043.3
638.06	11185.89
638.413	11084.2
638.767	11055.5
639.121	11029.96
639.474	11012.34
639.828	11023.41
640.181	11042.62
640.534	11088.04
640.888	10957.65
641.241	10830.65
641.594	11010.98
641.947	10953.81
642.301	11006.24
642.654	10893.92
643.007	11008.04
643.36	10893.92
643.713	10893.7
644.066	10908.61
644.419	10858.22
644.771	10804.66
645.124	10697.77
645.477	10775.73
645.83	10616.19
646.182	10603.53
646.535	10576.19
646.888	10589.75
647.24	10508.4
647.593	10526.93
647.945	10507.94
648.298	10549.75
648.65	10432.24
649.002	10432.47
649.355	10519.47
649.707	10505.46
650.059	10506.36
650.411	10756.53
650.763	10730.31
651.115	10768.95
651.467	10797.88
651.819	10776.86
652.171	10806.69
652.523	10728.5
652.875	10710.2
653.227	10622.52
653.578	10692.8
653.93	10775.73
654.282	10688.96
654.633	10675.85
654.985	10660.48
655.337	10737.99
655.688	10703.65
656.039	10737.32
656.391	10651.9
656.742	10627.71
657.094	10760.14
657.445	10744.77
657.796	10745.9
658.147	10673.59
658.498	10723.76
658.849	10814.83
659.2	10725.57
659.551	10694.15
659.902	10785.22
660.253	10690.76
660.604	10783.87
660.955	10781.16
661.306	10797.2
661.656	10757.43
662.007	10781.84
662.358	10791.55
662.708	10788.16
663.059	10736.86
663.409	10712.01
663.76	10799.46
664.11	10775.73
664.461	10726.24
664.811	10773.93
665.161	10883.3
665.511	10759.91
665.862	10808.73
666.212	10782.97
666.562	10757.2
666.912	10711.33
667.262	10719.24
667.612	10811.89
667.962	10755.17
668.312	10775.28
668.662	10846.47
669.011	10742.74
669.361	10744.1
669.711	10711.1
670.06	10731.44
670.41	10738.45
670.76	10795.62
671.109	10806.24
671.459	10682.85
671.808	10739.8
672.157	10686.7
672.507	10751.78
672.856	10649.86
673.205	10754.49
673.554	10706.36
673.904	10691.89
674.253	10734.83
674.602	10644.21
674.951	10528.28
675.3	10404.44
675.649	10575.29
675.998	10604.66
676.346	10598.11
676.695	10644.21
677.044	10502.52
677.393	10517.66
677.741	10570.77
678.09	10462.52
678.438	10475.4
678.787	10486.93
679.135	10543.2
679.484	10477.89
679.832	10507.27
680.181	10389.76
680.529	10424.78
680.877	10424.33
681.225	10415.07
681.573	10447.38
681.922	10321.51
682.27	10340.04
682.618	10385.46
682.966	10273.83
683.314	10368.51
683.661	10279.7
684.009	10273.6
684.357	10156.54
684.705	10134.17
685.053	10161.29
685.4	10205.81
685.748	10081.51
686.095	10191.79
686.443	10056.2
686.79	10115.86
687.138	10068.41
687.485	10074.06
687.832	10043.55
688.18	9941.41
688.527	9972.14
688.874	9985.47
689.221	9914.51
689.568	9847.85
689.915	9842.65
690.262	9861.63
690.609	9777.79
690.956	9812.37
691.303	9758.13
691.65	9714.07
691.997	9715.65
692.344	9605.82
692.69	9645.37
693.037	9499.16
693.383	9489.89
693.73	9606.5
694.077	9444.92
694.423	9455.32
694.769	9436.33
695.116	9296
695.462	9436.33
695.808	9293.51
696.155	9299.61
696.501	9256.23
696.847	9243.12
697.193	9181.88
697.539	9121.31
697.885	9167.87
698.231	9117.25
698.577	9068.43
698.923	8999.28
699.269	8973.97
699.614	8942.34
699.96	8881.32
700.306	8882.22
700.651	8852.39
700.997	8784.83
701.342	8860.53
701.688	8785.05
702.033	8748.22
702.379	8696.24
702.724	8662.79
703.069	8725.84
703.415	8519.3
703.76	8626.41
704.105	8611.72
704.45	8531.72
704.795	8481.1
705.14	8512.74
705.485	8410.15
705.83	8446.53
706.175	8461.9
706.52	8356.14
706.865	8397.27
707.209	8282.47
707.554	8284.27
707.899	8339.87
708.243	8269.36
708.588	8236.14
708.932	8206.08
709.277	8175.35
709.621	8137.84
709.966	8171.51
710.31	8110.04
710.654	8099.19
710.998	8049.03
711.342	8039.53
711.687	8035.47
712.031	7961.8
712.375	7947.79
712.719	8078.63
713.063	7980.1
713.407	8073.88
713.75	7922.48
714.094	7950.05
714.438	7889.71
714.782	7914.57
715.125	7869.37
715.469	7914.57
715.812	7795.25
716.156	7814
716.499	7789.82
716.843	7850.39
717.186	7718.64
717.53	7803.61
717.873	7758.41
718.216	7739.88
718.559	7697.62
718.902	7682.71
719.246	7701.24
719.589	7727.9
719.932	7624.86
720.275	7701.46
720.617	7636.83
720.96	7609.49
721.303	7635.48
721.646	7702.82
721.989	7592.54
722.331	7569.49
722.674	7583.5
723.016	7548.93
723.359	7600
723.701	7604.74
724.044	7598.19
724.386	7557.06
724.729	7541.69
725.071	7537.85
725.413	7541.02
725.755	7552.99
726.097	7520.23
726.439	7439.32
726.782	7472.32
727.124	7483.39
727.465	7463.96
727.807	7491.75
728.149	7484.52
728.491	7415.6
728.833	7454.47
729.175	7421.47
729.516	7458.31
729.858	7457.63
730.199	7414.24
730.541	7482.26
730.882	7454.24
731.224	7445.88
731.565	7432.77
731.906	7450.4
732.248	7462.37
732.589	7400.46
732.93	7409.04
733.271	7415.6
733.612	7436.84
733.953	7449.95
734.294	7441.13
734.635	7460.57
734.976	7508.02
735.317	7414.69
735.658	7421.25
735.999	7445.88
736.339	7444.75
736.68	7512.99
737.021	7497.63
737.361	7434.13
737.702	7468.93
738.042	7454.92
738.383	7435.26
738.723	7425.09
739.063	7498.98
739.404	7451.53
739.744	7459.21
740.084	7496.27
740.424	7488.14
740.764	7548.7
741.104	7536.04
741.444	7517.51
741.784	7517.97
742.124	7568.59
742.464	7544.63
742.804	7607.91
743.143	7610.39
743.483	7647.23
743.823	7676.61
744.162	7642.03
744.502	7672.54
744.841	7648.13
745.181	7805.42
745.52	7790.95
745.86	7873.66
746.199	7887
746.538	7878.18
746.877	8012.19
747.216	8057.61
747.556	8060.1
747.895	8075.01
748.234	8122.02
748.573	8135.13
748.911	8255.35
749.25	8249.02
749.589	8375.12
749.928	8434.78
750.267	8475.91
750.605	8550.26
750.944	8602.01
751.283	8666.18
751.621	8767.42
751.96	8819.4
752.298	8936.46
752.636	9066.4
752.975	9161.54
753.313	9154.31
753.651	9377.35
753.989	9461.64
754.327	9517.01
754.666	9677.01
755.004	9765.59
755.342	9949.31
755.679	10084.68
756.017	10136.43
756.355	10311.34
756.693	10483.99
757.031	10611.44
757.368	10681.95
757.706	10882.62
758.044	11017.54
758.381	11148.38
758.719	11350.41
759.056	11585.2
759.394	11725.54
759.731	11831.75
760.068	12008.24
760.405	12166.66
760.743	12361.45
761.08	12547.66
761.417	12691.39
761.754	12866.07
762.091	13099.06
762.428	13186.97
762.765	13359.62
763.102	13683
763.438	13723.9
763.775	13954.18
764.112	14155.53
764.449	14358.24
764.785	14524.11
765.122	14576.54
765.458	14694.27
765.795	14970.2
766.131	15135.17
766.467	15295.61
766.804	15380.13
767.14	15563.63
767.476	15761.14
767.812	15854.24
768.148	16089.27
768.485	16237.74
768.821	16266.89
769.157	16469.14
769.492	16702.58
769.828	16851.96
770.164	16736.03
770.5	16948
770.836	17141.89
771.171	17288.1
771.507	17333.75
771.842	17389.8
772.178	17477.25
772.513	17632.95
772.849	17747.3
773.184	17814.42
773.519	18010.57
773.855	17970.12
774.19	18058.48
774.525	18220.28
774.86	18265.93
775.195	18411.01
775.53	18460.73
775.865	18545.02
776.2	18441.75
776.535	18480.84
776.87	18639.03
777.205	18572.59
777.539	18628.18
777.874	18770.33
778.209	18779.59
778.543	18702.3
778.878	18835.18
779.212	18912.92
779.547	18820.27
779.881	19034.73
780.215	18943.43
780.55	19010.77
780.884	18926.48
781.218	18955.63
781.552	19170.77
781.886	19032.01
782.22	19139.81
782.554	19079.47
782.888	18986.82
783.222	18970.32
783.556	19064.56
783.889	19052.58
784.223	18944.33
784.557	19008.74
784.89	19108.85
785.224	19076.53
785.557	18909.98
785.891	19041.96
786.224	18978
786.558	19027.95
786.891	18905.01
787.224	18765.13
787.557	18813.04
787.891	18894.84
788.224	18860.94
788.557	18848.52
788.89	18884.67
789.223	18815.3
789.556	18805.8
789.888	18779.82
790.221	18786.6
790.554	18644.68
790.887	18682.64
791.219	18632.25
791.552	18631.8
791.884	18511.58
792.217	18568.98
792.549	18498.02
792.882	18480.84
793.214	18481.97
793.546	18433.61
793.879	18447.62
794.211	18337.79
794.543	18426.38
794.875	18327.17
795.207	18428.87
795.539	18257.34
795.871	18221.87
796.203	18190.68
796.535	18090.57
796.867	18030.23
797.198	18052.6
797.53	18122.43
797.862	18021.64
798.193	17944.13
798.525	17870.69
798.856	17958.37
799.188	17795.66
799.519	17789.56
799.85	17658.49
800.182	17673.41
800.513	17731.93
800.844	17590.92
801.175	17661.88
801.506	17602.9
801.837	17512.96
802.168	17522.67
802.499	17501.43
802.83	17452.39
803.161	17372.4
803.491	17352.96
803.822	17406.75
804.153	17322.68
804.483	17094.66
804.814	17191.38
805.145	17253.98
805.475	17179.86
805.805	17087.66
806.136	17067.32
806.466	17075.68
806.796	16994.78
807.126	16883.6
807.457	16917.04
807.787	16859.19
808.117	16780.55
808.447	16742.58
808.777	16729.02
809.107	16739.87
809.436	16631.62
809.766	16691.96
810.096	16610.83
810.426	16516.15
810.755	16599.76
811.085	16510.95
811.414	16491.52
811.744	16351.63
812.073	16338.07
812.403	16345.08
812.732	16254.01
813.061	16268.02
813.39	16167.91
813.719	16240
814.049	16337.62
814.378	16160.45
814.707	16101.47
815.036	16112.77
815.365	16099.21
815.693	15941.02
816.022	15947.8
816.351	15978.53
816.68	15835.94
817.008	15950.51
817.337	15811.99
817.665	15739.22
817.994	15809.95
818.322	15842.95
818.651	15675.94
818.979	15700.58
819.307	15763.63
819.636	15751.2
819.964	15706.9
820.292	15735.83
820.62	15601.14
820.948	15661.71
821.276	15674.36
821.604	15517.3
821.932	15637.53
822.259	15667.81
822.587	15623.06
822.915	15587.13
823.243	15661.25
823.57	15563.18
823.898	15626.68
824.225	15573.57
824.553	15579.22
824.88	15576.74
825.207	15604.76
825.535	15594.59
825.862	15706
826.189	15534.7
826.516	15631.65
826.843	15634.81
827.17	15630.97
827.497	15707.58
827.824	15640.01
828.151	15708.26
828.478	15639.11
828.805	15697.64
829.131	15629.84
829.458	15631.65
829.785	15574.93
830.111	15651.99
830.438	15710.29
830.764	15551.2
831.09	15697.64
831.417	15629.17
831.743	15595.04
832.069	15649.28
832.395	15545.1
832.722	15619.22
833.048	15635.94
833.374	15649.5
833.7	15555.95
834.026	15505.1
834.351	15517.53
834.677	15503.52
835.003	15561.14
835.329	15455.16
835.654	15513.24
835.98	15471.66
836.306	15450.41
836.631	15382.62
836.956	15478.89
837.282	15407.25
837.607	15376.97
837.932	15372.22
838.258	15327.7
838.583	15287.71
838.908	15273.47
839.233	15249.51
839.558	15176.75
839.883	15153.92
840.208	15169.29
840.533	15112.12
840.858	15142.4
841.182	15119.57
841.507	15090.42
841.832	15006.81
842.156	14974.72
842.481	15009.52
842.805	14937.88
843.13	14991.89
843.454	14900.37
843.778	14798
844.103	14806.14
844.427	14777.44
844.751	14796.42
845.075	14699.02
845.399	14661.96
845.723	14584
846.047	14630.1
846.371	14456.77
846.695	14495.41
847.019	14342.19
847.343	14354.85
847.666	14296.32
847.99	14202.54
848.313	14146.27
848.637	14182.88
848.96	14116.44
849.284	14048.87
849.607	13877.8
849.931	13935.88
850.254	13846.16
850.577	13815.2
850.9	13627.64
851.223	13730.01
851.546	13597.13
851.869	13454.53
852.192	13615.21
852.515	13455.44
852.838	13387.87
853.161	13411.6
853.483	13344.03
853.806	13242.34
854.129	13277.14
854.451	13197.82
854.774	13031.04
855.096	13134.77
855.419	13097.93
855.741	13101.77
856.063	12960.99
856.385	12953.3
856.708	12867.66
857.03	12850.71
857.352	12872.85
857.674	12852.97
857.996	12725.74
858.318	12680.54
858.64	12702.46
858.961	12620.43
859.283	12603.71
859.605	12466.99
859.926	12580.88
860.248	12534.78
860.57	12456.14
860.891	12489.36
861.212	12406.88
861.534	12402.81
861.855	12332.75
862.176	12306.77
862.498	12238.52
862.819	12320.55
863.14	12257.73
863.461	12276.49
863.782	12279.2
864.103	12125.98
864.424	12220.44
864.745	12222.93
865.065	12059.77
865.386	12141.12
865.707	12059.09
866.027	12103.83
866.348	11988.13
866.668	11985.87
866.989	11992.42
867.309	11884.41
867.63	11951.52
867.95	11971.63
868.27	11858.42
868.59	11937.06
868.91	11874.46
869.23	11813.45
869.55	11756.5
869.87	11827.23
870.19	11812.09
870.51	11831.75
870.83	11768.25
871.15	11762.83
871.469	11749.95
871.789	11758.31
872.109	11724.41
872.428	11606.9
872.748	11695.48
873.067	11631.3
873.386	11572.55
873.706	11667.24
874.025	11513.79
874.344	11535.49
874.663	11557.86
874.982	11458.88
875.301	11423.4
875.62	11484.64
875.939	11415.04
876.258	11468.14
876.577	11353.8
876.896	11407.13
877.214	11302.5
877.533	11427.02
877.852	11285.55
878.17	11322.39
878.489	11287.13
878.807	11328.26
879.125	11301.6
879.444	11182.5
879.762	11194.03
880.08	11155.61
880.398	11175.5
880.716	11169.4
881.034	11134.37
881.352	11132.56
881.67	11074.71
881.988	11050.53
882.306	10990.19
882.624	10980.25
882.941	10975.28
883.259	10899.35
883.577	10922.17
883.894	10924.88
884.212	10854.83
884.529	10897.99
884.846	10743.87
885.164	10762.85
885.481	10790.65
885.798	10746.36
886.115	10705.45
886.432	10658.67
886.75	10628.17
887.067	10700.93
887.383	10616.64
887.7	10640.14
888.017	10583.87
888.334	10596.98
888.651	10559.69
888.967	10527.15
889.284	10506.14
889.6	10433.82
889.917	10386.59
890.233	10435.18
890.55	10353.15
890.866	10380.26
891.182	10381.17
891.498	10224.34
891.815	10245.58
892.131	10190.44
892.447	10166.94
892.763	10140.72
893.079	10109.31
893.395	10054.17
893.71	10067.05
894.026	10013.95
894.342	9998.13
894.657	9923.78
894.973	9984.57
895.289	9906.15
895.604	9860.73
895.92	9784.12
896.235	9731.02
896.55	9714.97
896.865	9669.1
897.181	9683.56
897.496	9636.78
897.811	9578.7
898.126	9624.58
898.441	9519.95
898.756	9478.82
899.071	9457.58
899.386	9398.82
899.7	9348.65
900.015	9334.42
900.33	9256.23
900.644	9252.38
900.959	9256
901.273	9287.64
901.588	9181.43
901.902	9127.64
902.216	9176.23
902.531	9118.83
902.845	9112.5
903.159	9045.61
903.473	8978.27
903.787	8998.15
904.101	8855.11
904.415	8920.64
904.729	8794.09
905.042	8807.42
905.356	8814.66
905.67	8847.87
905.984	8772.62
906.297	8739.85
906.611	8722.23
906.924	8558.84
907.237	8625.28
907.551	8669.8
907.864	8533.53
908.177	8526.75
908.491	8496.25
908.804	8410.82
909.117	8337.83
909.43	8294.89
909.743	8303.48
910.056	8317.27
910.368	8226.42
910.681	8201.11
910.994	8194.11
911.307	8187.33
911.619	8185.97
911.932	8106.88
912.244	8052.19
912.557	8034.79
912.869	7974.68
913.181	7948.69
913.494	7932.19
913.806	7886.09
914.118	7920.67
914.43	7788.92
914.742	7820.56
915.054	7760.45
915.366	7754.57
915.678	7643.61
915.99	7645.65
916.302	7671.18
916.613	7592.99
916.925	7635.03
917.236	7539.66
917.548	7445.2
917.859	7516.61
918.171	7422.6
918.482	7428.93
918.794	7350.51
919.105	7424.64
919.416	7291.53
919.727	7299.67
920.038	7329.27
920.349	7242.49
920.66	7181.93
920.971	7224.41
921.282	7145.32
921.593	7153.91
921.903	7021.26
922.214	7045.44
922.525	7042.95
922.835	7061.71
923.146	6896.97
923.456	6942.39
923.767	6912.78
924.077	6910.3
924.387	6874.14
924.697	6816.74
925.008	6818.55
925.318	6722.28
925.628	6774.48
925.938	6712.11
926.248	6632.79
926.558	6677.31
926.867	6565.9
927.177	6611.78
927.487	6590.53
927.796	6596.63
928.106	6541.04
928.416	6489.52
928.725	6440.03
929.034	6446.58
929.344	6515.96
929.653	6429.63
929.962	6397.09
930.271	6394.83
930.581	6352.35
930.89	6308.51
931.199	6222.41
931.508	6224.44
931.817	6226.02
932.125	6216.98
932.434	6148.96
932.743	6109.19
933.051	6095.4
933.36	6070.55
933.669	6054.05
933.977	6050.43
934.286	6022.19
934.594	6005.92
934.902	5961.85
935.21	5975.41
935.519	5883.66
935.827	5887.5
936.135	5869.2
936.443	5774.96
936.751	5774.28
937.059	5779.48
937.367	5740.61
937.674	5749.2
937.982	5718.24
938.29	5671.91
938.597	5706.94
938.905	5646.6
939.213	5622.65
939.52	5552.37
939.827	5567.51
940.135	5507.17
940.442	5528.64
940.749	5510.79
941.056	5539.94
941.363	5410.45
941.67	5450.45
941.977	5381.53
942.284	5332.26
942.591	5368.42
942.898	5327.06
943.205	5281.19
943.511	5291.58
943.818	5337.23
944.125	5253.39
944.431	5254.97
944.738	5207.97
945.044	5184.69
945.35	5177.24
945.657	5084.13
945.963	5083.91
946.269	5059.95
946.575	5110.57
946.881	5057.01
947.187	5049.78
947.493	5003.23
947.799	5016.34
948.105	4990.12
948.41	4919.62
948.716	4939.05
949.022	4899.05
949.327	4874.87
949.633	4843.23
949.938	4865.15
950.244	4821.31
950.549	4799.85
950.854	4760.98
951.16	4790.13
951.465	4727.76
951.77	4707.87
952.075	4719.62
952.38	4689.34
952.685	4650.92
952.99	4600.08
953.294	4606.86
953.599	4617.25
953.904	4592.85
954.209	4516.46
954.513	4522.56
954.818	4520.76
955.122	4514.88
955.426	4461.55
955.731	4443.24
956.035	4480.08
956.339	4427.2
956.643	4433.98
956.948	4401.66
957.252	4365.73
957.556	4339.74
957.86	4310.14
958.163	4300.42
958.467	4282.35
958.771	4255.45
959.075	4287.54
959.378	4255
959.682	4231.72
959.985	4234.44
960.289	4205.96
960.592	4125.74
960.896	4187.66
961.199	4148.11
961.502	4168.9
961.805	4083.93
962.108	4046.19
962.411	4063.59
962.714	4046.65
963.017	4012.3
963.32	3991.73
963.623	3998.51
963.926	3964.84
964.228	3920.32
964.531	3919.42
964.833	3971.84
965.136	3895.24
965.438	3867.67
965.741	3875.12
966.043	3831.28
966.345	3805.97
966.648	3801.91
966.95	3818.18
967.252	3767.1
967.554	3756.26
967.856	3746.54
968.158	3696.15
968.46	3722.36
968.761	3707.44
969.063	3684.17
969.365	3657.73
969.666	3661.12
969.968	3654.79
970.269	3602.14
970.571	3594.68
970.872	3604.62
971.174	3580.22
971.475	3564.62
971.776	3546.09
972.077	3518.98
972.378	3513.33
972.679	3520.33
972.98	3500.9
973.281	3430.16
973.582	3438.75
973.883	3473.55
974.183	3437.4
974.484	3434.46
974.785	3386.78
975.085	3371.41
975.386	3392.42
975.686	3380.67
975.986	3338.42
976.287	3352.65
976.587	3307.23
976.887	3264.29
977.187	3317.17
977.487	3274.69
977.787	3223.84
978.087	3215.71
978.387	3207.57
978.687	3207.57
978.987	3176.84
979.286	3191.53
979.586	3137.29
979.885	3122.83
980.185	3104.07
980.484	3126.22
980.784	3127.35
981.083	3104.07
981.382	3075.37
981.682	3063.17
981.981	3060
982.28	3016.39
982.579	3028.37
982.878	3033.79
983.177	3021.36
983.475	2980.91
983.774	2949.5
984.073	2946.56
984.372	2960.8
984.67	2911.53
984.969	2930.06
985.267	2900.01
985.566	2848.03
985.864	2844.19
986.162	2820.69
986.461	2799.45
986.759	2823.4
987.057	2823.4
987.355	2824.08
987.653	2782.5
987.951	2776.85
988.249	2746.34
988.547	2738.43
988.844	2740.69
989.142	2732.78
989.44	2717.41
989.737	2702.95
990.035	2679
990.332	2661.6
990.63	2649.39
990.927	2655.72
991.224	2647.36
991.521	2649.85
991.819	2613.69
992.116	2622.28
992.413	2589.96
992.71	2562.16
993.006	2564.42
993.303	2576.85
993.6	2515.84
993.897	2537.31
994.193	2515.61
994.49	2514.48
994.787	2507.7
995.083	2471.77
995.379	2453.92
995.676	2450.3
995.972	2420.7
996.268	2446.46
996.565	2408.27
996.861	2395.84
997.157	2386.8
997.453	2365.56
997.749	2394.94
998.044	2358.55
998.34	2346.35
998.636	2321.72
998.932	2337.54
999.227	2345.45
999.523	2301.15
999.818	2261.38
1000.114	2290.53
1000.409	2286.69
1000.704	2239.46
1001	2258.22
1001.295	2250.76
1001.59	2259.57
1001.885	2218.44
1002.18	2176.41
1002.475	2166.02
1002.77	2132.8
1003.065	2180.93
1003.359	2177.77
1003.654	2153.36
1003.949	2128.73
1004.243	2118.56
1004.538	2081.72
1004.832	2115.62
1005.127	2070.2
1005.421	2074.49
1005.715	2032.69
1006.009	2072.23
1006.304	2016.64
1006.598	1994.95
1006.892	1994.27
1007.186	1991.33
1007.48	2006.25
1007.773	1967.38
1008.067	1959.69
1008.361	1956.3
1008.655	1905.91
1008.948	1950.88
1009.242	1905.46
1009.535	1887.15
1009.829	1899.81
1010.122	1870.66
1010.415	1877.89
1010.708	1834.73
1011.001	1858.45
1011.295	1828.85
1011.588	1831.56
1011.881	1825.23
1012.173	1803.31
1012.466	1806.03
1012.759	1766.93
1013.052	1768.06
1013.344	1754.05
1013.637	1766.48
1013.93	1716.76
1014.222	1719.7
1014.514	1716.76
1014.807	1728.29
1015.099	1699.14
1015.391	1705.69
1015.683	1692.58
1015.976	1658.69
1016.268	1645.35
1016.56	1664.79
1016.851	1657.78
1017.143	1614.62
1017.435	1620.04
1017.727	1606.71
1018.018	1613.26
1018.31	1620.72
1018.602	1596.31
1018.893	1586.82
1019.185	1564.9
1019.476	1559.93
1019.767	1515.64
1020.058	1546.37
1020.35	1512.7
1020.641	1515.19
1020.932	1515.64
1021.223	1488.29
1021.514	1476.54
1021.804	1460.27
1022.095	1488.07
1022.386	1444.45
1022.677	1444.45
1022.967	1420.95
1023.258	1398.13
1023.548	1393.16
1023.839	1413.49
1024.129	1413.95
1024.419	1363.78
1024.709	1393.38
1025	1370.56
1025.29	1367.62
1025.58	1359.94
1025.87	1329.2
1026.16	1318.81
1026.449	1319.94
1026.739	1332.37
1027.029	1309.09
1027.319	1285.59
1027.608	1287.85
1027.898	1315.64
1028.187	1279.94
1028.477	1276.77
1028.766	1248.53
1029.055	1281.52
1029.344	1226.61
1029.634	1228.41
1029.923	1218.47
1030.212	1194.06
1030.501	1212.37
1030.79	1190.67
1031.078	1183.22
1031.367	1172.6
1031.656	1186.83
1031.945	1174.4
1032.233	1149.77
1032.522	1157.23
1032.81	1148.87
1033.099	1130.11
1033.387	1106.38
1033.675	1124.24
1033.963	1102.77
1034.251	1128.98
1034.54	1117.68
1034.828	1081.53
1035.116	1044.92
1035.403	1068.87
1035.691	1072.26
1035.979	1055.76
1036.267	1044.01
1036.554	1082.66
1036.842	1035.42
1037.129	1044.46
1037.417	1017.12
1037.704	1011.7
1037.992	1030.91
1038.279	1021.41
1038.566	989.78
1038.853	989.78
1039.14	989.78
