Data from hue_22_FLMS001491_00089.txt Node
Date: Tue Feb 07 17:10:47 GMT 2017
User: dcchb
Spectrometer: FLMS00149
Trigger mode: 0
Integration Time (sec): 2.000000E-2
Scans to average: 10
Electric dark correction enabled: true
Nonlinearity correction enabled: false
Boxcar width: 0
XAxis mode: Wavelengths
Number of Pixels in Spectrum: 2048
>>>>>Begin Spectral Data<<<<<
341.393	-27.37
341.776	-27.37
342.16	-27.37
342.543	-77.99
342.927	-87.48
343.31	-61.04
343.693	-87.26
344.077	-71.21
344.46	-78.22
344.843	-48.16
345.226	-35.96
345.61	-27.82
345.993	-4.77
346.376	10.59
346.759	19.18
347.142	17.82
347.525	46.75
347.908	62.34
348.291	86.3
348.674	73.42
349.057	98.05
349.44	128.78
349.823	135.34
350.206	156.58
350.588	200.19
350.971	207.2
351.354	228.44
351.737	242.9
352.119	249.46
352.502	269.12
352.884	268.21
353.267	289.68
353.65	303.92
354.032	288.78
354.414	318.83
354.797	314.31
355.179	314.77
355.562	331.94
355.944	310.25
356.326	319.51
356.709	320.87
357.091	331.04
357.473	353.18
357.855	343.69
358.238	345.95
358.62	335.33
359.002	340.98
359.384	337.82
359.766	349.12
360.148	358.38
360.53	341.66
360.912	328.32
361.294	339.62
361.676	332.39
362.057	330.13
362.439	315.9
362.821	323.13
363.203	316.57
363.584	321.77
363.966	314.77
364.348	318.83
364.729	335.78
365.111	333.07
365.493	319.74
365.874	325.39
366.256	323.13
366.637	340.98
367.019	336.23
367.4	322
367.781	322.9
368.163	309.57
368.544	308.66
368.925	314.54
369.306	322.9
369.688	306.4
370.069	300.98
370.45	320.19
370.831	324.03
371.212	320.87
371.593	310.25
371.974	304.82
372.355	304.6
372.736	307.99
373.117	299.85
373.498	324.93
373.879	336.01
374.26	290.81
374.641	310.7
375.021	327.42
375.402	345.5
375.783	338.49
376.163	331.04
376.544	322.45
376.925	327.65
377.305	330.36
377.686	340.75
378.066	310.25
378.447	309.79
378.827	332.39
379.208	348.21
379.588	358.15
379.968	324.26
380.349	310.92
380.729	350.47
381.109	364.93
381.489	321.09
381.87	333.75
382.25	339.62
382.63	345.95
383.01	324.03
383.39	333.75
383.77	369
384.15	343.47
384.53	331.94
384.91	369.45
385.29	371.71
385.67	372.39
386.049	361.54
386.429	345.27
386.809	352.5
387.189	348.89
387.568	367.65
387.948	354.54
388.328	388.44
388.707	380.98
389.087	369.45
389.466	365.84
389.846	371.04
390.225	361.32
390.605	363.13
390.984	383.92
391.363	373.75
391.743	365.39
392.122	366.74
392.501	382.56
392.881	378.04
393.26	373.07
393.639	403.12
394.018	377.36
394.397	391.83
394.776	381.43
395.155	397.48
395.534	397.02
395.913	393.18
396.292	406.74
396.671	400.41
397.05	409
397.429	387.98
397.808	399.28
398.186	399.28
398.565	432.73
398.944	391.15
399.323	397.7
399.701	371.04
400.08	408.77
400.458	411.03
400.837	413.07
401.215	421.88
401.594	404.71
401.972	422.11
402.351	404.48
402.729	438.83
403.107	430.47
403.486	424.37
403.864	439.73
404.242	436.8
404.62	429.34
404.999	435.21
405.377	435.89
405.755	448.32
406.133	445.16
406.511	427.08
406.889	436.34
407.267	441.77
407.645	448.32
408.023	459.17
408.401	463.91
408.779	446.51
409.156	452.16
409.534	448.1
409.912	457.13
410.29	467.08
410.667	469.11
411.045	454.65
411.422	477.25
411.8	477.47
412.178	497.81
412.555	496.91
412.933	516.79
413.31	504.59
413.687	497.36
414.065	490.58
414.442	515.89
414.819	497.13
415.197	494.87
415.574	526.06
415.951	519.96
416.328	491.26
416.705	507.76
417.082	548.43
417.46	524.25
417.837	529.9
418.214	544.14
418.591	535.32
418.967	511.6
419.344	548.21
419.721	545.04
420.098	564.48
420.475	542.33
420.852	545.49
421.228	557.02
421.605	538.94
421.982	544.36
422.358	571.48
422.735	569.22
423.111	573.97
423.488	573.97
423.864	596.57
424.241	598.83
424.617	594.53
424.994	589.79
425.37	624.81
425.746	587.3
426.123	616.68
426.499	593.85
426.875	608.32
427.251	626.85
427.627	643.34
428.003	627.3
428.379	615.32
428.756	624.36
429.132	644.25
429.507	658.03
429.883	677.92
430.259	681.08
430.635	679.5
431.011	673.17
431.387	671.59
431.763	683.8
432.138	672.04
432.514	696.22
432.89	695.55
433.265	719.73
433.641	728.54
434.016	715.21
434.392	733.96
434.767	743.91
435.143	762.44
435.518	743.46
435.894	769.67
436.269	761.31
436.644	751.59
437.02	760.86
437.395	792.72
437.77	780.06
438.145	806.28
438.52	781.42
438.895	775.54
439.271	816.67
439.646	792.49
440.021	813.96
440.395	835.2
440.77	814.41
441.145	840.4
441.52	827.52
441.895	838.37
442.27	859.16
442.645	853.28
443.019	891.93
443.394	845.15
443.769	870.68
444.143	868.42
444.518	863.23
444.892	869.33
445.267	877.24
445.641	888.99
446.016	884.24
446.39	897.12
446.764	898.25
447.139	928.08
447.513	912.72
447.887	917.91
448.262	942.55
448.636	929.44
449.01	940.96
449.384	974.86
449.758	947.07
450.132	949.78
450.506	959.04
450.88	956.56
451.254	980.28
451.628	998.14
452.002	990.23
452.376	988.65
452.75	991.36
453.123	977.35
453.497	1017.35
453.871	1018.93
454.244	1045.59
454.618	1072.71
454.992	1057.57
455.365	1040.17
455.739	1089.21
456.112	1107.29
456.486	1093.95
456.859	1125.59
457.232	1111.13
457.606	1120.39
457.979	1140.96
458.352	1180.05
458.725	1156.78
459.099	1156.78
459.472	1180.51
459.845	1218.02
460.218	1223.89
460.591	1229.77
460.964	1220.96
461.337	1261.86
461.71	1267.74
462.083	1305.47
462.456	1290.11
462.829	1281.75
463.201	1324.23
463.574	1321.74
463.947	1340.05
464.32	1408.07
464.692	1390.44
465.065	1391.12
465.438	1418.69
465.81	1443.1
466.183	1469.99
466.555	1474.28
466.928	1489.2
467.3	1493.04
467.672	1495.3
468.045	1545.69
468.417	1537.56
468.789	1576.65
469.161	1592.7
469.534	1600.16
469.906	1653.49
470.278	1649.87
470.65	1685.35
471.022	1673.37
471.394	1734.16
471.766	1779.13
472.138	1752.02
472.51	1790.66
472.882	1835.63
473.253	1832.01
473.625	1889.19
473.997	1890.54
474.369	1969.19
474.74	1970.77
475.112	1960.37
475.484	2024.1
475.855	2051.44
476.227	2072.91
476.598	2121.5
476.97	2156.98
477.341	2223.42
477.713	2227.71
478.084	2249.18
478.455	2305.45
478.827	2367.37
479.198	2387.48
479.569	2402.17
479.94	2505.67
480.311	2538.89
480.682	2561.49
481.053	2627.02
481.424	2686.23
481.795	2707.02
482.166	2772.78
482.537	2807.58
482.908	2903.4
483.279	2893.45
483.65	2942.72
484.021	3041.7
484.391	3085.77
484.762	3088.25
485.133	3120.79
485.503	3196.95
485.874	3281.92
486.244	3309.94
486.615	3340
486.985	3433.78
487.356	3487.11
487.726	3521.91
488.097	3572.99
488.467	3586.54
488.837	3690.27
489.207	3739.08
489.578	3789.93
489.948	3877.16
490.318	3918.96
490.688	3936.14
491.058	4011.17
491.428	4036.25
491.798	4085.06
492.168	4189.92
492.538	4212.74
492.908	4267.66
493.278	4331.38
493.648	4335
494.017	4433.75
494.387	4483.92
494.757	4498.38
495.126	4501.77
495.496	4584.03
495.866	4592.85
496.235	4698.83
496.605	4723.24
496.974	4743.35
497.344	4795.78
497.713	4803.24
498.082	4896.11
498.452	4969.56
498.821	4939.95
499.19	4958.94
499.559	5031.7
499.928	5098.14
500.298	5095.88
500.667	5106.73
501.036	5193.73
501.405	5210
501.774	5198.93
502.143	5264.47
502.512	5323.22
502.88	5299.72
503.249	5332.71
503.618	5391.02
503.987	5407.97
504.356	5454.07
504.724	5462.65
505.093	5473.05
505.462	5467.4
505.83	5519.6
506.199	5555.76
506.567	5655.42
506.936	5620.61
507.304	5741.06
507.672	5742.65
508.041	5771.35
508.409	5831.46
508.777	5895.18
509.145	5873.26
509.514	5866.94
509.882	5959.82
510.25	5939.25
510.618	5980.83
510.986	6003.2
511.354	6100.38
511.722	6094.95
512.09	6139.92
512.458	6153.93
512.826	6200.03
513.193	6223.76
513.561	6243.88
513.929	6258.56
514.297	6326.81
514.664	6346.25
515.032	6366.81
515.4	6430.76
515.767	6412.23
516.135	6425.57
516.502	6417.66
516.869	6533.13
517.237	6528.16
517.604	6506.02
517.972	6599.35
518.339	6600.25
518.706	6613.36
519.073	6676.63
519.44	6700.36
519.808	6819.23
520.175	6791.66
520.542	6792.11
520.909	6867.59
521.276	6887.47
521.643	6890.41
522.009	6986
522.376	7005.21
522.743	6962.95
523.11	7045.21
523.477	7135.83
523.843	7210.86
524.21	7233.91
524.577	7283.17
524.943	7289.27
525.31	7320.23
525.676	7358.87
526.043	7414.47
526.409	7503.05
526.776	7555.48
527.142	7504.18
527.508	7623.73
527.874	7659.43
528.241	7648.58
528.607	7755.47
528.973	7759.09
529.339	7816.94
529.705	7862.36
530.071	7897.39
530.437	7848.35
530.803	8067.1
531.169	7976.94
531.535	8017.61
531.901	8022.81
532.267	8079.31
532.632	8156.82
532.998	8164.73
533.364	8285.63
533.73	8271.84
534.095	8389.58
534.461	8364.05
534.826	8424.38
535.192	8363.14
535.557	8462.35
535.923	8442.01
536.288	8474.78
536.653	8608.56
537.019	8544.38
537.384	8566.98
537.749	8571.95
538.114	8708.22
538.479	8692.62
538.845	8729.46
539.21	8715.9
539.575	8815.56
539.94	8841.55
540.305	8893.75
540.67	8921.09
541.034	8913.86
541.399	8957.48
541.764	8944.82
542.129	8967.42
542.494	9057.81
542.858	9149.11
543.223	9128.77
543.587	9136
543.952	9160.63
544.316	9237.02
544.681	9307.3
545.045	9328.54
545.41	9357.24
545.774	9407.86
546.138	9406.73
546.503	9447.18
546.867	9475.43
547.231	9520.85
547.595	9539.83
547.959	9660.96
548.324	9628.19
548.688	9663.45
549.052	9636.55
549.416	9655.99
549.779	9738.92
550.143	9771.01
550.507	9855.31
550.871	9805.59
551.235	9844.01
551.599	9952.03
551.962	9956.77
552.326	9952.25
552.689	9966.49
553.053	9947.73
553.417	10017.56
553.78	10177.33
554.143	10065.92
554.507	10100.72
554.87	10157.9
555.234	10271.34
555.597	10309.08
555.96	10280.83
556.323	10365.35
556.686	10348.17
557.05	10463.65
557.413	10498.23
557.776	10527.83
558.139	10465.23
558.502	10550.88
558.865	10537.1
559.228	10711.1
559.59	10638.56
559.953	10647.38
560.316	10797.43
560.679	10746.13
561.041	10838.78
561.404	10910.42
561.767	10953.36
562.129	10882.85
562.492	11013.69
562.854	10952.68
563.217	10961.49
563.579	11090.53
563.941	11128.94
564.304	11146.57
564.666	11190.19
565.028	11286.45
565.39	11294.36
565.753	11375.04
566.115	11365.1
566.477	11468.14
566.839	11454.59
567.201	11528.48
567.563	11492.32
567.925	11596.73
568.287	11620.23
568.648	11727.8
569.01	11733
569.372	11772.09
569.734	11830.62
570.095	11804.41
570.457	11944.06
570.819	11945.42
571.18	11965.08
571.542	12065.42
571.903	12074.46
572.265	12161.46
572.626	12181.35
572.987	12264.96
573.349	12346.54
573.71	12379.53
574.071	12358.29
574.432	12531.62
574.794	12575.23
575.155	12566.42
575.516	12551.05
575.877	12773.87
576.238	12794.89
576.599	12877.15
576.96	12956.92
577.32	13035.34
577.681	13148.55
578.042	13231.04
578.403	13353.74
578.763	13367.98
579.124	13483.01
579.485	13672.38
579.845	13752.38
580.206	13817.91
580.566	13896.56
580.927	14088.64
581.287	14125.25
581.648	14300.16
582.008	14514.84
582.368	14562.3
582.728	14741.96
583.089	14936.53
583.449	14960.26
583.809	15239.35
584.169	15402.96
584.529	15533.57
584.889	15889.05
585.249	15927.01
585.609	16067.8
585.969	16315.02
586.329	16505.75
586.688	16672.08
587.048	16932.86
587.408	17075.91
587.768	17394.77
588.127	17621.88
588.487	17833.85
588.846	18053.51
589.206	18230.68
589.565	18552.48
589.925	18870.21
590.284	19141.84
590.643	19453.47
591.003	19782.28
591.362	20024.76
591.721	20305.88
592.08	20514.46
592.44	20882.59
592.799	21114.44
593.158	21405.06
593.517	21703.13
593.876	22049.56
594.235	22272.38
594.593	22666.27
594.952	23013.83
595.311	23204.33
595.67	23614.49
596.029	24048.6
596.387	24295.6
596.746	24670.51
597.104	24940.11
597.463	25209.48
597.822	25659.18
598.18	25817.37
598.538	26129
598.897	26660.74
599.255	26628.42
599.613	27392.92
599.972	27464.79
600.33	27807.38
600.688	28072.23
601.046	28508.15
601.404	28881.92
601.762	29154.23
602.12	29466.09
602.478	29880.09
602.836	30181.33
603.194	30163.47
603.552	30654.76
603.91	30816.34
604.268	31241.18
604.625	31392.14
604.983	31819.25
605.341	31861.51
605.698	32348.95
606.056	32663.75
606.413	32911.2
606.771	33245.43
607.128	33458.08
607.485	33624.85
607.843	33854.22
608.2	34281.1
608.557	34643.35
608.914	34612.39
609.272	35171.48
609.629	35350.23
609.986	35668.64
610.343	35814.62
610.7	36154.5
611.057	36344.55
611.414	36637.43
611.771	36846.23
612.127	36962.62
612.484	37319.67
612.841	37497.52
613.198	37599.44
613.554	37818.41
613.911	38287.33
614.267	38281.45
614.624	38356.03
614.98	38642.12
615.337	38874.66
615.693	39157.59
616.05	39181.09
616.406	39660.4
616.762	39595.31
617.118	39737.46
617.475	39971.58
617.831	40102.65
618.187	40399.59
618.543	40520.04
618.899	40863.08
619.255	40845
619.611	40959.8
619.967	41237.31
620.323	41456.96
620.678	41419.22
621.034	41456.28
621.39	41655.37
621.746	41700.57
622.101	42320.89
622.457	41991.18
622.812	42096.27
623.168	42432.3
623.523	42440.89
623.879	42704.39
624.234	42479.31
624.589	42638.4
624.945	42757.94
625.3	42874.78
625.655	43064.15
626.01	42908.45
626.365	43141.89
626.72	43109.35
627.075	43201.55
627.43	43296.23
627.785	43192.28
628.14	43472.95
628.495	43489.9
628.85	43476.79
629.205	43545.72
629.559	43817.12
629.914	43770.35
630.269	43781.65
630.623	43732.16
630.978	43779.61
631.332	43948.42
631.687	44027.74
632.041	43915.43
632.396	43975.09
632.75	43936.9
633.104	44036.55
633.459	43901.42
633.813	44069.55
634.167	44008.53
634.521	44006.27
634.875	44045.37
635.229	44008.76
635.583	43955.88
635.937	43956.33
636.291	44102.31
636.645	43968.99
636.999	43903.22
637.352	44046.95
637.706	43838.37
638.06	44102.99
638.413	43986.39
638.767	43913.39
639.121	44144.57
639.474	43853.06
639.828	43818.48
640.181	43923.56
640.534	43981.87
640.888	43902.77
641.241	43744.58
641.594	43885.37
641.947	43982.32
642.301	43903.68
642.654	43888.08
643.007	43818.93
643.36	43912.04
643.713	43813.28
644.066	43978.7
644.419	43709.78
644.771	43598.83
645.124	43250.81
645.477	43170.59
645.83	42865.51
646.182	42862.35
646.535	42664.84
646.888	42918.84
647.24	42483.6
647.593	42877.26
647.945	42711.39
648.298	42531.06
648.65	42599.53
649.002	42385.52
649.355	42624.84
649.707	42566.31
650.059	42785.97
650.411	43301.21
650.763	43208.78
651.115	43611.03
651.467	43512.5
651.819	43390.92
652.171	43337.14
652.523	43368.32
652.875	43271.15
653.227	43250.13
653.578	43466.85
653.93	43224.6
654.282	43159.74
654.633	43168.33
654.985	43296.23
655.337	43437.7
655.688	43195.9
656.039	43449.45
656.391	43024.38
656.742	43113.64
657.094	43091.72
657.445	43238.16
657.796	43105.05
658.147	43032.06
658.498	43179.4
658.849	43280.64
659.2	43079.07
659.551	43096.01
659.902	43133.98
660.253	43092.4
660.604	43126.3
660.955	42765.85
661.306	43105.96
661.656	42996.58
662.007	43139.85
662.358	43023.02
662.708	43050.59
663.059	42985.73
663.409	42714.55
663.76	43224.82
664.11	43049.69
664.461	43132.17
664.811	43092.62
665.161	43110.93
665.511	42832.97
665.862	42829.35
666.212	43139.85
666.562	43009.01
666.912	43021.89
667.262	42849.01
667.612	42970.59
667.962	42932.18
668.312	42873.19
668.662	43069.57
669.011	42995.68
669.361	42852.4
669.711	42887.88
670.06	42934.89
670.41	42830.48
670.76	42749.36
671.109	42872.97
671.459	42886.98
671.808	42857.15
672.157	42940.54
672.507	42629.81
672.856	42628.91
673.205	42688.79
673.554	42741.45
673.904	42625.97
674.253	42892.86
674.602	42693.31
674.951	42059.43
675.3	41829.15
675.649	42488.8
675.998	42580.1
676.346	42462.81
676.695	42584.16
677.044	42385.07
677.393	42483.15
677.741	42495.58
678.09	42499.65
678.438	42499.19
678.787	42442.02
679.135	42386.88
679.484	42065.76
679.832	42297.16
680.181	41929.94
680.529	42203.38
680.877	42033.89
681.225	41999.55
681.573	42253.78
681.922	41967.23
682.27	41898.53
682.618	41803.62
682.966	41903.05
683.314	41756.16
683.661	41863.96
684.009	41621.7
684.357	41477.07
684.705	41445.66
685.053	41510.52
685.4	41412.44
685.748	41169.51
686.095	41329.05
686.443	41021.72
686.79	41077.76
687.138	41237.08
687.485	41085.9
687.832	41071.66
688.18	41085.9
688.527	40845.45
688.874	40757.09
689.221	40779.01
689.568	40636.19
689.915	40465.8
690.262	40537.89
690.609	40418.12
690.956	40324.56
691.303	40197.33
691.65	40025.59
691.997	40023.33
692.344	39811.81
692.69	39839.6
693.037	39888.87
693.383	39479.39
693.73	39587.18
694.077	39233.74
694.423	39383.57
694.769	39323.68
695.116	39142.22
695.462	39217.92
695.808	39122.11
696.155	39140.41
696.501	38864.71
696.847	38900.42
697.193	38558.28
697.539	38764.15
697.885	38429.7
698.231	38218.18
698.577	38307.67
698.923	38240.32
699.269	38086.2
699.614	37846.21
699.96	37840.11
700.306	37852.08
700.651	37834.01
700.997	37754.01
701.342	37514.01
701.688	37566.89
702.033	37445.09
702.379	37360.12
702.724	37297.97
703.069	37416.39
703.415	36924.42
703.76	36997.64
704.105	36979.34
704.45	36920.58
704.795	36791.55
705.14	36525.11
705.485	36525.57
705.83	36592.91
706.175	36438.56
706.52	36364.44
706.865	36238.34
707.209	36270.43
707.554	36107.04
707.899	36206.25
708.243	35946.82
708.588	35818.69
708.932	35575.31
709.277	35677
709.621	35586.83
709.966	35347.74
710.31	35479.94
710.654	35202.21
710.998	35358.82
711.342	35287.63
711.687	35070.46
712.031	34979.39
712.375	35027.53
712.719	34867.53
713.063	34971.93
713.407	34970.35
713.75	34753.86
714.094	34789.11
714.438	34573.53
714.782	34580.98
715.125	34512.51
715.469	34722.45
715.812	34338.73
716.156	34193.2
716.499	34088.79
716.843	34232.52
717.186	34044.05
717.53	34253.99
717.873	34227.55
718.216	34111.84
718.559	33874.34
718.902	33672.31
719.246	33711.18
719.589	33588.69
719.932	33494.23
720.275	33507.11
720.617	33564.74
720.96	33428.7
721.303	33454.46
721.646	33435.48
721.989	33267.57
722.331	33357.74
722.674	33187.57
723.016	33233.9
723.359	33183.51
723.701	33235.26
724.044	32948.94
724.386	32835.49
724.729	32995.94
725.071	32835.72
725.413	32916.85
725.755	32860.35
726.097	32550.3
726.439	32523.86
726.782	32528.83
727.124	32784.42
727.465	32506.01
727.807	32516.63
728.149	32428.72
728.491	32396.63
728.833	32303.76
729.175	32175.17
729.516	32174.49
729.858	32160.26
730.199	32149.18
730.541	32061.5
730.882	32023.54
731.224	32128.84
731.565	31911
731.906	31849.3
732.248	31883.43
732.589	31758.23
732.93	31679.36
733.271	31663.55
733.612	31666.48
733.953	31649.31
734.294	31569.31
734.635	31438.02
734.976	31539.03
735.317	31428.52
735.658	31457.9
735.999	31354.4
736.339	31306.49
736.68	31381.52
737.021	31326.15
737.361	31185.14
737.702	31200.51
738.042	31123.9
738.383	31007.97
738.723	31054.3
739.063	30986.05
739.404	30944.24
739.744	30908.31
740.084	30707.19
740.424	30908.31
740.764	30741.31
741.104	30823.79
741.444	30702.89
741.784	30558.26
742.124	30584.48
742.464	30607.3
742.804	30532.95
743.143	30445.05
743.483	30404.6
743.823	30325.73
744.162	30365.95
744.502	30233.75
744.841	30147.43
745.181	30392.39
745.52	30200.31
745.86	30250.7
746.199	30160.53
746.538	30077.15
746.877	30228.1
747.216	30188.78
747.556	29999.41
747.895	30136.13
748.234	29897.49
748.573	29751.28
748.911	29837.38
749.25	29790.15
749.589	29794.89
749.928	29669.7
750.267	29728.68
750.605	29681
750.944	29558.06
751.283	29482.13
751.621	29455.69
751.96	29336.38
752.298	29407.11
752.636	29392.19
752.975	29296.6
753.313	29124.63
753.651	29221.58
753.989	28902.26
754.327	28955.82
754.666	28924.41
755.004	28925.99
755.342	28856.61
755.679	28936.61
756.017	28638.09
756.355	28805.32
756.693	28598.54
757.031	28660.01
757.368	28511.54
757.706	28409.85
758.044	28358.77
758.381	28403.52
758.719	28228.38
759.056	28264.54
759.394	28199.46
759.731	27956.98
760.068	27887.15
760.405	27807.83
760.743	27751.78
761.08	27747.94
761.417	27650.32
761.754	27645.8
762.091	27632.69
762.428	27559.02
762.765	27381.85
763.102	27390.66
763.438	27351.79
763.775	27215.98
764.112	27263.66
764.449	27227.28
764.785	27061.63
765.122	26930.79
765.458	26754.52
765.795	26860.51
766.131	26836.78
766.467	26632.49
766.804	26499.61
767.14	26395.66
767.476	26434.76
767.812	26257.81
768.148	26245.84
768.485	26140.08
768.821	25916.58
769.157	25924.71
769.492	25867.54
769.828	25783.02
770.164	25678.62
770.5	25511.62
770.836	25554.55
771.171	25349.14
771.507	25219.42
771.842	25320.89
772.178	25257.61
772.513	25090.84
772.849	25083.83
773.184	24832.09
773.519	24900.33
773.855	24751.19
774.19	24642.49
774.525	24506.67
774.86	24500.12
775.195	24509.84
775.53	24352.33
775.865	24244.53
776.2	24106.23
776.535	23951.43
776.87	23993.24
777.205	23938.78
777.539	23741.72
777.874	23773.36
778.209	23584.89
778.543	23531.33
778.878	23410.43
779.212	23285.91
779.547	23345.35
779.881	23344.44
780.215	23047.95
780.55	23161.4
780.884	22982.42
781.218	22860.61
781.552	22918.69
781.886	22762.99
782.22	22694.52
782.554	22555.31
782.888	22415.65
783.222	22265.15
783.556	22169.56
783.889	22180.41
784.223	22055.66
784.557	22029.67
784.89	22085.49
785.224	21868.32
785.557	21873.07
785.891	21779.74
786.224	21689.57
786.558	21554.66
786.891	21462.46
787.224	21459.07
787.557	21316.93
787.891	21328.45
788.224	21235.35
788.557	21191.73
788.89	21141.34
789.223	21164.16
789.556	21053.88
789.888	20970.49
790.221	20728.92
790.554	20654.57
790.887	20617.28
791.219	20619.54
791.552	20427.91
791.884	20369.61
792.217	20377.06
792.549	20221.81
792.882	20098.88
793.214	20072.66
793.546	20167.13
793.879	19991.31
794.211	19894.82
794.543	19842.39
794.875	19825.21
795.207	19931.2
795.539	19783.18
795.871	19744.76
796.203	19590.19
796.535	19377.54
796.867	19411.66
797.198	19305
797.53	19370.08
797.862	19234.27
798.193	19255.06
798.525	19127.83
798.856	19134.38
799.188	18877.44
799.519	18863.66
799.85	18788.4
800.182	18862.53
800.513	18894.39
800.844	18679.93
801.175	18795.64
801.506	18617.79
801.837	18539.6
802.168	18527.85
802.499	18423.89
802.83	18246.95
803.161	18305.71
803.491	18257.57
803.822	18287.85
804.153	18194.07
804.483	18091.93
804.814	18043.79
805.145	18009.44
805.475	17913.63
805.805	17898.03
806.136	17822.1
806.466	17839.95
806.796	17862.55
807.126	17644.25
807.457	17601.09
807.787	17652.61
808.117	17563.58
808.447	17425.28
808.777	17649
809.107	17486.97
809.436	17336.01
809.766	17348.44
810.096	17322.45
810.426	17119.52
810.755	17231.38
811.085	17279.97
811.414	17061.44
811.744	16950.49
812.073	17009.02
812.403	16962.69
812.732	16822.13
813.061	16884.5
813.39	16702.36
813.719	16749.59
814.049	16788.68
814.378	16652.64
814.707	16553.66
815.036	16638.18
815.365	16496.71
815.693	16363.61
816.022	16428.69
816.351	16329.03
816.68	16268.47
817.008	16317.06
817.337	16148.02
817.665	16110.06
817.994	16185.08
818.322	16113.67
818.651	16013.56
818.979	16028.93
819.307	16079.55
819.636	15975.14
819.964	15852.89
820.292	16044.3
820.62	16001.58
820.948	15870.74
821.276	15987.12
821.604	15797.75
821.932	15831.42
822.259	15885.88
822.587	15851.98
822.915	15844.53
823.243	15882.04
823.57	15722.27
823.898	15792.55
824.225	15757.98
824.553	15814.25
824.88	15865.77
825.207	15890.4
825.535	15909.38
825.862	15848.14
826.189	15796.62
826.516	15754.59
826.843	15847.01
827.17	15792.1
827.497	15886.33
827.824	15840.91
828.151	15934.47
828.478	15745.55
828.805	15779.67
829.131	15703.74
829.458	15719.11
829.785	15721.37
830.111	15765.66
830.438	15846.33
830.764	15753.46
831.09	15815.38
831.417	15615.83
831.743	15679.11
832.069	15723.63
832.395	15632.78
832.722	15728.37
833.048	15650.41
833.374	15666
833.7	15516.85
834.026	15526.34
834.351	15555.04
834.677	15590.52
835.003	15676.4
835.329	15563.18
835.654	15529.51
835.98	15494.25
836.306	15439.11
836.631	15446.8
836.956	15531.09
837.282	15441.15
837.607	15392.11
837.932	15392.34
838.258	15361.15
838.583	15259.46
838.908	15210.87
839.233	15259.91
839.558	15330.19
839.883	15167.71
840.208	15156.86
840.533	15067.6
840.858	15120.7
841.182	15118.22
841.507	15037.77
841.832	15085.9
842.156	15010.88
842.481	15041.16
842.805	14985.57
843.13	14929.97
843.454	14896.76
843.778	14790.77
844.103	14791.45
844.427	14735.86
844.751	14787.61
845.075	14642.98
845.399	14540.83
845.723	14545.58
846.047	14592.58
846.371	14525.92
846.695	14516.2
847.019	14325.92
847.343	14341.97
847.666	14192.37
847.99	14216.77
848.313	14208.41
848.637	14120.05
848.96	14122.31
849.284	13916.89
849.607	13944.01
849.931	13923.9
850.254	13776.11
850.577	13698.14
850.9	13612.95
851.223	13553.06
851.546	13584.93
851.869	13416.34
852.192	13515.1
852.515	13370.47
852.838	13285.5
853.161	13274.2
853.483	13204.37
853.806	13205.27
854.129	13140.19
854.451	13063.36
854.774	13095.22
855.096	13009.8
855.419	13002.57
855.741	12968.9
856.063	12926.86
856.385	12825.62
856.708	12787.43
857.03	12768.22
857.352	12796.02
857.674	12694.1
857.996	12623.59
858.318	12642.35
858.64	12617.04
858.961	12616.82
859.283	12528.23
859.605	12470.15
859.926	12546.08
860.248	12450.94
860.57	12413.66
860.891	12414.11
861.212	12385.63
861.534	12294.11
861.855	12324.62
862.176	12306.99
862.498	12237.84
862.819	12245.07
863.14	12272.19
863.461	12206.66
863.782	12054.34
864.103	12139.54
864.424	12033.1
864.745	12093.67
865.065	11933.9
865.386	11884.63
865.707	12071.07
866.027	11985.42
866.348	11881.24
866.668	11872.43
866.989	11867.23
867.309	11793.79
867.63	11929.38
867.95	11850.28
868.27	11809.83
868.59	11846.44
868.91	11800.57
869.23	11711.98
869.55	11730.28
869.87	11771.64
870.19	11732.32
870.51	11717.4
870.83	11785.65
871.15	11586.11
871.469	11674.47
871.789	11598.08
872.109	11598.99
872.428	11563.96
872.748	11582.27
873.067	11486.45
873.386	11487.58
873.706	11539.1
874.025	11436.51
874.344	11409.39
874.663	11508.14
874.982	11351.99
875.301	11413
875.62	11319
875.939	11349.05
876.258	11348.83
876.577	11260.01
876.896	11349.96
877.214	11269.51
877.533	11226.8
877.852	11254.14
878.17	11213.24
878.489	11192.67
878.807	11223.41
879.125	11173.46
879.444	11128.72
879.762	11133.92
880.08	11112.67
880.398	11058.44
880.716	11088.49
881.034	10975.5
881.352	11053.47
881.67	10965.56
881.988	10967.59
882.306	10962.62
882.624	10956.97
882.941	10856.18
883.259	10814.83
883.577	10818.22
883.894	10803.53
884.212	10780.25
884.529	10824.55
884.846	10670.2
885.164	10675.85
885.481	10703.87
885.798	10760.14
886.115	10588.39
886.432	10634.72
886.75	10551.33
887.067	10637.88
887.383	10553.37
887.7	10595.4
888.017	10507.27
888.334	10516.98
888.651	10490.32
888.967	10474.27
889.284	10355.63
889.6	10453.71
889.917	10321.06
890.233	10215.52
890.55	10225.92
890.866	10309.76
891.182	10259.59
891.498	10167.61
891.815	10166.71
892.131	10129.65
892.447	10154.96
892.763	10049.2
893.079	10027.28
893.395	10017.11
893.71	9930.33
894.026	9922.42
894.342	9948.86
894.657	9877.23
894.973	9848.53
895.289	9822.99
895.604	9883.1
895.92	9796.1
896.235	9654.63
896.55	9659.6
896.865	9686.72
897.181	9671.36
897.496	9586.84
897.811	9540.29
898.126	9568.99
898.441	9482.43
898.756	9478.59
899.071	9420.74
899.386	9427.75
899.7	9337.81
900.015	9320.86
900.33	9247.41
900.644	9233.4
900.959	9235.66
901.273	9204.93
901.588	9122.44
901.902	9085.38
902.216	9077.7
902.531	8985.72
902.845	9018.27
903.159	9011.26
903.473	8955.22
903.787	8959.06
904.101	8888.55
904.415	8917.93
904.729	8854.65
905.042	8850.36
905.356	8765.62
905.67	8774.88
905.984	8727.2
906.297	8669.8
906.611	8655.56
906.924	8694.66
907.237	8654.43
907.551	8614.66
907.864	8544.83
908.177	8520.65
908.491	8475.23
908.804	8423.71
909.117	8331.05
909.43	8422.8
909.743	8284.5
910.056	8276.59
910.368	8277.27
910.681	8296.02
910.994	8232.98
911.307	8193.65
911.619	8132.41
911.932	8155.24
912.244	8054.68
912.557	8054.45
912.869	7984.39
913.181	7936.71
913.494	7887
913.806	7866.21
914.118	7868.47
914.43	7805.42
914.742	7795.47
915.054	7764.06
915.366	7736.72
915.678	7731.52
915.99	7665.31
916.302	7609.04
916.613	7513.67
916.925	7599.32
917.236	7512.32
917.548	7473.67
917.859	7420.34
918.171	7427.35
918.482	7360.46
918.794	7407.46
919.105	7361.13
919.416	7261.25
919.727	7312.1
920.038	7245.66
920.349	7229.61
920.66	7173.12
920.971	7139.45
921.282	7123.4
921.593	7040.69
921.903	7080.69
922.214	7019.67
922.525	6994.59
922.835	6939
923.146	6924.99
923.456	6917.08
923.767	6924.76
924.077	6852.45
924.387	6821.94
924.697	6779.23
925.008	6722.28
925.318	6750.98
925.628	6748.27
925.938	6666.01
926.248	6588.73
926.558	6575.84
926.867	6642.06
927.177	6577.2
927.487	6537.65
927.796	6468.28
928.106	6487.26
928.416	6411.78
928.725	6427.6
929.034	6426.92
929.344	6400.93
929.653	6337.43
929.962	6366.81
930.271	6319.35
930.581	6242.52
930.89	6271.9
931.199	6179.7
931.508	6171.79
931.817	6161.84
932.125	6160.94
932.434	6113.26
932.743	6074.39
933.051	6052.02
933.36	6028.29
933.669	5969.76
933.977	5915.75
934.286	5985.8
934.594	5931.57
934.902	5876.2
935.21	5822.19
935.519	5903.77
935.827	5871
936.135	5785.81
936.443	5791.01
936.751	5696.32
937.059	5741.74
937.367	5683.66
937.674	5685.47
937.982	5666.04
938.29	5649.09
938.597	5630.11
938.905	5561.86
939.213	5547.85
939.52	5515.76
939.827	5561.63
940.135	5501.97
940.442	5436.66
940.749	5394.18
941.056	5423.33
941.363	5381.53
941.67	5401.86
941.977	5374.97
942.284	5320.06
942.591	5261.75
942.898	5242.32
943.205	5286.16
943.511	5253.17
943.818	5200.74
944.125	5151.47
944.431	5164.36
944.738	5167.29
945.044	5127.07
945.35	5065.6
945.657	5066.05
945.963	5031.48
946.269	4993.96
946.575	5002.33
946.881	4971.59
947.187	4968.2
947.493	4940.41
947.799	4895.44
948.105	4853.86
948.41	4832.61
948.716	4818.6
949.022	4832.61
949.327	4834.87
949.633	4719.85
949.938	4756.23
950.244	4800.98
950.549	4738.15
950.854	4699.74
951.16	4665.61
951.465	4643.24
951.77	4623.35
952.075	4629
952.38	4624.71
952.685	4603.69
952.99	4537.25
953.294	4537.48
953.599	4561.21
953.904	4510.81
954.209	4473.3
954.513	4497.93
954.818	4473.75
955.122	4408.44
955.426	4396.47
955.731	4403.7
956.035	4364.38
956.339	4347.43
956.643	4332.74
956.948	4311.04
957.252	4320.31
957.556	4284.83
957.86	4219.97
958.163	4212.97
958.467	4198.96
958.771	4181.78
959.075	4207.09
959.378	4117.38
959.682	4148.79
959.985	4109.92
960.289	4106.3
960.592	4064.5
960.896	4075.12
961.199	4043.93
961.502	4034.89
961.805	4032.86
962.108	4015.69
962.411	4021.33
962.714	3959.64
963.017	3944.27
963.32	3940.89
963.623	3919.64
963.926	3899.3
964.228	3904.28
964.531	3890.49
964.833	3852.53
965.136	3802.13
965.438	3796.93
965.741	3786.31
966.043	3770.72
966.345	3740.21
966.648	3748.8
966.95	3721.46
967.252	3726.88
967.554	3696.37
967.856	3670.16
968.158	3666.77
968.46	3638.75
968.761	3609.82
969.063	3619.54
969.365	3606.43
969.666	3592.87
969.968	3524.62
970.269	3589.03
970.571	3520.33
970.872	3527.34
971.174	3507.22
971.475	3493.21
971.776	3478.52
972.077	3447.34
972.378	3445.76
972.679	3450.73
972.98	3406.89
973.281	3431.52
973.582	3375.48
973.883	3400.11
974.183	3355.59
974.484	3319.66
974.785	3349.26
975.085	3324.63
975.386	3317.4
975.686	3300.68
975.986	3292.54
976.287	3249.6
976.587	3296.38
976.887	3256.38
977.187	3223.39
977.487	3213.22
977.787	3216.38
978.087	3141.36
978.387	3166.22
978.687	3142.04
978.987	3176.16
979.286	3126.22
979.586	3086.9
979.885	3100
980.185	3066.11
980.484	3055.94
980.784	3056.39
981.083	3045.32
981.382	3034.47
981.682	3055.26
981.981	2994.92
982.28	2971.65
982.579	2951.08
982.878	2944.75
983.177	2977.97
983.475	2981.36
983.774	2908.6
984.073	2911.31
984.372	2892.55
984.67	2893.91
984.969	2866.11
985.267	2865.43
985.566	2806.9
985.864	2814.36
986.162	2808.26
986.461	2768.26
986.759	2764.87
987.057	2749.73
987.355	2738.43
987.653	2740.92
987.951	2751.99
988.249	2736.17
988.547	2673.8
988.844	2729.62
989.142	2659.79
989.44	2693.46
989.737	2664.99
990.035	2652.78
990.332	2631.99
990.63	2643.97
990.927	2624.08
991.224	2608.72
991.521	2580.47
991.819	2571.88
992.116	2535.95
992.413	2557.19
992.71	2564.88
993.006	2525.56
993.303	2538.21
993.6	2526.01
993.897	2521.26
994.193	2474.26
994.49	2481.04
994.787	2453.47
995.083	2436.97
995.379	2435.61
995.676	2427.7
995.972	2441.49
996.268	2405.11
996.565	2400.36
996.861	2356.75
997.157	2343.41
997.453	2326.69
997.749	2348.84
998.044	2340.7
998.34	2342.51
998.636	2316.07
998.932	2305.45
999.227	2247.14
999.523	2304.77
999.818	2272.68
1000.114	2237.43
1000.409	2233.59
1000.704	2233.13
1001	2224.09
1001.295	2197.65
1001.59	2201.04
1001.885	2174.38
1002.18	2181.84
1002.475	2174.6
1002.77	2129.18
1003.065	2126.02
1003.359	2113.36
1003.654	2100.71
1003.949	2079.24
1004.243	2104.78
1004.538	2084.66
1004.832	2076.53
1005.127	2057.77
1005.421	2057.09
1005.715	2010.54
1006.009	2011.9
1006.304	1980.94
1006.598	1970.54
1006.892	1990.88
1007.186	1971.45
1007.48	1954.72
1007.773	1936.64
1008.067	1935.97
1008.361	1932.8
1008.655	1915.63
1008.948	1931.22
1009.242	1898.45
1009.535	1873.37
1009.829	1851.67
1010.122	1856.42
1010.415	1862.97
1010.708	1838.79
1011.001	1825.91
1011.295	1822.07
1011.588	1804.44
1011.881	1787.72
1012.173	1775.07
1012.466	1777.1
1012.759	1787.04
1013.052	1768.51
1013.344	1754.5
1013.637	1752.02
1013.93	1760.6
1014.222	1701.4
1014.514	1685.8
1014.807	1682.64
1015.099	1669.08
1015.391	1674.5
1015.683	1692.36
1015.976	1659.14
1016.268	1633.6
1016.56	1621.85
1016.851	1651.68
1017.143	1633.38
1017.435	1610.32
1017.727	1636.54
1018.018	1560.38
1018.31	1631.57
1018.602	1568.07
1018.893	1537.56
1019.185	1560.61
1019.476	1527.16
1019.767	1554.96
1020.058	1529.42
1020.35	1492.36
1020.641	1485.58
1020.932	1508.18
1021.223	1503.66
1021.514	1462.53
1021.804	1438.8
1022.095	1469.76
1022.386	1397.22
1022.677	1434.06
1022.967	1424.79
1023.258	1414.17
1023.548	1372.14
1023.839	1394.29
1024.129	1370.78
1024.419	1360.39
1024.709	1394.51
1025	1356.32
1025.29	1350.9
1025.58	1349.31
1025.87	1314.74
1026.16	1322.87
1026.449	1302.31
1026.739	1300.5
1027.029	1316.1
1027.319	1279.26
1027.608	1258.02
1027.898	1286.04
1028.187	1265.93
1028.477	1243.1
1028.766	1228.41
1029.055	1244.68
1029.344	1237.91
1029.634	1215.31
1029.923	1203.33
1030.212	1219.37
1030.501	1176.66
1030.79	1206.49
1031.078	1170.11
1031.367	1161.75
1031.656	1143.22
1031.945	1167.17
1032.233	1153.61
1032.522	1139.6
1032.81	1121.07
1033.099	1120.85
1033.387	1122.43
1033.675	1117.46
1033.963	1095.31
1034.251	1091.92
1034.54	1071.58
1034.828	1102.09
1035.116	1074.29
1035.403	1051.92
1035.691	1044.92
1035.979	1054.63
1036.267	1048.53
1036.554	1047.85
1036.842	1046.27
1037.129	1013.05
1037.417	1041.98
1037.704	1037.91
1037.992	1015.76
1038.279	1022.32
1038.566	971.02
1038.853	971.02
1039.14	971.02
