Data from hue_140_FLMS001491_00032.txt Node
Date: Tue Feb 07 16:55:49 GMT 2017
User: dcchb
Spectrometer: FLMS00149
Trigger mode: 0
Integration Time (sec): 2.000000E-2
Scans to average: 10
Electric dark correction enabled: true
Nonlinearity correction enabled: false
Boxcar width: 0
XAxis mode: Wavelengths
Number of Pixels in Spectrum: 2048
>>>>>Begin Spectral Data<<<<<
341.393	-2.73
341.776	-2.73
342.16	-2.73
342.543	-55.61
342.927	-68.94
343.31	-66.23
343.693	-50.63
344.077	-46.79
344.46	-67.81
344.843	-55.61
345.226	-46.79
345.61	-47.24
345.993	-21.71
346.376	-9.28
346.759	13.32
347.142	28.69
347.525	50.83
347.908	55.35
348.291	52.87
348.674	105.07
349.057	105.97
349.44	111.85
349.823	135.35
350.206	168.12
350.588	203.37
350.971	199.53
351.354	227.1
351.737	222.35
352.119	258.28
352.502	250.15
352.884	287.44
353.267	276.81
353.65	305.29
354.032	275.23
354.414	312.07
354.797	327.43
355.179	330.15
355.562	332.63
355.944	319.75
356.326	325.18
356.709	338.06
357.091	337.83
357.473	339.64
357.855	330.82
358.238	329.24
358.62	343.03
359.002	346.19
359.384	340.09
359.766	358.39
360.148	341.45
360.53	338.73
360.912	339.19
361.294	325.63
361.676	333.76
362.057	333.31
362.439	343.25
362.821	345.97
363.203	330.15
363.584	309.58
363.966	314.55
364.348	326.08
364.729	316.59
365.111	330.6
365.493	346.87
365.874	305.29
366.256	312.97
366.637	307.55
367.019	326.3
367.4	318.4
367.781	290.83
368.163	312.07
368.544	307.77
368.925	314.78
369.306	308.23
369.688	326.53
370.069	310.26
370.45	308
370.831	301.22
371.212	310.71
371.593	306.64
371.974	315.01
372.355	318.17
372.736	317.49
373.117	318.17
373.498	317.72
373.879	319.75
374.26	322.46
374.641	313.88
375.021	314.78
375.402	336.7
375.783	338.73
376.163	357.26
376.544	310.03
376.925	315.01
377.305	326.08
377.686	349.81
378.066	333.99
378.447	357.26
378.827	319.53
379.208	336.47
379.588	340.09
379.968	325.18
380.349	341.67
380.729	340.32
381.109	341.45
381.489	357.26
381.87	322.92
382.25	359.07
382.63	331.73
383.01	350.26
383.39	345.97
383.77	340.77
384.15	345.51
384.53	350.94
384.91	360.43
385.29	355.68
385.67	353.2
386.049	359.52
386.429	359.52
386.809	363.14
387.189	359.07
387.568	370.15
387.948	361.78
388.328	388.22
388.707	365.63
389.087	377.38
389.466	393.87
389.846	387.77
390.225	360.2
390.605	375.8
390.984	365.17
391.363	380.99
391.743	369.02
392.122	383.48
392.501	388.22
392.881	387.55
393.26	391.84
393.639	382.35
394.018	402.46
394.397	399.3
394.776	388.22
395.155	367.21
395.534	407.88
395.913	390.48
396.292	406.08
396.671	395.91
397.05	402.46
397.429	404.5
397.808	422.57
398.186	420.99
398.565	418.73
398.944	399.75
399.323	403.37
399.701	418.28
400.08	420.99
400.458	407.66
400.837	416.92
401.215	411.95
401.594	418.51
401.972	408.79
402.351	407.88
402.729	423.93
403.107	406.53
403.486	434.1
403.864	419.18
404.242	426.87
404.62	414.21
404.999	425.74
405.377	411.27
405.755	425.29
406.133	436.81
406.511	433.65
406.889	470.03
407.267	442.01
407.645	450.37
408.023	482.91
408.401	492.4
408.779	441.1
409.156	458.96
409.534	474.78
409.912	462.57
410.29	486.07
410.667	500.99
411.045	452.18
411.422	481.56
411.8	493.31
412.178	466.87
412.555	495.11
412.933	485.62
413.31	509.35
413.687	510.25
414.065	495.34
414.442	508.45
414.819	529.24
415.197	509.13
415.574	486.75
415.951	543.93
416.328	517.03
416.705	537.82
417.082	525.62
417.46	525.85
417.837	529.01
418.214	540.54
418.591	520.42
418.967	537.6
419.344	537.6
419.721	547.99
420.098	559.75
420.475	557.71
420.852	567.43
421.228	568.78
421.605	566.98
421.982	575.79
422.358	569.01
422.735	577.37
423.111	580.99
423.488	583.02
423.864	599.97
424.241	583.02
424.617	608.78
424.994	591.83
425.37	611.95
425.746	601.1
426.123	598.39
426.499	611.72
426.875	622.57
427.251	638.84
427.627	628.67
428.003	649.23
428.379	665.51
428.756	634.55
429.132	646.52
429.507	658.27
429.883	695.56
430.259	664.38
430.635	658.95
431.011	710.25
431.387	671.15
431.763	700.31
432.138	696.24
432.514	707.76
432.89	702.11
433.265	719.74
433.641	704.83
434.016	714.77
434.392	736.24
434.767	752.51
435.143	760.19
435.518	761.1
435.894	778.27
436.269	776.69
436.644	775.33
437.02	760.42
437.395	783.02
437.77	816.46
438.145	801.55
438.52	821.21
438.895	813.98
439.271	814.88
439.646	847.65
440.021	826.63
440.395	826.86
440.77	845.84
441.145	834.54
441.52	844.03
441.895	856.01
442.27	866.18
442.645	849.23
443.019	859.17
443.394	896.23
443.769	910.92
444.143	884.26
444.518	892.17
444.892	922.45
445.267	890.36
445.641	924.48
446.016	916.8
446.39	901.88
446.764	937.36
447.139	915.67
447.513	968.1
447.887	932.39
448.262	952.05
448.636	977.14
449.01	946.18
449.384	989.34
449.758	978.72
450.132	1000.64
450.506	984.14
450.88	994.31
451.254	1014.42
451.628	994.76
452.002	1021.88
452.376	1013.29
452.75	1044.7
453.123	1050.35
453.497	1061.65
453.871	1063.01
454.244	1079.73
454.618	1081.54
454.992	1095.1
455.365	1071.6
455.739	1135.32
456.112	1136.91
456.486	1147.98
456.859	1159.05
457.232	1182.33
457.606	1180.07
457.979	1177.36
458.352	1217.13
458.725	1239.28
459.099	1236.11
459.472	1262.78
459.845	1243.79
460.218	1302.78
460.591	1301.65
460.964	1303
461.337	1321.31
461.71	1363.79
462.083	1378.93
462.456	1375.54
462.829	1396.79
463.201	1395.43
463.574	1413.51
463.947	1410.34
464.32	1478.82
464.692	1486.27
465.065	1507.29
465.438	1514.52
465.81	1528.31
466.183	1549.32
466.555	1610.11
466.928	1611.47
467.3	1615.54
467.672	1629.1
468.045	1659.38
468.417	1710.22
468.789	1725.36
469.161	1729.88
469.534	1765.14
469.906	1813.72
470.278	1845.59
470.65	1856.89
471.022	1911.57
471.394	1926.26
471.766	1932.36
472.138	2014.62
472.51	2067.73
472.882	2085.13
473.253	2127.39
473.625	2148.86
473.997	2232.92
474.369	2238.35
474.74	2289.19
475.112	2337.78
475.484	2384.56
475.855	2455.74
476.227	2482.41
476.598	2611.89
476.97	2638.79
477.341	2712.91
477.713	2747.48
478.084	2778.67
478.455	2918.1
478.827	2990.87
479.198	3089.62
479.569	3152.9
479.94	3223.18
480.311	3287.81
480.682	3419.33
481.053	3532.77
481.424	3606.22
481.795	3672.66
482.166	3780.45
482.537	3854.35
482.908	4040.11
483.279	4078.3
483.65	4213.21
484.021	4298.18
484.391	4420.89
484.762	4529.36
485.133	4598.06
485.503	4737.71
485.874	4924.83
486.244	5016.8
486.615	5166.18
486.985	5282.56
487.356	5490.69
487.726	5480.52
488.097	5716.67
488.467	5800.06
488.837	5968.64
489.207	6052.93
489.578	6273.72
489.948	6342.87
490.318	6507.61
490.688	6645.91
491.058	6820.82
491.428	6983.98
491.798	7073.92
492.168	7307.14
492.538	7421.94
492.908	7530.64
493.278	7791.42
493.648	7809.72
494.017	8051.98
494.387	8120.45
494.757	8272.99
495.126	8444.06
495.496	8549.37
495.866	8650.61
496.235	8796.59
496.605	8981.44
496.974	9115.45
497.344	9186.41
497.713	9283.13
498.082	9474.31
498.452	9664.14
498.821	9716.34
499.19	9880.86
499.559	9924.92
499.928	10038.37
500.298	10106.16
500.667	10301.86
501.036	10400.16
501.405	10485.13
501.774	10514.29
502.143	10692.13
502.512	10797.67
502.88	10894.84
503.249	10955.18
503.618	11134.38
503.987	11093.48
504.356	11254.61
504.724	11370.31
505.093	11386.35
505.462	11502.06
505.83	11563.98
506.199	11662.73
506.567	11861.14
506.936	11840.13
507.304	11977.98
507.672	12058.2
508.041	12162.38
508.409	12232.88
508.777	12384.97
509.145	12300.68
509.514	12383.39
509.882	12450.51
510.25	12494.8
510.618	12647.79
510.986	12604.17
511.354	12751.51
511.722	12853.66
512.09	12989.93
512.458	12918.97
512.826	12980.66
513.193	13048.46
513.561	13065.86
513.929	13176.59
514.297	13258.39
514.664	13358.28
515.032	13364.83
515.4	13453.19
515.767	13487.31
516.135	13542.91
516.502	13337.71
516.869	13673.52
517.237	13612.51
517.604	13496.81
517.972	13677.59
518.339	13728.89
518.706	13704.26
519.073	13803.24
519.44	13875.1
519.808	13929.11
520.175	13912.39
520.542	14001.88
520.909	14031.48
521.276	13986.06
521.643	14151.25
522.009	14089.11
522.376	14208.43
522.743	14257.92
523.11	14234.64
523.477	14374.52
523.843	14377.46
524.21	14526.38
524.577	14508.98
524.943	14501.07
525.31	14499.27
525.676	14562.99
526.043	14655.19
526.409	14646.83
526.776	14739.26
527.142	14632.6
527.508	14715.98
527.874	14742.65
528.241	14732.71
528.607	14775.19
528.973	14944.68
529.339	14790.78
529.705	14840.27
530.071	14904.9
530.437	14925.47
530.803	14956.65
531.169	14875.3
531.535	14839.82
531.901	14899.48
532.267	14885.47
532.632	14809.54
532.998	14828.52
533.364	14892.02
533.73	14906.71
534.095	14921.85
534.461	14853.83
534.826	14879.82
535.192	14896.09
535.557	14863.55
535.923	14887.28
536.288	14833.95
536.653	14675.98
537.019	14727.96
537.384	14748.52
537.749	14738.81
538.114	14696.32
538.479	14595.08
538.845	14630.11
539.21	14557.8
539.575	14558.7
539.94	14470.11
540.305	14566.38
540.67	14463.56
541.034	14513.73
541.399	14448.42
541.764	14410.68
542.129	14285.26
542.494	14341.3
542.858	14353.96
543.223	14306.73
543.587	14271.25
543.952	14237.35
544.316	14216.56
544.681	14134.08
545.045	14192.16
545.41	14225.83
545.774	14107.86
546.138	14079.84
546.503	13981.54
546.867	13926.4
547.231	13976.12
547.595	13973.86
547.959	13992.16
548.324	13887.76
548.688	13808.44
549.052	13815.22
549.416	13758.49
549.779	13748.55
550.143	13779.06
550.507	13702
550.871	13763.24
551.235	13726.18
551.599	13642.34
551.962	13627.88
552.326	13559.86
552.689	13617.71
553.053	13490.93
553.417	13428.33
553.78	13644.6
554.143	13344.27
554.507	13428.79
554.87	13412.97
555.234	13538.61
555.597	13390.14
555.96	13389.01
556.323	13473.98
556.686	13421.33
557.05	13456.36
557.413	13476.92
557.776	13388.56
558.139	13391.05
558.502	13405.06
558.865	13337.49
559.228	13334.1
559.59	13422.68
559.953	13326.64
560.316	13366.64
560.679	13351.05
561.041	13456.58
561.404	13423.14
561.767	13486.64
562.129	13387.2
562.492	13476.02
562.854	13467.2
563.217	13364.38
563.579	13375.91
563.941	13486.41
564.304	13468.78
564.666	13570.48
565.028	13509.01
565.39	13551.72
565.753	13548.56
566.115	13606.41
566.477	13636.01
566.839	13585.39
567.201	13595.79
567.563	13557.82
567.925	13698.38
568.287	13623.81
568.648	13641.66
569.01	13676.01
569.372	13771.15
569.734	13620.64
570.095	13695.44
570.457	13761.66
570.819	13743.13
571.18	13701.77
571.542	13803.92
571.903	13816.57
572.265	13771.15
572.626	13787.65
572.987	13739.51
573.349	13864.03
573.71	13875.78
574.071	13843.69
574.432	13923.69
574.794	13941.77
575.155	13866.74
575.516	13876.46
575.877	13922.56
576.238	13841.66
576.599	13957.13
576.96	13950.35
577.32	13987.19
577.681	13963.46
578.042	13962.78
578.403	13944.25
578.763	14010.69
579.124	14002.56
579.485	14056.57
579.845	14042.55
580.206	14029.45
580.566	14012.05
580.927	14034.87
581.287	14056.11
581.648	13958.26
582.008	13987.87
582.368	14015.66
582.728	13982.22
583.089	13967.3
583.449	13965.27
583.809	14008.21
584.169	14033.52
584.529	13900.64
584.889	14031.71
585.249	13960.97
585.609	13875.55
585.969	13963.46
586.329	13938.83
586.688	13944.48
587.048	13908.09
587.408	13905.16
587.768	13929.11
588.127	13901.99
588.487	13918.26
588.846	13937.92
589.206	13870.58
589.565	13852.05
589.925	13888.66
590.284	13837.81
590.643	13829
591.003	13806.18
591.362	13804.82
591.721	13770.02
592.08	13778.61
592.44	13824.03
592.799	13853.41
593.158	13716.69
593.517	13728.44
593.876	13773.41
594.235	13809.11
594.593	13822.9
594.952	13760.53
595.311	13683.69
595.67	13719.63
596.029	13869.9
596.387	13845.27
596.746	13813.41
597.104	13808.89
597.463	13793.97
597.822	13876.01
598.18	13784.03
598.538	13702.45
598.897	13817.93
599.255	13697.93
599.613	13760.08
599.972	13726.4
600.33	13711.72
600.688	13682.79
601.046	13734.99
601.404	13745.16
601.762	13701.55
602.12	13798.49
602.478	13784.26
602.836	13748.78
603.194	13739.74
603.552	13744.71
603.91	13761.66
604.268	13753.3
604.625	13695.44
604.983	13749.91
605.341	13684.6
605.698	13752.39
606.056	13772.51
606.413	13775.89
606.771	13704.48
607.128	13809.34
607.485	13716.69
607.843	13767.31
608.2	13854.08
608.557	13883.24
608.914	13811.37
609.272	13919.85
609.629	13925.5
609.986	13833.29
610.343	13804.37
610.7	13980.64
611.057	13935.66
611.414	13840.07
611.771	13916.91
612.127	13937.92
612.484	13921.65
612.841	13992.16
613.198	13995.32
613.554	13864.25
613.911	14054.98
614.267	14004.36
614.624	14028.32
614.98	13985.15
615.337	14013.85
615.693	13988.54
616.05	14047.3
616.406	14205.26
616.762	14022.22
617.118	14019.05
617.475	14049.79
617.831	14083.23
618.187	14091.37
618.543	14130.01
618.899	14129.78
619.255	14153.96
619.611	14050.01
619.967	14144.47
620.323	14222.89
620.678	14158.26
621.034	14091.14
621.39	14104.25
621.746	14132.72
622.101	14305.37
622.457	14163.91
622.812	14201.19
623.168	14235.32
623.523	14116
623.879	14314.64
624.234	14177.24
624.589	14140.63
624.945	14182.21
625.3	14196.9
625.655	14202.78
626.01	14143.12
626.365	14125.26
626.72	14237.13
627.075	14173.62
627.43	14176.56
627.785	14100.86
628.14	14165.49
628.495	14124.36
628.85	14154.42
629.205	14095.89
629.559	14115.77
629.914	14037.36
630.269	14057.7
630.623	14105.38
630.978	14111.03
631.332	14110.58
631.687	14092.04
632.041	14104.02
632.396	14042.1
632.75	13929.79
633.104	13998.26
633.459	13985.15
633.813	13979.73
634.167	13912.39
634.521	13906.74
634.875	13972.5
635.229	13881.2
635.583	13869.9
635.937	13846.63
636.291	13813.86
636.645	13824.71
636.999	13751.26
637.352	13791.94
637.706	13744.94
638.06	13801.2
638.413	13801.88
638.767	13730.47
639.121	13750.81
639.474	13650.7
639.828	13729.34
640.181	13694.54
640.534	13680.3
640.888	13704.26
641.241	13570.48
641.594	13606.86
641.947	13682.56
642.301	13610.93
642.654	13632.85
643.007	13574.54
643.36	13653.41
643.713	13561.66
644.066	13574.54
644.419	13466.07
644.771	13525.73
645.124	13358.73
645.477	13333.87
645.83	13162.58
646.182	13221.11
646.535	13136.14
646.888	13193.31
647.24	13089.36
647.593	13146.76
647.945	13186.53
648.298	13049.59
648.65	13008.91
649.002	12937.95
649.355	13082.13
649.707	13107.21
650.059	13205.97
650.411	13309.01
650.763	13263.59
651.115	13316.47
651.467	13370.93
651.819	13335.91
652.171	13350.6
652.523	13376.36
652.875	13298.17
653.227	13269.24
653.578	13382.68
653.93	13349.24
654.282	13370.48
654.633	13226.98
654.985	13329.8
655.337	13273.76
655.688	13241.45
656.039	13387.88
656.391	13270.82
656.742	13330.48
657.094	13264.95
657.445	13418.84
657.796	13262.69
658.147	13295.23
658.498	13264.5
658.849	13312.63
659.2	13400.09
659.551	13256.36
659.902	13381.33
660.253	13278.96
660.604	13279.18
660.955	13361.67
661.306	13356.7
661.656	13374.32
662.007	13376.58
662.358	13331.16
662.708	13404.15
663.059	13290.71
663.409	13278.96
663.76	13346.98
664.11	13340.2
664.461	13340.88
664.811	13382.91
665.161	13363.7
665.511	13400.99
665.862	13361.22
666.212	13355.11
666.562	13390.82
666.912	13386.98
667.262	13330.03
667.612	13393.31
667.962	13330.03
668.312	13349.24
668.662	13483.47
669.011	13336.81
669.361	13299.98
669.711	13335
670.06	13419.75
670.41	13317.38
670.76	13298.85
671.109	13366.41
671.459	13309.01
671.808	13344.72
672.157	13263.59
672.507	13257.49
672.856	13278.96
673.205	13333.19
673.554	13276.7
673.904	13269.92
674.253	13280.09
674.602	13255.91
674.951	13072.18
675.3	13009.36
675.649	13239.64
675.998	13159.87
676.346	13232.63
676.695	13211.62
677.044	13104.5
677.393	13175.68
677.741	13224.5
678.09	13132.3
678.438	13149.7
678.787	13083.71
679.135	13134.56
679.484	12916.71
679.832	13066.76
680.181	12966.2
680.529	13010.72
680.877	12946.31
681.225	12942.92
681.573	12961.23
681.922	12854.79
682.27	12814.79
682.618	12792.42
682.966	12788.12
683.314	12774.57
683.661	12823.83
684.009	12696.38
684.357	12835.13
684.705	12760.33
685.053	12688.24
685.4	12709.26
685.748	12609.82
686.095	12632.87
686.443	12554.23
686.79	12628.58
687.138	12624.29
687.485	12603.04
687.832	12501.8
688.18	12535.48
688.527	12431.3
688.874	12406.44
689.221	12425.87
689.568	12346.78
689.915	12378.87
690.262	12304.3
690.609	12295.71
690.956	12248.03
691.303	12059.33
691.65	12141.81
691.997	12143.17
692.344	12097.75
692.69	12010.74
693.037	11959.45
693.383	11823.18
693.73	11965.32
694.077	11854.36
694.423	11751.54
694.769	11730.07
695.116	11761.26
695.462	11724.88
695.808	11668.38
696.155	11681.71
696.501	11584.54
696.847	11581.6
697.193	11510.42
697.539	11483.75
697.885	11439.01
698.231	11365.79
698.577	11417.09
698.923	11351.33
699.269	11276.07
699.614	11250.09
699.96	11160.14
700.306	11246.02
700.651	11057.32
700.997	11063.65
701.342	11066.81
701.688	11118.34
702.033	10968.29
702.379	11027.94
702.724	10968.96
703.069	10978
703.415	10890.55
703.76	10877.67
704.105	10848.97
704.45	10875.41
704.795	10707.73
705.14	10639.03
705.485	10682.19
705.83	10629.08
706.175	10662.76
706.52	10615.07
706.865	10585.92
707.209	10448.98
707.554	10479.94
707.899	10482.87
708.243	10432.25
708.588	10436.32
708.932	10313.39
709.277	10295.53
709.621	10382.31
709.966	10253.95
710.31	10256.89
710.654	10179.61
710.998	10189.32
711.342	10228.64
711.687	10161.07
712.031	10143.45
712.375	10143.67
712.719	10095.54
713.063	10049.44
713.407	10121.98
713.75	10072.04
714.094	10018.71
714.438	9983.9
714.782	10051.02
715.125	9989.55
715.469	10013.51
715.812	9850.8
716.156	9920.63
716.499	9820.52
716.843	9858.26
717.186	9858.26
717.53	9854.19
717.873	9837.02
718.216	9877.24
718.559	9816.9
718.902	9699.62
719.246	9761.76
719.589	9677.02
719.932	9653.29
720.275	9675.44
720.617	9664.14
720.96	9640.64
721.303	9656
721.646	9708.88
721.989	9591.15
722.331	9737.58
722.674	9598.38
723.016	9584.37
723.359	9529.45
723.701	9626.85
724.044	9551.15
724.386	9498.95
724.729	9546.18
725.071	9528.77
725.413	9578.72
725.755	9529
726.097	9497.59
726.439	9497.82
726.782	9472.28
727.124	9537.36
727.465	9465.95
727.807	9480.64
728.149	9467.76
728.491	9479.74
728.833	9472.05
729.175	9461.21
729.516	9452.39
729.858	9482.67
730.199	9432.51
730.541	9413.3
730.882	9450.13
731.224	9366.29
731.565	9367.42
731.906	9373.75
732.248	9399.96
732.589	9423.47
732.93	9392.73
733.271	9370.36
733.612	9351.83
733.953	9342.34
734.294	9380.98
734.635	9372.17
734.976	9377.82
735.317	9310.48
735.658	9388.89
735.999	9370.13
736.339	9370.36
736.68	9390.47
737.021	9423.92
737.361	9339.4
737.702	9440.64
738.042	9436.57
738.383	9373.07
738.723	9464.14
739.063	9423.01
739.404	9391.15
739.744	9389.57
740.084	9407.42
740.424	9461.21
740.764	9371.94
741.104	9455.1
741.444	9444.26
741.784	9466.4
742.124	9464.37
742.464	9495.33
742.804	9511.37
743.143	9541.2
743.483	9568.77
743.823	9521.09
744.162	9566.74
744.502	9621.2
744.841	9630.47
745.181	9708.43
745.52	9611.26
745.86	9776
746.199	9795.66
746.538	9819.61
746.877	9841.31
747.216	9917.24
747.556	9960.4
747.895	10007.18
748.234	10033.85
748.573	10035.88
748.911	10115.88
749.25	10141.41
749.589	10239.26
749.928	10372.37
750.267	10360.84
750.605	10442.88
750.944	10489.65
751.283	10534.4
751.621	10681.29
751.96	10691.91
752.298	10820.72
752.636	10992.24
752.975	10997.44
753.313	11115.4
753.651	11192.69
753.989	11331.44
754.327	11440.14
754.666	11535.73
755.004	11680.58
755.342	11794.7
755.679	11924.42
756.017	12050.97
756.355	12209.38
756.693	12332.54
757.031	12549.03
757.368	12614.34
757.706	12843.94
758.044	12985.86
758.381	13173.42
758.719	13242.35
759.056	13414.32
759.394	13544.94
759.731	13671.04
760.068	13785.16
760.405	14062.21
760.743	14130.01
761.08	14397.35
761.417	14445.03
761.754	14633.73
762.091	14831.01
762.428	15061.28
762.765	15089.76
763.102	15367.49
763.438	15500.14
763.775	15618.11
764.112	15825.33
764.449	16091.09
764.785	16233.91
765.122	16279.33
765.458	16427.58
765.795	16574.24
766.131	16784.63
766.467	16857.17
766.804	17142.81
767.14	17082.93
767.476	17401.11
767.812	17515.91
768.148	17634.78
768.485	17775.79
768.821	17814.43
769.157	17937.14
769.492	18140.53
769.828	18190.24
770.164	18251.94
770.5	18363.57
770.836	18621.64
771.171	18540.74
771.507	18712.94
771.842	18818.02
772.178	18917
772.513	18893.05
772.849	19029.54
773.184	19177.56
773.519	19228.63
773.855	19278.58
774.19	19322.19
774.525	19388.18
774.86	19443.09
775.195	19594.05
775.53	19611.9
775.865	19511.56
776.2	19594.05
776.535	19518.34
776.87	19640.37
777.205	19669.98
777.539	19692.58
777.874	19885.56
778.209	19807.37
778.543	19860.48
778.878	19854.61
779.212	19831.33
779.547	19817.32
779.881	20107.93
780.215	19900.71
780.55	19936.18
780.884	19843.53
781.218	19942.74
781.552	20043.98
781.886	19976.18
782.22	19907.49
782.554	19868.84
782.888	19916.07
783.222	19911.33
783.556	19742.07
783.889	19760.6
784.223	19724.44
784.557	19723.99
784.89	19790.2
785.224	19793.36
785.557	19652.12
785.891	19802.86
786.224	19672.69
786.558	19604.67
786.891	19544.33
787.224	19655.06
787.557	19562.41
787.891	19507.04
788.224	19526.03
788.557	19484.9
788.89	19486.48
789.223	19511.34
789.556	19300.95
789.888	19467.04
790.221	19321.29
790.554	19279.48
790.887	19352.25
791.219	19200.61
791.552	19149.76
791.884	19149.54
792.217	19063.44
792.549	19095.08
792.882	18981.41
793.214	18928.53
793.546	18966.94
793.879	18887.85
794.211	18794.29
794.543	18916.78
794.875	18841.07
795.207	18969.88
795.539	18781.86
795.871	18827.51
796.203	18673.39
796.535	18686.95
796.867	18524.02
797.198	18547.07
797.53	18500.74
797.862	18493.51
798.193	18433.17
798.525	18397.92
798.856	18415.55
799.188	18307.3
799.519	18186.17
799.85	18039.96
800.182	18134.88
800.513	18122.45
800.844	18006.74
801.175	18126.29
801.506	18083.8
801.837	17969.46
802.168	17935.33
802.499	17921.77
802.83	17816.47
803.161	17891.72
803.491	17729.46
803.822	17822.12
804.153	17624.83
804.483	17489.24
804.814	17516.14
805.145	17504.61
805.475	17420.77
805.805	17341.9
806.136	17386.2
806.466	17335.58
806.796	17472.52
807.126	17244.5
807.457	17234.79
807.787	17206.99
808.117	17208.57
808.447	17242.24
808.777	17263.26
809.107	17063.04
809.436	16962.25
809.766	17115.02
810.096	16958.64
810.426	16905.3
810.755	16994.34
811.085	16865.98
811.414	16808.58
811.744	16677.06
812.073	16729.72
812.403	16686.78
812.732	16701.02
813.061	16742.6
813.39	16555.71
813.719	16520.68
814.049	16640.68
814.378	16527.91
814.707	16451.3
815.036	16463.73
815.365	16436.62
815.693	16224.19
816.022	16310.07
816.351	16210.41
816.68	16208.37
817.008	16218.99
817.337	16065.33
817.665	16076.17
817.994	16158.43
818.322	16135.83
818.651	16004.76
818.979	15974.93
819.307	16046.12
819.636	16009.06
819.964	15949.17
820.292	16015.38
820.62	15990.3
820.948	15897.65
821.276	15933.13
821.604	15924.09
821.932	15912.34
822.259	15983.29
822.587	15894.94
822.915	15849.96
823.243	15957.76
823.57	15835.95
823.898	15849.74
824.225	15825.11
824.553	15781.04
824.88	15878.89
825.207	15928.83
825.535	15870.98
825.862	16000.24
826.189	15796.41
826.516	15923.18
826.843	15887.93
827.17	15968.15
827.497	15912.11
827.824	15845.9
828.151	16015.16
828.478	15932
828.805	15981.94
829.131	15908.72
829.458	15837.08
829.785	15929.51
830.111	15901.71
830.438	15979.23
830.764	15946.23
831.09	15903.75
831.417	15710.76
831.743	15953.01
832.069	15806.58
832.395	15803.86
832.722	15879.57
833.048	15755.96
833.374	15795.05
833.7	15805.22
834.026	15740.59
834.351	15780.14
834.677	15799.8
835.003	15822.17
835.329	15748.5
835.654	15706.47
835.98	15616.98
836.306	15732.45
836.631	15686.13
836.956	15722.74
837.282	15593.7
837.607	15560.25
837.932	15561.84
838.258	15572.46
838.583	15584.89
838.908	15489.07
839.233	15532.91
839.558	15453.82
839.883	15438.22
840.208	15318.68
840.533	15322.07
840.858	15326.14
841.182	15383.76
841.507	15287.04
841.832	15227.83
842.156	15214.05
842.481	15253.14
842.805	15189.19
843.13	15222.41
843.454	15124.56
843.778	15017.22
844.103	15003.66
844.427	14976.54
844.751	14986.26
845.075	14855.41
845.399	14944.9
845.723	14778.35
846.047	14769.09
846.371	14733.16
846.695	14683.67
847.019	14586.27
847.343	14533.62
847.666	14520.73
847.99	14348.76
848.313	14380.4
848.637	14348.54
848.96	14295.66
849.284	14252.72
849.607	14212.72
849.931	14127.98
850.254	14009.56
850.577	13966.62
850.9	13840.53
851.223	13940.18
851.546	13707.2
851.869	13622.23
852.192	13756.23
852.515	13551.95
852.838	13570.48
853.161	13602.57
853.483	13563.92
853.806	13393.53
854.129	13396.24
854.451	13332.52
854.774	13315.79
855.096	13337.49
855.419	13187.66
855.741	13193.09
856.063	13063.6
856.385	13208.68
856.708	13034.22
857.03	12920.55
857.352	13016.37
857.674	12930.72
857.996	12869.93
858.318	12930.72
858.64	12836.03
858.961	12844.62
859.283	12779.54
859.605	12722.36
859.926	12738.18
860.248	12783.15
860.57	12594.46
860.891	12623.38
861.212	12482.82
861.534	12487.12
861.855	12464.97
862.176	12571.63
862.498	12466.1
862.819	12540.67
863.14	12438.3
863.461	12402.37
863.782	12358.98
864.103	12347.23
864.424	12331.87
864.745	12408.02
865.065	12265.2
865.386	12272.21
865.707	12299.78
866.027	12249.38
866.348	12211.19
866.668	12191.76
866.989	12122.15
867.309	12104.3
867.63	12147.24
867.95	12097.52
868.27	12037.18
868.59	12095.94
868.91	12065.66
869.23	12038.09
869.55	11958.99
869.87	12022.27
870.19	11933.46
870.51	12000.35
870.83	11941.59
871.15	11868.6
871.469	11873.8
871.789	11883.06
872.109	11839.22
872.428	11679.45
872.748	11820.24
873.067	11756.29
873.386	11824.99
873.706	11721.49
874.025	11671.54
874.344	11645.78
874.663	11619.12
874.982	11659.34
875.301	11605.1
875.62	11607.82
875.939	11601.49
876.258	11544.32
876.577	11583.18
876.896	11510.87
877.214	11509.29
877.533	11562.17
877.852	11524.65
878.17	11496.63
878.489	11531.66
878.807	11461.83
879.125	11477.42
879.444	11395.62
879.762	11432.23
880.08	11409.86
880.398	11305.68
880.716	11339.8
881.034	11327.15
881.352	11334.83
881.67	11220.48
881.988	11236.07
882.306	11207.6
882.624	11134.83
882.941	11114.95
883.259	11074.04
883.577	11056.87
883.894	11075.4
884.212	10980.49
884.529	11098
884.846	10979.58
885.164	10993.37
885.481	10905.01
885.798	10926.03
886.115	10902.3
886.432	10845.58
886.75	10824.56
887.067	10836.76
887.383	10780.49
887.7	10706.15
888.017	10737.56
888.334	10737.33
888.651	10629.99
888.967	10659.59
889.284	10598.58
889.6	10617.56
889.917	10545.02
890.233	10547.51
890.55	10459.37
890.866	10478.81
891.182	10428.86
891.498	10357.45
891.815	10388.19
892.131	10336.44
892.447	10305.93
892.763	10278.13
893.079	10276.33
893.395	10222.54
893.71	10269.09
894.026	10176.67
894.342	10132.83
894.657	10153.17
894.973	10082.88
895.289	10023.68
895.604	10062.55
895.92	9932.83
896.235	9916.34
896.55	9916.11
896.865	9870.01
897.181	9843.12
897.496	9786.17
897.811	9776.45
898.126	9738.49
898.441	9720.41
898.756	9621.88
899.071	9604.25
899.386	9632.5
899.7	9512.96
900.015	9476.12
900.33	9445.16
900.644	9462.56
900.959	9515.22
901.273	9364.26
901.588	9389.57
901.902	9309.57
902.216	9264.38
902.531	9267.09
902.845	9256.01
903.159	9155.9
903.473	9078.39
903.787	9114.55
904.101	9044.04
904.415	9049.24
904.729	8976.25
905.042	8987.77
905.356	8959.3
905.67	8894.89
905.984	8917.49
906.297	8897.83
906.611	8805.86
906.924	8798.85
907.237	8726.54
907.551	8705.75
907.864	8698.06
908.177	8684.28
908.491	8685.86
908.804	8552.3
909.117	8456.03
909.43	8440.67
909.743	8459.42
910.056	8401.35
910.368	8372.65
910.681	8342.59
910.994	8349.6
911.307	8331.52
911.619	8209.71
911.932	8203.16
912.244	8155.93
912.557	8116.16
912.869	8124.07
913.181	8090.39
913.494	8078.19
913.806	7922.49
914.118	7969.27
914.43	7923.85
914.742	7925.43
915.054	7856.05
915.366	7818.76
915.678	7823.96
915.99	7789.39
916.302	7665.32
916.613	7674.36
916.925	7663.29
917.236	7691.54
917.548	7660.35
917.859	7614.25
918.171	7530.41
918.482	7524.08
918.794	7487.92
919.105	7459.22
919.416	7430.98
919.727	7384.42
920.038	7419.68
920.349	7347.82
920.66	7319.79
920.971	7306.23
921.282	7260.36
921.593	7269.85
921.903	7212
922.214	7193.02
922.525	7113.02
922.835	7096.75
923.146	7097.2
923.456	7051.33
923.767	7043.19
924.077	6974.04
924.387	6981.27
924.697	6953.48
925.008	6950.31
925.318	6910.09
925.628	6835.96
925.938	6847.72
926.248	6769.75
926.558	6703.31
926.867	6738.34
927.177	6711.45
927.487	6661.73
927.796	6619.7
928.106	6613.6
928.416	6615.41
928.725	6510.1
929.034	6547.84
929.344	6525.24
929.653	6513.03
929.962	6494.05
930.271	6416.99
930.581	6400.72
930.89	6339.25
931.199	6349.42
931.508	6345.13
931.817	6327.05
932.125	6282.76
932.434	6278.92
932.743	6172.25
933.051	6208.64
933.36	6152.59
933.669	6160.95
933.977	6063.78
934.286	6095.42
934.594	6075.31
934.902	5999.38
935.21	5994.4
935.519	5948.76
935.827	5961.41
936.135	5913.5
936.443	5836.22
936.751	5813.84
937.059	5845.26
937.367	5778.37
937.674	5848.87
937.982	5833.96
938.29	5773.62
938.597	5772.72
938.905	5714.19
939.213	5658.59
939.52	5579.05
939.827	5628.99
940.135	5626.96
940.442	5614.53
940.749	5533.85
941.056	5645.49
941.363	5475.1
941.67	5496.34
941.977	5453.4
942.284	5469.9
942.591	5402.1
942.898	5394.87
943.205	5384.93
943.511	5351.26
943.818	5327.53
944.125	5265.61
944.431	5320.52
944.738	5294.54
945.044	5242.79
945.35	5221.09
945.657	5237.14
945.963	5176.8
946.269	5118.95
946.575	5121.66
946.881	5087.54
947.187	5081.43
947.493	5036.24
947.799	5051.38
948.105	5017.26
948.41	5001.66
948.716	4958.73
949.022	4922.34
949.327	4924.6
949.633	4893.87
949.938	4914.43
950.244	4854.1
950.549	4837.6
950.854	4816.36
951.16	4828.56
951.465	4856.13
951.77	4777.26
952.075	4786.53
952.38	4728.22
952.685	4703.82
952.99	4674.89
953.294	4629.92
953.599	4625.4
953.904	4595.8
954.209	4608
954.513	4590.37
954.818	4574.55
955.122	4580.66
955.426	4521.67
955.731	4471.96
956.035	4489.81
956.339	4469.92
956.643	4452.75
956.948	4424.5
957.252	4422.92
957.556	4437.16
957.86	4350.15
958.163	4343.6
958.467	4318.06
958.771	4297.5
959.075	4285.3
959.378	4292.75
959.682	4292.98
959.985	4304.51
960.289	4194.23
960.592	4211.17
960.896	4199.65
961.199	4204.62
961.502	4151.06
961.805	4135.02
962.108	4104.51
962.411	4099.99
962.714	4083.27
963.017	4065.87
963.32	4047.34
963.623	4022.48
963.926	4026.77
964.228	4015.7
964.531	4010.28
964.833	3950.62
965.136	3947
965.438	3930.28
965.741	3888.02
966.043	3906.1
966.345	3894.8
966.648	3885.08
966.95	3828.81
967.252	3801.24
967.554	3791.3
967.856	3768.7
968.158	3714.46
968.46	3784.52
968.761	3727.35
969.063	3718.08
969.365	3725.09
969.666	3695.26
969.968	3661.36
970.269	3645.09
970.571	3645.09
970.872	3626.78
971.174	3611.87
971.475	3585.43
971.776	3598.76
972.077	3550.4
972.378	3560.57
972.679	3545.66
972.98	3513.57
973.281	3496.84
973.582	3521.02
973.883	3497.07
974.183	3474.24
974.484	3450.97
974.785	3403.96
975.085	3460.46
975.386	3404.19
975.686	3414.81
975.986	3373.46
976.287	3358.32
976.587	3355.38
976.887	3351.08
977.187	3337.07
977.487	3315.15
977.787	3284.87
978.087	3216.4
978.387	3208.72
978.687	3239.9
978.987	3223.63
979.286	3220.69
979.586	3239.22
979.885	3198.77
980.185	3163.74
980.484	3109.06
980.784	3133.69
981.083	3150.41
981.382	3095.27
981.682	3092.33
981.981	3081.03
982.28	3070.41
982.579	3065.67
982.878	3054.82
983.177	2993.35
983.475	3057.08
983.774	2970.98
984.073	2994.48
984.372	2945.45
984.67	2944.32
984.969	2982.96
985.267	2920.14
985.566	2898.21
985.864	2903.41
986.162	2917.42
986.461	2872.45
986.759	2865.22
987.057	2832.23
987.355	2844.88
987.653	2817.54
987.951	2809.86
988.249	2816.18
988.547	2784.09
988.844	2817.76
989.142	2748.61
989.44	2707.94
989.737	2692.8
990.035	2661.38
990.332	2698.22
990.63	2673.36
990.927	2679.46
991.224	2634.72
991.521	2673.36
991.819	2668.16
992.116	2641.95
992.413	2620.71
992.71	2581.84
993.006	2589.07
993.303	2571.67
993.6	2564.89
993.897	2575.06
994.193	2540.03
994.49	2526.02
994.787	2533.7
995.083	2474.27
995.379	2508.85
995.676	2483.99
995.972	2470.43
996.268	2451.9
996.565	2441.73
996.861	2430.66
997.157	2414.16
997.453	2427.27
997.749	2416.19
998.044	2402.41
998.34	2412.35
998.636	2321.51
998.932	2368.29
999.227	2347.27
999.523	2348.62
999.818	2331.68
1000.114	2326.7
1000.409	2311.56
1000.704	2263.66
1001	2251.9
1001.295	2261.62
1001.59	2240.38
1001.885	2240.15
1002.18	2208.06
1002.475	2239.48
1002.77	2205.35
1003.065	2162.19
1003.359	2164.22
1003.654	2166.71
1003.949	2152.47
1004.243	2144.34
1004.538	2130.33
1004.832	2113.6
1005.127	2103.89
1005.421	2079.48
1005.715	2072.02
1006.009	2111.79
1006.304	2058.91
1006.598	2041.06
1006.892	2029.09
1007.186	2013.94
1007.48	1999.48
1007.773	1980.95
1008.067	1962.42
1008.361	1987.96
1008.655	1962.42
1008.948	1930.56
1009.242	1956.32
1009.535	1936.21
1009.829	1900.5
1010.122	1892.37
1010.415	1856.21
1010.708	1873.16
1011.001	1847.62
1011.295	1854.17
1011.588	1829.09
1011.881	1803.33
1012.173	1809.43
1012.466	1799.71
1012.759	1802.42
1013.052	1782.54
1013.344	1799.03
1013.637	1767.17
1013.93	1785.02
1014.222	1784.35
1014.514	1710.45
1014.807	1747.28
1015.099	1728.08
1015.391	1694.4
1015.683	1713.16
1015.976	1730.34
1016.268	1681.3
1016.56	1637.46
1016.851	1687.4
1017.143	1661.86
1017.435	1615.54
1017.727	1604.92
1018.018	1598.14
1018.31	1615.99
1018.602	1595.65
1018.893	1599.72
1019.185	1598.81
1019.476	1575.09
1019.767	1557.91
1020.058	1540.51
1020.35	1540.74
1020.641	1525.37
1020.932	1519.49
1021.223	1524.47
1021.514	1526.27
1021.804	1469.78
1022.095	1504.58
1022.386	1466.39
1022.677	1456.44
1022.967	1466.61
1023.258	1432.04
1023.548	1433.39
1023.839	1396.56
1024.129	1413.73
1024.419	1397.24
1024.709	1380.51
1025	1380.74
1025.29	1395.66
1025.58	1342.55
1025.87	1356.33
1026.16	1343.23
1026.449	1326.28
1026.739	1336.67
1027.029	1314.08
1027.319	1327.41
1027.608	1326.28
1027.898	1289.67
1028.187	1267.07
1028.477	1291.03
1028.766	1254.64
1029.055	1251.03
1029.344	1263.46
1029.634	1242.21
1029.923	1224.13
1030.212	1224.13
1030.501	1213.51
1030.79	1232.72
1031.078	1215.77
1031.367	1169.9
1031.656	1177.81
1031.945	1172.61
1032.233	1173.06
1032.522	1157.7
1032.81	1167.64
1033.099	1160.63
1033.387	1155.21
1033.675	1152.95
1033.963	1142.78
1034.251	1129.22
1034.54	1118.6
1034.828	1096.23
1035.116	1091.03
1035.403	1087.41
1035.691	1089.45
1035.979	1068.43
1036.267	1078.83
1036.554	1061.43
1036.842	1045.83
1037.129	1049.22
1037.417	1017.36
1037.704	1037.7
1037.992	1032.73
1038.279	1027.76
1038.566	1025.27
1038.853	1025.27
1039.14	1025.27
