Data from hue_220_FLMS001491_00038.txt Node
Date: Tue Feb 07 16:39:23 GMT 2017
User: dcchb
Spectrometer: FLMS00149
Trigger mode: 0
Integration Time (sec): 2.000000E-2
Scans to average: 10
Electric dark correction enabled: true
Nonlinearity correction enabled: false
Boxcar width: 0
XAxis mode: Wavelengths
Number of Pixels in Spectrum: 2048
>>>>>Begin Spectral Data<<<<<
341.393	-20.1
341.776	-20.1
342.16	-20.1
342.543	-57.61
342.927	-56.71
343.31	-70.04
343.693	-78.63
344.077	-54.67
344.46	-52.19
344.843	-59.42
345.226	-50.38
345.61	-53.32
345.993	-16.03
346.376	-8.12
346.759	4.76
347.142	21.26
347.525	40.92
347.908	60.35
348.291	88.83
348.674	111.42
349.057	115.27
349.44	129.73
349.823	151.42
350.206	168.37
350.588	191.2
350.971	199.56
351.354	225.32
351.737	231.42
352.119	278.88
352.502	267.58
352.884	277.52
353.267	277.52
353.65	280.23
354.032	294.7
354.414	290.4
354.797	304.19
355.179	292.89
355.562	315.03
355.944	324.98
356.326	328.37
356.709	343.06
357.091	322.04
357.473	350.74
357.855	320.01
358.238	332.21
358.62	324.07
359.002	349.16
359.384	323.17
359.766	340.12
360.148	332.89
360.53	321.36
360.912	328.59
361.294	328.37
361.676	314.36
362.057	327.01
362.439	313.9
362.821	313.23
363.203	314.36
363.584	301.25
363.966	332.66
364.348	314.36
364.729	297.86
365.111	302.61
365.493	315.94
365.874	322.72
366.256	290.4
366.637	299.67
367.019	297.63
367.4	309.61
367.781	315.26
368.163	327.24
368.544	301.25
368.925	311.19
369.306	323.17
369.688	314.36
370.069	307.8
370.45	307.35
370.831	300.8
371.212	303.73
371.593	304.41
371.974	295.37
372.355	308.48
372.736	304.86
373.117	341.25
373.498	315.49
373.879	318.2
374.26	317.52
374.641	310.74
375.021	310.29
375.402	296.96
375.783	315.49
376.163	312.32
376.544	334.47
376.925	301.48
377.305	313.9
377.686	338.76
378.066	320.68
378.447	323.17
378.827	331.53
379.208	322.04
379.588	331.98
379.968	330.85
380.349	320.23
380.729	330.85
381.109	317.07
381.489	326.79
381.87	343.51
382.25	324.53
382.63	328.14
383.01	338.99
383.39	300.12
383.77	345.32
384.15	318.65
384.53	331.3
384.91	330.17
385.29	325.2
385.67	333.56
386.049	320.91
386.429	360.23
386.809	343.96
387.189	339.21
387.568	365.43
387.948	343.51
388.328	361.13
388.707	348.25
389.087	342.15
389.466	359.33
389.846	338.54
390.225	359.55
390.605	355.26
390.984	374.02
391.363	342.83
391.743	366.33
392.122	368.14
392.501	322.94
392.881	383.05
393.26	376.5
393.639	359.78
394.018	358.65
394.397	365.2
394.776	376.5
395.155	394.81
395.534	386.9
395.913	393.22
396.292	382.6
396.671	374.24
397.05	372.21
397.429	373.56
397.808	380.34
398.186	372.89
398.565	375.6
398.944	386.67
399.323	380.57
399.701	391.64
400.08	400.91
400.458	401.59
400.837	384.86
401.215	402.49
401.594	392.77
401.972	408.59
402.351	390.74
402.729	393.9
403.107	404.75
403.486	408.36
403.864	414.24
404.242	416.5
404.62	415.14
404.999	428.7
405.377	406.78
405.755	407.46
406.133	436.16
406.511	447.01
406.889	424.41
407.267	466.22
407.645	454.92
408.023	456.95
408.401	480.91
408.779	486.78
409.156	453.56
409.534	490.85
409.912	483.17
410.29	498.53
410.667	512.32
411.045	519.32
411.422	513.45
411.8	528.14
412.178	528.59
412.555	539.43
412.933	567
413.31	543.95
413.687	553.67
414.065	599.55
414.442	560.9
414.819	573.78
415.197	573.56
415.574	599.32
415.951	592.54
416.328	609.94
416.705	631.86
417.082	611.52
417.46	626.44
417.837	633.9
418.214	650.17
418.591	648.13
418.967	654.46
419.344	681.35
419.721	680.45
420.098	690.39
420.475	702.37
420.852	714.12
421.228	699.43
421.605	733.33
421.982	726.77
422.358	738.75
422.735	761.58
423.111	768.36
423.488	787.34
423.864	797.51
424.241	810.84
424.617	818.07
424.994	832.76
425.37	849.94
425.746	851.07
426.123	870.05
426.499	912.08
426.875	895.58
427.251	912.08
427.627	941.23
428.003	929.26
428.379	912.98
428.756	932.42
429.132	957.28
429.507	965.19
429.883	966.77
430.259	999.08
430.635	1018.07
431.011	1027.78
431.387	1037.95
431.763	1035.92
432.138	1072.08
432.514	1069.14
432.89	1070.49
433.265	1104.84
433.641	1131.28
434.016	1158.63
434.392	1179.64
434.767	1179.19
435.143	1199.98
435.518	1207.44
435.894	1240.66
436.269	1260.55
436.644	1307.32
437.02	1309.36
437.395	1305.97
437.77	1355.46
438.145	1348.91
438.52	1394.33
438.895	1400.88
439.271	1376.93
439.646	1436.13
440.021	1481.56
440.395	1442.01
440.77	1456.47
441.145	1499.18
441.52	1537.15
441.895	1550.71
442.27	1555.91
442.645	1564.72
443.019	1570.37
443.394	1596.81
443.769	1619.41
444.143	1590.71
444.518	1629.58
444.892	1640.87
445.267	1644.49
445.641	1667.31
446.016	1681.33
446.39	1713.87
446.764	1716.13
447.139	1716.58
447.513	1747.54
447.887	1742.79
448.262	1739.63
448.636	1779.18
449.01	1815.33
449.384	1809.01
449.758	1796.58
450.132	1847.65
450.506	1853.52
450.88	1856.46
451.254	1849.91
451.628	1900.53
452.002	1919.74
452.376	1898.04
452.75	1936.69
453.123	1941.66
453.497	1987.53
453.871	1999.96
454.244	2020.75
454.618	2046.97
454.992	2065.27
455.365	2057.59
455.739	2125.16
456.112	2123.12
456.486	2132.16
456.859	2182.33
457.232	2236.34
457.606	2198.83
457.979	2224.59
458.352	2256.68
458.725	2285.15
459.099	2297.81
459.472	2350.91
459.845	2355.43
460.218	2392.95
460.591	2399.05
460.964	2409.67
461.337	2449.67
461.71	2466.62
462.083	2481.08
462.456	2519.04
462.829	2540.96
463.201	2578.93
463.574	2569.44
463.947	2646.95
464.32	2648.76
464.692	2676.78
465.065	2664.35
465.438	2711.36
465.81	2781.41
466.183	2790.9
466.555	2853.05
466.928	2864.8
467.3	2833.16
467.672	2914.29
468.045	2926.94
468.417	2945.02
468.789	2977.56
469.161	3018.01
469.534	3039.48
469.906	3130.33
470.278	3162.64
470.65	3133.49
471.022	3204.9
471.394	3290.32
471.766	3269.98
472.138	3282.64
472.51	3358.57
472.882	3415.07
473.253	3496.42
473.625	3510.88
473.997	3554.27
474.369	3581.16
474.74	3619.35
475.112	3699.8
475.484	3761.72
475.855	3778.9
476.227	3822.74
476.598	3889.63
476.97	3879.46
477.341	3960.14
477.713	4032.22
478.084	4036.74
478.455	4151.54
478.827	4123.07
479.198	4297.98
479.569	4271.99
479.94	4425.89
480.311	4403.29
480.682	4482.38
481.053	4574.58
481.424	4657.29
481.795	4674.02
482.166	4740
482.537	4800.79
482.908	4850.28
483.279	4930.28
483.65	4992.88
484.021	4998.07
484.391	5126.43
484.762	5163.49
485.133	5222.02
485.503	5205.98
485.874	5291.63
486.244	5381.79
486.615	5475.12
486.985	5517.84
487.356	5582.01
487.726	5581.79
488.097	5695.91
488.467	5708.56
488.837	5822.69
489.207	5864.94
489.578	5959.41
489.948	5980.2
490.318	6108.1
490.688	6098.84
491.058	6169.57
491.428	6217.93
491.798	6291.15
492.168	6334.99
492.538	6396.91
492.908	6395.33
493.278	6435.1
493.648	6528.88
494.017	6595.55
494.387	6619.05
494.757	6655.66
495.126	6701.31
495.496	6718.26
495.866	6762.55
496.235	6791.47
496.605	6843.45
496.974	6891.81
497.344	6941.53
497.713	6932.49
498.082	6965.71
498.452	7085.7
498.821	7103.56
499.19	7037.8
499.559	7159.37
499.928	7135.19
500.298	7165.25
500.667	7190.11
501.036	7207.06
501.405	7251.35
501.774	7242.99
502.143	7307.62
502.512	7336.09
502.88	7362.53
503.249	7392.59
503.618	7341.74
503.987	7402.76
504.356	7484.11
504.724	7495.64
505.093	7525.47
505.462	7507.39
505.83	7470.78
506.199	7532.47
506.567	7652.47
506.936	7608.85
507.304	7654.95
507.672	7631.23
508.041	7701.28
508.409	7725.69
508.777	7820.6
509.145	7806.59
509.514	7797.32
509.882	7809.75
510.25	7746.7
510.618	7836.64
510.986	7828.06
511.354	7913.7
511.722	7914.38
512.09	7969.75
512.458	7911.22
512.826	7918
513.193	7969.52
513.561	7974.95
513.929	8051.55
514.297	8002.06
514.664	8077.32
515.032	8024.21
515.4	8056.98
515.767	8078.67
516.135	8036.86
516.502	8019.24
516.869	8125.22
517.237	8102.63
517.604	8129.07
517.972	8117.99
518.339	8164.32
518.706	8108.05
519.073	8118.67
519.44	8134.49
519.808	8172.23
520.175	8174.71
520.542	8168.39
520.909	8175.39
521.276	8095.62
521.643	8259.01
522.009	8153.47
522.376	8172.68
522.743	8286.35
523.11	8270.98
523.477	8321.15
523.843	8274.82
524.21	8329.51
524.577	8412.45
524.943	8347.59
525.31	8393.92
525.676	8363.41
526.043	8350.3
526.409	8425.1
526.776	8430.98
527.142	8433.24
527.508	8421.26
527.874	8398.66
528.241	8409.96
528.607	8438.89
528.973	8457.87
529.339	8424.43
529.705	8409.74
530.071	8458.55
530.437	8482.5
530.803	8483.86
531.169	8449.74
531.535	8438.21
531.901	8419.68
532.267	8425.1
532.632	8371.09
532.998	8385.56
533.364	8372.22
533.73	8343.75
534.095	8397.76
534.461	8373.35
534.826	8403.41
535.192	8379
535.557	8380.81
535.923	8374.48
536.288	8311.66
536.653	8323.19
537.019	8268.05
537.384	8222.4
537.749	8265.11
538.114	8276.41
538.479	8205.45
538.845	8265.33
539.21	8172.91
539.575	8164.55
539.94	8168.16
540.305	8176.97
540.67	8070.76
541.034	8093.36
541.399	8080.93
541.764	8085.68
542.129	8083.19
542.494	8031.89
542.858	8020.82
543.223	8053.14
543.587	7967.71
543.952	7989.63
544.316	7938.56
544.681	7929.75
545.045	7894.95
545.41	7944.21
545.774	7874.16
546.138	7847.49
546.503	7856.08
546.867	7810.88
547.231	7851.33
547.595	7809.07
547.959	7790.77
548.324	7747.38
548.688	7651.79
549.052	7763.88
549.416	7685.69
549.779	7668.29
550.143	7610.66
550.507	7650.43
550.871	7643.2
551.235	7610.66
551.599	7626.25
551.962	7557.1
552.326	7569.08
552.689	7580.61
553.053	7491.34
553.417	7527.5
553.78	7515.07
554.143	7431.91
554.507	7522.3
554.87	7460.83
555.234	7468.29
555.597	7464.45
555.96	7473.26
556.323	7444.11
556.686	7437.33
557.05	7403.21
557.413	7427.16
557.776	7364.79
558.139	7365.02
558.502	7334.74
558.865	7364.34
559.228	7320.73
559.59	7326.83
559.953	7361.18
560.316	7376.32
560.679	7407.95
561.041	7355.3
561.404	7389.88
561.767	7391.68
562.129	7378.35
562.492	7415.41
562.854	7337.9
563.217	7330.44
563.579	7390.78
563.941	7355.3
564.304	7433.94
564.666	7378.13
565.028	7336.09
565.39	7420.84
565.753	7441.63
566.115	7401.4
566.477	7476.43
566.839	7433.27
567.201	7422.87
567.563	7444.34
567.925	7491.12
568.287	7549.42
568.648	7416.32
569.01	7449.99
569.372	7512.36
569.734	7496.99
570.095	7522.3
570.457	7509.87
570.819	7534.05
571.18	7566.59
571.542	7555.97
571.903	7512.13
572.265	7617.21
572.626	7598.23
572.987	7623.77
573.349	7613.6
573.71	7697.89
574.071	7609.76
574.432	7660.6
574.794	7724.1
575.155	7733.14
575.516	7695.86
575.877	7743.77
576.238	7736.08
576.599	7740.15
576.96	7780.37
577.32	7737.44
577.681	7784.67
578.042	7815.18
578.403	7815.85
578.763	7757.78
579.124	7833.71
579.485	7911.44
579.845	7852.46
580.206	7849.53
580.566	7880.48
580.927	7922.74
581.287	7923.65
581.648	7955.51
582.008	7981.95
582.368	7946.25
582.728	7995.06
583.089	8008.62
583.449	7947.6
583.809	8019.69
584.169	8020.14
584.529	8079.58
584.889	8132
585.249	8076.41
585.609	8080.25
585.969	8071.89
586.329	8115.05
586.688	8183.75
587.048	8133.36
587.408	8122.29
587.768	8146.69
588.127	8156.41
588.487	8132.68
588.846	8213.58
589.206	8168.61
589.565	8216.52
589.925	8239.12
590.284	8273.47
590.643	8237.99
591.003	8226.46
591.362	8332.68
591.721	8269.63
592.08	8301.26
592.44	8322.73
592.799	8324.77
593.158	8310.76
593.517	8264.66
593.876	8336.29
594.235	8332.45
594.593	8379.23
594.952	8429.85
595.311	8381.04
595.67	8386.01
596.029	8473.69
596.387	8449.74
596.746	8472.33
597.104	8419
597.463	8393.47
597.822	8511.43
598.18	8418.1
598.538	8402.96
598.897	8533.8
599.255	8458.32
599.613	8491.77
599.972	8469.85
600.33	8545.1
600.688	8513.46
601.046	8522.05
601.404	8567.47
601.762	8555.72
602.12	8559.11
602.478	8557.53
602.836	8585.33
603.194	8559.79
603.552	8604.31
603.91	8568.15
604.268	8599.34
604.625	8556.4
604.983	8624.65
605.341	8551.2
605.698	8645.66
606.056	8598.88
606.413	8635.95
606.771	8634.36
607.128	8662.61
607.485	8635.72
607.843	8608.6
608.2	8634.59
608.557	8693.34
608.914	8628.04
609.272	8753.23
609.629	8687.24
609.986	8742.16
610.343	8751.2
610.7	8696.73
611.057	8712.1
611.414	8731.99
611.771	8737.19
612.127	8744.19
612.484	8765.21
612.841	8791.87
613.198	8698.09
613.554	8785.32
613.911	8800.91
614.267	8839.56
614.624	8776.96
614.98	8828.93
615.337	8891.08
615.693	8829.39
616.05	8813.57
616.406	8891.08
616.762	8792.78
617.118	8832.32
617.475	8939.44
617.831	8925.43
618.187	8901.02
618.543	8903.06
618.899	8932.66
619.255	8936.28
619.611	8889.72
619.967	8929.72
620.323	8929.5
620.678	8899.89
621.034	8827.13
621.39	8905.99
621.746	8941.02
622.101	8945.09
622.457	8943.51
622.812	8947.8
623.168	8942.83
623.523	8921.59
623.879	9033.67
624.234	8916.62
624.589	9016.95
624.945	8945.77
625.3	8945.54
625.655	8957.07
626.01	8930.63
626.365	8984.18
626.72	8992.09
627.075	8923.4
627.43	8927.24
627.785	8884.75
628.14	8950.06
628.495	8929.95
628.85	8896.73
629.205	8903.96
629.559	8927.91
629.914	8893.11
630.269	8892.66
630.623	8784.64
630.978	8877.29
631.332	8855.37
631.687	8910.29
632.041	8870.06
632.396	8846.56
632.75	8802.95
633.104	8825.32
633.459	8799.33
633.813	8826
634.167	8789.39
634.521	8811.53
634.875	8803.17
635.229	8776.96
635.583	8723.85
635.937	8717.3
636.291	8675.72
636.645	8745.09
636.999	8675.27
637.352	8776.28
637.706	8648.15
638.06	8653.12
638.413	8655.38
638.767	8736.73
639.121	8622.61
639.474	8589.84
639.828	8598.88
640.181	8590.52
640.534	8618.09
640.888	8533.8
641.241	8595.95
641.594	8580.35
641.947	8638.43
642.301	8558.21
642.654	8589.62
643.007	8584.2
643.36	8481.37
643.713	8560.02
644.066	8592.1
644.419	8517.53
644.771	8475.95
645.124	8355.5
645.477	8392.56
645.83	8331.32
646.182	8327.48
646.535	8321.38
646.888	8324.77
647.24	8265.79
647.593	8307.37
647.945	8292.9
648.298	8252
648.65	8208.84
649.002	8247.71
649.355	8349.63
649.707	8280.93
650.059	8379
650.411	8426.91
650.763	8418.1
651.115	8424.88
651.467	8490.64
651.819	8420.13
652.171	8441.15
652.523	8417.19
652.875	8436.4
653.227	8489.28
653.578	8469.62
653.93	8438.44
654.282	8457.19
654.633	8470.75
654.985	8397.08
655.337	8422.62
655.688	8454.48
656.039	8501.03
656.391	8417.19
656.742	8475.05
657.094	8472.33
657.445	8458.55
657.796	8470.75
658.147	8442.5
658.498	8409.74
658.849	8431.43
659.2	8494.03
659.551	8461.71
659.902	8486.8
660.253	8462.62
660.604	8468.72
660.955	8510.52
661.306	8491.32
661.656	8465.78
662.007	8534.7
662.358	8576.96
662.708	8534.93
663.059	8585.55
663.409	8496.74
663.76	8543.74
664.11	8523.86
664.461	8545.78
664.811	8569.73
665.161	8582.39
665.511	8495.16
665.862	8539.22
666.212	8572.22
666.562	8584.87
666.912	8551.88
667.262	8532.45
667.612	8507.36
667.962	8541.26
668.312	8538.55
668.662	8539.45
669.011	8525.44
669.361	8570.64
669.711	8496.97
670.06	8518.66
670.41	8454.71
670.76	8511.88
671.109	8542.61
671.459	8498.77
671.808	8450.87
672.157	8488.83
672.507	8429.62
672.856	8468.94
673.205	8482.28
673.554	8497.42
673.904	8480.24
674.253	8522.73
674.602	8447.02
674.951	8304.2
675.3	8279.57
675.649	8446.8
675.998	8430.07
676.346	8451.54
676.695	8446.57
677.044	8371.09
677.393	8433.01
677.741	8417.19
678.09	8396.63
678.438	8394.6
678.787	8425.78
679.135	8311.66
679.484	8287.48
679.832	8362.96
680.181	8285.22
680.529	8248.16
680.877	8227.14
681.225	8252.23
681.573	8282.51
681.922	8257.88
682.27	8210.87
682.618	8194.6
682.966	8225.56
683.314	8186.47
683.661	8105.11
684.009	8066.69
684.357	8110.54
684.705	8052.23
685.053	8119.35
685.4	8094.49
685.748	7976.75
686.095	8064.66
686.443	8053.36
686.79	8022.18
687.138	7983.31
687.485	7934.49
687.832	7936.08
688.18	7934.04
688.527	7904.44
688.874	7896.08
689.221	7859.47
689.568	7804.78
689.915	7881.84
690.262	7802.29
690.609	7805.91
690.956	7732.92
691.303	7694.05
691.65	7711.45
691.997	7652.92
692.344	7619.93
692.69	7571.34
693.037	7583.09
693.383	7491.57
693.73	7525.92
694.077	7527.73
694.423	7574.96
694.769	7482.08
695.116	7470.33
695.462	7449.31
695.808	7403.89
696.155	7413.15
696.501	7340.84
696.847	7342.42
697.193	7273.04
697.539	7311.91
697.885	7225.13
698.231	7215.19
698.577	7225.59
698.923	7138.36
699.269	7120.5
699.614	7095.19
699.96	7129.54
700.306	7041.41
700.651	7063.78
700.997	6991.24
701.342	7005.93
701.688	6994.18
702.033	6982.43
702.379	6930.23
702.724	6908.08
703.069	6865.6
703.415	6838.48
703.76	6827.41
704.105	6814.52
704.45	6802.77
704.795	6760.29
705.14	6701.98
705.485	6784.02
705.83	6676.67
706.175	6730.01
706.52	6671.7
706.865	6609.11
707.209	6593.74
707.554	6568.88
707.899	6580.41
708.243	6592.38
708.588	6510.8
708.932	6496.11
709.277	6476.45
709.621	6500.63
709.966	6456.34
710.31	6396.68
710.654	6393.97
710.998	6372.5
711.342	6382.67
711.687	6316.91
712.031	6360.3
712.375	6316.68
712.719	6339.96
713.063	6326.63
713.407	6360.3
713.75	6246.4
714.094	6258.83
714.438	6264.71
714.782	6263.35
715.125	6256.57
715.469	6270.13
715.812	6242.34
716.156	6164.37
716.499	6245.73
716.843	6204.6
717.186	6225.39
717.53	6210.7
717.873	6176.57
718.216	6142.45
718.559	6159.4
718.902	6095.9
719.246	6221.32
719.589	6084.6
719.932	6109.91
720.275	6113.53
720.617	6026.52
720.96	6040.99
721.303	6092.28
721.646	6054.77
721.989	6057.26
722.331	6081.21
722.674	5978.84
723.016	6073.75
723.359	6024.71
723.701	6060.19
724.044	6019.52
724.386	6056.35
724.729	6047.99
725.071	6037.37
725.413	6029.91
725.755	5975.45
726.097	6037.82
726.439	5960.08
726.782	6010.7
727.124	6031.95
727.465	5975.22
727.807	5956.47
728.149	5984.49
728.491	5946.52
728.833	5969.35
729.175	5958.73
729.516	5908.33
729.858	5935.23
730.199	5956.24
730.541	5955.11
730.882	5991.95
731.224	5964.38
731.565	5975.68
731.906	5948.11
732.248	5948.56
732.589	5921.21
732.93	5920.31
733.271	5970.03
733.612	5954.89
733.953	5993.98
734.294	5949.01
734.635	5924.15
734.976	5961.89
735.317	5945.39
735.658	6005.51
735.999	5955.56
736.339	5964.15
736.68	5977.48
737.021	5940.65
737.361	5995.79
737.702	5964.6
738.042	6017.93
738.383	5980.87
738.723	6018.61
739.063	6045.05
739.404	6027.2
739.744	6037.6
740.084	6026.97
740.424	6046.41
740.764	6052.28
741.104	6101.55
741.444	6046.63
741.784	6019.74
742.124	6127.54
742.464	6142
742.804	6157.82
743.143	6185.39
743.483	6167.31
743.823	6154.43
744.162	6212.96
744.502	6200.76
744.841	6259.51
745.181	6230.81
745.52	6265.84
745.86	6322.33
746.199	6395.78
746.538	6385.16
746.877	6497.02
747.216	6483.23
747.556	6548.77
747.895	6574.76
748.234	6597.81
748.573	6640.07
748.911	6675.54
749.25	6770.68
749.589	6774.53
749.928	6849.78
750.267	6995.54
750.605	7005.25
750.944	7057.68
751.283	7099.94
751.621	7264.23
751.96	7277.34
752.298	7421.74
752.636	7466.94
752.975	7481.63
753.313	7615.41
753.651	7783.54
753.989	7878
754.327	7915.29
754.666	8006.13
755.004	8161.38
755.342	8302.85
755.679	8422.84
756.017	8483.18
756.355	8601.14
756.693	8761.37
757.031	8934.92
757.368	8993.22
757.706	9193.44
758.044	9329.03
758.381	9509.14
758.719	9623.94
759.056	9755.46
759.394	9909.13
759.731	10046.98
760.068	10165.62
760.405	10283.36
760.743	10471.6
761.08	10673.63
761.417	10757.02
761.754	10971.03
762.091	11154.98
762.428	11233.39
762.765	11417.12
763.102	11679.48
763.438	11718.35
763.775	11874.28
764.112	12141.39
764.449	12334.61
764.785	12460.25
765.122	12478.56
765.458	12662.05
765.795	12822.28
766.131	13024.3
766.467	13200.12
766.804	13278.08
767.14	13412.77
767.476	13619.99
767.812	13660.9
768.148	13889.37
768.485	13974.11
768.821	14036.03
769.157	14207.78
769.492	14389.47
769.828	14479.41
770.164	14512.85
770.5	14700.64
770.836	14755.11
771.171	14906.29
771.507	14970.24
771.842	15071.71
772.178	15261.99
772.513	15297.92
772.849	15344.24
773.184	15513.96
773.519	15546.72
773.855	15547.18
774.19	15641.18
774.525	15747.85
774.86	15814.97
775.195	15904.45
775.53	15905.13
775.865	15979.25
776.2	16014.28
776.535	15981.06
776.87	16155.75
777.205	16189.19
777.539	16184.22
777.874	16363.88
778.209	16172.47
778.543	16347.15
778.878	16291.11
779.212	16414.05
779.547	16368.62
779.881	16533.14
780.215	16462.63
780.55	16546.02
780.884	16504.44
781.218	16551.22
781.552	16622.85
781.886	16551.67
782.22	16530.2
782.554	16583.53
782.888	16543.08
783.222	16585.79
783.556	16549.41
783.889	16468.06
784.223	16436.19
784.557	16536.3
784.89	16589.86
785.224	16578.56
785.557	16505.57
785.891	16506.7
786.224	16554.38
786.558	16526.59
786.891	16476.42
787.224	16526.59
787.557	16408.62
787.891	16408.17
788.224	16365.69
788.557	16473.03
788.89	16462.18
789.223	16385.12
789.556	16417.66
789.888	16385.35
790.221	16354.16
790.554	16219.02
790.887	16244.56
791.219	16253.37
791.552	16149.87
791.884	16175.63
792.217	16171.34
792.549	16146.71
792.882	16067.61
793.214	16006.6
793.546	16113.94
793.879	16023.55
794.211	15924.79
794.543	15951.23
794.875	15979.48
795.207	15927.96
795.539	15974.06
795.871	15892.93
796.203	15746.94
796.535	15794.18
796.867	15763.67
797.198	15734.97
797.53	15735.65
797.862	15629.89
798.193	15619.94
798.525	15560.51
798.856	15563.22
799.188	15514.63
799.519	15370.01
799.85	15360.74
800.182	15407.74
800.513	15446.84
800.844	15324.36
801.175	15445.48
801.506	15327.75
801.837	15332.72
802.168	15182.44
802.499	15195.32
802.83	15118.26
803.161	15146.73
803.491	15036
803.822	15086.4
804.153	15085.49
804.483	14990.81
804.814	14924.37
805.145	14849.12
805.475	14848.44
805.805	14884.14
806.136	14959.17
806.466	14832.84
806.796	14757.59
807.126	14774.99
807.457	14710.14
807.787	14659.74
808.117	14614.32
808.447	14597.14
808.777	14669.01
809.107	14498.16
809.436	14500.65
809.766	14565.73
810.096	14462.91
810.426	14409.35
810.755	14422.23
811.085	14424.04
811.414	14416.81
811.744	14318.51
812.073	14334.55
812.403	14328
812.732	14186.53
813.061	14185.63
813.39	14172.75
813.719	14069.25
814.049	14175.23
814.378	14135.24
814.707	14048.46
815.036	14038.06
815.365	14026.31
815.693	13919.87
816.022	13861.34
816.351	13825.87
816.68	13811.63
817.008	13834.68
817.337	13805.98
817.665	13729.6
817.994	13838.29
818.322	13722.37
818.651	13728.47
818.979	13756.49
819.307	13709.26
819.636	13615.48
819.964	13631.97
820.292	13595.14
820.62	13662.93
820.948	13598.3
821.276	13691.63
821.604	13614.8
821.932	13668.58
822.259	13687.34
822.587	13606.21
822.915	13569.37
823.243	13604.85
823.57	13521.92
823.898	13688.24
824.225	13580.45
824.553	13528.02
824.88	13568.02
825.207	13618.41
825.535	13598.07
825.862	13641.69
826.189	13618.87
826.516	13605.31
826.843	13703.83
827.17	13651.18
827.497	13702.7
827.824	13633.33
828.151	13765.98
828.478	13669.26
828.805	13699.09
829.131	13557.62
829.458	13732.08
829.785	13560.11
830.111	13623.61
830.438	13704.96
830.764	13611.86
831.09	13612.09
831.417	13537.06
831.743	13597.4
832.069	13652.31
832.395	13496.83
832.722	13626.1
833.048	13491.41
833.374	13501.81
833.7	13459.77
834.026	13559.88
834.351	13496.61
834.677	13534.12
835.003	13547
835.329	13534.8
835.654	13505.42
835.98	13381.81
836.306	13477.85
836.631	13454.35
836.956	13477.17
837.282	13423.62
837.607	13435.82
837.932	13375.03
838.258	13328.48
838.583	13342.94
838.908	13219.33
839.233	13302.49
839.558	13236.5
839.883	13274.24
840.208	13176.84
840.533	13140.69
840.858	13189.05
841.182	13182.04
841.507	13119.67
841.832	13139.56
842.156	13100.23
842.481	13026.11
842.805	13075.83
843.13	12980.46
843.454	12959.9
843.778	12898.88
844.103	13004.19
844.427	12875.83
844.751	12863.18
845.075	12880.35
845.399	12914.48
845.723	12756.29
846.047	12688.95
846.371	12574.6
846.695	12675.39
847.019	12526.69
847.343	12501.61
847.666	12384.55
847.99	12344.55
848.313	12356.3
848.637	12314.72
848.96	12239.69
849.284	12261.16
849.607	12141.39
849.931	12154.04
850.254	12098
850.577	12005.57
850.9	11923.32
851.223	11901.62
851.546	11882.41
851.869	11833.15
852.192	11833.6
852.515	11695.53
852.838	11617.79
853.161	11709.54
853.483	11688.97
853.806	11586.83
854.129	11572.37
854.451	11518.81
854.774	11422.54
855.096	11359.04
855.419	11386.83
855.741	11469.54
856.063	11358.59
856.385	11329.43
856.708	11244.92
857.03	11226.84
857.352	11187.74
857.674	11195.65
857.996	11113.85
858.318	11079.5
858.64	11087.18
858.961	11070.46
859.283	10997.69
859.605	10962.44
859.926	10961.08
860.248	10994.53
860.57	10886.06
860.891	10914.53
861.212	10801.54
861.534	10812.84
861.855	10837.24
862.176	10857.81
862.498	10792.27
862.819	10724.48
863.14	10712.27
863.461	10636.34
863.782	10707.3
864.103	10581.43
864.424	10540.75
864.745	10653.07
865.065	10599.74
865.386	10538.04
865.707	10530.13
866.027	10551.38
866.348	10511.6
866.668	10404.94
866.989	10415.79
867.309	10437.03
867.63	10419.85
867.95	10434.77
868.27	10372.4
868.59	10337.6
868.91	10396.8
869.23	10371.27
869.55	10226.19
869.87	10397.03
870.19	10347.99
870.51	10266.18
870.83	10363.36
871.15	10241.1
871.469	10256.47
871.789	10239.07
872.109	10266.41
872.428	10186.19
872.748	10205.17
873.067	10134.21
873.386	10171.05
873.706	10105.29
874.025	10136.02
874.344	10042.46
874.663	10057.38
874.982	10023.93
875.301	10062.35
875.62	10014.44
875.939	9904.16
876.258	9972.63
876.577	10052.63
876.896	9928.34
877.214	9983.93
877.533	9930.6
877.852	9907.1
878.17	9878.17
878.489	9878.17
878.807	9922.24
879.125	9849.92
879.444	9796.37
879.762	9820.09
880.08	9818.51
880.398	9818.96
880.716	9796.14
881.034	9771.73
881.352	9707.78
881.67	9681.34
881.988	9694
882.306	9676.82
882.624	9595.47
882.941	9660.55
883.259	9564.96
883.577	9582.59
883.894	9550.05
884.212	9536.71
884.529	9534.45
884.846	9482.02
885.164	9494.23
885.481	9407
885.798	9419.43
886.115	9351.18
886.432	9378.98
886.75	9312.99
887.067	9334.91
887.383	9305.31
887.7	9339.66
888.017	9267.57
888.334	9281.8
888.651	9255.59
888.967	9204.52
889.284	9164.07
889.6	9160.68
889.917	9082.49
890.233	9139.21
890.55	9072.32
890.866	9044.3
891.182	9032.54
891.498	9022.15
891.815	8953.45
892.131	8979.44
892.447	8922.94
892.763	8863.06
893.079	8847.69
893.395	8840.69
893.71	8796.62
894.026	8751.2
894.342	8799.1
894.657	8701.93
894.973	8706
895.289	8676.62
895.604	8651.76
895.92	8596.4
896.235	8520.02
896.55	8543.29
896.865	8520.24
897.181	8547.81
897.496	8523.18
897.811	8422.84
898.126	8390.98
898.441	8342.62
898.756	8325.44
899.071	8273.69
899.386	8285.45
899.7	8231.89
900.015	8183.75
900.33	8078.22
900.644	8068.73
900.959	8163.87
901.273	8138.78
901.588	8070.76
901.902	8041.16
902.216	7990.54
902.531	7967.04
902.845	7967.71
903.159	7916.19
903.473	7948.96
903.787	7880.94
904.101	7786.02
904.415	7782.86
904.729	7767.04
905.042	7704.9
905.356	7706.48
905.67	7709.64
905.984	7682.98
906.297	7626.03
906.611	7553.04
906.924	7510.55
907.237	7579.93
907.551	7490.66
907.864	7505.58
908.177	7416.54
908.491	7444.79
908.804	7365.24
909.117	7355.07
909.43	7355.75
909.743	7255.87
910.056	7220.16
910.368	7208.19
910.681	7181.07
910.994	7197.79
911.307	7131.13
911.619	7036.89
911.932	7128.87
912.244	7008.87
912.557	7019.26
912.869	7020.39
913.181	6948.76
913.494	6895.2
913.806	6860.85
914.118	6873.28
914.43	6815.43
914.742	6826.73
915.054	6746.96
915.366	6804.81
915.678	6776.33
915.99	6700.18
916.302	6682.1
916.613	6606.62
916.925	6649.78
917.236	6621.76
917.548	6574.3
917.859	6602.78
918.171	6541.76
918.482	6511.71
918.794	6473.52
919.105	6454.08
919.416	6465.15
919.727	6389.22
920.038	6409.56
920.349	6329.79
920.66	6277.59
920.971	6358.49
921.282	6257.48
921.593	6267.87
921.903	6220.87
922.214	6216.35
922.525	6183.81
922.835	6132.73
923.146	6113.75
923.456	6103.81
923.767	6031.04
924.077	6082.57
924.387	6064.04
924.697	6004.6
925.008	5988.78
925.318	5982.68
925.628	5942.23
925.938	5910.14
926.248	5843.25
926.558	5851.16
926.867	5844.38
927.177	5803.25
927.487	5788.11
927.796	5744.27
928.106	5737.94
928.416	5698.85
928.725	5700.66
929.034	5664.72
929.344	5708.56
929.653	5661.11
929.962	5596.93
930.271	5529.13
930.581	5538.17
930.89	5534.56
931.199	5521.45
931.508	5485.52
931.817	5492.75
932.125	5407.56
932.434	5443.71
932.743	5341.12
933.051	5368.46
933.36	5409.14
933.669	5320.55
933.977	5284.39
934.286	5286.65
934.594	5350.83
934.902	5196.71
935.21	5213.89
935.519	5186.32
935.827	5162.59
936.135	5179.99
936.443	5126.21
936.751	5186.09
937.059	5064.97
937.367	5091.18
937.674	5084.4
937.982	5064.06
938.29	5007.34
938.597	4983.39
938.905	4889.6
939.213	4956.72
939.52	4904.29
939.827	4862.71
940.135	4856.38
940.442	4852.77
940.749	4876.5
941.056	4841.24
941.363	4815.48
941.67	4755.82
941.977	4749.95
942.284	4715.6
942.591	4713.56
942.898	4672.66
943.205	4702.04
943.511	4646.9
943.818	4658.42
944.125	4620.91
944.431	4626.11
944.738	4593.11
945.044	4581.59
945.35	4508.37
945.657	4487.81
945.963	4467.92
946.269	4476.96
946.575	4436.06
946.881	4378.88
947.187	4405.1
947.493	4368.71
947.799	4365.55
948.105	4382.27
948.41	4309.73
948.716	4354.02
949.022	4267.25
949.327	4265.66
949.633	4293.46
949.938	4277.19
950.244	4278.32
950.549	4217.76
950.854	4179.79
951.16	4189.06
951.465	4137.76
951.77	4139.34
952.075	4130.53
952.38	4097.31
952.685	4149.51
952.99	4059.57
953.294	4063.18
953.599	4058.44
953.904	4073.81
954.209	4019.57
954.513	4037.42
954.818	3953.36
955.122	4006.24
955.426	3943.41
955.731	3954.26
956.035	3937.09
956.339	3893.47
956.643	3879.91
956.948	3838.78
957.252	3815.51
957.556	3859.8
957.86	3806.92
958.163	3808.95
958.467	3790.2
958.771	3768.05
959.075	3756.75
959.378	3764.89
959.682	3762.85
959.985	3656.87
960.289	3685.79
960.592	3655.96
960.896	3641.05
961.199	3602.63
961.502	3604.89
961.805	3618.45
962.108	3589.3
962.411	3556.3
962.714	3544.55
963.017	3552.46
963.32	3562.86
963.623	3535.74
963.926	3507.72
964.228	3480.6
964.531	3481.5
964.833	3473.82
965.136	3412.58
965.438	3419.81
965.741	3388.85
966.043	3404.44
966.345	3375.29
966.648	3379.59
966.95	3323.99
967.252	3338.68
967.554	3343.88
967.856	3323.99
968.158	3318.12
968.46	3295.52
968.761	3302.98
969.063	3234.73
969.365	3239.25
969.666	3216.2
969.968	3212.13
970.269	3218.91
970.571	3222.3
970.872	3166.26
971.174	3149.99
971.475	3165.81
971.776	3096.43
972.077	3115.41
972.378	3094.85
972.679	3090.78
972.98	3076.09
973.281	3067.96
973.582	3045.13
973.883	3055.08
974.183	3021.63
974.484	3036.09
974.785	2982.08
975.085	3004.91
975.386	2977.11
975.686	2974.85
975.986	2938.24
976.287	2951.57
976.587	2939.37
976.887	2917.23
977.187	2922.42
977.487	2884.46
977.787	2803.56
978.087	2849.43
978.387	2854.63
978.687	2820.73
978.987	2819.15
979.286	2794.06
979.586	2797.91
979.885	2810.79
980.185	2761.3
980.484	2752.94
980.784	2715.87
981.083	2731.02
981.382	2754.29
981.682	2693.95
981.981	2708.19
982.28	2726.04
982.579	2662.09
982.878	2683.33
983.177	2683.33
983.475	2625.48
983.774	2618.7
984.073	2641.3
984.372	2576.22
984.67	2577.57
984.969	2603.11
985.267	2580.96
985.566	2569.21
985.864	2534.86
986.162	2496.22
986.461	2488.54
986.759	2500.29
987.057	2488.08
987.355	2481.08
987.653	2494.64
987.951	2453.96
988.249	2450.12
988.547	2448.76
988.844	2429.78
989.142	2415.32
989.44	2392.49
989.737	2383.68
990.035	2407.41
990.332	2381.65
990.63	2367.18
990.927	2369.9
991.224	2333.29
991.521	2351.14
991.819	2333.06
992.116	2323.57
992.413	2291.25
992.71	2292.84
993.006	2298.26
993.303	2261.2
993.6	2262.33
993.897	2248.09
994.193	2246.73
994.49	2224.59
994.787	2239.05
995.083	2198.37
995.379	2200.63
995.676	2208.09
995.972	2178.04
996.268	2180.52
996.565	2155.44
996.861	2147.98
997.157	2147.75
997.453	2126.29
997.749	2078.83
998.044	2075.89
998.34	2062.78
998.636	2064.59
998.932	2057.36
999.227	2028.66
999.523	2021.43
999.818	2001.77
1000.114	2049.68
1000.409	2002
1000.704	2009.23
1001	1971.94
1001.295	1976.69
1001.59	1950.02
1001.885	1972.17
1002.18	1955.22
1002.475	1952.73
1002.77	1955.22
1003.065	1913.18
1003.359	1916.35
1003.654	1896.91
1003.949	1895.56
1004.243	1891.26
1004.538	1869.12
1004.832	1829.12
1005.127	1861.66
1005.421	1806.29
1005.715	1848.1
1006.009	1819.63
1006.304	1820.31
1006.598	1791.15
1006.892	1794.09
1007.186	1783.47
1007.48	1771.04
1007.773	1768.33
1008.067	1763.36
1008.361	1731.04
1008.655	1708.9
1008.948	1729.91
1009.242	1698.95
1009.535	1705.05
1009.829	1721.55
1010.122	1716.81
1010.415	1675.22
1010.708	1643.36
1011.001	1634.32
1011.295	1653.53
1011.588	1629.35
1011.881	1610.14
1012.173	1602.01
1012.466	1629.58
1012.759	1589.8
1013.052	1579.86
1013.344	1595
1013.637	1570.59
1013.93	1577.83
1014.222	1572.18
1014.514	1568.33
1014.807	1543.93
1015.099	1535.79
1015.391	1517.04
1015.683	1520.65
1015.976	1479.75
1016.268	1481.56
1016.56	1464.83
1016.851	1489.47
1017.143	1489.01
1017.435	1458.96
1017.727	1478.17
1018.018	1453.31
1018.31	1456.7
1018.602	1423.48
1018.893	1404.72
1019.185	1422.12
1019.476	1378.73
1019.767	1366.31
1020.058	1373.09
1020.35	1349.13
1020.641	1349.13
1020.932	1348
1021.223	1329.92
1021.514	1323.37
1021.804	1319.3
1022.095	1328.79
1022.386	1294.67
1022.677	1295.8
1022.967	1279.53
1023.258	1297.61
1023.548	1275.01
1023.839	1293.31
1024.129	1245.41
1024.419	1229.59
1024.709	1218.29
1025	1215.58
1025.29	1213.54
1025.58	1218.06
1025.87	1203.37
1026.16	1215.58
1026.449	1190.04
1026.739	1176.48
1027.029	1170.83
1027.319	1178.29
1027.608	1154.79
1027.898	1154.11
1028.187	1141.23
1028.477	1125.41
1028.766	1117.72
1029.055	1115.24
1029.344	1106.65
1029.634	1101.91
1029.923	1098.97
1030.212	1103.26
1030.501	1112.75
1030.79	1101.91
1031.078	1052.42
1031.367	1088.57
1031.656	1062.59
1031.945	1053.55
1032.233	1071.85
1032.522	1046.77
1032.81	1047.9
1033.099	1007.45
1033.387	1028.91
1033.675	1031.63
1033.963	1004.06
1034.251	1015.81
1034.54	993.21
1034.828	985.98
1035.116	980.33
1035.403	993.89
1035.691	998.86
1035.979	971.51
1036.267	953.44
1036.554	955.47
1036.842	961.57
1037.129	945.53
1037.417	930.16
1037.704	946.88
1037.992	920.44
1038.279	911.18
1038.566	924.96
1038.853	924.96
1039.14	924.96
