Data from hue_36_FLMS001491_00013.txt Node
Date: Tue Feb 07 17:29:27 GMT 2017
User: dcchb
Spectrometer: FLMS00149
Trigger mode: 0
Integration Time (sec): 2.000000E-2
Scans to average: 10
Electric dark correction enabled: true
Nonlinearity correction enabled: false
Boxcar width: 0
XAxis mode: Wavelengths
Number of Pixels in Spectrum: 2048
>>>>>Begin Spectral Data<<<<<
341.393	-22.94
341.776	-22.94
342.16	-22.94
342.543	-65.87
342.927	-60.22
343.31	-58.19
343.693	-71.3
344.077	-76.72
344.46	-77.85
344.843	-50.96
345.226	-29.04
345.61	-44.18
345.993	-10.73
346.376	-20.68
346.759	5.08
347.142	31.07
347.525	61.35
347.908	60.22
348.291	76.72
348.674	88.25
349.057	116.95
349.44	123.73
349.823	161.01
350.206	150.17
350.588	195.14
350.971	217.51
351.354	237.39
351.737	227.45
352.119	242.37
352.502	261.12
352.884	256.15
353.267	284.85
353.65	303.16
354.032	278.75
354.414	323.27
354.797	316.26
355.179	327.34
355.562	307.68
355.944	300.44
356.326	349.03
356.709	340.89
357.091	346.09
357.473	344.28
357.855	314.68
358.238	333.21
358.62	347
359.002	313.78
359.384	329.14
359.766	334.12
360.148	337.51
360.53	344.06
360.912	328.01
361.294	340.67
361.676	324.17
362.057	346.77
362.439	324.17
362.821	325.98
363.203	335.47
363.584	332.08
363.966	315.36
364.348	311.07
364.729	346.77
365.111	312.65
365.493	329.14
365.874	324.85
366.256	315.13
366.637	327.56
367.019	317.39
367.4	320.1
367.781	300.22
368.163	310.39
368.544	307.68
368.925	315.13
369.306	327.11
369.688	326.43
370.069	318.3
370.45	304.96
370.831	305.42
371.212	299.77
371.593	319.2
371.974	313.1
372.355	305.87
372.736	322.36
373.117	285.98
373.498	307
373.879	337.73
374.26	315.36
374.641	299.99
375.021	314.91
375.402	332.53
375.783	313.33
376.163	336.15
376.544	313.1
376.925	323.04
377.305	313.78
377.686	318.3
378.066	324.4
378.447	309.26
378.827	346.77
379.208	337.51
379.588	314.68
379.968	316.26
380.349	330.5
380.729	332.53
381.109	345.41
381.489	335.92
381.87	318.97
382.25	319.2
382.63	353.1
383.01	350.16
383.39	341.57
383.77	337.28
384.15	346.54
384.53	335.47
384.91	348.58
385.29	349.26
385.67	338.86
386.049	349.71
386.429	367.56
386.809	350.39
387.189	332.31
387.568	342.25
387.948	355.36
388.328	369.14
388.707	353.32
389.087	348.35
389.466	358.75
389.846	378.41
390.225	354
390.605	351.29
390.984	348.13
391.363	357.62
391.743	369.59
392.122	363.49
392.501	360.33
392.881	358.3
393.26	376.6
393.639	366.21
394.018	367.33
394.397	368.69
394.776	371.85
395.155	360.1
395.534	360.56
395.913	374.34
396.292	382.93
396.671	360.56
397.05	377.28
397.429	387.67
397.808	385.64
398.186	381.8
398.565	391.29
398.944	378.18
399.323	369.37
399.701	389.71
400.08	387.22
400.458	410.05
400.837	405.07
401.215	398.75
401.594	396.49
401.972	399.2
402.351	420.44
402.729	411.63
403.107	381.35
403.486	388.35
403.864	395.13
404.242	401.23
404.62	402.14
404.999	404.62
405.377	413.44
405.755	418.86
406.133	413.89
406.511	428.58
406.889	413.21
407.267	430.16
407.645	417.96
408.023	414.34
408.401	424.06
408.779	444.85
409.156	417.73
409.534	424.73
409.912	440.33
410.29	457.05
410.667	458.86
411.045	444.62
411.422	465.86
411.8	466.09
412.178	473.09
412.555	472.42
412.933	462.7
413.31	457.05
413.687	476.94
414.065	463.38
414.442	463.6
414.819	480.78
415.197	472.19
415.574	488.69
415.951	472.19
416.328	490.27
416.705	465.86
417.082	492.08
417.46	475.81
417.837	477.16
418.214	481.46
418.591	504.05
418.967	506.09
419.344	496.15
419.721	500.66
420.098	501.79
420.475	490.04
420.852	487.56
421.228	516.03
421.605	523.26
421.982	513.55
422.358	530.04
422.735	521.91
423.111	534.11
423.488	518.29
423.864	539.53
424.241	527.56
424.617	525.75
424.994	544.05
425.37	555.13
425.746	537.5
426.123	554.22
426.499	554.9
426.875	540.89
427.251	562.36
427.627	587.89
428.003	583.37
428.379	581.11
428.756	583.37
429.132	583.6
429.507	589.7
429.883	584.28
430.259	606.88
430.635	608.01
431.011	616.14
431.387	604.62
431.763	619.31
432.138	628.35
432.514	622.7
432.89	605.07
433.265	634.22
433.641	627.89
434.016	618.85
434.392	627.67
434.767	643.49
435.143	666.99
435.518	666.31
435.894	641.9
436.269	657.27
436.644	674.67
437.02	667.21
437.395	692.3
437.77	682.58
438.145	696.59
438.52	697.72
438.895	696.37
439.271	701.79
439.646	714.67
440.021	708.34
440.395	702.92
440.77	702.92
441.145	708.57
441.52	730.04
441.895	731.62
442.27	727.1
442.645	744.73
443.019	734.33
443.394	764.16
443.769	769.58
444.143	743.82
444.518	760.09
444.892	725.29
445.267	746.31
445.641	778.17
446.016	778.62
446.39	774.33
446.764	807.32
447.139	792.63
447.513	769.13
447.887	779.98
448.262	795.35
448.636	780.88
449.01	796.93
449.384	825.18
449.758	813.65
450.132	812.52
450.506	802.35
450.88	796.25
451.254	830.83
451.628	829.47
452.002	828.57
452.376	831.73
452.75	860.66
453.123	849.81
453.497	894.78
453.871	856.14
454.244	912.18
454.618	897.72
454.992	878.96
455.365	898.62
455.739	901.56
456.112	910.6
456.486	927.09
456.859	921.22
457.232	947.66
457.606	942.91
457.979	967.09
458.352	974.32
458.725	990.6
459.099	1009.13
459.472	1001.44
459.845	1029.69
460.218	1015.91
460.591	1043.7
460.964	1019.75
461.337	1050.93
461.71	1098.62
462.083	1109.24
462.456	1084.83
462.829	1091.84
463.201	1129.35
463.574	1087.09
463.947	1140.65
464.32	1147.2
464.692	1171.16
465.065	1167.77
465.438	1182.45
465.81	1225.39
466.183	1236.46
466.555	1246.63
466.928	1245.96
467.3	1268.33
467.672	1254.77
468.045	1316.46
468.417	1294.54
468.789	1329.12
469.161	1338.83
469.534	1375.22
469.906	1373.86
470.278	1427.42
470.65	1440.08
471.022	1459.96
471.394	1484.59
471.766	1517.36
472.138	1491.15
472.51	1547.42
472.882	1562.11
473.253	1617.25
473.625	1645.72
473.997	1673.29
474.369	1681.88
474.74	1729.79
475.112	1775.66
475.484	1814.08
475.855	1859.5
476.227	1892.49
476.598	1921.87
476.97	1955.54
477.341	1993.51
477.713	2069.89
478.084	2096.33
478.455	2186.72
478.827	2183.78
479.198	2279.6
479.569	2303.1
479.94	2351.24
480.311	2416.77
480.682	2517.56
481.053	2579.93
481.424	2632.36
481.795	2658.35
482.166	2723.66
482.537	2795.07
482.908	2893.6
483.279	2923.65
483.65	3044.33
484.021	3104.66
484.391	3192.57
484.762	3254.04
485.133	3341.27
485.503	3416.75
485.874	3507.59
486.244	3581.71
486.615	3639.57
486.985	3744.65
487.356	3835.27
487.726	3909.39
488.097	4007.01
488.467	4063.06
488.837	4194.13
489.207	4289.72
489.578	4367.91
489.948	4496.94
490.318	4600.22
490.688	4648.58
491.058	4790.27
491.428	4853.54
491.798	4910.94
492.168	5068
492.538	5161.56
492.908	5207.66
493.278	5378.73
493.648	5396.13
494.017	5528.1
494.387	5637.93
494.757	5731.94
495.126	5787.76
495.496	5880.64
495.866	5969.22
496.235	6003.8
496.605	6141.87
496.974	6234.98
497.344	6307.52
497.713	6353.62
498.082	6471.81
498.452	6616.89
498.821	6654.4
499.19	6728.52
499.559	6803.32
499.928	6865.7
500.298	6922.64
500.667	7101.17
501.036	7086.71
501.405	7228.17
501.774	7243.76
502.143	7338.68
502.512	7390.43
502.88	7510.42
503.249	7578.44
503.618	7605.34
503.987	7631.1
504.356	7745.9
504.724	7859.79
505.093	7904.54
505.462	7971.43
505.83	8025.89
506.199	8082.16
506.567	8151.09
506.936	8254.59
507.304	8305.43
507.672	8360.8
508.041	8433.11
508.409	8493.22
508.777	8629.49
509.145	8714.46
509.514	8649.38
509.882	8838.07
510.25	8776.15
510.618	8868.13
510.986	8949.48
511.354	8992.19
511.722	9111.96
512.09	9240.55
512.458	9170.72
512.826	9257.27
513.193	9374.78
513.561	9340.88
513.929	9428.34
514.297	9525.74
514.664	9567.09
515.032	9659.07
515.4	9731.38
515.767	9769.35
516.135	9782
516.502	9821.55
516.869	9969.34
517.237	10022.22
517.604	9968.44
517.972	10099.06
518.339	10137.47
518.706	10165.72
519.073	10278.49
519.44	10327.07
519.808	10389.22
520.175	10366.85
520.542	10561.19
520.909	10512.15
521.276	10574.75
521.643	10662.66
522.009	10721.86
522.376	10776.78
522.743	10848.42
523.11	10878.7
523.477	11019.03
523.843	11138.13
524.21	11206.15
524.577	11292.7
524.943	11287.73
525.31	11337.44
525.676	11548.74
526.043	11604.78
526.409	11589.86
526.776	11743.76
527.142	11776.53
527.508	11867.15
527.874	11956.63
528.241	11907.37
528.607	11990.31
528.973	12115.95
529.339	12092.9
529.705	12175.84
530.071	12307.13
530.437	12339.68
530.803	12469.84
531.169	12552.55
531.535	12519.56
531.901	12551.65
532.267	12655.37
532.632	12674.81
532.998	12715.26
533.364	12787.8
533.73	12908.02
534.095	13048.13
534.461	13008.36
534.826	13157.06
535.192	13128.81
535.557	13255.58
535.923	13290.61
536.288	13348.24
536.653	13382.13
537.019	13339.65
537.384	13459.42
537.749	13536.25
538.114	13548.68
538.479	13569.93
538.845	13675.91
539.21	13716.36
539.575	13691.5
539.94	13766.53
540.305	13797.04
540.67	13790.71
541.034	13982.12
541.399	13977.6
541.764	13992.97
542.129	14023.93
542.494	14151.61
542.858	14187.31
543.223	14136.01
543.587	14412.39
543.952	14314.99
544.316	14401.32
544.681	14390.24
545.045	14515.21
545.41	14628.43
545.774	14675.89
546.138	14689.22
546.503	14709.1
546.867	14761.31
547.231	14890.57
547.595	14956.56
547.959	15041.75
548.324	15029.55
548.688	15016.89
549.052	15146.83
549.416	15125.37
549.779	15162.43
550.143	15138.92
550.507	15334.85
550.871	15291.46
551.235	15380.05
551.599	15445.58
551.962	15490.55
552.326	15520.61
552.689	15710.43
553.053	15512.93
553.417	15639.7
553.78	15775.07
554.143	15829.3
554.507	15835.85
554.87	15957.66
555.234	16042.4
555.597	15986.81
555.96	16030.65
556.323	16136.41
556.686	16167.6
557.05	16256.63
557.413	16199.46
557.776	16269.97
558.139	16558.1
558.502	16463.18
558.865	16438.78
559.228	16584.76
559.59	16563.29
559.953	16705.44
560.316	16847.58
560.679	16864.75
561.041	16908.37
561.404	17055.26
561.767	17134.13
562.129	17049.16
562.492	17235.82
562.854	17183.39
563.217	17209.38
563.579	17318.08
563.941	17373.44
564.304	17543.15
564.666	17609.59
565.028	17624.51
565.39	17767.1
565.753	17763.04
566.115	17882.13
566.477	17865.63
566.839	17974.56
567.201	18102.69
567.563	18115.57
567.925	18162.35
568.287	18223.59
568.648	18288.9
569.01	18355.79
569.372	18573.86
569.734	18487.76
570.095	18535.9
570.457	18645.72
570.819	18693.86
571.18	18838.26
571.542	18892.27
571.903	18873.52
572.265	18993.29
572.626	19011.14
572.987	19166.39
573.349	19217.46
573.71	19372.03
574.071	19369.55
574.432	19553.05
574.794	19689.09
575.155	19673.27
575.516	19666.49
575.877	19806.82
576.238	19983.54
576.599	20040.49
576.96	20058.34
577.32	20271.22
577.681	20385.57
578.042	20518.67
578.403	20606.12
578.763	20753.92
579.124	20821.26
579.485	21032.55
579.845	21153.23
580.206	21408.82
580.566	21397.06
580.927	21582.82
581.287	21731.52
581.648	21782.37
582.008	22096.48
582.368	22105.52
582.728	22249.7
583.089	22543.7
583.449	22658.95
583.809	22909.57
584.169	23064.14
584.529	23084.03
584.889	23461.42
585.249	23569.44
585.609	23644.46
585.969	23930.11
586.329	23974.62
586.688	24242.19
587.048	24505.91
587.408	24594.95
587.768	24838.1
588.127	25020.02
588.487	25295.04
588.846	25684.18
589.206	25655.48
589.565	25875.36
589.925	26181.8
590.284	26323.71
590.643	26545.86
591.003	26814.1
591.362	27083.02
591.721	27259.96
592.08	27493.4
592.44	27798.93
592.799	27887.74
593.158	28199.15
593.517	28457.67
593.876	28553.94
594.235	28800.49
594.593	29077.09
594.952	29244.54
595.311	29394.37
595.67	29723.4
596.029	29994.13
596.387	30239.77
596.746	30488.35
597.104	30415.13
597.463	30687.22
597.822	31022.57
598.18	31100.54
598.538	31294.88
598.897	31556.35
599.255	31409
599.613	32116.78
599.972	32221.19
600.33	32258.25
600.688	32355.42
601.046	32688.75
601.404	32907.04
601.762	33112.01
602.12	33413.25
602.478	33490.53
602.836	33743.86
603.194	33787.7
603.552	33985.21
603.91	33979.56
604.268	34304.07
604.625	34412.54
604.983	34681.91
605.341	34665.87
605.698	34885.07
606.056	35105.4
606.413	35086.42
606.771	35421.55
607.128	35519.86
607.485	35437.15
607.843	35607.31
608.2	35792.17
608.557	36283.45
608.914	36163.91
609.272	36511.02
609.629	36546.04
609.986	36779.71
610.343	36742.65
610.7	37151.23
611.057	37202.07
611.414	37234.16
611.771	37568.16
612.127	37575.4
612.484	37812.23
612.841	37753.24
613.198	37878.67
613.554	37927.93
613.911	38250.41
614.267	38354.13
614.624	38384.19
614.98	38614.69
615.337	38811.75
615.693	38778.75
616.05	38828.24
616.406	39056.04
616.762	39126.99
617.118	39143.72
617.475	39167.44
617.831	39371.06
618.187	39449.25
618.543	39516.36
618.899	39811.72
619.255	39824.38
619.611	39816.69
619.967	39915.45
620.323	40213.29
620.678	40079.74
621.034	40013.52
621.39	40077.7
621.746	40148.21
622.101	40672.94
622.457	40323.35
622.812	40338.94
623.168	40531.7
623.523	40541.87
623.879	40850.34
624.234	40579.16
624.589	40835.88
624.945	40785.93
625.3	40845.37
625.655	40962.65
626.01	41016.44
626.365	40948.64
626.72	41071.58
627.075	41229.76
627.43	41065.47
627.785	40975.53
628.14	40985.02
628.495	41282.19
628.85	41103.66
629.205	41051.69
629.559	41298.69
629.914	41155.19
630.269	41193.83
630.623	41201.29
630.978	41039.26
631.332	41398.12
631.687	41424.79
632.041	41250.1
632.396	41283.77
632.75	41247.62
633.104	41388.86
633.459	41190.22
633.813	41124.91
634.167	41211.01
634.521	41186.37
634.875	41282.19
635.229	41180.73
635.583	41121.07
635.937	41117.45
636.291	41166.26
636.645	41114.29
636.999	41134.62
637.352	41353.83
637.706	41099.6
638.06	41159.48
638.413	41139.14
638.767	41077.68
639.121	41025.93
639.474	40932.14
639.828	40894.18
640.181	41007.85
640.534	40899.38
640.888	40927.85
641.241	40743.9
641.594	40876.1
641.947	40937.12
642.301	40883.33
642.654	40912.94
643.007	40905.25
643.36	40860.28
643.713	40858.47
644.066	40955.87
644.419	40672.94
644.771	40398.15
645.124	40020.3
645.477	40029.12
645.83	39844.94
646.182	39601.78
646.535	39575.34
646.888	39791.38
647.24	39471.62
647.593	39658.28
647.945	39592.29
648.298	39526.98
648.65	39305.07
649.002	39287.67
649.355	39533.76
649.707	39448.34
650.059	39619.64
650.411	40106.4
650.763	39986.18
651.115	40549.56
651.467	40391.59
651.819	40491.7
652.171	40224.82
652.523	40307.53
652.875	40159.96
653.227	40059.85
653.578	40372.84
653.93	40268.43
654.282	40101.21
654.633	39999.29
654.985	40122.45
655.337	40090.58
655.688	40124.93
656.039	40326.96
656.391	40037.25
656.742	40032.05
657.094	40078.16
657.445	40042.9
657.796	40088.78
658.147	39954.77
658.498	39887.88
658.849	39980.76
659.2	39979.17
659.551	39831.16
659.902	40014.65
660.253	39896.92
660.604	40001.32
660.955	39928.55
661.306	39945.5
661.656	39766.3
662.007	39946.86
662.358	39783.7
662.708	39891.04
663.059	39877.26
663.409	39737.83
663.76	39987.08
664.11	39877.03
664.461	39994.32
664.811	39799.07
665.161	39903.92
665.511	39877.71
665.862	39872.96
666.212	39932.62
666.562	39787.54
666.912	39819.63
667.262	39698.28
667.612	39759.07
667.962	39872.96
668.312	39553.65
668.662	39904.83
669.011	39886.75
669.361	39743.25
669.711	39672.06
670.06	39683.14
670.41	39596.81
670.76	39637.04
671.109	39598.85
671.459	39517.49
671.808	39593.42
672.157	39533.31
672.507	39547.55
672.856	39481.33
673.205	39538.96
673.554	39653.53
673.904	39535.12
674.253	39746.64
674.602	39605.85
674.951	38921.35
675.3	38868.24
675.649	39345.97
675.998	39282.7
676.346	39446.53
676.695	39607.43
677.044	39188.91
677.393	39313.88
677.741	39342.58
678.09	39357.27
678.438	39183.04
678.787	39259.42
679.135	39286.09
679.484	38981.46
679.832	39231.17
680.181	39033.89
680.529	39084.74
680.877	38957.96
681.225	38840.45
681.573	39134
681.922	38866.66
682.27	38825.53
682.618	38813.56
682.966	38642.94
683.314	38708.7
683.661	38773.1
684.009	38465.77
684.357	38404.75
684.705	38347.35
685.053	38392.55
685.4	38268.03
685.748	38174.25
686.095	38201.82
686.443	37917.76
686.79	38031.43
687.138	38122.05
687.485	38054.48
687.832	37925.9
688.18	37964.09
688.527	37730.42
688.874	37765
689.221	37623.53
689.568	37589.63
689.915	37495.17
690.262	37669.63
690.609	37387.6
690.956	37419.02
691.303	37324.56
691.65	37124.56
691.997	37169.53
692.344	36928.41
692.69	36992.13
693.037	36828.75
693.383	36662.65
693.73	36629.21
694.077	36589.89
694.423	36443.45
694.769	36336.11
695.116	36376.78
695.462	36297.69
695.808	36107.41
696.155	36135.21
696.501	35789.45
696.847	35950.13
697.193	35761.66
697.539	35856.35
697.885	35680.53
698.231	35398.05
698.577	35552.4
698.923	35408.22
699.269	35231.28
699.614	35092.52
699.96	35038.51
700.306	35130.94
700.651	34890.95
700.997	34832.64
701.342	34793.77
701.688	34695.92
702.033	34676.26
702.379	34572.99
702.724	34460.45
703.069	34555.36
703.415	34129.84
703.76	34222.26
704.105	34140.46
704.45	34219.78
704.795	33937.98
705.14	33881.71
705.485	33790.18
705.83	33582.73
706.175	33704.76
706.52	33636.52
706.865	33573.47
707.209	33390.2
707.554	33290.54
707.899	33414.83
708.243	33207.38
708.588	33206.25
708.932	33014.39
709.277	32974.84
709.621	33107.04
709.966	32818.91
710.31	32884.67
710.654	32686.94
710.998	32646.71
711.342	32743.21
711.687	32571.01
712.031	32429.54
712.375	32364.91
712.719	32383.22
713.063	32120.62
713.407	32394.74
713.75	32132.83
714.094	32068.42
714.438	32072.72
714.782	32075.65
715.125	31802.89
715.469	31964.02
715.812	31679.96
716.156	31632.95
716.499	31633.63
716.843	31529.91
717.186	31492.84
717.53	31546.18
717.873	31599.51
718.216	31451.26
718.559	31271.61
718.902	31290.14
719.246	31202.68
719.589	31196.35
719.932	30913.2
720.275	31029.58
720.617	30778.29
720.96	30894.67
721.303	30939.41
721.646	30808.12
721.989	30731.73
722.331	30814.9
722.674	30637.73
723.016	30680.66
723.359	30658.97
723.701	30751.85
724.044	30515.02
724.386	30447.22
724.729	30402.03
725.071	30458.3
725.413	30428.24
725.755	30350.5
726.097	30256.72
726.439	30218.3
726.782	29980.34
727.124	30254.01
727.465	30060.79
727.807	30068.02
728.149	29884.52
728.491	29773.34
728.833	29878.42
729.175	29845.2
729.516	29751.87
729.858	29654.25
730.199	29817.18
730.541	29630.97
730.882	29569.5
731.224	29675.94
731.565	29505.1
731.906	29405.22
732.248	29493.57
732.589	29338.78
732.93	29267.14
733.271	29165.45
733.612	29292
733.953	29220.81
734.294	29204.32
734.635	29142.4
734.976	29229.4
735.317	28981.5
735.658	28943.76
735.999	29049.74
736.339	28879.58
736.68	28954.38
737.021	28795.06
737.361	28698.57
737.702	28914.61
738.042	28781.96
738.383	28787.83
738.723	28769.75
739.063	28614.28
739.404	28643.2
739.744	28607.5
740.084	28541.74
740.424	28474.17
740.764	28485.24
741.104	28543.32
741.444	28344.9
741.784	28324.34
742.124	28276.88
742.464	28399.82
742.804	28227.62
743.143	28209.77
743.483	28136.55
743.823	28158.24
744.162	28023.56
744.502	28090
744.841	28012.26
745.181	28094.29
745.52	27925.25
745.86	27907.85
746.199	27847.74
746.538	27782.43
746.877	27862.43
747.216	27758.48
747.556	27699.05
747.895	27733.17
748.234	27502.89
748.573	27557.13
748.911	27516.68
749.25	27584.92
749.589	27434.65
749.928	27522.33
750.267	27510.8
750.605	27282.79
750.944	27316.23
751.283	27151.26
751.621	27273.97
751.96	27127.54
752.298	27189
752.636	27139.96
752.975	27066.75
753.313	26906.52
753.651	27029.23
753.989	26772.74
754.327	26769.8
754.666	26746.3
755.004	26759.86
755.342	26751.95
755.679	26672.63
756.017	26435.58
756.355	26553.99
756.693	26383.83
757.031	26412.98
757.368	26114.91
757.706	26243.94
758.044	26204.17
758.381	26190.61
758.719	26064.29
759.056	26079.2
759.394	25896.61
759.731	25814.8
760.068	25799.89
760.405	25687.8
760.743	25594.92
761.08	25673.56
761.417	25551.31
761.754	25439.67
762.091	25454.81
762.428	25339.33
762.765	25190.64
763.102	25265.89
763.438	25095.27
763.775	24938.67
764.112	25066.57
764.449	24973.47
764.785	24912.68
765.122	24720.14
765.458	24713.14
765.795	24585.91
766.131	24655.06
766.467	24453.48
766.804	24371.68
767.14	24310.89
767.476	24229.98
767.812	24224.56
768.148	24273.15
768.485	24066.15
768.821	23893.72
769.157	23778.24
769.492	23787.51
769.828	23762.65
770.164	23528.53
770.5	23538.48
770.836	23476.56
771.171	23366.5
771.507	23341.87
771.842	23107.53
772.178	23087.19
772.513	23054.65
772.849	22967.64
773.184	22861.88
773.519	22826.18
773.855	22722.45
774.19	22645.85
774.525	22564.72
774.86	22542.12
775.195	22577.37
775.53	22380.77
775.865	22239.75
776.2	22108.91
776.535	22087.67
776.87	21969.93
777.205	21848.13
777.539	21890.84
777.874	21888.35
778.209	21632.54
778.543	21659.88
778.878	21515.48
779.212	21447.01
779.547	21357.74
779.881	21469.15
780.215	21274.81
780.55	21250.85
780.884	21127.47
781.218	20991.43
781.552	21051.76
781.886	20943.97
782.22	20774.26
782.554	20771.77
782.888	20637.31
783.222	20549.18
783.556	20407.94
783.889	20426.02
784.223	20183.99
784.557	20216.08
784.89	20288.17
785.224	20191.9
785.557	19956.65
785.891	20025.35
786.224	19848.18
786.558	19941.96
786.891	19698.35
787.224	19641.86
787.557	19600.95
787.891	19620.61
788.224	19542.65
788.557	19468.08
788.89	19394.63
789.223	19422.43
789.556	19221.08
789.888	19246.84
790.221	19179.04
790.554	19002.1
790.887	19013.85
791.219	18926.85
791.552	18880.97
791.884	18882.55
792.217	18670.81
792.549	18596.91
792.882	18538.38
793.214	18456.35
793.546	18465.39
793.879	18388.1
794.211	18213.65
794.543	18344.72
794.875	18245.73
795.207	18311.95
795.539	18111.05
795.871	18049.36
796.203	17985.63
796.535	17870.38
796.867	17791.51
797.198	17846.88
797.53	17859.76
797.862	17732.3
798.193	17749.02
798.525	17574.79
798.856	17625.86
799.188	17450.28
799.519	17332.76
799.85	17329.15
800.182	17269.94
800.513	17320.56
800.844	17037.41
801.175	17213.45
801.506	17210.96
801.837	17054.58
802.168	17050.06
802.499	17029.5
802.83	16793.34
803.161	16858.2
803.491	16857.07
803.822	16838.77
804.153	16693.69
804.483	16610.75
804.814	16507.93
805.145	16468.38
805.475	16495.72
805.805	16440.58
806.136	16427.03
806.466	16433.13
806.796	16381.38
807.126	16255.28
807.457	16252.34
807.787	16213.02
808.117	16118.33
808.447	16030.43
808.777	16027.04
809.107	16029.52
809.436	15933.03
809.766	15822.75
810.096	15879.47
810.426	15819.58
810.755	15778.91
811.085	15732.81
811.414	15736.65
811.744	15616.43
812.073	15549.08
812.403	15492.81
812.732	15429.99
813.061	15489.88
813.39	15354.96
813.719	15330.11
814.049	15365.13
814.378	15327.62
814.707	15244.46
815.036	15227.96
815.365	15086.27
815.693	15089.89
816.022	15031.81
816.351	15071.58
816.68	14918.36
817.008	14918.59
817.337	14836.33
817.665	14863.9
817.994	14870.68
818.322	14765.15
818.651	14740.74
818.979	14697.81
819.307	14723.12
819.636	14790.01
819.964	14522.44
820.292	14757.24
820.62	14707.52
820.948	14613.06
821.276	14703
821.604	14587.98
821.932	14616.45
822.259	14556.34
822.587	14538.94
822.915	14514.99
823.243	14599.05
823.57	14499.84
823.898	14620.07
824.225	14465.04
824.553	14481.77
824.88	14420.75
825.207	14518.15
825.535	14475.44
825.862	14573.06
826.189	14443.35
826.516	14484.25
826.843	14498.71
827.17	14462.11
827.497	14566.28
827.824	14510.24
828.151	14501.65
828.478	14601.76
828.805	14540.97
829.131	14528.32
829.458	14372.84
829.785	14382.79
830.111	14475.44
830.438	14480.41
830.764	14432.95
831.09	14445.16
831.417	14319.96
831.743	14410.13
832.069	14393.86
832.395	14377.81
832.722	14459.85
833.048	14351.37
833.374	14352.96
833.7	14320.87
834.026	14364.26
834.351	14340.3
834.677	14369.23
835.003	14355.22
835.329	14308.21
835.654	14220.53
835.98	14206.75
836.306	14241.09
836.631	14125.17
836.956	14171.94
837.282	14242
837.607	14119.52
837.932	14179.18
838.258	14120.87
838.583	14088.33
838.908	13970.59
839.233	13987.77
839.558	13972.63
839.883	13912.52
840.208	14041.33
840.533	13866.42
840.858	13919.07
841.182	13839.52
841.507	13822.12
841.832	13706.87
842.156	13714.55
842.481	13757.94
842.805	13708.68
843.13	13702.13
843.454	13681.79
843.778	13611.51
844.103	13613.31
844.427	13543.26
844.751	13550.72
845.075	13511.62
845.399	13481.79
845.723	13348.46
846.047	13375.81
846.371	13317.95
846.695	13323.6
847.019	13166.55
847.343	13117.73
847.666	13075.02
847.99	13108.24
848.313	13031.86
848.637	12921.81
848.96	12985.31
849.284	12789.16
849.607	12797.52
849.931	12689.95
850.254	12625.54
850.577	12642.72
850.9	12489.28
851.223	12572.66
851.546	12387.36
851.869	12355.72
852.192	12395.72
852.515	12340.58
852.838	12263.52
853.161	12291.99
853.483	12141.94
853.806	12189.62
854.129	12118.21
854.451	12138.55
854.774	12071.21
855.096	11930.65
855.419	11973.13
855.741	11966.8
856.063	11800.03
856.385	11849.29
856.708	11710.09
857.03	11774.49
857.352	11816.3
857.674	11727.94
857.996	11649.98
858.318	11553.71
858.64	11537.44
858.961	11510.54
859.283	11490.66
859.605	11467.16
859.926	11443.88
860.248	11467.16
860.57	11395.29
860.891	11395.75
861.212	11367.72
861.534	11310.32
861.855	11221.51
862.176	11307.39
862.498	11251.34
862.819	11215.19
863.14	11196.2
863.461	11184.9
863.782	11104
864.103	11111.46
864.424	11098.13
864.745	11051.35
865.065	10995.3
865.386	10991.01
865.707	11043.66
866.027	11078.01
866.348	11031.91
866.668	10995.3
866.989	10998.47
867.309	10926.38
867.63	10884.35
867.95	10906.72
868.27	10783.56
868.59	10867.17
868.91	10831.69
869.23	10850.22
869.55	10805.93
869.87	10810.68
870.19	10805.25
870.51	10847.74
870.83	10791.69
871.15	10666.73
871.469	10733.84
871.789	10726.84
872.109	10660.62
872.428	10618.14
872.748	10629.44
873.067	10660.62
873.386	10603
873.706	10603.22
874.025	10566.61
874.344	10474.64
874.663	10433.51
874.982	10503.79
875.301	10454.53
875.62	10414.75
875.939	10408.43
876.258	10459.27
876.577	10346.73
876.896	10377.47
877.214	10276.23
877.533	10388.77
877.852	10381.31
878.17	10261.76
878.489	10325.72
878.807	10277.13
879.125	10257.7
879.444	10287.3
879.762	10207.53
880.08	10242.1
880.398	10131.6
880.716	10200.07
881.034	10164.37
881.352	10141.77
881.67	10133.41
881.988	10162.11
882.306	10044.37
882.624	10068.32
882.941	9994.88
883.259	10023.13
883.577	9998.72
883.894	9930.02
884.212	9919.4
884.529	9918.04
884.846	9843.24
885.164	9898.16
885.481	9807.09
885.798	9874.88
886.115	9791.95
886.432	9743.13
886.75	9744.49
887.067	9725.73
887.383	9707.2
887.7	9707.65
888.017	9633.31
888.334	9631.27
888.651	9620.88
888.967	9575.45
889.284	9574.78
889.6	9500.43
889.917	9445.74
890.233	9504.95
890.55	9444.38
890.866	9448.23
891.182	9389.92
891.498	9465.4
891.815	9312.41
892.131	9353.99
892.447	9333.43
892.763	9241.45
893.079	9257.27
893.395	9150.83
893.71	9200.1
894.026	9135.92
894.342	9220.44
894.657	9056.82
894.973	9097.95
895.289	9070.61
895.604	9054.79
895.92	8937.28
896.235	8939.99
896.55	8900.44
896.865	8910.16
897.181	8918.97
897.496	8867.68
897.811	8774.8
898.126	8739.09
898.441	8681.69
898.756	8754.46
899.071	8659.09
899.386	8699.55
899.7	8573.9
900.015	8652.09
900.33	8471.75
900.644	8483.73
900.959	8464.3
901.273	8519.21
901.588	8440.57
901.902	8372.77
902.216	8370.29
902.531	8348.14
902.845	8254.13
903.159	8290.06
903.473	8238.31
903.787	8176.62
904.101	8234.7
904.415	8153.34
904.729	8161.48
905.042	8069.96
905.356	8048.49
905.67	8063.63
905.984	8059.11
906.297	7998.32
906.611	7982.95
906.924	7930.53
907.237	7954.25
907.551	7881.26
907.864	7823.86
908.177	7875.61
908.491	7827.03
908.804	7783.19
909.117	7720.36
909.43	7625
909.743	7652.57
910.056	7596.52
910.368	7500.48
910.681	7543.64
910.994	7526.92
911.307	7453.93
911.619	7425.68
911.932	7462.74
912.244	7336.42
912.557	7456.41
912.869	7329.19
913.181	7351.33
913.494	7300.03
913.806	7192.92
914.118	7259.81
914.43	7199.02
914.742	7131.68
915.054	7163.77
915.366	7111.79
915.678	7082.86
915.99	7105.69
916.302	7007.84
916.613	6942.76
916.925	6922.87
917.236	6956.09
917.548	6908.86
917.859	6851.91
918.171	6862.76
918.482	6881.29
918.794	6792.25
919.105	6779.6
919.416	6724.46
919.727	6775.3
920.038	6701.86
920.349	6650.79
920.66	6571.92
920.971	6579.6
921.282	6555.19
921.593	6538.92
921.903	6594.06
922.214	6474.07
922.525	6426.61
922.835	6376.22
923.146	6350.23
923.456	6419.38
923.767	6334.64
924.077	6296.67
924.387	6289.21
924.697	6327.18
925.008	6286.28
925.318	6144.58
925.628	6191.59
925.938	6229.1
926.248	6116.56
926.558	6062.55
926.867	6062.78
927.177	6000.41
927.487	6004.47
927.796	6020.52
928.106	5973.52
928.416	5951.59
928.725	5913.18
929.034	5879.05
929.344	5849.68
929.653	5859.85
929.962	5807.87
930.271	5762.67
930.581	5767.64
930.89	5731.71
931.199	5725.16
931.508	5682.45
931.817	5682.22
932.125	5720.64
932.434	5658.72
932.743	5578.05
933.051	5524.04
933.36	5558.61
933.669	5499.63
933.977	5508.22
934.286	5476.35
934.594	5464.15
934.902	5468.67
935.21	5427.31
935.519	5429.8
935.827	5355.45
936.135	5358.84
936.443	5317.94
936.751	5311.39
937.059	5297.37
937.367	5264.61
937.674	5245.85
937.982	5256.47
938.29	5201.56
938.597	5212.86
938.905	5140.32
939.213	5120.2
939.52	5109.36
939.827	5111.39
940.135	5054.22
940.442	5052.86
940.749	5033.2
941.056	5016.48
941.363	4959.76
941.67	4920.44
941.977	4943.94
942.284	4911.17
942.591	4921.34
942.898	4884.28
943.205	4881.11
943.511	4793.89
943.818	4842.92
944.125	4739.42
944.431	4770.16
944.738	4782.59
945.044	4741.01
945.35	4683.83
945.657	4661.69
945.963	4675.7
946.269	4616.49
946.575	4597.96
946.881	4583.04
947.187	4580.78
947.493	4569.48
947.799	4546.66
948.105	4482.71
948.41	4445.42
948.716	4505.98
949.022	4481.13
949.327	4466.89
949.633	4414.01
949.938	4398.87
950.244	4373.78
950.549	4368.59
950.854	4326.55
951.16	4294.46
951.465	4315.71
951.77	4307.57
952.075	4257.18
952.38	4277.29
952.685	4245.2
952.99	4187.12
953.294	4169.04
953.599	4174.47
953.904	4167.24
954.209	4131.53
954.513	4124.07
954.818	4109.38
955.122	4071.64
955.426	4098.08
955.731	4059.44
956.035	4040.46
956.339	4011.53
956.643	4011.76
956.948	4006.79
957.252	3987.13
957.556	3936.28
957.86	3981.7
958.163	3940.35
958.467	3873.91
958.771	3931.08
959.075	3855.38
959.378	3832.78
959.682	3845.44
959.985	3819.9
960.289	3746.68
960.592	3757.75
960.896	3767.7
961.199	3766.12
961.502	3749.62
961.805	3729.05
962.108	3714.59
962.411	3649.51
962.714	3664.65
963.017	3660.81
963.32	3650.86
963.623	3646.34
963.926	3614.03
964.228	3606.8
964.531	3595.27
964.833	3555.95
965.136	3556.18
965.438	3534.94
965.741	3524.54
966.043	3501.94
966.345	3483.19
966.648	3483.64
966.95	3458.78
967.252	3428.72
967.554	3428.05
967.856	3435.5
968.158	3425.56
968.46	3376.07
968.761	3351.89
969.063	3362.51
969.365	3343.98
969.666	3332
969.968	3288.16
970.269	3273.93
970.571	3279.8
970.872	3290.65
971.174	3247.03
971.475	3230.54
971.776	3249.29
972.077	3233.25
972.378	3191.67
972.679	3186.47
972.98	3172.23
973.281	3130.2
973.582	3101.73
973.883	3140.6
974.183	3126.36
974.484	3098.56
974.785	3062.63
975.085	3066.7
975.386	3080.71
975.686	3028.06
975.986	3019.24
976.287	3043.65
976.587	2985.12
976.887	2992.58
977.187	2964.78
977.487	2966.59
977.787	2919.58
978.087	2947.83
978.387	2911.45
978.687	2882.98
978.987	2916.19
979.286	2904.44
979.586	2886.36
979.885	2831.68
980.185	2838.68
980.484	2828.51
980.784	2829.64
981.083	2796.42
981.382	2776.31
981.682	2792.81
981.981	2793.49
982.28	2736.54
982.579	2750.78
982.878	2737.67
983.177	2717.78
983.475	2707.39
983.774	2695.41
984.073	2701.96
984.372	2666.48
984.67	2621.29
984.969	2670.78
985.267	2627.84
985.566	2638.69
985.864	2605.47
986.162	2601.85
986.461	2573.15
986.759	2578.35
987.057	2550.1
987.355	2562.53
987.653	2527.28
987.951	2511.46
988.249	2520.95
988.547	2517.33
988.844	2485.02
989.142	2474.62
989.44	2455.42
989.737	2473.49
990.035	2453.38
990.332	2443.66
990.63	2424.46
990.927	2409.32
991.224	2438.47
991.521	2390.11
991.819	2376.32
992.116	2395.3
992.413	2381.29
992.71	2334.74
993.006	2340.39
993.303	2342.65
993.6	2321.18
993.897	2327.51
994.193	2331.8
994.49	2326.61
994.787	2284.8
995.083	2288.41
995.379	2282.76
995.676	2258.36
995.972	2224.69
996.268	2255.65
996.565	2223.33
996.861	2200.28
997.157	2211.81
997.453	2199.6
997.749	2172.49
998.044	2186.27
998.34	2147.4
998.636	2132.26
998.932	2131.81
999.227	2122.54
999.523	2098.36
999.818	2132.26
1000.114	2131.13
1000.409	2100.62
1000.704	2052.94
1001	2044.35
1001.295	2078.48
1001.59	2019.04
1001.885	2025.82
1002.18	2026.5
1002.475	1979.27
1002.77	1971.13
1003.065	1995.77
1003.359	1995.99
1003.654	1948.54
1003.949	1959.16
1004.243	1913.51
1004.538	1948.76
1004.832	1913.06
1005.127	1909.22
1005.421	1868.31
1005.715	1864.02
1006.009	1873.51
1006.304	1859.05
1006.598	1868.99
1006.892	1861.31
1007.186	1836.67
1007.48	1818.82
1007.773	1811.14
1008.067	1797.13
1008.361	1796.22
1008.655	1798.94
1008.948	1773.17
1009.242	1754.19
1009.535	1778.15
1009.829	1729.79
1010.122	1732.5
1010.415	1717.13
1010.708	1711.93
1011.001	1692.5
1011.295	1700.41
1011.588	1688.43
1011.881	1673.29
1012.173	1657.7
1012.466	1661.09
1012.759	1659.5
1013.052	1647.53
1013.344	1668.32
1013.637	1620.18
1013.93	1605.49
1014.222	1598.72
1014.514	1598.49
1014.807	1587.42
1015.099	1574.76
1015.391	1566.17
1015.683	1566.17
1015.976	1522.33
1016.268	1561.2
1016.56	1517.81
1016.851	1520.98
1017.143	1523.46
1017.435	1492.28
1017.727	1506.51
1018.018	1502.45
1018.31	1469.68
1018.602	1442.56
1018.893	1434.43
1019.185	1438.49
1019.476	1423.58
1019.767	1425.16
1020.058	1436.01
1020.35	1394.43
1020.641	1410.25
1020.932	1402.56
1021.223	1379.96
1021.514	1401.66
1021.804	1372.51
1022.095	1344.71
1022.386	1349.68
1022.677	1327.99
1022.967	1323.02
1023.258	1322.56
1023.548	1337.25
1023.839	1317.37
1024.129	1316.24
1024.419	1290.25
1024.709	1297.25
1025	1276.69
1025.29	1248.67
1025.58	1230.36
1025.87	1243.02
1026.16	1245.05
1026.449	1255.9
1026.739	1236.01
1027.029	1211.83
1027.319	1200.99
1027.608	1208.67
1027.898	1201.89
1028.187	1191.27
1028.477	1197.82
1028.766	1172.51
1029.055	1172.74
1029.344	1176.58
1029.634	1177.03
1029.923	1135.22
1030.212	1150.59
1030.501	1116.47
1030.79	1125.96
1031.078	1129.35
1031.367	1096.81
1031.656	1103.81
1031.945	1098.84
1032.233	1063.81
1032.522	1077.6
1032.81	1067.88
1033.099	1083.25
1033.387	1076.47
1033.675	1048.9
1033.963	1046.19
1034.251	1047.77
1034.54	1024.49
1034.828	1025.62
1035.116	1024.72
1035.403	986.75
1035.691	1026.07
1035.979	1009.35
1036.267	993.99
1036.554	1000.99
1036.842	982.69
1037.129	964.38
1037.417	966.87
1037.704	944.95
1037.992	932.07
1038.279	961.22
1038.566	951.95
1038.853	951.95
1039.14	951.95
