Data from hue_28_FLMS001491_00043.txt Node
Date: Tue Feb 07 17:17:19 GMT 2017
User: dcchb
Spectrometer: FLMS00149
Trigger mode: 0
Integration Time (sec): 2.000000E-2
Scans to average: 10
Electric dark correction enabled: true
Nonlinearity correction enabled: false
Boxcar width: 0
XAxis mode: Wavelengths
Number of Pixels in Spectrum: 2048
>>>>>Begin Spectral Data<<<<<
341.393	-18.93
341.776	-18.93
342.16	-18.93
342.543	-53.5
342.927	-56.44
343.31	-68.64
343.693	-61.18
344.077	-44.46
344.46	-65.48
344.843	-44.46
345.226	-40.39
345.61	-29.32
345.993	-26.61
346.376	-5.59
346.759	11.58
347.142	5.03
347.525	38.7
347.908	50
348.291	76.21
348.674	94.52
349.057	110.11
349.44	136.1
349.823	145.59
350.206	158.24
350.588	184.68
350.971	212.48
351.354	245.47
351.737	270.78
352.119	252.48
352.502	271.24
352.884	271.46
353.267	295.87
353.65	296.77
354.032	285.47
354.414	306.94
354.797	328.41
355.179	334.51
355.562	345.58
355.944	345.13
356.326	339.26
356.709	334.06
357.091	351.23
357.473	346.04
357.855	348.97
358.238	337
358.62	337.22
359.002	362.53
359.384	337.9
359.766	353.72
360.148	337.67
360.53	342.19
360.912	361.4
361.294	331.35
361.676	327.05
362.057	348.07
362.439	322.53
362.821	350.33
363.203	325.7
363.584	325.92
363.966	327.73
364.348	327.05
364.729	334.06
365.111	332.25
365.493	326.83
365.874	342.87
366.256	328.41
366.637	317.34
367.019	296.55
367.4	335.64
367.781	330.22
368.163	328.64
368.544	322.53
368.925	322.31
369.306	321.63
369.688	304.46
370.069	345.36
370.45	315.08
370.831	307.39
371.212	337.22
371.593	325.92
371.974	323.66
372.355	323.89
372.736	299.94
373.117	340.61
373.498	318.01
373.879	338.58
374.26	321.4
374.641	330.9
375.021	318.01
375.402	329.54
375.783	294.96
376.163	333.16
376.544	346.49
376.925	335.64
377.305	322.31
377.686	320.05
378.066	315.75
378.447	351.46
378.827	325.92
379.208	349.43
379.588	330.22
379.968	348.3
380.349	338.35
380.729	333.61
381.109	358.01
381.489	350.33
381.87	351.01
382.25	354.4
382.63	351.69
383.01	353.04
383.39	352.14
383.77	352.36
384.15	365.7
384.53	364.34
384.91	334.06
385.29	358.69
385.67	357.34
386.049	358.47
386.429	332.03
386.809	359.37
387.189	364.57
387.568	358.47
387.948	363.21
388.328	355.3
388.707	366.15
389.087	380.61
389.466	373.83
389.846	381.97
390.225	383.32
390.605	383.55
390.984	375.41
391.363	352.59
391.743	380.39
392.122	348.52
392.501	365.02
392.881	379.03
393.26	361.18
393.639	373.38
394.018	373.38
394.397	387.16
394.776	376.32
395.155	398.69
395.534	422.64
395.913	363.44
396.292	382.42
396.671	420.38
397.05	388.97
397.429	393.72
397.808	388.07
398.186	395.3
398.565	406.15
398.944	398.69
399.323	397.33
399.701	387.16
400.08	395.3
400.458	414.51
400.837	405.92
401.215	407.5
401.594	384.45
401.972	418.12
402.351	398.69
402.729	417.22
403.107	405.47
403.486	408.41
403.864	417.67
404.242	414.96
404.62	423.32
404.999	438.69
405.377	419.48
405.755	416.99
406.133	422.19
406.511	402.08
406.889	431.23
407.267	448.86
407.645	460.16
408.023	442.76
408.401	461.06
408.779	443.21
409.156	448.41
409.534	425.58
409.912	458.8
410.29	449.08
410.667	464.68
411.045	461.97
411.422	459.03
411.8	462.87
412.178	442.76
412.555	492.92
412.933	482.08
413.31	469.65
413.687	483.89
414.065	480.72
414.442	487.28
414.819	461.51
415.197	498.57
415.574	469.42
415.951	491.79
416.328	509.42
416.705	492.02
417.082	497.67
417.46	500.83
417.837	489.54
418.214	492.7
418.591	504
418.967	531.12
419.344	506.94
419.721	534.51
420.098	519.59
420.475	526.6
420.852	528.18
421.228	515.3
421.605	509.87
421.982	522.75
422.358	533.6
422.735	547.16
423.111	523.88
423.488	560.49
423.864	571.34
424.241	580.61
424.617	539.93
424.994	568.4
425.37	571.57
425.746	561.62
426.123	571.34
426.499	581.06
426.875	592.36
427.251	580.61
427.627	593.49
428.003	591.68
428.379	604.33
428.756	585.35
429.132	598.68
429.507	605.69
429.883	610.44
430.259	607.72
430.635	643.2
431.011	619.7
431.387	614.28
431.763	638.23
432.138	648.63
432.514	647.72
432.89	621.06
433.265	657.67
433.641	666.93
434.016	672.81
434.392	682.98
434.767	671.9
435.143	668.29
435.518	684.33
435.894	686.59
436.269	714.61
436.644	702.86
437.02	713.03
437.395	710.09
437.77	693.15
438.145	720.49
438.52	739.25
438.895	719.36
439.271	741.28
439.646	757.55
440.021	747.38
440.395	729.75
440.77	746.93
441.145	759.13
441.52	743.31
441.895	777.44
442.27	752.13
442.645	766.36
443.019	776.76
443.394	779.47
443.769	775.86
444.143	788.74
444.518	825.35
444.892	811.11
445.267	827.61
445.641	793.48
446.016	796.42
446.39	825.35
446.764	799.13
447.139	810.2
447.513	812.92
447.887	833.03
448.262	847.27
448.636	806.81
449.01	822.63
449.384	835.06
449.758	849.98
450.132	851.11
450.506	869.19
450.88	867.15
451.254	853.37
451.628	875.06
452.002	883.88
452.376	889.98
452.75	913.93
453.123	925.46
453.497	907.38
453.871	915.29
454.244	940.14
454.618	942.63
454.992	932.91
455.365	959.58
455.739	953.7
456.112	957.09
456.486	975.17
456.859	971.78
457.232	1008.17
457.606	992.35
457.979	1059.46
458.352	1059.24
458.725	1037.32
459.099	1066.92
459.472	1056.07
459.845	1084.55
460.218	1070.54
460.591	1093.14
460.964	1095.85
461.337	1099.91
461.71	1113.7
462.083	1122.51
462.456	1141.27
462.829	1152.79
463.201	1179.91
463.574	1142.85
463.947	1177.43
464.32	1197.77
464.692	1200.93
465.065	1210.19
465.438	1237.76
465.81	1263.53
466.183	1241.83
466.555	1276.63
466.928	1301.72
467.3	1291.77
467.672	1327.25
468.045	1330.64
468.417	1352.11
468.789	1380.59
469.161	1381.04
469.534	1414.93
469.906	1393.92
470.278	1427.59
470.65	1467.59
471.022	1449.51
471.394	1491.32
471.766	1515.95
472.138	1506.91
472.51	1574.7
472.882	1574.25
473.253	1583.29
473.625	1633.46
473.997	1671.88
474.369	1666.68
474.74	1702.38
475.112	1721.14
475.484	1761.37
475.855	1777.41
476.227	1774.25
476.598	1863.51
476.97	1860.57
477.341	1916.84
477.713	1922.04
478.084	1949.84
478.455	2004.75
478.827	2023.05
479.198	2126.33
479.569	2132.2
479.94	2184.18
480.311	2215.37
480.682	2230.51
481.053	2301.24
481.424	2329.71
481.795	2355.02
482.166	2465.75
482.537	2484.96
482.908	2541.91
483.279	2555.24
483.65	2617.84
484.021	2694
484.391	2701.91
484.762	2750.94
485.133	2762.7
485.503	2849.7
485.874	2900.32
486.244	2948.68
486.615	3076.13
486.985	3075.68
487.356	3148
487.726	3174.89
488.097	3277.71
488.467	3254.89
488.837	3328.78
489.207	3442
489.578	3445.16
489.948	3520.42
490.318	3565.39
490.688	3575.56
491.058	3681.32
491.428	3764.7
491.798	3748.43
492.168	3843.12
492.538	3914.53
492.908	3936.68
493.278	3991.59
493.648	4003.34
494.017	4055.54
494.387	4128.76
494.757	4215.76
495.126	4262.77
495.496	4304.35
495.866	4310
496.235	4358.13
496.605	4463.67
496.974	4452.82
497.344	4495.76
497.713	4539.37
498.082	4565.59
498.452	4601.29
498.821	4624.12
499.19	4660.05
499.559	4744.11
499.928	4801.29
500.298	4836.31
500.667	4889.87
501.036	4883.54
501.405	4941.4
501.774	4941.85
502.143	5006.25
502.512	5016.42
502.88	5067.72
503.249	5094.16
503.618	5138.9
503.987	5134.84
504.356	5202.86
504.724	5246.92
505.093	5214.16
505.462	5243.76
505.83	5283.08
506.199	5317.43
506.567	5383.87
506.936	5413.7
507.304	5480.82
507.672	5521.49
508.041	5474.04
508.409	5545
508.777	5599.91
509.145	5629.06
509.514	5623.41
509.882	5662.96
510.25	5688.04
510.618	5730.3
510.986	5752.67
511.354	5885.55
511.722	5821.6
512.09	5883.29
512.458	5854.37
512.826	5866.79
513.193	5906.34
513.561	5984.08
513.929	5983.85
514.297	6072.67
514.664	6108.6
515.032	6104.08
515.4	6152.66
515.767	6161.25
516.135	6163.96
516.502	6147.01
516.869	6238.54
517.237	6276.73
517.604	6204.64
517.972	6261.59
518.339	6387.23
518.706	6270.63
519.073	6353.34
519.44	6400.11
519.808	6453.45
520.175	6494.57
520.542	6521.69
520.909	6556.04
521.276	6536.16
521.643	6649.6
522.009	6655.47
522.376	6622.03
522.743	6697.73
523.11	6809.14
523.477	6788.8
523.843	6812.08
524.21	6851.4
524.577	6952.64
524.943	7002.58
525.31	7012.3
525.676	7040.78
526.043	7081.23
526.409	7080.55
526.776	7208.23
527.142	7144.95
527.508	7208
527.874	7340.43
528.241	7308.79
528.607	7374.55
528.973	7384.5
529.339	7401.22
529.705	7484.38
530.071	7516.47
530.437	7550.37
530.803	7590.37
531.169	7583.36
531.535	7557.15
531.901	7647.54
532.267	7610.25
532.632	7791.94
532.998	7795.56
533.364	7836.91
533.73	7802.11
534.095	7907.87
534.461	7928.21
534.826	7989.9
535.192	7994.2
535.557	8076.45
535.923	8033.29
536.288	8086.17
536.653	8116.91
537.019	8113.29
537.384	8124.59
537.749	8168.2
538.114	8286.17
538.479	8225.6
538.845	8281.42
539.21	8380.63
539.575	8369.78
539.94	8349.22
540.305	8481.64
540.67	8407.52
541.034	8437.8
541.399	8515.99
541.764	8586.05
542.129	8628.53
542.494	8607.06
542.858	8627.63
543.223	8683.9
543.587	8745.36
543.952	8756.21
544.316	8741.52
544.681	8853.61
545.045	8872.37
545.41	8873.27
545.774	8924.12
546.138	9012.7
546.503	8967.96
546.867	9001.85
547.231	9041.4
547.595	9057.67
547.959	9184.67
548.324	9126.6
548.688	9141.06
549.052	9176.99
549.416	9266.48
549.779	9225.35
550.143	9250.66
550.507	9325.46
550.871	9354.16
551.235	9400.49
551.599	9385.8
551.962	9414.5
552.326	9480.03
552.689	9585.34
553.053	9515.51
553.417	9553.7
553.78	9724.32
554.143	9654.04
554.507	9683.87
554.87	9729.29
555.234	9779.23
555.597	9769.29
555.96	9819.46
556.323	9852.9
556.686	9863.75
557.05	9896.97
557.413	9914.37
557.776	9942.85
558.139	10047.93
558.502	10022.84
558.865	10013.58
559.228	10102.84
559.59	10150.75
559.953	10112.78
560.316	10243.63
560.679	10271.88
561.041	10238.88
561.404	10324.08
561.767	10442.27
562.129	10392.55
562.492	10458.76
562.854	10524.75
563.217	10400.46
563.579	10554.58
563.941	10606.78
564.304	10521.14
564.666	10677.52
565.028	10706.67
565.39	10768.81
565.753	10786.44
566.115	10788.25
566.477	10863.27
566.839	10920.45
567.201	10964.29
567.563	10998.86
567.925	11046.09
568.287	11070.05
568.648	10992.08
569.01	11155.24
569.372	11214.9
569.734	11172.87
570.095	11214.45
570.457	11338.29
570.819	11320.89
571.18	11310.04
571.542	11439.98
571.903	11528.79
572.265	11611.28
572.626	11607.21
572.987	11625.29
573.349	11761.33
573.71	11845.39
574.071	11874.09
574.432	11955.22
574.794	12139.85
575.155	12108.21
575.516	12059.17
575.877	12146.4
576.238	12147.76
576.599	12370.13
576.96	12425.94
577.32	12524.02
577.681	12578.48
578.042	12686.95
578.403	12783.68
578.763	12839.49
579.124	12935.76
579.485	13101.41
579.845	13235.19
580.206	13342.98
580.566	13421.4
580.927	13551.79
581.287	13689.87
581.648	13764.89
582.008	14000.14
582.368	14097.54
582.728	14087.37
583.089	14429.28
583.449	14525.55
583.809	14664.53
584.169	14951.53
584.529	15029.49
584.889	15267
585.249	15463.15
585.609	15675.35
585.969	15921.9
586.329	16120.31
586.688	16347.2
587.048	16552.84
587.408	16664.7
587.768	16950.12
588.127	17200.28
588.487	17445.7
588.846	17816.54
589.206	17873.48
589.565	18177.88
589.925	18547.14
590.284	18656.06
590.643	19072.1
591.003	19248.36
591.362	19597.51
591.721	19827.11
592.08	20150.94
592.44	20456.24
592.799	20744.6
593.158	20870.24
593.517	21213.28
593.876	21650.79
594.235	21825.25
594.593	22093.49
594.952	22436.3
595.311	22690.99
595.67	23020.69
596.029	23364.87
596.387	23721.24
596.746	24050.72
597.104	24281.9
597.463	24497.27
597.822	24819.29
598.18	25038.95
598.538	25388.77
598.897	25778.36
599.255	25850
599.613	26495.18
599.972	26594.39
600.33	26933.81
600.688	27199.12
601.046	27536.06
601.404	27896.05
601.762	28189.37
602.12	28387.33
602.478	28732.86
602.836	29065.28
603.194	29126.07
603.552	29577.13
603.91	29663.01
604.268	30025.93
604.625	30162.2
604.983	30639.02
605.341	30676.54
605.698	31155.85
606.056	31362.17
606.413	31606.46
606.771	31940.69
607.128	32238.76
607.485	32253.9
607.843	32545.64
608.2	32990.15
608.557	33157.15
608.914	33120.99
609.272	33645.05
609.629	33855.21
609.986	34140.18
610.343	34105.83
610.7	34516.89
611.057	34643.67
611.414	34859.03
611.771	34969.98
612.127	35418.11
612.484	35483.42
612.841	35802.5
613.198	35807.02
613.554	35969.28
613.911	36429.16
614.267	36484.97
614.624	36553.22
614.98	36809.48
615.337	36982.59
615.693	37179.64
616.05	37323.82
616.406	37658.73
616.762	37658.05
617.118	37793.19
617.475	37956.57
617.831	38211.26
618.187	38276.56
618.543	38519.5
618.899	38706.61
619.255	38750.68
619.611	38729.89
619.967	39119.03
620.323	39196.77
620.678	39161.74
621.034	39229.31
621.39	39310.89
621.746	39324.67
622.101	39744.77
622.457	39620.48
622.812	39727.83
623.168	39917.42
623.523	40039
623.879	40166.91
624.234	40028.16
624.589	40186.57
624.945	40299.56
625.3	40459.33
625.655	40435.83
626.01	40596.96
626.365	40790.85
626.72	40721.92
627.075	40774.8
627.43	40795.82
627.785	40911.07
628.14	40962.82
628.495	41149.26
628.85	41007.57
629.205	40915.59
629.559	41220.22
629.914	41177.73
630.269	41164.4
630.623	41193.32
630.978	41127.79
631.332	41463.15
631.687	41470.6
632.041	41304.06
632.396	41428.57
632.75	41288.01
633.104	41380.44
633.459	41296.6
633.813	41353.32
634.167	41336.37
634.521	41389.93
634.875	41440.77
635.229	41353.32
635.583	41180.89
635.937	41339.76
636.291	41366.43
636.645	41402.81
636.999	41311.96
637.352	41427.89
637.706	41302.02
638.06	41392.87
638.413	41416.37
638.767	41336.82
639.121	41426.99
639.474	41230.61
639.828	41260.67
640.181	41410.49
640.534	41274.68
640.888	41193.32
641.241	41103.38
641.594	41316.94
641.947	41318.74
642.301	41196.26
642.654	41233.77
643.007	41192.19
643.36	41295.69
643.713	41200.78
644.066	41341.12
644.419	41063.61
644.771	40855.03
645.124	40442.61
645.477	40432.67
645.83	40341.82
646.182	40046.46
646.535	40094.14
646.888	40055.5
647.24	39869.52
647.593	40060.92
647.945	40097.99
648.298	39836.3
648.65	39782.74
649.002	39760.82
649.355	39992.68
649.707	39876.97
650.059	40112
650.411	40540.69
650.763	40488.71
651.115	40880.56
651.467	40769.38
651.819	40811.19
652.171	40582.49
652.523	40503.17
652.875	40628.37
653.227	40540.69
653.578	40634.47
653.93	40555.37
654.282	40478.77
654.633	40450.97
654.985	40646.22
655.337	40677.86
655.688	40606.67
656.039	40714.47
656.391	40220.92
656.742	40508.6
657.094	40541.59
657.445	40624.53
657.796	40537.97
658.147	40585.66
658.498	40421.59
658.849	40497.97
659.2	40422.27
659.551	40383.63
659.902	40483.96
660.253	40431.76
660.604	40451.87
660.955	40397.64
661.306	40438.77
661.656	40353.8
662.007	40564.64
662.358	40418.65
662.708	40444.42
663.059	40430.63
663.409	40137.31
663.76	40426.79
664.11	40333.23
664.461	40449.39
664.811	40402.16
665.161	40551.53
665.511	40194.48
665.862	40422.5
666.212	40410.07
666.562	40490.29
666.912	40399.9
667.262	40264.53
667.612	40283.52
667.962	40434.02
668.312	40184.54
668.662	40507.69
669.011	40274.25
669.361	40195.38
669.711	40176.63
670.06	40208.72
670.41	40080.36
670.76	39982.73
671.109	40268.38
671.459	40279.45
671.808	39966.46
672.157	40043.75
672.507	39834.49
672.856	39949.97
673.205	40015.95
673.554	40120.36
673.904	39852.34
674.253	40225.89
674.602	39969.4
674.951	39381.85
675.3	39414.61
675.649	39809.18
675.998	39823.87
676.346	39827.94
676.695	40053.69
677.044	39689.18
677.393	39900.48
677.741	39832.46
678.09	39728.28
678.438	39723.98
678.787	39720.37
679.135	39719.24
679.484	39645.79
679.832	39683.31
680.181	39509.98
680.529	39537.55
680.877	39452.13
681.225	39486.93
681.573	39762.4
681.922	39383.88
682.27	39346.59
682.618	39378.23
682.966	39257.56
683.314	39229.31
683.661	39161.29
684.009	39086.49
684.357	38839.04
684.705	38872.03
685.053	38864.57
685.4	38960.39
685.748	38699.15
686.095	38564.92
686.443	38453.96
686.79	38529.89
687.138	38631.13
687.485	38675.42
687.832	38308.43
688.18	38469.1
688.527	38186.17
688.874	38173.29
689.221	38212.84
689.568	38163.35
689.915	37973.3
690.262	37962.67
690.609	37772.62
690.956	37839.97
691.303	37719.97
691.65	37486.53
691.997	37474.78
692.344	37209.25
692.69	37314.1
693.037	37363.59
693.383	37097.39
693.73	37156.37
694.077	36902.14
694.423	36842.93
694.769	36783.27
695.116	36897.39
695.462	36783.95
695.808	36480.45
696.155	36607.91
696.501	36430.96
696.847	36406.1
697.193	36278.88
697.539	36274.81
697.885	36003.18
698.231	35908.26
698.577	35954.14
698.923	35853.35
699.269	35703.75
699.614	35499.01
699.96	35552.34
700.306	35474.38
700.651	35303.76
700.997	35362.74
701.342	35092.24
701.688	35116.2
702.033	35000.49
702.379	35067.16
702.724	34932.92
703.069	34990.77
703.415	34671.01
703.76	34685.25
704.105	34582.42
704.45	34471.01
704.795	34293.62
705.14	34260.85
705.485	34254.98
705.83	34042.78
706.175	34036.68
706.52	33986.51
706.865	33862.22
707.209	33837.13
707.554	33753.07
707.899	33886.17
708.243	33496.35
708.588	33653.41
708.932	33440.99
709.277	33246.87
709.621	33368.67
709.966	33025.18
710.31	33186.08
710.654	32958.29
710.998	32955.12
711.342	32959.87
711.687	32921.68
712.031	32695.24
712.375	32655.02
712.719	32725.07
713.063	32584.28
713.407	32737.05
713.75	32506.09
714.094	32553.55
714.438	32428.13
714.782	32366.66
715.125	32269.94
715.469	32330.28
715.812	32139.55
716.156	32054.35
716.499	31976.39
716.843	31953.79
717.186	31820.01
717.53	31952.44
717.873	31878.09
718.216	31787.02
718.559	31662.73
718.902	31582.95
719.246	31697.98
719.589	31424.54
719.932	31460.92
720.275	31410.08
720.617	31390.87
720.96	31117.43
721.303	31243.98
721.646	31152.46
721.989	30980.94
722.331	31042.4
722.674	31027.49
723.016	31166.69
723.359	31013.03
723.701	31025
724.044	30835.63
724.386	30733.49
724.729	30820.04
725.071	30716.76
725.413	30743.65
725.755	30604.68
726.097	30589.76
726.439	30418.92
726.782	30400.84
727.124	30667.95
727.465	30370.56
727.807	30385.02
728.149	30180.51
728.491	30351.57
728.833	30318.81
729.175	30127.63
729.516	30123.33
729.858	30108.42
730.199	30094.63
730.541	30021.64
730.882	29940.74
731.224	30083.79
731.565	29805.83
731.906	29823.91
732.248	29822.1
732.589	29589.11
732.93	29669.78
733.271	29575.32
733.612	29752.72
733.953	29690.12
734.294	29597.7
734.635	29466.17
734.976	29510.02
735.317	29243.81
735.658	29275.67
735.999	29373.97
736.339	29312.28
736.68	29319.29
737.021	29194.09
737.361	29049.69
737.702	29247.88
738.042	29107.31
738.383	28946.41
738.723	29225.73
739.063	28972.4
739.404	29051.04
739.744	28895.79
740.084	28770.37
740.424	28888.56
740.764	28931.5
741.104	28884.95
741.444	28748.91
741.784	28622.58
742.124	28762.46
742.464	28630.72
742.804	28598.4
743.143	28501
743.483	28559.98
743.823	28341.01
744.162	28427.33
744.502	28375.13
744.841	28212.42
745.181	28395.02
745.52	28292.42
745.86	28192.76
746.199	28143.27
746.538	28103.72
746.877	28125.42
747.216	28172.2
747.556	28010.39
747.895	28074.8
748.234	27830.51
748.573	27861.92
748.911	27833.67
749.25	27879.1
749.589	27702.6
749.928	27727.24
750.267	27724.53
750.605	27594.81
750.944	27528.82
751.283	27553.23
751.621	27747.35
751.96	27448.15
752.298	27418.54
752.636	27403.18
752.975	27386.23
753.313	27124.32
753.651	27332.45
753.989	27205.67
754.327	27065.79
754.666	27001.61
755.004	27106.24
755.342	27036.41
755.679	26976.3
756.017	26850.88
756.355	26919.12
756.693	26841.84
757.031	26862.18
757.368	26600.04
757.706	26587.61
758.044	26492.47
758.381	26577.66
758.719	26383.32
759.056	26588.28
759.394	26414.73
759.731	26236.88
760.068	26111.91
760.405	26160.05
760.743	26073.72
761.08	26083.89
761.417	25784.24
761.754	25855.65
762.091	25797.57
762.428	25699.49
762.765	25623.56
763.102	25698.14
763.438	25572.94
763.775	25295.21
764.112	25382.89
764.449	25402.55
764.785	25307.64
765.122	25145.61
765.458	24908.55
765.795	25002.79
766.131	24897.25
766.467	24846.18
766.804	24678.73
767.14	24685.28
767.476	24508.56
767.812	24464.95
768.148	24452.97
768.485	24278.51
768.821	24248.01
769.157	24226.31
769.492	24219.08
769.828	24196.93
770.164	23937.51
770.5	23844.18
770.836	23910.16
771.171	23721.01
771.507	23720.56
771.842	23528.25
772.178	23612.99
772.513	23335.26
772.849	23335.26
773.184	23292.55
773.519	23270.41
773.855	23137.75
774.19	23067.7
774.525	23095.72
774.86	22942.96
775.195	22910.87
775.53	22809.17
775.865	22689.86
776.2	22548.84
776.535	22345.23
776.87	22365.57
777.205	22264.56
777.539	22177.33
777.874	22194.73
778.209	22022.08
778.543	21987.5
778.878	21870.22
779.212	21834.28
779.547	21719.03
779.881	21804.68
780.215	21508.87
780.55	21766.04
780.884	21531.24
781.218	21439.72
781.552	21464.8
781.886	21238.82
782.22	21155.43
782.554	21044.25
782.888	20973.74
783.222	20824.14
783.556	20740.53
783.889	20610.59
784.223	20593.87
784.557	20597.71
784.89	20614.66
785.224	20523.58
785.557	20316.81
785.891	20281.33
786.224	20249.69
786.558	20224.61
786.891	19971.28
787.224	19947.33
787.557	19926.09
787.891	19872.75
788.224	19841.12
788.557	19766.99
788.89	19802.47
789.223	19683.83
789.556	19569.94
789.888	19437.29
790.221	19397.06
790.554	19316.84
790.887	19276.61
791.219	19300.79
791.552	19229.38
791.884	19094.47
792.217	19052.44
792.549	18915.27
792.882	18847.47
793.214	18818.09
793.546	18911.42
793.879	18682.28
794.211	18635.72
794.543	18708.49
794.875	18603.86
795.207	18592.79
795.539	18450.87
795.871	18514.15
796.203	18306.02
796.535	18234.38
796.867	18139.01
797.198	18109.64
797.53	18114.38
797.862	18012.01
798.193	17978.34
798.525	17852.92
798.856	17969.3
799.188	17703.77
799.519	17665.13
799.85	17559.59
800.182	17571.12
800.513	17647.5
800.844	17412.03
801.175	17573.83
801.506	17433.27
801.837	17426.26
802.168	17339.71
802.499	17372.48
802.83	17155.09
803.161	17038.7
803.491	17106.05
803.822	17091.36
804.153	16946.73
804.483	16773.85
804.814	16805.04
805.145	16774.53
805.475	16800.97
805.805	16706.51
806.136	16616.57
806.466	16790.12
806.796	16583.12
807.126	16489.11
807.457	16449.79
807.787	16425.16
808.117	16327.76
808.447	16341.1
808.777	16276.92
809.107	16224.71
809.436	16245.73
809.766	16166.86
810.096	16011.61
810.426	16080.76
810.755	16060.2
811.085	16056.36
811.414	16067.43
811.744	15797.83
812.073	15841
812.403	15849.36
812.732	15786.99
813.061	15788.34
813.39	15744.28
813.719	15601.23
814.049	15631.51
814.378	15604.84
814.707	15543.83
815.036	15528.69
815.365	15490.5
815.693	15330.73
816.022	15406.43
816.351	15193.56
816.68	15145.19
817.008	15260.22
817.337	15074.46
817.665	15079.21
817.994	15070.17
818.322	15050.28
818.651	15055.93
818.979	14857.97
819.307	14970.96
819.636	14924.86
819.964	14888.48
820.292	14938.42
820.62	14891.87
820.948	14719.44
821.276	14882.6
821.604	14780.68
821.932	14845.54
822.259	14842.15
822.587	14784.98
822.915	14749.5
823.243	14847.12
823.57	14765.09
823.898	14738.2
824.225	14661.82
824.553	14780.23
824.88	14761.93
825.207	14702.04
825.535	14684.42
825.862	14788.37
826.189	14667.24
826.516	14746.34
826.843	14808.48
827.17	14805.09
827.497	14793.57
827.824	14818.42
828.151	14754.7
828.478	14712.89
828.805	14750.63
829.131	14748.37
829.458	14761.25
829.785	14606.68
830.111	14704.75
830.438	14709.5
830.764	14619.11
831.09	14717.64
831.417	14673.79
831.743	14767.58
832.069	14717.86
832.395	14621.82
832.722	14618.66
833.048	14660.91
833.374	14630.86
833.7	14549.96
834.026	14544.31
834.351	14629.05
834.677	14481.03
835.003	14506.57
835.329	14571.42
835.654	14555.15
835.98	14479.45
836.306	14511.54
836.631	14385.89
836.956	14454.37
837.282	14464.76
837.607	14347.25
837.932	14343.18
838.258	14312
838.583	14274.71
838.908	14232.9
839.233	14198.55
839.558	14235.84
839.883	14186.8
840.208	14101.61
840.533	14100.7
840.858	14142.28
841.182	14131.89
841.507	14148.61
841.832	14018.67
842.156	13973.47
842.481	13977.54
842.805	13894.15
843.13	13862.97
843.454	13949.52
843.778	13899.35
844.103	13792.69
844.427	13788.62
844.751	13743.42
845.075	13646.48
845.399	13628.85
845.723	13631.79
846.047	13689.41
846.371	13528.51
846.695	13450.32
847.019	13416.88
847.343	13348.41
847.666	13317.45
847.99	13172.14
848.313	13182.76
848.637	13108.19
848.96	13115.19
849.284	13132.82
849.607	12994.52
849.931	12910.45
850.254	12903.22
850.577	12736.67
850.9	12762.21
851.223	12719.72
851.546	12578.48
851.869	12540.07
852.192	12697.12
852.515	12493.29
852.838	12488.54
853.161	12445.6
853.483	12428.43
853.806	12256.46
854.129	12287.42
854.451	12269.56
854.774	12249.45
855.096	12152.51
855.419	12135.78
855.741	12066.86
856.063	12081.32
856.385	11975.79
856.708	11987.54
857.03	11900.53
857.352	12000.87
857.674	11870.48
857.996	11851.27
858.318	11753.19
858.64	11858.95
858.961	11705.06
859.283	11734.66
859.605	11621.45
859.926	11732.86
860.248	11559.98
860.57	11499.87
860.891	11533.76
861.212	11473.43
861.534	11504.39
861.855	11404.05
862.176	11461
862.498	11483.82
862.819	11432.3
863.14	11273.43
863.461	11450.83
863.782	11287.9
864.103	11312.08
864.424	11260.78
864.745	11291.29
865.065	11248.35
865.386	11152.98
865.707	11145.07
866.027	11178.52
866.348	11129.03
866.668	11164.51
866.989	11111.18
867.309	11086.77
867.63	11108.24
867.95	11049.71
868.27	11060.56
868.59	11068.92
868.91	11115.47
869.23	10962.48
869.55	10974.68
869.87	10982.82
870.19	11011.52
870.51	10901.69
870.83	10939.88
871.15	10859.43
871.469	10840
871.789	10836.83
872.109	10839.32
872.428	10733.33
872.748	10837.29
873.067	10795.7
873.386	10745.31
873.706	10800
874.025	10717.74
874.344	10686.33
874.663	10695.82
874.982	10648.14
875.301	10642.71
875.62	10584.41
875.939	10593.68
876.258	10618.76
876.577	10488.82
876.896	10624.41
877.214	10529.95
877.533	10516.39
877.852	10522.49
878.17	10460.35
878.489	10546.22
878.807	10423.06
879.125	10463.51
879.444	10353.46
879.762	10437.97
880.08	10397.98
880.398	10293.57
880.716	10348.71
881.034	10324.76
881.352	10298.99
881.67	10289.5
881.988	10278.43
882.306	10277.3
882.624	10158.89
882.941	10159.79
883.259	10119.34
883.577	10174.25
883.894	10169.96
884.212	10140.81
884.529	10047.93
884.846	10063.52
885.164	10017.19
885.481	10005.44
885.798	10033.01
886.115	9886.12
886.432	9933.35
886.75	9895.62
887.067	9879.34
887.383	9793.25
887.7	9855.62
888.017	9914.15
888.334	9826.92
888.651	9800.7
888.967	9891.32
889.284	9731.1
889.6	9646.13
889.917	9617.88
890.233	9651.33
890.55	9620.82
890.866	9573.14
891.182	9534.27
891.498	9566.36
891.815	9513.48
892.131	9440.26
892.447	9470.32
892.763	9376.99
893.079	9435.97
893.395	9384.22
893.71	9345.12
894.026	9277.78
894.342	9294.05
894.657	9245.92
894.973	9223.99
895.289	9215.18
895.604	9174.5
895.92	9142.87
896.235	9106.94
896.55	9106.48
896.865	9037.78
897.181	9006.37
897.496	8994.4
897.811	8912.14
898.126	8930.67
898.441	8828.75
898.756	8916.21
899.071	8804.57
899.386	8783.1
899.7	8765.25
900.015	8741.07
900.33	8685.93
900.644	8697.68
900.959	8651.35
901.273	8633.05
901.588	8604.58
901.902	8506.27
902.216	8485.71
902.531	8459.72
902.845	8425.15
903.159	8382.66
903.473	8327.97
903.787	8357.8
904.101	8280.97
904.415	8362.55
904.729	8316
905.042	8180.63
905.356	8241.65
905.67	8200.74
905.984	8162.33
906.297	8138.37
906.611	8062.44
906.924	8064.03
907.237	8057.47
907.551	8013.41
907.864	7957.36
908.177	7898.83
908.491	7904.26
908.804	7878.49
909.117	7878.04
909.43	7799.17
909.743	7810.92
910.056	7757.82
910.368	7700.64
910.681	7705.39
910.994	7646.64
911.307	7662.23
911.619	7565.51
911.932	7673.3
912.244	7491.84
912.557	7483.02
912.869	7433.99
913.181	7432.18
913.494	7420.65
913.806	7346.3
914.118	7397.6
914.43	7333.65
914.742	7295.46
915.054	7265.63
915.366	7252.3
915.678	7214.78
915.99	7173.88
916.302	7108.57
916.613	7122.58
916.925	7097.5
917.236	7084.39
917.548	7018.63
917.859	6994.45
918.171	7004.84
918.482	6942.7
918.794	6928.91
919.105	6887.33
919.416	6770.95
919.727	6799.88
920.038	6759.88
920.349	6735.47
920.66	6715.59
920.971	6697.28
921.282	6687.34
921.593	6627.23
921.903	6550.62
922.214	6555.59
922.525	6566.66
922.835	6556.95
923.146	6472.43
923.456	6473.33
923.767	6473.78
924.077	6427.01
924.387	6410.96
924.697	6340
925.008	6358.99
925.318	6273.11
925.628	6304.3
925.938	6288.48
926.248	6260
926.558	6196.5
926.867	6227.01
927.177	6130.52
927.487	6073.57
927.796	6122.38
928.106	6117.41
928.416	6078.99
928.725	6057.3
929.034	6032.89
929.344	5973.91
929.653	5991.54
929.962	5905.66
930.271	5862.05
930.581	5826.57
930.89	5841.26
931.199	5755.61
931.508	5760.58
931.817	5731.88
932.125	5769.62
932.434	5733.01
932.743	5722.17
933.051	5645.33
933.36	5627.03
933.669	5652.56
933.977	5599.91
934.286	5585.22
934.594	5642.85
934.902	5526.92
935.21	5513.36
935.519	5545.9
935.827	5500.7
936.135	5449.4
936.443	5397.43
936.751	5412.8
937.059	5394.26
937.367	5346.13
937.674	5349.07
937.982	5304.32
938.29	5335.74
938.597	5309.52
938.905	5213.25
939.213	5200.6
939.52	5247.83
939.827	5234.95
940.135	5115.4
940.442	5164.89
940.749	5130.77
941.056	5076.08
941.363	5054.39
941.67	5083.76
941.977	5021.62
942.284	4969.42
942.591	4949.76
942.898	4947.72
943.205	4924.22
943.511	4916.54
943.818	4839.93
944.125	4859.14
944.431	4857.1
944.738	4835.41
945.044	4794.28
945.35	4761.97
945.657	4719.03
945.963	4696.66
946.269	4667.96
946.575	4714.73
946.881	4714.51
947.187	4662.08
947.493	4654.85
947.799	4668.18
948.105	4642.19
948.41	4596.77
948.716	4553.61
949.022	4555.64
949.327	4482.2
949.633	4510.22
949.938	4506.83
950.244	4498.47
950.549	4408.53
950.854	4441.3
951.16	4390.45
951.465	4349.55
951.77	4439.26
952.075	4336.21
952.38	4357
952.685	4317.91
952.99	4319.26
953.294	4308.64
953.599	4213.73
953.904	4237.46
954.209	4167.63
954.513	4180.29
954.818	4159.27
955.122	4195.65
955.426	4116.11
955.731	4119.72
956.035	4101.64
956.339	4067.07
956.643	4048.54
956.948	3995.21
957.252	4048.54
957.556	3992.49
957.86	4030.46
958.163	3945.72
958.467	4009.44
958.771	3953.17
959.075	3907.3
959.378	3912.27
959.682	3914.08
959.985	3902.1
960.289	3887.86
960.592	3823.01
960.896	3816.23
961.199	3796.79
961.502	3815.32
961.805	3772.39
962.108	3773.29
962.411	3769
962.714	3709.11
963.017	3736.46
963.32	3726.51
963.623	3686.29
963.926	3696
964.228	3664.37
964.531	3648.55
964.833	3636.57
965.136	3620.75
965.438	3590.24
965.741	3587.08
966.043	3529.68
966.345	3543.47
966.648	3538.49
966.95	3519.74
967.252	3513.64
967.554	3465.5
967.856	3463.92
968.158	3463.24
968.46	3445.62
968.761	3398.16
969.063	3403.81
969.365	3354.77
969.666	3381.66
969.968	3369.23
970.269	3345.96
970.571	3351.83
970.872	3293.08
971.174	3296.24
971.475	3308.9
971.776	3278.61
972.077	3302.34
972.378	3240.2
972.679	3283.59
972.98	3212.18
973.281	3209.92
973.582	3191.61
973.883	3200.65
974.183	3186.41
974.484	3153.42
974.785	3153.87
975.085	3097.6
975.386	3135.34
975.686	3096.47
975.986	3070.03
976.287	3099.64
976.587	3044.04
976.887	3028.23
977.187	3059.64
977.487	3030.94
977.787	3021.67
978.087	2995.46
978.387	2984.61
978.687	2943.71
978.987	2957.94
979.286	2911.39
979.586	2920.66
979.885	2937.15
980.185	2912.97
980.484	2893.99
980.784	2832.75
981.083	2865.52
981.382	2841.56
981.682	2857.83
981.981	2870.26
982.28	2797.05
982.579	2829.13
982.878	2796.14
983.177	2791.62
983.475	2801.34
983.774	2735.35
984.073	2755.46
984.372	2698.74
984.67	2710.27
984.969	2709.59
985.267	2684.73
985.566	2688.12
985.864	2631.17
986.162	2656.03
986.461	2686.31
986.759	2606.09
987.057	2590.5
987.355	2609.93
987.653	2611.29
987.951	2576.94
988.249	2550.5
988.547	2572.64
988.844	2539.2
989.142	2550.5
989.44	2529.93
989.737	2507.79
990.035	2504.85
990.332	2491.74
990.63	2473.44
990.927	2441.8
991.224	2443.38
991.521	2441.57
991.819	2431.4
992.116	2414.23
992.413	2408.58
992.71	2404.51
993.006	2399.77
993.303	2363.84
993.6	2358.19
993.897	2372.65
994.193	2328.58
994.49	2336.94
994.787	2336.27
995.083	2321.35
995.379	2296.49
995.676	2249.71
995.972	2268.47
996.268	2260.34
996.565	2238.87
996.861	2251.75
997.157	2262.37
997.453	2243.16
997.749	2241.58
998.044	2212.88
998.34	2202.71
998.636	2199.32
998.932	2179.21
999.227	2160
999.523	2137.18
999.818	2140.34
1000.114	2146.44
1000.409	2124.52
1000.704	2118.19
1001	2081.13
1001.295	2087.69
1001.59	2040.45
1001.885	2073.22
1002.18	2042.04
1002.475	2031.87
1002.77	2035.03
1003.065	1999.33
1003.359	2023.73
1003.654	2001.36
1003.949	1985.99
1004.243	2004.52
1004.538	1972.43
1004.832	1977.41
1005.127	1986.9
1005.421	1928.59
1005.715	1926.79
1006.009	1947.12
1006.304	1913.45
1006.598	1892.21
1006.892	1883.17
1007.186	1892.66
1007.48	1883.4
1007.773	1841.82
1008.067	1831.19
1008.361	1824.64
1008.655	1808.14
1008.948	1781.93
1009.242	1830.52
1009.535	1776.73
1009.829	1762.95
1010.122	1753.23
1010.415	1730.63
1010.708	1758.65
1011.001	1724.98
1011.295	1731.76
1011.588	1722.72
1011.881	1704.19
1012.173	1706.45
1012.466	1707.81
1012.759	1646.57
1013.052	1674.59
1013.344	1665.1
1013.637	1655.38
1013.93	1641.6
1014.222	1635.72
1014.514	1611.99
1014.807	1612.9
1015.099	1609.05
1015.391	1607.47
1015.683	1579.9
1015.976	1572.9
1016.268	1560.47
1016.56	1571.77
1016.851	1548.26
1017.143	1559.34
1017.435	1518.21
1017.727	1503.29
1018.018	1496.06
1018.31	1486.35
1018.602	1494.03
1018.893	1476.4
1019.185	1469.4
1019.476	1468.94
1019.767	1454.93
1020.058	1422.39
1020.35	1430.3
1020.641	1395.5
1020.932	1429.85
1021.223	1393.01
1021.514	1383.3
1021.804	1364.77
1022.095	1378.33
1022.386	1359.34
1022.677	1377.87
1022.967	1353.92
1023.258	1343.3
1023.548	1336.07
1023.839	1325.22
1024.129	1326.12
1024.419	1329.51
1024.709	1313.47
1025	1300.36
1025.29	1275.5
1025.58	1277.76
1025.87	1277.76
1026.16	1264.66
1026.449	1266.24
1026.739	1256.07
1027.029	1234.83
1027.319	1260.59
1027.608	1229.85
1027.898	1203.41
1028.187	1200.25
1028.477	1179.23
1028.766	1189.4
1029.055	1187.14
1029.344	1177.2
1029.634	1155.73
1029.923	1169.29
1030.212	1150.31
1030.501	1138.78
1030.79	1136.75
1031.078	1128.39
1031.367	1099.01
1031.656	1120.48
1031.945	1129.74
1032.233	1093.14
1032.522	1119.35
1032.81	1098.78
1033.099	1067.83
1033.387	1085.9
1033.675	1079.8
1033.963	1077.77
1034.251	1067.15
1034.54	1040.03
1034.828	1018.56
1035.116	1027.15
1035.403	1020.37
1035.691	1025.57
1035.979	1034.61
1036.267	1013.82
1036.554	990.31
1036.842	964.55
1037.129	991.89
1037.417	965
1037.704	958
1037.992	981.05
1038.279	946.25
1038.566	973.36
1038.853	973.36
1039.14	973.36
