Data from hue_130_FLMS001491_00022.txt Node
Date: Tue Feb 07 16:57:22 GMT 2017
User: dcchb
Spectrometer: FLMS00149
Trigger mode: 0
Integration Time (sec): 2.000000E-2
Scans to average: 10
Electric dark correction enabled: true
Nonlinearity correction enabled: false
Boxcar width: 0
XAxis mode: Wavelengths
Number of Pixels in Spectrum: 2048
>>>>>Begin Spectral Data<<<<<
341.393	-24.79
341.776	-24.79
342.16	-24.79
342.543	-51.68
342.927	-64.79
343.31	-67.27
343.693	-83.99
344.077	-58.01
344.46	-74.73
344.843	-58.68
345.226	-39.93
345.61	-29.99
345.993	-35.63
346.376	-20.04
346.759	12.73
347.142	41.65
347.525	57.02
347.908	78.94
348.291	91.37
348.674	76
349.057	110.58
349.44	137.69
349.823	140.86
350.206	172.04
350.588	196.9
350.971	234.87
351.354	229.67
351.737	245.04
352.119	273.74
352.502	257.69
352.884	267.41
353.267	280.74
353.65	300.63
354.032	291.59
354.414	303.34
354.797	300.63
355.179	313.51
355.562	342.66
355.944	318.48
356.326	340.17
356.709	326.39
357.091	347.63
357.473	338.14
357.855	319.84
358.238	322.1
358.62	343.11
359.002	331.81
359.384	331.81
359.766	313.06
360.148	327.97
360.53	347.63
360.912	320.51
361.294	340.63
361.676	339.27
362.057	326.84
362.439	328.42
362.821	344.47
363.203	343.56
363.584	322.55
363.966	325.94
364.348	328.88
364.729	330.01
365.111	299.27
365.493	323
365.874	331.14
366.256	324.36
366.637	319.38
367.019	320.06
367.4	316.22
367.781	314.86
368.163	323
368.544	310.8
368.925	315.99
369.306	319.84
369.688	317.8
370.069	316.67
370.45	348.99
370.831	309.67
371.212	319.84
371.593	325.03
371.974	315.54
372.355	324.13
372.736	328.88
373.117	321.19
373.498	311.93
373.879	315.99
374.26	325.71
374.641	338.82
375.021	324.58
375.402	322.1
375.783	332.27
376.163	342.66
376.544	342.43
376.925	320.97
377.305	316.67
377.686	315.54
378.066	348.31
378.447	345.6
378.827	328.88
379.208	327.75
379.588	322.32
379.968	345.82
380.349	352.15
380.729	339.27
381.109	328.42
381.489	372.72
381.87	353.06
382.25	355.99
382.63	339.95
383.01	348.31
383.39	339.04
383.77	348.54
384.15	350.57
384.53	353.96
384.91	372.04
385.29	354.86
385.67	366.39
386.049	349.67
386.429	364.13
386.809	367.07
387.189	340.17
387.568	380.4
387.948	362.32
388.328	378.59
388.707	367.07
389.087	360.06
389.466	349.21
389.846	371.36
390.225	359.16
390.605	386.5
390.984	406.16
391.363	387.63
391.743	365.94
392.122	372.04
392.501	377.01
392.881	390.12
393.26	385.15
393.639	371.36
394.018	409.33
394.397	385.37
394.776	371.81
395.155	395.31
395.534	391.02
395.913	401.42
396.292	387.18
396.671	401.42
397.05	402.55
397.429	405.48
397.808	414.97
398.186	403
398.565	399.61
398.944	396.67
399.323	413.17
399.701	405.03
400.08	418.36
400.458	407.52
400.837	412.94
401.215	409.33
401.594	420.85
401.972	414.3
402.351	428.31
402.729	432.83
403.107	435.77
403.486	415.43
403.864	439.16
404.242	438.25
404.62	403.22
404.999	424.92
405.377	435.99
405.755	447.74
406.133	453.39
406.511	433.05
406.889	474.18
407.267	472.15
407.645	453.62
408.023	460.17
408.401	474.63
408.779	465.37
409.156	470.34
409.534	467.4
409.912	450.45
410.29	458.36
410.667	472.37
411.045	485.71
411.422	464.01
411.8	472.6
412.178	482.77
412.555	485.71
412.933	487.74
413.31	517.35
413.687	505.82
414.065	521.86
414.442	515.31
414.819	525.93
415.197	520.51
415.574	533.16
415.951	536.33
416.328	543.33
416.705	539.94
417.082	537.46
417.46	509.66
417.837	524.8
418.214	532.94
418.591	544.01
418.967	537.91
419.344	535.2
419.721	544.92
420.098	524.12
420.475	559.83
420.852	563.22
421.228	594.18
421.605	570.23
421.982	587.85
422.358	584.69
422.735	584.69
423.111	610.9
423.488	588.98
423.864	583.33
424.241	601.64
424.617	614.52
424.994	604.8
425.37	605.93
425.746	588.3
426.123	608.19
426.499	623.33
426.875	639.6
427.251	614.74
427.627	638.7
428.003	634.63
428.379	654.74
428.756	643.44
429.132	665.14
429.507	665.82
429.883	649.09
430.259	679.6
430.635	680.73
431.011	684.35
431.387	682.54
431.763	705.36
432.138	700.62
432.514	707.62
432.89	718.47
433.265	706.27
433.641	718.02
434.016	722.31
434.392	746.94
434.767	763.21
435.143	769.54
435.518	754.63
435.894	783.33
436.269	783.33
436.644	784.91
437.02	783.55
437.395	777.23
437.77	821.52
438.145	819.26
438.52	826.72
438.895	821.74
439.271	814.96
439.646	846.38
440.021	828.3
440.395	851.57
440.77	845.92
441.145	868.3
441.52	863.55
441.895	871.46
442.27	872.14
442.645	903.1
443.019	904
443.394	890.67
443.769	909.43
444.143	891.12
444.518	925.47
444.892	897.67
445.267	901.52
445.641	932.25
446.016	920.27
446.39	954.17
446.764	961.18
447.139	946.71
447.513	965.24
447.887	946.26
448.262	950.78
448.636	987.62
449.01	986.26
449.384	970.67
449.758	1000.5
450.132	1010.44
450.506	1001.4
450.88	1004.56
451.254	1020.61
451.628	1019.25
452.002	1043.66
452.376	1035.75
452.75	1083.43
453.123	1077.56
453.497	1075.3
453.871	1102.87
454.244	1106.48
454.618	1094.96
454.992	1123.2
455.365	1128.4
455.739	1152.36
456.112	1187.38
456.486	1162.53
456.859	1174.05
457.232	1212.47
457.606	1210.89
457.979	1224.67
458.352	1239.59
458.725	1259.25
459.099	1270.55
459.472	1317.78
459.845	1309.64
460.218	1328.17
460.591	1335.85
460.964	1332.92
461.337	1360.94
461.71	1383.31
462.083	1387.15
462.456	1405.23
462.829	1407.72
463.201	1449.52
463.574	1434.84
463.947	1455.85
464.32	1477.09
464.692	1519.35
465.065	1535.85
465.438	1579.46
465.81	1616.3
466.183	1613.59
466.555	1649.29
466.928	1652
467.3	1654.04
467.672	1717.54
468.045	1750.76
468.417	1740.36
468.789	1789.4
469.161	1767.93
469.534	1843.86
469.906	1901.04
470.278	1879.8
470.65	1952.56
471.022	1960.25
471.394	2042.05
471.766	2035.5
472.138	2074.82
472.51	2122.05
472.882	2160.01
473.253	2230.07
473.625	2267.81
473.997	2317.52
474.369	2348.94
474.74	2380.35
475.112	2454.24
475.484	2536.28
475.855	2550.06
476.227	2609.49
476.598	2732.2
476.97	2738.98
477.341	2816.72
477.713	2879.09
478.084	2951.86
478.455	3054.23
478.827	3097.16
479.198	3211.29
479.569	3271.4
479.94	3368.34
480.311	3451.05
480.682	3535.8
481.053	3653.53
481.424	3739.86
481.795	3830.25
482.166	3905.73
482.537	3990.02
482.908	4156.8
483.279	4233.41
483.65	4367.64
484.021	4498.26
484.391	4580.06
484.762	4684.92
485.133	4740.74
485.503	4939.38
485.874	5054.4
486.244	5158.81
486.615	5368.74
486.985	5425.69
487.356	5605.35
487.726	5754.72
488.097	5897.77
488.467	5965.79
488.837	6171.66
489.207	6273.35
489.578	6400.35
489.948	6552.89
490.318	6733.45
490.688	6774.81
491.058	7006.21
491.428	7197.62
491.798	7280.56
492.168	7487.56
492.538	7648.23
492.908	7784.27
493.278	7919.64
493.648	8002.57
494.017	8183.58
494.387	8300.87
494.757	8443.69
495.126	8575.44
495.496	8758.71
495.866	8798.48
496.235	8941.98
496.605	9085.26
496.974	9237.12
497.344	9372.93
497.713	9463.1
498.082	9600.5
498.452	9773.82
498.821	9876.2
499.19	9900.38
499.559	10084.78
499.928	10239.8
500.298	10368.61
500.667	10460.81
501.036	10498.55
501.405	10678.21
501.774	10682.28
502.143	10837.53
502.512	10932.89
502.88	11014.47
503.249	11089.95
503.618	11227.8
503.987	11307.34
504.356	11434.35
504.724	11476.15
505.093	11575.13
505.462	11596.83
505.83	11794.11
506.199	11877.27
506.567	11983.48
506.936	12044.5
507.304	12171.28
507.672	12210.37
508.041	12332.18
508.409	12388.9
508.777	12480.19
509.145	12577.14
509.514	12602.68
509.882	12674.54
510.25	12688.1
510.618	12824.37
510.986	12866.62
511.354	13015.55
511.722	13105.49
512.09	13264.35
512.458	13060.52
512.826	13260.51
513.193	13288.53
513.561	13311.59
513.929	13454.86
514.297	13500.05
514.664	13533.95
515.032	13602.88
515.4	13706.15
515.767	13726.26
516.135	13875.64
516.502	13733.72
516.869	13912.93
517.237	13968.97
517.604	13920.16
517.972	14039.48
518.339	14080.83
518.706	14025.69
519.073	14161.05
519.44	14143.2
519.808	14310.2
520.175	14161.05
520.542	14326.25
520.909	14380.26
521.276	14340.26
521.643	14471.33
522.009	14487.83
522.376	14555.62
522.743	14600.82
523.11	14693.7
523.477	14690.76
523.843	14793.58
524.21	14945.89
524.577	14896.85
524.943	15016.17
525.31	14910.64
525.676	15091.43
526.043	15103.85
526.409	15074.7
526.776	15233.79
527.142	15184.3
527.508	15216.39
527.874	15232.89
528.241	15281.93
528.607	15317.18
528.973	15464.07
529.339	15277.64
529.705	15488.02
530.071	15437.86
530.437	15490.06
530.803	15455.71
531.169	15545.2
531.535	15559.89
531.901	15431.3
532.267	15464.07
532.632	15539.1
532.998	15522.15
533.364	15507.46
533.73	15523.05
534.095	15582.49
534.461	15635.82
534.826	15588.36
535.192	15663.84
535.557	15568.7
535.923	15511.08
536.288	15570.28
536.653	15538.19
537.019	15476.05
537.384	15480.57
537.749	15482.6
538.114	15397.63
538.479	15327.13
538.845	15402.38
539.21	15335.94
539.575	15373
539.94	15374.13
540.305	15311.08
540.67	15268.37
541.034	15266.11
541.399	15245.77
541.764	15208.94
542.129	15220.24
542.494	15162.16
542.858	15167.81
543.223	15163.97
543.587	15143.85
543.952	15135.04
544.316	15087.13
544.681	14979.34
545.045	15027.7
545.41	15102.27
545.774	14986.34
546.138	14911.09
546.503	14892.56
546.867	14886.68
547.231	14998.77
547.595	14896.63
547.959	14828.38
548.324	14809.62
548.688	14777.76
549.052	14706.12
549.416	14722.62
549.779	14631.78
550.143	14607.82
550.507	14676.75
550.871	14688.05
551.235	14578.44
551.599	14573.02
551.962	14584.32
552.326	14540.25
552.689	14569.63
553.053	14510.65
553.417	14487.15
553.78	14500.71
554.143	14454.38
554.507	14460.26
554.87	14401.27
555.234	14601.72
555.597	14430.88
555.96	14387.49
556.323	14413.02
556.686	14346.36
557.05	14474.94
557.413	14437.43
557.776	14381.61
558.139	14398.11
558.502	14296.42
558.865	14386.36
559.228	14382.97
559.59	14455.06
559.953	14442.85
560.316	14460.93
560.679	14388.62
561.041	14441.72
561.404	14495.28
561.767	14563.98
562.129	14447.37
562.492	14438.79
562.854	14441.27
563.217	14517.65
563.579	14495.96
563.941	14492.57
564.304	14542.74
564.666	14588.16
565.028	14565.79
565.39	14584.55
565.753	14563.3
566.115	14667.71
566.477	14641.49
566.839	14675.16
567.201	14668.39
567.563	14699.35
567.925	14806.46
568.287	14692.79
568.648	14717.42
569.01	14803.98
569.372	14811.43
569.734	14726.92
570.095	14844.65
570.457	14832.22
570.819	14788.61
571.18	14842.39
571.542	14897.53
571.903	14849.62
572.265	14945.89
572.626	14888.72
572.987	14893.24
573.349	14888.04
573.71	15018.43
574.071	15038.55
574.432	14957.87
574.794	15109.05
575.155	15079.67
575.516	14922.62
575.877	14988.38
576.238	15039.22
576.599	15114.25
576.96	15027.7
577.32	15085.1
577.681	15094.36
578.042	15078.09
578.403	15056.4
578.763	15118.54
579.124	15059.11
579.485	15162.84
579.845	15055.49
580.206	15020.24
580.566	15104.08
580.927	15121.71
581.287	15158.54
581.648	15008.49
582.008	15043.97
582.368	14958.1
582.728	15062.95
583.089	15060.01
583.449	15112.89
583.809	15127.36
584.169	15074.25
584.529	15016.17
584.889	15183.4
585.249	15033.57
585.609	15054.59
585.969	15046.23
586.329	15019.56
586.688	15035.83
587.048	14984.99
587.408	14916.97
587.768	14940.02
588.127	14901.37
588.487	14904.54
588.846	15004.2
589.206	14808.72
589.565	14893.46
589.925	14962.84
590.284	14901.15
590.643	14898.89
591.003	14944.08
591.362	14960.36
591.721	14858.21
592.08	14907.93
592.44	15012.11
592.799	14872.45
593.158	14870.19
593.517	14800.59
593.876	14861.37
594.235	14883.75
594.593	14882.17
594.952	14885.78
595.311	14815.95
595.67	14787.03
596.029	14862.05
596.387	14816.63
596.746	14892.79
597.104	14855.73
597.463	14808.95
597.822	14846.01
598.18	14837.42
598.538	14786.12
598.897	14887.14
599.255	14740.93
599.613	14892.79
599.972	14777.99
600.33	14827.48
600.688	14704.09
601.046	14805.33
601.404	14856.63
601.762	14852.79
602.12	14924.88
602.478	14935.5
602.836	14914.03
603.194	14764.43
603.552	14881.26
603.91	14725.33
604.268	14795.84
604.625	14829.06
604.983	14726.92
605.341	14799.68
605.698	14905.22
606.056	14887.14
606.413	14862.28
606.771	14843.52
607.128	14864.99
607.485	14818.21
607.843	14779.57
608.2	14842.84
608.557	14876.74
608.914	14875.39
609.272	14971.2
609.629	14902.73
609.986	15029.05
610.343	14911.99
610.7	15010.52
611.057	14968.72
611.414	15003.52
611.771	14957.64
612.127	14973.01
612.484	15060.69
612.841	15103.18
613.198	15029.51
613.554	15095.49
613.911	15138.88
614.267	15096.4
614.624	15150.63
614.98	15121.03
615.337	15180.46
615.693	15054.36
616.05	15056.85
616.406	15179.56
616.762	15130.52
617.118	15093.91
617.475	15120.35
617.831	15114.25
618.187	15120.58
618.543	15174.59
618.899	15166.9
619.255	15226.56
619.611	15319.89
619.967	15283.06
620.323	15213
620.678	15239.9
621.034	15204.19
621.39	15244.87
621.746	15296.84
622.101	15385.43
622.457	15214.13
622.812	15333.68
623.168	15340.68
623.523	15291.87
623.879	15347.01
624.234	15310.85
624.589	15340.01
624.945	15251.65
625.3	15320.8
625.655	15229.95
626.01	15376.84
626.365	15266.56
626.72	15211.65
627.075	15246.9
627.43	15253.23
627.785	15258.88
628.14	15265.21
628.495	15246.68
628.85	15236.05
629.205	15223.85
629.559	15325.77
629.914	15204.64
630.269	15207.81
630.623	15221.14
630.978	15161.71
631.332	15203.74
631.687	15183.17
632.041	15126
632.396	15228.82
632.75	15088.94
633.104	15137.75
633.459	15070.63
633.813	15018.43
634.167	15132.33
634.521	14973.91
634.875	15058.43
635.229	15025.44
635.583	14888.94
635.937	14964.42
636.291	14842.84
636.645	14825.22
636.999	14853.24
637.352	14922.16
637.706	14868.15
638.06	14883.97
638.413	14827.93
638.767	14761.72
639.121	14896.85
639.474	14764.88
639.828	14769.4
640.181	14790.87
640.534	14761.49
640.888	14737.31
641.241	14686.69
641.594	14781.15
641.947	14754.03
642.301	14788.83
642.654	14730.76
643.007	14788.61
643.36	14688.5
643.713	14591.78
644.066	14815.5
644.419	14665.45
644.771	14556.98
645.124	14479.46
645.477	14524.89
645.83	14320.15
646.182	14189.75
646.535	14216.87
646.888	14237.66
647.24	14182.52
647.593	14140.72
647.945	14181.62
648.298	14107.5
648.65	14047.61
649.002	14045.13
649.355	14185.69
649.707	14094.16
650.059	14238.34
650.411	14339.35
650.763	14339.35
651.115	14495.96
651.467	14503.42
651.819	14414.83
652.171	14401.05
652.523	14450.31
652.875	14371.44
653.227	14345.46
653.578	14476.07
653.93	14465.23
654.282	14321.73
654.633	14437.43
654.985	14486.92
655.337	14448.28
655.688	14459.8
656.039	14462.52
656.391	14425
656.742	14362.63
657.094	14422.74
657.445	14459.35
657.796	14407.6
658.147	14456.64
658.498	14476.3
658.849	14528.05
659.2	14447.6
659.551	14421.39
659.902	14466.58
660.253	14451.89
660.604	14575.51
660.955	14455.74
661.306	14504.55
661.656	14495.28
662.007	14461.39
662.358	14487.6
662.708	14579.12
663.059	14491.44
663.409	14446.47
663.76	14494.15
664.11	14525.11
664.461	14525.34
664.811	14538.9
665.161	14517.2
665.511	14472.68
665.862	14420.03
666.212	14396.75
666.562	14518.78
666.912	14458
667.262	14513.36
667.612	14435.85
667.962	14543.64
668.312	14565.56
668.662	14584.09
669.011	14483.08
669.361	14495.28
669.711	14497.99
670.06	14430.2
670.41	14476.75
670.76	14362.4
671.109	14515.85
671.459	14401.95
671.808	14348.39
672.157	14430.2
672.507	14389.75
672.856	14401.73
673.205	14414.38
673.554	14431.78
673.904	14380.03
674.253	14455.74
674.602	14305.23
674.951	14157.89
675.3	14062.75
675.649	14311.78
675.998	14260.71
676.346	14266.81
676.695	14355.85
677.044	14233.59
677.393	14321.28
677.741	14207.61
678.09	14210.32
678.438	14134.84
678.787	14186.59
679.135	14214.16
679.484	14193.14
679.832	14178.45
680.181	14024.56
680.529	14122.19
680.877	14058.01
681.225	14007.39
681.573	14119.93
681.922	13998.12
682.27	13883.55
682.618	13957.44
682.966	13861.18
683.314	13941.17
683.661	13901.4
684.009	13768.97
684.357	13863.43
684.705	13754.29
685.053	13773.04
685.4	13725.81
685.748	13717
686.095	13683.1
686.443	13551.58
686.79	13608.07
687.138	13620.05
687.485	13658.47
687.832	13562.43
688.18	13507.96
688.527	13458.02
688.874	13450.56
689.221	13415.76
689.568	13384.8
689.915	13276.11
690.262	13288.53
690.609	13192.04
690.956	13169.67
691.303	13164.92
691.65	13170.8
691.997	13135.54
692.344	13043.12
692.69	12950.69
693.037	12985.27
693.383	12927.87
693.73	12856.23
694.077	12834.31
694.423	12832.73
694.769	12766.06
695.116	12712.73
695.462	12733.3
695.808	12684.48
696.155	12599.29
696.501	12511.15
696.847	12489.23
697.193	12396.13
697.539	12466.64
697.885	12385.51
698.231	12336.7
698.577	12324.49
698.923	12264.38
699.269	12209.02
699.614	12156.81
699.96	12159.52
700.306	12080.2
700.651	12086.76
700.997	12021.9
701.342	11928.8
701.688	11945.97
702.033	11849.93
702.379	11886.99
702.724	11880.89
703.069	11840.66
703.415	11809.7
703.76	11718.63
704.105	11709.82
704.45	11639.54
704.795	11590.05
705.14	11533.55
705.485	11524.06
705.83	11469.83
706.175	11449.49
706.52	11408.13
706.865	11409.26
707.209	11416.27
707.554	11314.12
707.899	11337.63
708.243	11271.19
708.588	11270.06
708.932	11196.16
709.277	11183.28
709.621	11184.18
709.966	11119.55
710.31	11120.68
710.654	10984.87
710.998	11057.41
711.342	11072.32
711.687	10991.19
712.031	10861.48
712.375	10921.14
712.719	10841.37
713.063	10795.94
713.407	10907.81
713.75	10812.89
714.094	10772.89
714.438	10762.73
714.782	10793.69
715.125	10733.35
715.469	10737.19
715.812	10693.12
716.156	10672.11
716.499	10707.13
716.843	10676.63
717.186	10604.54
717.53	10596.63
717.873	10609.28
718.216	10644.76
718.559	10563.63
718.902	10461.72
719.246	10494.26
719.589	10499
719.932	10320.03
720.275	10410.42
720.617	10416.52
720.96	10329.52
721.303	10438.67
721.646	10371.32
721.989	10322.51
722.331	10399.57
722.674	10324.09
723.016	10414.03
723.359	10341.72
723.701	10344.43
724.044	10292.46
724.386	10254.04
724.729	10302.4
725.071	10292
725.413	10294.94
725.755	10266.02
726.097	10166.13
726.439	10217.88
726.782	10179.24
727.124	10236.19
727.465	10197.09
727.807	10287.03
728.149	10152.8
728.491	10146.24
728.833	10188.05
729.175	10176.98
729.516	10122.06
729.858	10152.35
730.199	10184.89
730.541	10145.57
730.882	10113.7
731.224	10200.93
731.565	10047.72
731.906	10130.43
732.248	10110.09
732.589	10015.17
732.93	10065.57
733.271	10109.41
733.612	10073.25
733.953	10114.38
734.294	10032.35
734.635	10054.5
734.976	10108.73
735.317	10040.71
735.658	10047.04
735.999	10074.16
736.339	10056.3
736.68	10070.09
737.021	10075.51
737.361	10035.06
737.702	10107.6
738.042	10058.56
738.383	10102.63
738.723	10089.97
739.063	10134.27
739.404	10088.84
739.744	10154.38
740.084	10110.09
740.424	10101.73
740.764	10209.75
741.104	10208.84
741.444	10220.82
741.784	10157.32
742.124	10174.04
742.464	10220.59
742.804	10214.27
743.143	10185.79
743.483	10274.83
743.823	10216.98
744.162	10252.91
744.502	10289.07
744.841	10296.3
745.181	10458.1
745.52	10410.42
745.86	10445.22
746.199	10507.36
746.538	10444.77
746.877	10633.24
747.216	10648.6
747.556	10626.46
747.895	10708.26
748.234	10652.67
748.573	10777.87
748.911	10836.17
749.25	10905.09
749.589	10844.53
749.928	11061.25
750.267	11095.82
750.605	11160.91
750.944	11175.37
751.283	11341.69
751.621	11409.71
751.96	11480.67
752.298	11588.24
752.636	11621.01
752.975	11751.4
753.313	11723.83
753.651	11982.58
753.989	11965.41
754.327	12078.4
754.666	12177.6
755.004	12390.25
755.342	12451.27
755.679	12727.42
756.017	12686.74
756.355	12907.3
756.693	12972.16
757.031	13120.4
757.368	13201.08
757.706	13370.57
758.044	13559.94
758.381	13736.43
758.719	13894.39
759.056	14063.66
759.394	14225.91
759.731	14258.9
760.068	14396.75
760.405	14565.56
760.743	14757.65
761.08	14920.81
761.417	14971.2
761.754	15241.93
762.091	15392.43
762.428	15533.22
762.765	15585.65
763.102	15912.65
763.438	16058.86
763.775	16203.49
764.112	16295.46
764.449	16492.97
764.785	16584.04
765.122	16667.88
765.458	16791.27
765.795	16959.4
766.131	17187.87
766.467	17241.88
766.804	17397.58
767.14	17443.91
767.476	17650.68
767.812	17721.41
768.148	17871.01
768.485	17834.86
768.821	18060.84
769.157	18216.77
769.492	18281.85
769.828	18411.11
770.164	18442.3
770.5	18573.14
770.836	18746.24
771.171	18697.88
771.507	18763.42
771.842	18861.27
772.178	18983.07
772.513	19001.15
772.849	19029.17
773.184	19089.96
773.519	19297.87
773.855	19190.98
774.19	19289.73
774.525	19396.85
774.86	19466
775.195	19525.21
775.53	19533.12
775.865	19498.09
776.2	19468.03
776.535	19575.6
776.87	19571.53
777.205	19628.93
777.539	19590.06
777.874	19617.41
778.209	19572.66
778.543	19649.5
778.878	19564.75
779.212	19691.98
779.547	19709.83
779.881	19761.36
780.215	19632.32
780.55	19859.21
780.884	19764.3
781.218	19697.18
781.552	19875.71
781.886	19670.97
782.22	19697.41
782.554	19651.98
782.888	19517.52
783.222	19569.73
783.556	19497.19
783.889	19576.05
784.223	19478.2
784.557	19483.4
784.89	19412.44
785.224	19494.02
785.557	19536.05
785.891	19428.94
786.224	19440.24
786.558	19470.75
786.891	19320.01
787.224	19230.3
787.557	19212.22
787.891	19244.54
788.224	19275.72
788.557	19275.27
788.89	19169.06
789.223	19244.54
789.556	19077.76
789.888	19061.26
790.221	19163.63
790.554	18971.1
790.887	18972.45
791.219	18980.14
791.552	18857.2
791.884	18820.14
792.217	18759.35
792.549	18751.22
792.882	18658.79
793.214	18585.57
793.546	18641.84
793.879	18486.59
794.211	18487.27
794.543	18548.51
794.875	18471.45
795.207	18536.98
795.539	18389.87
795.871	18473.48
796.203	18391.45
796.535	18169.99
796.867	18165.47
797.198	18141.29
797.53	18200.72
797.862	18044.34
798.193	18107.39
798.525	18059.26
798.856	18025.36
799.188	17863.56
799.519	17812.26
799.85	17641.41
800.182	17738.36
800.513	17754.86
800.844	17628.53
801.175	17745.59
801.506	17645.48
801.837	17547.41
802.168	17464.24
802.499	17501.08
802.83	17417.92
803.161	17420.86
803.491	17471.7
803.822	17472.83
804.153	17267.64
804.483	17188.55
804.814	17180.18
805.145	17192.39
805.475	17122.33
805.805	17054.09
806.136	17085.27
806.466	17141.09
806.796	17030.36
807.126	16930.47
807.457	16868.78
807.787	16913.07
808.117	16840.53
808.447	16746.3
808.777	16768.9
809.107	16649.8
809.436	16656.13
809.766	16650.25
810.096	16596.92
810.426	16448.9
810.755	16509.92
811.085	16522.35
811.414	16542.46
811.744	16288.68
812.073	16284.16
812.403	16388.11
812.732	16238.06
813.061	16231.06
813.39	16162.36
813.719	16169.36
814.049	16329.81
814.378	16189.7
814.707	16139.08
815.036	16187.89
815.365	16021.34
815.693	15934.11
816.022	15901.57
816.351	15858.18
816.68	15769.83
817.008	15920.78
817.337	15641.69
817.665	15636.95
817.994	15711.97
818.322	15684.63
818.651	15608.25
818.979	15599.43
819.307	15634.46
819.636	15547.46
819.964	15512.88
820.292	15561.92
820.62	15576.84
820.948	15463.17
821.276	15585.42
821.604	15475.6
821.932	15542.26
822.259	15485.77
822.587	15469.72
822.915	15515.37
823.243	15551.98
823.57	15426.56
823.898	15528.93
824.225	15459.33
824.553	15441.02
824.88	15427.46
825.207	15489.38
825.535	15405.32
825.862	15603.05
826.189	15389.04
826.516	15490.74
826.843	15524.86
827.17	15461.13
827.497	15562.83
827.824	15481.7
828.151	15544.07
828.478	15535.93
828.805	15590.62
829.131	15515.14
829.458	15444.41
829.785	15396.73
830.111	15542.49
830.438	15509.04
830.764	15470.17
831.09	15591.07
831.417	15453.22
831.743	15512.43
832.069	15500.45
832.395	15382.04
832.722	15552.66
833.048	15364.86
833.374	15382.27
833.7	15317.18
834.026	15385.88
834.351	15323.28
834.677	15342.72
835.003	15312.89
835.329	15344.07
835.654	15343.62
835.98	15231.31
836.306	15269.73
836.631	15273.57
836.956	15304.98
837.282	15302.95
837.607	15188.37
837.932	15166.45
838.258	15134.81
838.583	15081.48
838.908	15025.44
839.233	15183.63
839.558	15034.03
839.883	14974.59
840.208	14873.35
840.533	14885.78
840.858	14907.25
841.182	15011.43
841.507	14900.7
841.832	14940.47
842.156	14853.69
842.481	14814.6
842.805	14807.36
843.13	14750.19
843.454	14696.86
843.778	14620.25
844.103	14651.89
844.427	14542.29
844.751	14595.62
845.075	14568.95
845.399	14544.77
845.723	14394.04
846.047	14440.82
846.371	14375.74
846.695	14354.5
847.019	14161.28
847.343	14134.16
847.666	14109.08
847.99	14019.59
848.313	14102.52
848.637	13963.55
848.96	13932.59
849.284	13921.51
849.607	13809.2
849.931	13773.95
850.254	13642.2
850.577	13609.43
850.9	13568.98
851.223	13533.95
851.546	13423.45
851.869	13367.18
852.192	13412.83
852.515	13248.76
852.838	13206.5
853.161	13231.14
853.483	13201.08
853.806	13143.45
854.129	13093.74
854.451	13071.14
854.774	13077.24
855.096	12890.81
855.419	12884.7
855.741	12892.84
856.063	12766.97
856.385	12776.01
856.708	12814.87
857.03	12684.48
857.352	12686.74
857.674	12697.14
857.996	12621.89
858.318	12527.42
858.64	12601.1
858.961	12459.18
859.283	12500.08
859.605	12376.02
859.926	12354.77
860.248	12313.42
860.57	12300.09
860.891	12305.96
861.212	12232.07
861.534	12231.39
861.855	12150.94
862.176	12216.7
862.498	12169.02
862.819	12080.66
863.14	12045.86
863.461	12053.76
863.782	11969.7
864.103	12043.82
864.424	12039.3
864.745	11996.82
865.065	11982.35
865.386	11852.19
865.707	11942.13
866.027	11870.49
866.348	11867.56
866.668	11828.01
866.989	11834.79
867.309	11763.38
867.63	11807.22
867.95	11811.74
868.27	11734.9
868.59	11757.05
868.91	11668.92
869.23	11651.29
869.55	11607.9
869.87	11685.87
870.19	11733.55
870.51	11670.72
870.83	11611.74
871.15	11554.8
871.469	11584.85
871.789	11541.91
872.109	11531.07
872.428	11537.39
872.748	11523.84
873.067	11489.26
873.386	11463.72
873.706	11406.55
874.025	11431.18
874.344	11317.97
874.663	11369.26
874.982	11357.96
875.301	11374.23
875.62	11282.49
875.939	11324.97
876.258	11277.06
876.577	11241.81
876.896	11269.15
877.214	11179.44
877.533	11266.22
877.852	11169.95
878.17	11190.06
878.489	11098.08
878.807	11157.52
879.125	11119.1
879.444	11094.92
879.762	11075.49
880.08	11088.82
880.398	11046.11
880.716	10994.36
881.034	11008.37
881.352	10971.31
881.67	10921.14
881.988	11006.33
882.306	10935.6
882.624	10818.32
882.941	10797.98
883.259	10739.22
883.577	10841.37
883.894	10784.65
884.212	10791.2
884.529	10750.97
884.846	10771.99
885.164	10745.32
885.481	10590.98
885.798	10684.76
886.115	10572.45
886.432	10635.27
886.75	10604.76
887.067	10520.02
887.383	10533.13
887.7	10531.09
888.017	10477.99
888.334	10492.68
888.651	10453.13
888.967	10417.2
889.284	10408.38
889.6	10317.77
889.917	10312.12
890.233	10245
890.55	10184.21
890.866	10224.66
891.182	10169.29
891.498	10119.13
891.815	10145.34
892.131	10127.04
892.447	10063.08
892.763	9965.01
893.079	9966.59
893.395	9962.29
893.71	9959.13
894.026	9884.56
894.342	9845.69
894.657	9839.36
894.973	9770.21
895.289	9745.13
895.604	9795.29
895.92	9703.54
896.235	9641.63
896.55	9642.08
896.865	9593.72
897.181	9647.05
897.496	9614.06
897.811	9564.34
898.126	9444.12
898.441	9431.69
898.756	9403.44
899.071	9323.89
899.386	9344.46
899.7	9221.07
900.015	9229.66
900.33	9226.95
900.644	9210.22
900.959	9190.56
901.273	9149.66
901.588	9052.04
901.902	9010
902.216	9037.35
902.531	9038.7
902.845	9031.92
903.159	8906.5
903.473	8858.59
903.787	8870.8
904.101	8821.08
904.415	8816.56
904.729	8757.81
905.042	8743.8
905.356	8716.9
905.67	8633.97
905.984	8696.34
906.297	8647.07
906.611	8555.55
906.924	8550.58
907.237	8546.74
907.551	8469
907.864	8488.66
908.177	8386.29
908.491	8452.28
908.804	8334.99
909.117	8292.96
909.43	8280.76
909.743	8209.35
910.056	8225.17
910.368	8156.47
910.681	8142.46
910.994	8162.57
911.307	8112.4
911.619	8008
911.932	8014.32
912.244	7993.31
912.557	7903.59
912.869	7870.15
913.181	7885.29
913.494	7881.22
913.806	7827.89
914.118	7755.35
914.43	7716.25
914.742	7732.75
915.054	7747.21
915.366	7669.93
915.678	7688.91
915.99	7541.79
916.302	7540.89
916.613	7526.65
916.925	7468.35
917.236	7455.24
917.548	7423.15
917.859	7438.75
918.171	7366.88
918.482	7285.08
918.794	7306.55
919.105	7265.64
919.416	7188.13
919.727	7168.24
920.038	7197.17
920.349	7149.94
920.66	7141.8
920.971	7078.53
921.282	7072.43
921.593	7044.18
921.903	6997.4
922.214	6941.58
922.525	6938.65
922.835	6949.72
923.146	6881.47
923.456	6887.12
923.767	6840.34
924.077	6810.96
924.387	6775.03
924.697	6692.1
925.008	6735.49
925.318	6674.47
925.628	6715.15
925.938	6670.63
926.248	6564.64
926.558	6567.13
926.867	6561.48
927.177	6538.43
927.487	6556.06
927.796	6429.05
928.106	6442.16
928.416	6449.62
928.725	6406.46
929.034	6426.79
929.344	6375.27
929.653	6389.28
929.962	6300.47
930.271	6269.74
930.581	6266.12
930.89	6219.57
931.199	6220.47
931.508	6149.06
931.817	6157.2
932.125	6169.17
932.434	6118.78
932.743	6077.42
933.051	6020.25
933.36	6059.8
933.669	5991.55
933.977	5966.47
934.286	5935.51
934.594	5938.9
934.902	5882.4
935.21	5859.58
935.519	5875.62
935.827	5820.48
936.135	5791.78
936.443	5724.67
936.751	5758.34
937.059	5745.23
937.367	5712.69
937.674	5737.32
937.982	5629.3
938.29	5646.02
938.597	5606.7
938.905	5562.64
939.213	5557.89
939.52	5482.64
939.827	5542.3
940.135	5490.77
940.442	5484.67
940.749	5440.38
941.056	5471.57
941.363	5401.28
941.67	5359.48
941.977	5357.67
942.284	5274.51
942.591	5321.96
942.898	5262.76
943.205	5242.87
943.511	5281.06
943.818	5168.75
944.125	5113.38
944.431	5170.78
944.738	5141.4
945.044	5137.34
945.35	5124.91
945.657	5037.9
945.963	5028.64
946.269	5010.33
946.575	5032.71
946.881	4960.62
947.187	4958.81
947.493	4930.79
947.799	4944.35
948.105	4919.04
948.41	4874.97
948.716	4895.31
949.022	4795.65
949.327	4837.91
949.633	4769.66
949.938	4790.45
950.244	4746.84
950.549	4725.37
950.854	4712.49
951.16	4697.35
951.465	4658.25
951.77	4604.24
952.075	4667.74
952.38	4623.23
952.685	4616.67
952.99	4543.45
953.294	4556.11
953.599	4524.92
953.904	4484.02
954.209	4458.94
954.513	4486.28
954.818	4437.02
955.122	4430.01
955.426	4397.02
955.731	4377.81
956.035	4366.51
956.339	4344.82
956.643	4372.16
956.948	4336.45
957.252	4313.18
957.556	4279.96
957.86	4291.71
958.163	4264.59
958.467	4230.24
958.771	4253.29
959.075	4213.52
959.378	4199.51
959.682	4164.93
959.985	4135.33
960.289	4112.96
960.592	4104.6
960.896	4089
961.199	4058.49
961.502	4049.23
961.805	4022.56
962.108	3990.7
962.411	3989.57
962.714	3946.86
963.017	3976.69
963.32	3926.52
963.623	3910.7
963.926	3940.76
964.228	3899.63
964.531	3881.55
964.833	3864.6
965.136	3845.85
965.438	3864.83
965.741	3811.95
966.043	3797.03
966.345	3780.99
966.648	3765.4
966.95	3754.32
967.252	3716.81
967.554	3724.94
967.856	3695.57
968.158	3698.73
968.46	3646.53
968.761	3650.6
969.063	3643.82
969.365	3604.72
969.666	3615.79
969.968	3594.78
970.269	3590.94
970.571	3566.76
970.872	3544.16
971.174	3493.09
971.475	3527.44
971.776	3501
972.077	3485.18
972.378	3487.21
972.679	3485.63
972.98	3461
973.281	3440.43
973.582	3432.07
973.883	3414.22
974.183	3381.9
974.484	3348.23
974.785	3373.09
975.085	3343.49
975.386	3319.53
975.686	3331.73
975.986	3305.07
976.287	3269.14
976.587	3268.46
976.887	3250.83
977.187	3273.88
977.487	3232.08
977.787	3213.32
978.087	3195.92
978.387	3172.19
978.687	3164.96
978.987	3116.37
979.286	3139.42
979.586	3127.9
979.885	3116.6
980.185	3116.6
980.484	3047.45
980.784	3065.53
981.083	3030.73
981.382	2994.79
981.682	3045.41
981.981	3002.25
982.28	3030.27
982.579	2983.95
982.878	2980.56
983.177	2935.59
983.475	2934.23
983.774	2936.72
984.073	2950.28
984.372	2917.96
984.67	2883.84
984.969	2884.74
985.267	2924.29
985.566	2833.44
985.864	2806.55
986.162	2823.95
986.461	2798.42
986.759	2808.81
987.057	2753.9
987.355	2776.49
987.653	2751.64
987.951	2752.77
988.249	2762.26
988.547	2748.02
988.844	2714.35
989.142	2705.99
989.44	2655.37
989.737	2684.97
990.035	2649.94
990.332	2618.31
990.63	2628.02
990.927	2649.04
991.224	2634.58
991.521	2594.8
991.819	2589.38
992.116	2586.44
992.413	2554.13
992.71	2537.86
993.006	2566.56
993.303	2531.08
993.6	2546.9
993.897	2510.51
994.193	2468.48
994.49	2504.19
994.787	2458.99
995.083	2418.99
995.379	2418.09
995.676	2426.45
995.972	2418.54
996.268	2374.25
996.565	2394.58
996.861	2395.49
997.157	2351.65
997.453	2341.25
997.749	2341.7
998.044	2318.43
998.34	2312.33
998.636	2329.27
998.932	2300.12
999.227	2281.14
999.523	2263.06
999.818	2270.75
1000.114	2240.46
1000.409	2225.1
1000.704	2239.79
1001	2199.56
1001.295	2210.63
1001.59	2209.5
1001.885	2215.83
1002.18	2176.28
1002.475	2143.74
1002.77	2146.45
1003.065	2158.88
1003.359	2110.3
1003.654	2103.52
1003.949	2089.51
1004.243	2086.8
1004.538	2072.56
1004.832	2076.85
1005.127	2054.03
1005.421	2044.99
1005.715	2002.28
1006.009	2049.96
1006.304	2037.98
1006.598	2005.89
1006.892	2008.61
1007.186	2024.2
1007.48	1963.18
1007.773	1994.14
1008.067	1933.13
1008.361	1953.92
1008.655	1949.4
1008.948	1916.18
1009.242	1856.52
1009.535	1879.57
1009.829	1874.82
1010.122	1844.99
1010.415	1839.34
1010.708	1832.79
1011.001	1849.74
1011.295	1822.4
1011.588	1817.65
1011.881	1788.5
1012.173	1799.8
1012.466	1750.53
1012.759	1760.25
1013.052	1760.93
1013.344	1732.23
1013.637	1711.89
1013.93	1714.15
1014.222	1697.2
1014.514	1705.56
1014.807	1707.37
1015.099	1691.33
1015.391	1680.7
1015.683	1662.17
1015.976	1672.12
1016.268	1636.41
1016.56	1621.95
1016.851	1641.16
1017.143	1616.75
1017.435	1621.95
1017.727	1570.88
1018.018	1590.31
1018.31	1586.7
1018.602	1569.29
1018.893	1548.73
1019.185	1538.34
1019.476	1540.37
1019.767	1555.51
1020.058	1506.92
1020.35	1510.77
1020.641	1518.45
1020.932	1499.69
1021.223	1491.1
1021.514	1499.69
1021.804	1475.74
1022.095	1453.59
1022.386	1455.17
1022.677	1422.86
1022.967	1425.12
1023.258	1406.81
1023.548	1433.03
1023.839	1400.26
1024.129	1380.15
1024.419	1371.11
1024.709	1337.89
1025	1334.5
1025.29	1339.24
1025.58	1344.67
1025.87	1333.37
1026.16	1309.87
1026.449	1301.05
1026.739	1298.79
1027.029	1299.02
1027.319	1297.21
1027.608	1299.7
1027.898	1278.91
1028.187	1283.2
1028.477	1264.67
1028.766	1225.12
1029.055	1249.3
1029.344	1242.98
1029.634	1218.57
1029.923	1231
1030.212	1203.2
1030.501	1193.26
1030.79	1176.54
1031.078	1182.41
1031.367	1166.14
1031.656	1163.66
1031.945	1152.58
1032.233	1162.3
1032.522	1131.79
1032.81	1145.13
1033.099	1122.53
1033.387	1114.17
1033.675	1109.87
1033.963	1098.35
1034.251	1118.01
1034.54	1076.2
1034.828	1071.45
1035.116	1090.66
1035.403	1078.01
1035.691	1070.78
1035.979	1056.99
1036.267	1045.24
1036.554	1040.95
1036.842	1034.62
1037.129	1037.11
1037.417	1023.77
1037.704	1017.9
1037.992	1019.93
1038.279	980.38
1038.566	986.94
1038.853	986.94
1039.14	986.94
