Data from hue_110_FLMS001491_00018.txt Node
Date: Tue Feb 07 17:00:58 GMT 2017
User: dcchb
Spectrometer: FLMS00149
Trigger mode: 0
Integration Time (sec): 2.000000E-2
Scans to average: 10
Electric dark correction enabled: true
Nonlinearity correction enabled: false
Boxcar width: 0
XAxis mode: Wavelengths
Number of Pixels in Spectrum: 2048
>>>>>Begin Spectral Data<<<<<
341.393	-1.48
341.776	-1.48
342.16	-1.48
342.543	-65.21
342.927	-63.85
343.31	-74.25
343.693	-77.41
344.077	-55.04
344.46	-63.63
344.843	-65.89
345.226	-49.62
345.61	-44.87
345.993	-19.79
346.376	2.13
346.759	12.75
347.142	47.1
347.525	56.37
347.908	61.11
348.291	55.69
348.674	82.58
349.057	132.75
349.44	131.62
349.823	144.28
350.206	153.32
350.588	193.09
350.971	201.45
351.354	225.4
351.737	231.51
352.119	257.95
352.502	243.71
352.884	280.77
353.267	263.59
353.65	303.59
354.032	314.67
354.414	304.05
354.797	313.76
355.179	323.71
355.562	308.57
355.944	338.85
356.326	340.65
356.709	322.12
357.091	335.68
357.473	337.27
357.855	351.95
358.238	346.76
358.62	342.69
359.002	358.28
359.384	330.49
359.766	340.88
360.148	347.89
360.53	336.14
360.912	344.95
361.294	349.69
361.676	319.19
362.057	340.88
362.439	324.84
362.821	328.68
363.203	323.71
363.584	320.77
363.966	311.28
364.348	337.27
364.729	324.61
365.111	323.48
365.493	302.69
365.874	324.61
366.256	309.02
366.637	337.27
367.019	315.8
367.4	332.97
367.781	318.06
368.163	307.21
368.544	336.59
368.925	300.2
369.306	318.06
369.688	313.54
370.069	318.73
370.45	299.07
370.831	301.79
371.212	305.85
371.593	309.92
371.974	310.37
372.355	305.18
372.736	300.43
373.117	335.46
373.498	326.19
373.879	315.12
374.26	312.18
374.641	315.34
375.021	306.53
375.402	317.83
375.783	306.31
376.163	306.53
376.544	339.75
376.925	322.12
377.305	332.75
377.686	328.45
378.066	322.12
378.447	319.86
378.827	311.28
379.208	342.91
379.588	333.2
379.968	344.72
380.349	336.59
380.729	358.06
381.109	331.16
381.489	320.54
381.87	353.08
382.25	339.07
382.63	340.43
383.01	340.2
383.39	345.17
383.77	353.54
384.15	349.24
384.53	357.83
384.91	360.77
385.29	349.24
385.67	329.36
386.049	356.02
386.429	339.75
386.809	351.28
387.189	361.45
387.568	344.72
387.948	360.77
388.328	342.91
388.707	344.27
389.087	359.19
389.466	368.22
389.846	362.12
390.225	363.25
390.605	373.42
390.984	393.99
391.363	356.25
391.743	368.9
392.122	368.68
392.501	387.21
392.881	375.91
393.26	374.1
393.639	389.02
394.018	377.72
394.397	379.3
394.776	383.59
395.155	380.65
395.534	382.69
395.913	366.87
396.292	390.37
396.671	388.56
397.05	421.1
397.429	404.61
397.808	391.28
398.186	372.97
398.565	386.76
398.944	386.08
399.323	394.66
399.701	401.44
400.08	406.64
400.458	401.22
400.837	402.8
401.215	403.7
401.594	404.83
401.972	413.42
402.351	424.72
402.729	395.12
403.107	396.7
403.486	418.17
403.864	400.99
404.242	402.12
404.62	399.18
404.999	420.2
405.377	445.96
405.755	435.79
406.133	398.96
406.511	427.21
406.889	433.53
407.267	437.6
407.645	441.44
408.023	447.54
408.401	426.75
408.779	412.74
409.156	440.99
409.534	435.34
409.912	449.13
410.29	442.12
410.667	467.43
411.045	467.88
411.422	460.88
411.8	481.44
412.178	464.49
412.555	472.63
412.933	469.01
413.31	462.01
413.687	483.48
414.065	465.85
414.442	472.63
414.819	509.46
415.197	486.19
415.574	518.05
415.951	513.08
416.328	507.43
416.705	496.13
417.082	490.03
417.46	524.83
417.837	516.92
418.214	495.91
418.591	508.56
418.967	520.99
419.344	530.25
419.721	532.06
420.098	502.46
420.475	533.42
420.852	530.03
421.228	533.42
421.605	542.46
421.982	539.52
422.358	550.37
422.735	543.36
423.111	547.43
423.488	536.36
423.864	537.03
424.241	571.16
424.617	581.1
424.994	565.96
425.37	584.26
425.746	572.29
426.123	594.66
426.499	574.32
426.875	577.48
427.251	572.97
427.627	583.81
428.003	589.69
428.379	609.57
428.756	598.28
429.132	631.49
429.507	608.9
429.883	643.02
430.259	615
430.635	622.91
431.011	641.66
431.387	614.77
431.763	648.9
432.138	666.52
432.514	630.59
432.89	661.1
433.265	685.96
433.641	661.1
434.016	677.14
434.392	697.03
434.767	695
435.143	692.51
435.518	709.46
435.894	699.97
436.269	714.88
436.644	730.7
437.02	743.81
437.395	707.42
437.77	749.46
438.145	749.23
438.52	767.54
438.895	726.18
439.271	742.45
439.646	770.25
440.021	762.56
440.395	769.12
440.77	782.68
441.145	792.17
441.52	800.3
441.895	798.27
442.27	806.41
442.645	809.12
443.019	807.54
443.394	819.74
443.769	820.87
444.143	793.52
444.518	824.03
444.892	820.19
445.267	815.67
445.641	849.79
446.016	863.35
446.39	870.81
446.764	839.62
447.139	851.15
447.513	862.22
447.887	870.36
448.262	886.86
448.636	852.73
449.01	857.03
449.384	857.93
449.758	886.63
450.132	916.23
450.506	938.83
450.88	932.05
451.254	905.39
451.628	963.69
452.002	967.98
452.376	963.01
452.75	977.25
453.123	965.5
453.497	970.69
453.871	979.73
454.244	1004.37
454.618	996.46
454.992	1013.86
455.365	1015.89
455.739	1033.52
456.112	1051.14
456.486	1027.64
456.859	1062.9
457.232	1076.68
457.606	1105.83
457.979	1102.67
458.352	1109.9
458.725	1137.47
459.099	1125.49
459.472	1186.73
459.845	1180.41
460.218	1194.19
460.591	1193.74
460.964	1157.36
461.337	1222.21
461.71	1264.02
462.083	1252.04
462.456	1249.11
462.829	1253.17
463.201	1279.61
463.574	1336.11
463.947	1325.94
464.32	1344.24
464.692	1300.63
465.065	1388.76
465.438	1390.8
465.81	1406.84
466.183	1434.41
466.555	1446.84
466.928	1463.34
467.3	1437.35
467.672	1524.35
468.045	1557.8
468.417	1538.82
468.789	1547.18
469.161	1598.47
469.534	1609.32
469.906	1659.26
470.278	1699.49
470.65	1718.02
471.022	1770.67
471.394	1760.28
471.766	1836.89
472.138	1849.32
472.51	1892.25
472.882	1913.27
473.253	1946.04
473.625	2014.28
473.997	2045.92
474.369	2081.63
474.74	2093.38
475.112	2206.82
475.484	2227.84
475.855	2267.61
476.227	2335.63
476.598	2381.05
476.97	2418.57
477.341	2500.15
477.713	2591.9
478.084	2584.21
478.455	2679.35
478.827	2712.8
479.198	2824.88
479.569	2894.94
479.94	2958.44
480.311	3023.97
480.682	3161.82
481.053	3249.5
481.424	3320.92
481.795	3414.02
482.166	3488.82
482.537	3600.23
482.908	3688.36
483.279	3724.07
483.65	3839.55
484.021	3999.99
484.391	4070.27
484.762	4192.31
485.133	4262.36
485.503	4400.66
485.874	4528.79
486.244	4584.39
486.615	4785.06
486.985	4864.6
487.356	4974.88
487.726	5093.07
488.097	5280.86
488.467	5291.26
488.837	5499.62
489.207	5626.84
489.578	5769.21
489.948	5841.98
490.318	6022.54
490.688	6087.85
491.058	6269.99
491.428	6442.87
491.798	6540.04
492.168	6736.64
492.538	6821.84
492.908	6942.29
493.278	7078.78
493.648	7220.93
494.017	7288.49
494.387	7509.51
494.757	7646.9
495.126	7761.93
495.496	7831.08
495.866	7956.5
496.235	8092.77
496.605	8244.18
496.974	8300.9
497.344	8475.81
497.713	8569.37
498.082	8723.49
498.452	8868.11
498.821	8930.26
499.19	9045.06
499.559	9190.14
499.928	9260.42
500.298	9351.72
500.667	9568.21
501.036	9584.71
501.405	9614.54
501.774	9738.83
502.143	9824.25
502.512	10003.23
502.88	10100.62
503.249	10074.41
503.618	10224.46
503.987	10219.72
504.356	10441.63
504.724	10494.96
505.093	10516.66
505.462	10599.59
505.83	10653.83
506.199	10791
506.567	10972.24
506.936	10998.68
507.304	11100.37
507.672	11188.51
508.041	11247.71
508.409	11358.9
508.777	11353.47
509.145	11446.58
509.514	11488.61
509.882	11597.08
510.25	11606.35
510.618	11717.08
510.986	11691.54
511.354	11828.04
511.722	11913.91
512.09	12020.57
512.458	11944.19
512.826	12043.62
513.193	12126.56
513.561	12124.53
513.929	12276.39
514.297	12358.42
514.664	12341.02
515.032	12389.15
515.4	12512.31
515.767	12531.29
516.135	12562.25
516.502	12470.96
516.869	12679.31
517.237	12738.07
517.604	12693.32
517.972	12860.55
518.339	12810.61
518.706	12810.61
519.073	12856.03
519.44	12917.73
519.808	13006.76
520.175	12962.7
520.542	13089.7
520.909	13171.05
521.276	13086.31
521.643	13234.33
522.009	13182.8
522.376	13273.2
522.743	13312.52
523.11	13422.57
523.477	13453.3
523.843	13437.71
524.21	13581.44
524.577	13582.11
524.943	13649.01
525.31	13632.51
525.676	13740.53
526.043	13664.15
526.409	13675.22
526.776	13858.27
527.142	13853.97
527.508	13851.26
527.874	13917.25
528.241	13888.77
528.607	13886.29
528.973	13998.37
529.339	13915.21
529.705	14006.28
530.071	14042.44
530.437	13996.12
530.803	14051.48
531.169	14043.57
531.535	13980.3
531.901	14013.97
532.267	14078.82
532.632	14099.84
532.998	13987.98
533.364	14093.51
533.73	14102.78
534.095	14097.36
534.461	13968.09
534.826	14137.13
535.192	14004.02
535.557	14075.21
535.923	13959.51
536.288	14072.72
536.653	14073.4
537.019	13865.05
537.384	13940.98
537.749	14022.33
538.114	13972.16
538.479	13872.5
538.845	13930.81
539.21	13776.46
539.575	13868.89
539.94	13817.81
540.305	13846.74
540.67	13799.06
541.034	13793.18
541.399	13717.25
541.764	13767.42
542.129	13716.12
542.494	13636.8
542.858	13634.32
543.223	13622.34
543.587	13708.44
543.952	13525.84
544.316	13604.94
544.681	13538.5
545.045	13582.79
545.41	13529.23
545.774	13523.13
546.138	13471.16
546.503	13380.54
546.867	13432.51
547.231	13358.17
547.595	13338.28
547.959	13319.75
548.324	13287.43
548.688	13280.2
549.052	13281.56
549.416	13330.82
549.779	13191.84
550.143	13161.33
550.507	13227.55
550.871	13114.33
551.235	13085.4
551.599	13126.99
551.962	13091.96
552.326	13012.64
552.689	13104.61
553.053	12962.7
553.417	12992.3
553.78	13072.52
554.143	12996.14
554.507	12976.25
554.87	12927.22
555.234	13057.16
555.597	12840.44
555.96	12931.74
556.323	12950.72
556.686	12879.31
557.05	12967.44
557.413	12856.48
557.776	12950.27
558.139	12947.33
558.502	12872.98
558.865	12966.54
559.228	12943.26
559.59	12959.76
559.953	12957.95
560.316	12998.4
560.679	12929.48
561.041	13004.28
561.404	12997.05
561.767	13002.47
562.129	12895.35
562.492	13017.16
562.854	12903.71
563.217	12870.49
563.579	12968.8
563.941	13004.73
564.304	13075.01
564.666	13019.19
565.028	13038.17
565.39	13064.16
565.753	13148.45
566.115	13094.44
566.477	13177.61
566.839	13101.45
567.201	13195.01
567.563	13172.41
567.925	13218.96
568.287	13186.87
568.648	13219.41
569.01	13317.26
569.372	13212.63
569.734	13241.78
570.095	13327.43
570.457	13246.76
570.819	13279.3
571.18	13249.69
571.542	13334.66
571.903	13301.44
572.265	13329.01
572.626	13365.17
572.987	13299.86
573.349	13398.84
573.71	13336.02
574.071	13432.06
574.432	13391.16
574.794	13419.18
575.155	13462.34
575.516	13304.61
575.877	13443.59
576.238	13432.29
576.599	13522.23
576.96	13363.82
577.32	13436.81
577.681	13528.33
578.042	13462.8
578.403	13454.21
578.763	13433.64
579.124	13511.38
579.485	13547.31
579.845	13516.81
580.206	13466.41
580.566	13472.74
580.927	13499.86
581.287	13602
581.648	13456.92
582.008	13518.39
582.368	13499.18
582.728	13480.65
583.089	13548.44
583.449	13512.96
583.809	13423.7
584.169	13558.61
584.529	13506.64
584.889	13564.94
585.249	13508.22
585.609	13307.77
585.969	13410.59
586.329	13373.31
586.688	13284.72
587.048	13458.73
587.408	13335.57
587.768	13391.61
588.127	13369.24
588.487	13419.18
588.846	13419.41
589.206	13346.87
589.565	13267.77
589.925	13429.12
590.284	13404.49
590.643	13325.85
591.003	13286.08
591.362	13423.93
591.721	13330.14
592.08	13333.99
592.44	13369.46
592.799	13325.4
593.158	13269.35
593.517	13272.74
593.876	13331.73
594.235	13239.52
594.593	13204.5
594.952	13263.93
595.311	13263.48
595.67	13289.24
596.029	13355.91
596.387	13278.62
596.746	13325.4
597.104	13220.99
597.463	13250.15
597.822	13265.29
598.18	13231.84
598.538	13237.26
598.897	13253.08
599.255	13191.39
599.613	13291.5
599.972	13220.32
600.33	13261.67
600.688	13189.36
601.046	13285.85
601.404	13312.52
601.762	13256.47
602.12	13266.42
602.478	13285.85
602.836	13255.12
603.194	13200.88
603.552	13209.24
603.91	13206.53
604.268	13221.45
604.625	13167.44
604.983	13267.55
605.341	13254.67
605.698	13342.35
606.056	13331.95
606.413	13252.63
606.771	13342.8
607.128	13390.48
607.485	13171.96
607.843	13225.51
608.2	13253.99
608.557	13342.35
608.914	13325.17
609.272	13335.79
609.629	13369.24
609.986	13419.18
610.343	13257.83
610.7	13409.24
611.057	13405.17
611.414	13318.17
611.771	13348.45
612.127	13428.45
612.484	13388.22
612.841	13515.45
613.198	13468.22
613.554	13426.86
613.911	13540.53
614.267	13509.8
614.624	13472.06
614.98	13470.03
615.337	13527.43
615.693	13513.87
616.05	13502.34
616.406	13614.43
616.762	13528.78
617.118	13587.31
617.475	13553.19
617.831	13594.09
618.187	13606.52
618.543	13576.24
618.899	13610.81
619.255	13580.31
619.611	13634.09
619.967	13652.17
620.323	13738.27
620.678	13648.55
621.034	13690.81
621.39	13633.19
621.746	13608.33
622.101	13700.76
622.457	13661.43
622.812	13613.53
623.168	13660.53
623.523	13593.87
623.879	13639.51
624.234	13649.46
624.589	13612.17
624.945	13623.02
625.3	13624.15
625.655	13559.97
626.01	13637.71
626.365	13705.28
626.72	13605.84
627.075	13633.86
627.43	13637.93
627.785	13551.38
628.14	13570.36
628.495	13611.72
628.85	13630.47
629.205	13513.87
629.559	13644.26
629.914	13584.15
630.269	13536.92
630.623	13561.32
630.978	13545.28
631.332	13519.29
631.687	13533.3
632.041	13520.2
632.396	13527.43
632.75	13520.65
633.104	13516.81
633.459	13504.38
633.813	13397.71
634.167	13432.97
634.521	13492.17
634.875	13479.52
635.229	13407.88
635.583	13362.01
635.937	13401.33
636.291	13429.58
636.645	13318.84
636.999	13306.64
637.352	13333.76
637.706	13317.71
638.06	13336.92
638.413	13282.01
638.767	13214.89
639.121	13233.88
639.474	13181.45
639.828	13189.36
640.181	13286.3
640.534	13230.71
640.888	13195.23
641.241	13125.4
641.594	13139.87
641.947	13104.39
642.301	13089.7
642.654	13117.72
643.007	13162.69
643.36	13121.34
643.713	13115.01
644.066	13183.26
644.419	13012.64
644.771	12972.87
645.124	12876.82
645.477	12767.22
645.83	12682.48
646.182	12751.4
646.535	12640.67
646.888	12713.21
647.24	12595.93
647.593	12681.35
647.945	12634.12
648.298	12559.09
648.65	12551.86
649.002	12543.27
649.355	12573.55
649.707	12574.46
650.059	12680.67
650.411	12745.75
650.763	12856.03
651.115	12934.67
651.467	12898.06
651.819	12910.95
652.171	13034.33
652.523	12902.81
652.875	12956.82
653.227	12872.75
653.578	12981
653.93	12910.49
654.282	12852.42
654.633	12947.33
654.985	12941
655.337	12845.18
655.688	12974.9
656.039	12958.4
656.391	12799.76
656.742	12932.41
657.094	12910.27
657.445	12935.58
657.796	12929.7
658.147	12955.92
658.498	12852.87
658.849	12943.71
659.2	12905.3
659.551	12868.01
659.902	12904.17
660.253	12833.21
660.604	12879.76
660.955	12883.38
661.306	13005.63
661.656	12885.18
662.007	12901.23
662.358	12980.1
662.708	12953.43
663.059	12939.19
663.409	12852.87
663.76	12926.31
664.11	12934.45
664.461	12961.34
664.811	12971.96
665.161	12896.03
665.511	12931.06
665.862	12941
666.212	12989.36
666.562	12986.2
666.912	12958.63
667.262	12977.38
667.612	12991.85
667.962	12960.66
668.312	12979.42
668.662	12975.8
669.011	13000.44
669.361	12897.16
669.711	12946.65
670.06	12866.65
670.41	12871.85
670.76	12908.91
671.109	12987.78
671.459	12891.74
671.808	12854.9
672.157	12955.46
672.507	12821.68
672.856	12906.65
673.205	12869.59
673.554	12799.31
673.904	12769.03
674.253	12959.08
674.602	12801.34
674.951	12660.1
675.3	12607.68
675.649	12744.17
675.998	12837.73
676.346	12764.06
676.695	12836.15
677.044	12733.1
677.393	12733.78
677.741	12631.86
678.09	12652.65
678.438	12668.69
678.787	12695.13
679.135	12593.44
679.484	12649.26
679.832	12658.3
680.181	12554.12
680.529	12656.94
680.877	12521.58
681.225	12542.59
681.573	12550.73
681.922	12471.41
682.27	12472.09
682.618	12367.91
682.966	12314.35
683.314	12497.85
683.661	12427.12
684.009	12266.67
684.357	12193.22
684.705	12297.63
685.053	12275.71
685.4	12271.19
685.748	12257.18
686.095	12269.38
686.443	12103.06
686.79	12117.52
687.138	12160.46
687.485	12117.29
687.832	12078.2
688.18	12142.38
688.527	12014.25
688.874	12041.36
689.221	11934.47
689.568	12033
689.915	11922.27
690.262	11949.62
690.609	11850.18
690.956	11879.33
691.303	11793.46
691.65	11745.33
691.997	11747.81
692.344	11664.42
692.69	11606.8
693.037	11567.7
693.383	11493.58
693.73	11543.52
694.077	11446.8
694.423	11362.74
694.769	11347.37
695.116	11373.81
695.462	11322.51
695.808	11247.94
696.155	11361.83
696.501	11230.54
696.847	11190.54
697.193	11161.39
697.539	11202.97
697.885	11049.75
698.231	11010.43
698.577	11026.93
698.923	10970.21
699.269	10902.19
699.614	10845.69
699.96	10850.89
700.306	10849.08
700.651	10715.75
700.997	10683.43
701.342	10740.83
701.688	10656.99
702.033	10614.96
702.379	10657.67
702.724	10509.65
703.069	10629.2
703.415	10405.47
703.76	10445.93
704.105	10481.63
704.45	10442.99
704.795	10324.8
705.14	10296.1
705.485	10291.81
705.83	10270.34
706.175	10252.48
706.52	10269.43
706.865	10142.66
707.209	10161.87
707.554	10066.95
707.899	10084.35
708.243	10053.17
708.588	10006.16
708.932	9960.51
709.277	9958.03
709.621	9930.69
709.966	9838.26
710.31	9901.99
710.654	9794.64
710.998	9809.78
711.342	9823.34
711.687	9777.92
712.031	9737.02
712.375	9718.94
712.719	9744.48
713.063	9614.76
713.407	9739.96
713.75	9626.51
714.094	9580.41
714.438	9620.64
714.782	9619.28
715.125	9595.55
715.469	9571.6
715.812	9507.65
716.156	9449.79
716.499	9492.5
716.843	9551.49
717.186	9450.02
717.53	9489.57
717.873	9448.21
718.216	9453.64
718.559	9415.67
718.902	9425.16
719.246	9417.48
719.589	9353.75
719.932	9305.39
720.275	9284.6
720.617	9337.71
720.96	9300.65
721.303	9331.6
721.646	9297.71
721.989	9235.79
722.331	9291.83
722.674	9284.37
723.016	9285.28
723.359	9265.62
723.701	9234.21
724.044	9186.52
724.386	9239.4
724.729	9221.1
725.071	9213.42
725.413	9256.35
725.755	9208.67
726.097	9175.9
726.439	9132.74
726.782	9098.84
727.124	9198.73
727.465	9122.34
727.807	9137.71
728.149	9050.26
728.491	9102.23
728.833	9085.28
729.175	9058.39
729.516	8981.56
729.858	9030.6
730.199	9082.35
730.541	9007.32
730.882	9042.8
731.224	9017.94
731.565	9057.94
731.906	9048.22
732.248	9043.25
732.589	9035.34
732.93	9027.21
733.271	9030.82
733.612	9012.97
733.953	9023.14
734.294	9069.92
734.635	9003.25
734.976	9044.15
735.317	9113.76
735.658	8986.53
735.999	9025.4
736.339	9036.92
736.68	9065.85
737.021	9061.33
737.361	9040.54
737.702	9095.23
738.042	9055.91
738.383	9046.41
738.723	9142.46
739.063	9090.26
739.404	9132.74
739.744	9093.42
740.084	9079.86
740.424	9156.92
740.764	9130.25
741.104	9139.75
741.444	9134.55
741.784	9157.82
742.124	9208.9
742.464	9167.32
742.804	9167.54
743.143	9168.45
743.483	9181.33
743.823	9234.88
744.162	9240.08
744.502	9257.71
744.841	9305.39
745.181	9391.26
745.52	9366.86
745.86	9387.65
746.199	9357.14
746.538	9416.12
746.877	9526.4
747.216	9457.93
747.556	9586.51
747.895	9638.26
748.234	9626.06
748.573	9725.94
748.911	9768.43
749.25	9854.98
749.589	9875.32
749.928	9947.86
750.267	10078.93
750.605	10171.58
750.944	10139.27
751.283	10141.08
751.621	10307.17
751.96	10352.6
752.298	10472.37
752.636	10585.13
752.975	10628.97
753.313	10732.7
753.651	10870.32
753.989	10829.42
754.327	10990.77
754.666	11116.42
755.004	11256.07
755.342	11404.54
755.679	11517.31
756.017	11547.82
756.355	11755.04
756.693	11851.99
757.031	11951.42
757.368	12087.69
757.706	12291.75
758.044	12318.87
758.381	12472.54
758.719	12651.07
759.056	12823.94
759.394	12961.79
759.731	13070.72
760.068	13204.95
760.405	13334.89
760.743	13448.11
761.08	13605.84
761.417	13768.32
761.754	13943.01
762.091	14077.02
762.428	14241.31
762.765	14332.83
763.102	14585.7
763.438	14629.32
763.775	14777.56
764.112	14964.23
764.449	15182.75
764.785	15260.04
765.122	15361.73
765.458	15480.6
765.795	15657.09
766.131	15815.95
766.467	15900.25
766.804	15979.34
767.14	16042.16
767.476	16256.17
767.812	16311.99
768.148	16486.22
768.485	16521.02
768.821	16627.23
769.157	16702.26
769.492	16859.32
769.828	17000.33
770.164	16914
770.5	17220.89
770.836	17173.88
771.171	17297.95
771.507	17328.91
771.842	17405.74
772.178	17445.97
772.513	17572.52
772.849	17617.94
773.184	17689.58
773.519	17771.16
773.855	17775.45
774.19	17848.44
774.525	17813.42
774.86	17948.55
775.195	18005.28
775.53	18043.92
775.865	18006.63
776.2	18050.25
776.535	18045.5
776.87	18053.41
777.205	18148.32
777.539	18116.68
777.874	18219.51
778.209	18092.5
778.543	18173.18
778.878	18167.98
779.212	18163.01
779.547	18243.24
779.881	18284.59
780.215	18298.83
780.55	18290.92
780.884	18217.47
781.218	18245.04
781.552	18379.73
781.886	18287.98
782.22	18196.46
782.554	18266.06
782.888	18142.67
783.222	18127.08
783.556	18136.12
783.889	18043.01
784.223	17992.85
784.557	17984.48
784.89	18045.27
785.224	17852.28
785.557	17911.49
785.891	17950.14
786.224	17930.25
786.558	18058.16
786.891	17763.93
787.224	17847.09
787.557	17843.25
787.891	17776.35
788.224	17806.18
788.557	17862
788.89	17811.16
789.223	17854.77
789.556	17705.4
789.888	17774.55
790.221	17594.66
790.554	17518.73
790.887	17580.65
791.219	17529.58
791.552	17428.12
791.884	17441.45
792.217	17443.48
792.549	17347.67
792.882	17253.88
793.214	17366.42
793.546	17354.67
793.879	17196.03
794.211	17151.51
794.543	17156.94
794.875	17106.99
795.207	17201.45
795.539	17064.06
795.871	17106.54
796.203	16954
796.535	16812.31
796.867	16919.43
797.198	16837.4
797.53	16961.46
797.862	16726.21
798.193	16839.2
798.525	16671.52
798.856	16704.29
799.188	16633.56
799.519	16467.01
799.85	16369.16
800.182	16500.68
800.513	16484.19
800.844	16284.42
801.175	16497.97
801.506	16354.47
801.837	16387.01
802.168	16332.55
802.499	16257.3
802.83	16224.76
803.161	16127.36
803.491	16145.21
803.822	16063.63
804.153	16087.13
804.483	15970.07
804.814	15900.47
805.145	15943.63
805.475	15828.16
805.805	15790.87
806.136	15803.98
806.466	15777.54
806.796	15635.85
807.126	15691.44
807.457	15651.89
807.787	15621.16
808.117	15534.15
808.447	15475.17
808.777	15579.12
809.107	15406.02
809.436	15480.14
809.766	15374.38
810.096	15363.54
810.426	15235.18
810.755	15218.91
811.085	15240.83
811.414	15246.48
811.744	15181.62
812.073	15175.97
812.403	15126.93
812.732	15041.74
813.061	15125.12
813.39	14976.2
813.719	14960.84
814.049	15051.23
814.378	15055.75
814.707	14794.06
815.036	14952.02
815.365	14836.09
815.693	14663.44
816.022	14753.84
816.351	14698.92
816.68	14578.02
817.008	14680.16
817.337	14549.55
817.665	14563.11
817.994	14566.27
818.322	14503.22
818.651	14458.25
818.979	14433.17
819.307	14490.11
819.636	14458.93
819.964	14454.86
820.292	14500.96
820.62	14392.94
820.948	14352.94
821.276	14427.74
821.604	14381.87
821.932	14437.91
822.259	14255.54
822.587	14403.56
822.915	14300.97
823.243	14334.64
823.57	14284.92
823.898	14283.34
824.225	14260.74
824.553	14266.39
824.88	14373.73
825.207	14380.96
825.535	14292.6
825.862	14374.18
826.189	14312.49
826.516	14430.68
826.843	14466.61
827.17	14325.82
827.497	14365.6
827.824	14338.03
828.151	14373.96
828.478	14375.54
828.805	14425.03
829.131	14441.08
829.458	14303.23
829.785	14263.45
830.111	14377.35
830.438	14388.2
830.764	14353.17
831.09	14368.31
831.417	14255.54
831.743	14296.9
832.069	14309.55
832.395	14259.84
832.722	14307.29
833.048	14309.55
833.374	14372.6
833.7	14237.46
834.026	14309.33
834.351	14313.39
834.677	14185.26
835.003	14252.38
835.329	14255.54
835.654	14207.86
835.98	14249.67
836.306	14220.29
836.631	14133.74
836.956	14256
837.282	14221.87
837.607	14126.96
837.932	14074.31
838.258	14070.46
838.583	14086.51
838.908	13982.56
839.233	14047.41
839.558	13979.84
839.883	13881.54
840.208	13832.73
840.533	13854.65
840.858	13766.52
841.182	13856.46
841.507	13787.98
841.832	13701.89
842.156	13787.53
842.481	13696.24
842.805	13677.25
843.13	13602.68
843.454	13596.8
843.778	13521.33
844.103	13610.81
844.427	13521.1
844.751	13492.85
845.075	13554.32
845.399	13402.91
845.723	13384.61
846.047	13402.46
846.371	13281.33
846.695	13228.9
847.019	13098.51
847.343	13047.21
847.666	13038.63
847.99	12953.88
848.313	13000.89
848.637	12910.49
848.96	12871.85
849.284	12805.19
849.607	12732.65
849.931	12675.92
850.254	12725.41
850.577	12655.81
850.9	12494.91
851.223	12532.88
851.546	12406.55
851.869	12353.9
852.192	12468.25
852.515	12219.89
852.838	12230.74
853.161	12243.62
853.483	12233.22
853.806	12092.89
854.129	12083.85
854.451	12075.49
854.774	11986.45
855.096	11926.34
855.419	11928.82
855.741	11841.6
856.063	11867.81
856.385	11802.95
856.708	11724.99
857.03	11782.39
857.352	11729.06
857.674	11727.47
857.996	11658.1
858.318	11518.21
858.64	11575.84
858.961	11518.67
859.283	11468.05
859.605	11480.7
859.926	11510.3
860.248	11451.78
860.57	11415.84
860.891	11428.27
861.212	11389.63
861.534	11299.01
861.855	11300.59
862.176	11312.34
862.498	11296.98
862.819	11224.21
863.14	11240.03
863.461	11203.87
863.782	11114.61
864.103	11198.67
864.424	11165
864.745	11100.37
865.065	11007.49
865.386	11113.03
865.707	11019.47
866.027	11092.69
866.348	10985.8
866.668	10958
866.989	10999.13
867.309	10930.21
867.63	10904.67
867.95	10869.87
868.27	10863.54
868.59	10920.94
868.91	10829.19
869.23	10800.49
869.55	10798.46
869.87	10842.53
870.19	10729.53
870.51	10814.5
870.83	10762.75
871.15	10713.49
871.469	10710.1
871.789	10716.2
872.109	10687.5
872.428	10634.17
872.748	10644.11
873.067	10632.14
873.386	10640.72
873.706	10621.51
874.025	10546.94
874.344	10580.84
874.663	10499.94
874.982	10542.42
875.301	10575.19
875.62	10516.21
875.939	10434.4
876.258	10502.87
876.577	10474.63
876.896	10450.9
877.214	10361.63
877.533	10440.5
877.852	10407.96
878.17	10333.84
878.489	10358.92
878.807	10345.82
879.125	10241.19
879.444	10325.48
879.762	10200.96
880.08	10279.6
880.398	10228.98
880.716	10167.29
881.034	10183.79
881.352	10239.83
881.67	10118.93
881.988	10149.66
882.306	10092.94
882.624	10125.71
882.941	10070.12
883.259	10050.23
883.577	10008.65
883.894	9963.68
884.212	9988.54
884.529	9998.48
884.846	9876.22
885.164	9965.49
885.481	9868.31
885.798	9919.84
886.115	9821.54
886.432	9798.03
886.75	9751.71
887.067	9807.07
887.383	9760.29
887.7	9780.63
888.017	9735.21
888.334	9676
888.651	9694.53
888.967	9674.42
889.284	9628.55
889.6	9580.64
889.917	9514.2
890.233	9528.44
890.55	9448.66
890.866	9490.47
891.182	9466.52
891.498	9368.44
891.815	9300.65
892.131	9334.32
892.447	9286.41
892.763	9274.43
893.079	9295.67
893.395	9240.99
893.71	9203.25
894.026	9215.9
894.342	9189.01
894.657	9096.58
894.973	9055
895.289	9088.22
895.604	9017.71
895.92	8986.98
896.235	8920.77
896.55	8970.48
896.865	8909.7
897.181	8835.12
897.496	8901.33
897.811	8831.96
898.126	8835.35
898.441	8776.37
898.756	8709.7
899.071	8733.88
899.386	8706.76
899.7	8596.26
900.015	8576.14
900.33	8498.86
900.644	8468.58
900.959	8519.2
901.273	8502.25
901.588	8448.92
901.902	8434.45
902.216	8365.3
902.531	8382.25
902.845	8389.48
903.159	8298.64
903.473	8269.71
903.787	8204.4
904.101	8196.95
904.415	8172.77
904.729	8110.85
905.042	8045.54
905.356	8147.23
905.67	8006.67
905.984	8010.28
906.297	7981.13
906.611	7952.66
906.924	7949.49
907.237	7885.32
907.551	7890.51
907.864	7799.89
908.177	7842.6
908.491	7753.57
908.804	7722.38
909.117	7702.72
909.43	7666.34
909.743	7564.19
910.056	7622.95
910.368	7554.02
910.681	7530.3
910.994	7426.57
911.307	7486.46
911.619	7446.46
911.932	7447.36
912.244	7396.97
912.557	7384.31
912.869	7352.45
913.181	7313.35
913.494	7214.82
913.806	7223.86
914.118	7282.85
914.43	7184.99
914.742	7112.45
915.054	7103.19
915.366	7134.15
915.678	7047.6
915.99	7039.46
916.302	6994.94
916.613	6924.44
916.925	6967.15
917.236	6929.18
917.548	6881.95
917.859	6914.72
918.171	6835.17
918.482	6810.32
918.794	6732.8
919.105	6785.23
919.416	6713.14
919.727	6721.96
920.038	6745.01
920.349	6654.61
920.66	6629.98
920.971	6603.32
921.282	6590.43
921.593	6547.27
921.903	6516.99
922.214	6542.3
922.525	6459.59
922.835	6377.56
923.146	6390.21
923.456	6440.16
923.767	6366.71
924.077	6367.39
924.387	6364.9
924.697	6293.49
925.008	6246.49
925.318	6262.99
925.628	6190.22
925.938	6199.26
926.248	6147.96
926.558	6134.85
926.867	6057.11
927.177	6096.21
927.487	6065.48
927.796	5976.89
928.106	6030.9
928.416	5959.94
928.725	5924.24
929.034	5981.41
929.344	5917.01
929.653	5918.59
929.962	5849.89
930.271	5843.79
930.581	5854.63
930.89	5771.7
931.199	5765.82
931.508	5707.29
931.817	5739.61
932.125	5688.54
932.434	5638.37
932.743	5620.29
933.051	5585.04
933.36	5647.86
933.669	5538.48
933.977	5583.68
934.286	5570.12
934.594	5548.88
934.902	5492.38
935.21	5453.06
935.519	5413.29
935.827	5467.98
936.135	5406.74
936.443	5361.31
936.751	5319.51
937.059	5326.29
937.367	5312.5
937.674	5302.33
937.982	5240.64
938.29	5206.06
938.597	5236.8
938.905	5178.04
939.213	5146.18
939.52	5160.42
939.827	5150.92
940.135	5103.92
940.442	5076.8
940.749	5070.93
941.056	5065.05
941.363	4964.26
941.67	5011.27
941.977	4975.11
942.284	4960.19
942.591	4938.05
942.898	4898.5
943.205	4877.03
943.511	4880.42
943.818	4849.91
944.125	4810.59
944.431	4802.01
944.738	4810.37
945.044	4736.7
945.35	4731.05
945.657	4757.94
945.963	4739.86
946.269	4659.64
946.575	4656.47
946.881	4619.19
947.187	4623.48
947.493	4584.16
947.799	4599.98
948.105	4572.41
948.41	4536.7
948.716	4561.11
949.022	4544.84
949.327	4519.53
949.633	4458.29
949.938	4478.85
950.244	4407.21
950.549	4405.86
950.854	4372.19
951.16	4375.58
951.465	4348.46
951.77	4338.97
952.075	4286.77
952.38	4302.13
952.685	4241.12
952.99	4258.74
953.294	4248.12
953.599	4189.59
953.904	4159.76
954.209	4176.03
954.513	4197.5
954.818	4163.83
955.122	4082.48
955.426	4094.68
955.731	4095.13
956.035	4063.49
956.339	4059.2
956.643	4068.47
956.948	4038.41
957.252	4013.78
957.556	3997.96
957.86	3999.77
958.163	3961.8
958.467	3953.44
958.771	3967
959.075	3900.56
959.378	3916.38
959.682	3923.84
959.985	3910.5
960.289	3844.29
960.592	3827.12
960.896	3792.09
961.199	3833.67
961.502	3822.15
961.805	3762.94
962.108	3735.59
962.411	3743.5
962.714	3701.92
963.017	3749.6
963.32	3709.61
963.623	3690.85
963.926	3649.72
964.228	3643.62
964.531	3640.23
964.833	3613.79
965.136	3566.11
965.438	3570.63
965.741	3528.59
966.043	3545.09
966.345	3527.24
966.648	3494.92
966.95	3561.14
967.252	3485.43
967.554	3492.21
967.856	3434.13
968.158	3422.16
968.46	3430.97
968.761	3416.28
969.063	3419.9
969.365	3339.45
969.666	3364.76
969.968	3317.3
970.269	3313.46
970.571	3269.39
970.872	3289.28
971.174	3342.16
971.475	3301.26
971.776	3240.24
972.077	3222.39
972.378	3235.72
972.679	3226.23
972.98	3190.75
973.281	3168.83
973.582	3199.56
973.883	3177.42
974.183	3128.83
974.484	3113.92
974.785	3097.64
975.085	3110.98
975.386	3108.72
975.686	3094.48
975.986	3088.83
976.287	3056.06
976.587	3042.96
976.887	3009.74
977.187	3024.43
977.487	3002.28
977.787	2996.63
978.087	2941.94
978.387	2977.65
978.687	2933.58
978.987	2927.71
979.286	2907.82
979.586	2896.07
979.885	2892
980.185	2911.43
980.484	2881.83
980.784	2834.83
981.083	2822.62
981.382	2835.73
981.682	2816.3
981.981	2778.78
982.28	2796.64
982.579	2778.1
982.878	2751.21
983.177	2791.21
983.475	2737.43
983.774	2709.86
984.073	2733.36
984.372	2711.21
984.67	2688.84
984.969	2672.57
985.267	2678.9
985.566	2681.61
985.864	2668.5
986.162	2670.54
986.461	2637.09
986.759	2621.72
987.057	2589.86
987.355	2583.08
987.653	2603.87
987.951	2579.69
988.249	2542.18
988.547	2543.99
988.844	2510.32
989.142	2492.24
989.44	2493.82
989.737	2538.11
990.035	2473.03
990.332	2497.21
990.63	2450.88
990.927	2440.94
991.224	2472.8
991.521	2453.37
991.819	2419.92
992.116	2405.23
992.413	2391.22
992.71	2366.14
993.006	2400.94
993.303	2397.78
993.6	2365.69
993.897	2343.09
994.193	2337.66
994.49	2320.04
994.787	2307.38
995.083	2304.67
995.379	2268.51
995.676	2277.1
995.972	2252.02
996.268	2245.01
996.565	2216.99
996.861	2223.77
997.157	2226.71
997.453	2190.1
997.749	2192.81
998.044	2199.36
998.34	2183.54
998.636	2175.41
998.932	2156.88
999.227	2125.01
999.523	2123.43
999.818	2139.7
1000.114	2108.29
1000.409	2103.77
1000.704	2095.19
1001	2071.68
1001.295	2097.9
1001.59	2065.36
1001.885	2065.36
1002.18	2011.12
1002.475	2003.21
1002.77	2008.41
1003.065	2010.67
1003.359	2013.15
1003.654	1990.1
1003.949	1953.04
1004.243	1982.87
1004.538	1960.73
1004.832	1936.77
1005.127	1942.65
1005.421	1879.6
1005.715	1919.14
1006.009	1886.83
1006.304	1877.79
1006.598	1836.21
1006.892	1896.09
1007.186	1836.89
1007.48	1851.12
1007.773	1823.55
1008.067	1814.51
1008.361	1814.51
1008.655	1802.31
1008.948	1794.85
1009.242	1799.15
1009.535	1781.52
1009.829	1757.11
1010.122	1767.74
1010.415	1742.88
1010.708	1709.66
1011.001	1713.27
1011.295	1692.48
1011.588	1712.37
1011.881	1650.68
1012.173	1668.98
1012.466	1656.55
1012.759	1656.33
1013.052	1668.76
1013.344	1619.49
1013.637	1645.25
1013.93	1629.66
1014.222	1597.35
1014.514	1597.35
1014.807	1579.04
1015.099	1576.78
1015.391	1573.84
1015.683	1589.89
1015.976	1569.55
1016.268	1539.04
1016.56	1543.56
1016.851	1532.26
1017.143	1524.35
1017.435	1544.01
1017.727	1491.13
1018.018	1519.83
1018.31	1500.17
1018.602	1505.37
1018.893	1492.04
1019.185	1445.94
1019.476	1456.33
1019.767	1461.08
1020.058	1446.84
1020.35	1427.86
1020.641	1444.81
1020.932	1414.98
1021.223	1397.35
1021.514	1392.6
1021.804	1363.9
1022.095	1370.68
1022.386	1359.84
1022.677	1336.33
1022.967	1333.85
1023.258	1315.32
1023.548	1312.61
1023.839	1325.94
1024.129	1300.63
1024.419	1310.57
1024.709	1298.82
1025	1274.19
1025.29	1279.16
1025.58	1245.04
1025.87	1244.36
1026.16	1255.66
1026.449	1256.79
1026.739	1225.15
1027.029	1226.51
1027.319	1211.82
1027.608	1168.88
1027.898	1206.39
1028.187	1199.84
1028.477	1225.15
1028.766	1178.82
1029.055	1160.52
1029.344	1167.07
1029.634	1158.94
1029.923	1149.45
1030.212	1121.88
1030.501	1148.09
1030.79	1115.1
1031.078	1133.85
1031.367	1111.48
1031.656	1109.67
1031.945	1100.41
1032.233	1111.26
1032.522	1099.96
1032.81	1098.15
1033.099	1081.2
1033.387	1060.86
1033.675	1075.32
1033.963	1064.03
1034.251	1059.05
1034.54	1038.72
1034.828	1004.82
1035.116	1014.08
1035.403	1006.85
1035.691	1015.21
1035.979	1031.26
1036.267	991.26
1036.554	996.46
1036.842	984.25
1037.129	963.46
1037.417	990.81
1037.704	954.88
1037.992	965.27
1038.279	958.49
1038.566	915.33
1038.853	915.33
1039.14	915.33
