Data from hue_150_FLMS001491_00015.txt Node
Date: Tue Feb 07 16:53:41 GMT 2017
User: dcchb
Spectrometer: FLMS00149
Trigger mode: 0
Integration Time (sec): 2.000000E-2
Scans to average: 10
Electric dark correction enabled: true
Nonlinearity correction enabled: false
Boxcar width: 0
XAxis mode: Wavelengths
Number of Pixels in Spectrum: 2048
>>>>>Begin Spectral Data<<<<<
341.393	-2.22
341.776	-2.22
342.16	-2.22
342.543	-55.1
342.927	-72.95
343.31	-73.18
343.693	-69.56
344.077	-72.72
344.46	-60.07
344.843	-52.39
345.226	-33.86
345.61	-26.62
345.993	-12.39
346.376	-18.94
346.759	1.17
347.142	30.55
347.525	49.53
347.908	52.7
348.291	65.13
348.674	101.73
349.057	118.91
349.44	101.96
349.823	153.48
350.206	151.22
350.588	188.29
350.971	214.27
351.354	229.19
351.737	242.52
352.119	235.52
352.502	250.21
352.884	274.84
353.267	290.66
353.65	263.09
354.032	287.04
354.414	318
354.797	302.41
355.179	308.06
355.562	332.24
355.944	336.08
356.326	325.01
356.709	354.61
357.091	346.47
357.473	337.43
357.855	350.09
358.238	352.35
358.62	333.82
359.002	330.43
359.384	326.59
359.766	322.07
360.148	348.51
360.53	349.86
360.912	336.98
361.294	320.71
361.676	333.59
362.057	348.73
362.439	333.14
362.821	308.51
363.203	337.21
363.584	338.34
363.966	339.24
364.348	338.34
364.729	302.63
365.111	292.69
365.493	314.16
365.874	340.6
366.256	317.77
366.637	331.79
367.019	305.57
367.4	301.28
367.781	332.69
368.163	326.81
368.544	325.91
368.925	321.16
369.306	313.71
369.688	318.9
370.069	296.08
370.45	321.84
370.831	308.06
371.212	309.86
371.593	332.46
371.974	314.84
372.355	304.67
372.736	336.53
373.117	315.51
373.498	330.43
373.879	317.1
374.26	316.87
374.641	323.88
375.021	342.18
375.402	320.26
375.783	331.11
376.163	332.69
376.544	320.49
376.925	328.4
377.305	327.49
377.686	333.59
378.066	323.42
378.447	337.89
378.827	340.37
379.208	345.8
379.588	322.52
379.968	342.86
380.349	334.95
380.729	343.31
381.109	351.22
381.489	351.45
381.87	346.7
382.25	352.12
382.63	324.1
383.01	355.06
383.39	331.11
383.77	327.49
384.15	340.37
384.53	325.91
384.91	349.19
385.29	357.1
385.67	341.95
386.049	359.35
386.429	346.25
386.809	362.97
387.189	338.11
387.568	355.06
387.948	372.46
388.328	351.45
388.707	372.91
389.087	349.86
389.466	362.74
389.846	360.94
390.225	363.2
390.605	372.91
390.984	387.15
391.363	390.31
391.743	401.16
392.122	381.28
392.501	395.74
392.881	400.71
393.26	379.69
393.639	398.22
394.018	403.87
394.397	386.25
394.776	390.54
395.155	402.07
395.534	383.31
395.913	402.52
396.292	397.32
396.671	401.16
397.05	394.83
397.429	407.72
397.808	438.9
398.186	407.04
398.565	428.73
398.944	398.45
399.323	408.62
399.701	400.94
400.08	424.21
400.458	434.38
400.837	408.17
401.215	428.05
401.594	422.86
401.972	428.73
402.351	429.41
402.729	411.11
403.107	434.83
403.486	447.04
403.864	420.6
404.242	442.29
404.62	465.34
404.999	445.45
405.377	420.82
405.755	452.46
406.133	468.96
406.511	479.58
406.889	466.24
407.267	449.52
407.645	457.66
408.023	459.47
408.401	456.53
408.779	475.06
409.156	489.07
409.534	461.27
409.912	478.45
410.29	495.17
410.667	490.88
411.045	485
411.422	479.35
411.8	483.19
412.178	490.88
412.555	490.2
412.933	518.22
413.31	513.02
413.687	490.65
414.065	512.35
414.442	527.49
414.819	524.32
415.197	530.88
415.574	527.03
415.951	518.67
416.328	555.06
416.705	553.47
417.082	562.97
417.46	559.35
417.837	539.92
418.214	555.28
418.591	552.12
418.967	546.69
419.344	557.09
419.721	602.96
420.098	594.83
420.475	583.53
420.852	597.99
421.228	575.62
421.605	581.72
421.982	614.26
422.358	615.62
422.735	616.98
423.111	594.6
423.488	631.44
423.864	611.55
424.241	620.82
424.617	631.21
424.994	634.83
425.37	638.67
425.746	628.05
426.123	635.96
426.499	630.53
426.875	630.53
427.251	639.57
427.627	650.87
428.003	675.5
428.379	678.22
428.756	687.26
429.132	684.77
429.507	678.67
429.883	706.92
430.259	708.27
430.635	709.85
431.011	716.86
431.387	730.19
431.763	731.77
432.138	747.14
432.514	763.41
432.89	733.36
433.265	760.47
433.641	775.39
434.016	764.32
434.392	758.21
434.767	794.6
435.143	813.81
435.518	808.61
435.894	793.69
436.269	808.38
436.644	811.55
437.02	828.72
437.395	824.2
437.77	832.56
438.145	857.19
438.52	859.68
438.895	868.27
439.271	863.3
439.646	888.83
440.021	893.8
440.395	892.22
440.77	875.27
441.145	908.27
441.52	940.36
441.895	913.69
442.27	935.84
442.645	927.02
443.019	943.97
443.394	971.09
443.769	960.7
444.143	949.17
444.518	945.55
444.892	952.56
445.267	960.24
445.641	979.9
446.016	1009.06
446.39	983.52
446.764	981.03
447.139	1020.13
447.513	1022.16
447.887	1024.42
448.262	1015.83
448.636	1034.59
449.01	1016.06
449.384	1055.83
449.758	1054.25
450.132	1082.95
450.506	1111.43
450.88	1096.28
451.254	1087.92
451.628	1102.39
452.002	1090.86
452.376	1132.89
452.75	1117.98
453.123	1134.02
453.497	1151.88
453.871	1163.4
454.244	1218.09
454.618	1184.42
454.992	1220.12
455.365	1218.77
455.739	1226.9
456.112	1222.61
456.486	1250.4
456.859	1266.22
457.232	1292.44
457.606	1278.88
457.979	1324.98
458.352	1327.47
458.725	1351.42
459.099	1393.9
459.472	1376.73
459.845	1420.57
460.218	1421.02
460.591	1439.78
460.964	1428.48
461.337	1462.83
461.71	1483.39
462.083	1515.26
462.456	1541.7
462.829	1545.31
463.201	1579.89
463.574	1551.87
463.947	1599.1
464.32	1615.14
464.692	1653.33
465.065	1680.45
465.438	1721.35
465.81	1701.24
466.183	1751.41
466.555	1787.34
466.928	1818.98
467.3	1811.75
467.672	1823.27
468.045	1885.19
468.417	1904.63
468.789	1908.47
469.161	1937.84
469.534	2000.22
469.906	2051.74
470.278	2052.42
470.65	2063.04
471.022	2122.02
471.394	2183.04
471.766	2215.35
472.138	2238.18
472.51	2315.01
472.882	2356.82
473.253	2378.74
473.625	2411.73
473.997	2495.34
474.369	2510.71
474.74	2582.57
475.112	2643.36
475.484	2717.49
475.855	2801.55
476.227	2805.17
476.598	2893.75
476.97	2960.19
477.341	3040.19
477.713	3103.46
478.084	3162.45
478.455	3244.48
478.827	3299.84
479.198	3435.21
479.569	3460.29
479.94	3601.3
480.311	3665.93
480.682	3760.85
481.053	3848.53
481.424	3980.05
481.795	4040.61
482.166	4168.75
482.537	4262.53
482.908	4382.75
483.279	4481.51
483.65	4589.98
484.021	4739.58
484.391	4790.88
484.762	4958.1
485.133	5043.98
485.503	5183.18
485.874	5292.56
486.244	5413.46
486.615	5540.69
486.985	5717.18
487.356	5852.77
487.726	5918.76
488.097	6041.92
488.467	6169.6
488.837	6379.99
489.207	6542.24
489.578	6661.11
489.948	6719.41
490.318	6952.4
490.688	7021.78
491.058	7216.58
491.428	7409.57
491.798	7479.85
492.168	7639.84
492.538	7745.15
492.908	7991.02
493.278	8090.9
493.648	8177
494.017	8346.94
494.387	8492.7
494.757	8592.36
495.126	8775.18
495.496	8900.15
495.866	8954.61
496.235	9114.6
496.605	9265.34
496.974	9400.25
497.344	9541.94
497.713	9578.77
498.082	9739.45
498.452	9884.3
498.821	9946.9
499.19	10105.54
499.559	10215.14
499.928	10287
500.298	10414.91
500.667	10550.05
501.036	10615.36
501.405	10741.91
501.774	10769.7
502.143	10904.39
502.512	11037.04
502.88	11088.56
503.249	11054.44
503.618	11243.36
503.987	11343.7
504.356	11400.87
504.724	11514.32
505.093	11521.1
505.462	11636.12
505.83	11731.94
506.199	11762.67
506.567	12002.66
506.936	12061.42
507.304	12154.3
507.672	12170.12
508.041	12235.43
508.409	12310.91
508.777	12490.11
509.145	12477.68
509.514	12520.17
509.882	12639.71
510.25	12674.74
510.618	12697.56
510.986	12721.74
511.354	12865.24
511.722	12958.12
512.09	13034.5
512.458	13062.98
512.826	13077.89
513.193	13133.03
513.561	13229.75
513.929	13284.89
514.297	13382.97
514.664	13403.08
515.032	13417.54
515.4	13467.94
515.767	13558.78
516.135	13638.1
516.502	13502.74
516.869	13689.17
517.237	13722.62
517.604	13702.28
517.972	13822.96
518.339	13910.19
518.706	13798.32
519.073	13984.08
519.44	13954.7
519.808	14032.44
520.175	14029.5
520.542	14124.19
520.909	14251.42
521.276	14176.84
521.643	14229.27
522.009	14305.2
522.376	14382.49
522.743	14289.61
523.11	14417.52
523.477	14464.29
523.843	14620
524.21	14583.61
524.577	14661.35
524.943	14735.25
525.31	14681.69
525.676	14764.17
526.043	14855.24
526.409	14815.47
526.776	14935.47
527.142	14857.28
527.508	14980.67
527.874	15069.48
528.241	14985.19
528.607	14991.29
528.973	14979.76
529.339	14927.56
529.705	15054.79
530.071	15110.15
530.437	15127.33
530.803	15181.34
531.169	15201.22
531.535	15088.46
531.901	15102.02
532.267	15089.59
532.632	15210.49
532.998	15140.89
533.364	15285.97
533.73	15104.5
534.095	15241
534.461	15197.83
534.826	15216.37
535.192	15087.78
535.557	15189.93
535.923	15096.37
536.288	15126.88
536.653	15102.24
537.019	14989.7
537.384	15096.82
537.749	14988.8
538.114	14950.84
538.479	14943.83
538.845	14968.69
539.21	14855.47
539.575	14938.41
539.94	14956.26
540.305	14955.13
540.67	14864.74
541.034	14847.11
541.399	14823.83
541.764	14867.22
542.129	14817.96
542.494	14713.33
542.858	14752.42
543.223	14650.5
543.587	14618.64
543.952	14552.2
544.316	14674.23
544.681	14435.82
545.045	14604.4
545.41	14561.69
545.774	14518.08
546.138	14559.66
546.503	14505.65
546.867	14420.68
547.231	14492.77
547.595	14412.32
547.959	14432.88
548.324	14344.75
548.688	14393.79
549.052	14359.66
549.416	14331.64
549.779	14312.66
550.143	14251.65
550.507	14288.71
550.871	14252.77
551.235	14202.83
551.599	14249.39
551.962	14167.81
552.326	14113.34
552.689	14246.67
553.053	14092.55
553.417	14081.48
553.78	14167.35
554.143	14071.08
554.507	14064.76
554.87	14054.14
555.234	14150.63
555.597	14017.07
555.96	14037.64
556.323	14050.07
556.686	14021.37
557.05	13958.09
557.413	13980.69
557.776	13987.25
558.139	14000.58
558.502	14024.53
558.865	14045.1
559.228	14001.48
559.59	13974.82
559.953	13945.44
560.316	14116.73
560.679	13994.7
561.041	14184.75
561.404	14111.54
561.767	14124.19
562.129	14086.68
562.492	14146.56
562.854	14150.86
563.217	14111.31
563.579	14130.07
563.941	14096.62
564.304	14116.51
564.666	14263.85
565.028	14167.81
565.39	14246.67
565.753	14244.41
566.115	14229.72
566.477	14180.91
566.839	14350.85
567.201	14347.69
567.563	14331.42
567.925	14287.35
568.287	14378.42
568.648	14381.59
569.01	14480.79
569.372	14482.15
569.734	14457.74
570.095	14465.2
570.457	14585.65
570.819	14523.05
571.18	14532.32
571.542	14638.98
571.903	14494.58
572.265	14616.38
572.626	14655.02
572.987	14603.73
573.349	14683.95
573.71	14640.56
574.071	14661.8
574.432	14700.45
574.794	14888.01
575.155	14671.3
575.516	14669.94
575.877	14642.14
576.238	14661.8
576.599	14671.75
576.96	14707
577.32	14695.02
577.681	14757.39
578.042	14700.9
578.403	14701.12
578.763	14714.46
579.124	14803.49
579.485	14875.58
579.845	14846.21
580.206	14797.85
580.566	14770.5
580.927	14758.3
581.287	14841.01
581.648	14875.13
582.008	14911.06
582.368	14823.83
582.728	14781.35
583.089	14782.48
583.449	14778.64
583.809	14755.36
584.169	14791.07
584.529	14769.37
584.889	14892.53
585.249	14709.49
585.609	14719.43
585.969	14723.05
586.329	14727.56
586.688	14755.81
587.048	14645.53
587.408	14696.15
587.768	14667.45
588.127	14604.63
588.487	14636.72
588.846	14719.43
589.206	14639.88
589.565	14651.63
589.925	14669.04
590.284	14619.32
590.643	14557.17
591.003	14680.11
591.362	14626.1
591.721	14617.29
592.08	14615.7
592.44	14621.35
592.799	14612.31
593.158	14577.06
593.517	14541.81
593.876	14576.38
594.235	14530.73
594.593	14501.58
594.952	14532.77
595.311	14501.58
595.67	14621.35
596.029	14640.79
596.387	14695.48
596.746	14569.6
597.104	14533.45
597.463	14572.31
597.822	14536.84
598.18	14453.22
598.538	14499.55
598.897	14565.76
599.255	14461.58
599.613	14678.07
599.972	14492.09
600.33	14579.77
600.688	14574.12
601.046	14615.93
601.404	14627
601.762	14658.41
602.12	14653.44
602.478	14685.31
602.836	14593.78
603.194	14559.89
603.552	14578.64
603.91	14524.86
604.268	14629.71
604.625	14559.89
604.983	14548.59
605.341	14561.24
605.698	14590.17
606.056	14566.21
606.413	14422.26
606.771	14611.18
607.128	14612.31
607.485	14542.94
607.843	14557.4
608.2	14644.86
608.557	14616.16
608.914	14623.84
609.272	14684.18
609.629	14759.65
609.986	14728.69
610.343	14672.65
610.7	14772.08
611.057	14704.74
611.414	14724.63
611.771	14784.51
612.127	14836.04
612.484	14825.19
612.841	14681.92
613.198	14703.61
613.554	14798.75
613.911	14830.39
614.267	14801.69
614.624	14673.33
614.98	14758.52
615.337	14861.57
615.693	14935.24
616.05	14831.74
616.406	14939.31
616.762	14873.32
617.118	14814.12
617.475	14868.13
617.831	14965.07
618.187	15044.84
618.543	14954
618.899	15033.77
619.255	15088.91
619.611	14973.89
619.967	15041.23
620.323	15073.77
620.678	15035.13
621.034	14991.74
621.39	14972.08
621.746	14878.07
622.101	15127.78
622.457	15031.29
622.812	15002.13
623.168	15057.05
623.523	14987.44
623.879	15112.41
624.234	15044.62
624.589	14959.2
624.945	15016.14
625.3	14934.56
625.655	15035.58
626.01	15034
626.365	15081.68
626.72	14942.02
627.075	15008.24
627.43	14991.29
627.785	14985.19
628.14	14953.55
628.495	15047.56
628.85	15002.36
629.205	14951.06
629.559	15005.98
629.914	14903.15
630.269	14885.98
630.623	14772.76
630.978	14827
631.332	14990.38
631.687	14979.99
632.041	14851.4
632.396	14837.39
632.75	14775.25
633.104	14865.41
633.459	14743.16
633.813	14792.65
634.167	14718.07
634.521	14782.93
634.875	14808.24
635.229	14700.67
635.583	14698.19
635.937	14757.17
636.291	14667.45
636.645	14561.02
636.999	14647.57
637.352	14628.36
637.706	14479.44
638.06	14585.42
638.413	14472.43
638.767	14430.17
639.121	14526.21
639.474	14449.15
639.828	14447.57
640.181	14519.66
640.534	14498.64
640.888	14464.75
641.241	14378.65
641.594	14497.97
641.947	14521.24
642.301	14414.58
642.654	14394.47
643.007	14387.69
643.36	14503.84
643.713	14379.33
644.066	14426.1
644.419	14318.54
644.771	14228.59
645.124	14154.02
645.477	14141.82
645.83	14058.2
646.182	13888.04
646.535	13944.08
646.888	13908.38
647.24	13864.76
647.593	13836.29
647.945	13841.26
648.298	13788.83
648.65	13819.34
649.002	13797.19
649.355	13808.27
649.707	13817.08
650.059	13904.99
650.411	14080.58
650.763	14018.88
651.115	14201.93
651.467	14147.69
651.819	14205.32
652.171	14173.68
652.523	14108.37
652.875	14128.03
653.227	14094.59
653.578	14198.09
653.93	14118.32
654.282	14155.38
654.633	14031.54
654.985	14123.29
655.337	14113.8
655.688	14088.03
656.039	14159.22
656.391	14031.99
656.742	14119.22
657.094	14103.17
657.445	14108.15
657.796	14031.99
658.147	14117.86
658.498	13970.97
658.849	14083.74
659.2	14077.19
659.551	14067.24
659.902	14077.64
660.253	14128.48
660.604	14126.68
660.955	14042.16
661.306	14124.64
661.656	14083.97
662.007	14152.21
662.358	14183.85
662.708	14157.86
663.059	14120.35
663.409	14080.58
663.76	14236.28
664.11	14255.94
664.461	14166.45
664.811	14166.9
665.161	14182.04
665.511	14105.43
665.862	14158.09
666.212	14166.22
666.562	14167.58
666.912	14074.7
667.262	14072.44
667.612	14075.83
667.962	14090.75
668.312	14097.07
668.662	14086.68
669.011	14095.72
669.361	14061.82
669.711	14104.3
670.06	14095.04
670.41	13982.73
670.76	14042.84
671.109	14065.89
671.459	14027.92
671.808	14048.03
672.157	14133.46
672.507	14013.01
672.856	14031.09
673.205	13972.56
673.554	14085.77
673.904	14021.37
674.253	14020.24
674.602	13920.35
674.951	13798.32
675.3	13715.39
675.649	13941.14
675.998	13907.7
676.346	13885.78
676.695	13960.81
677.044	13803.97
677.393	13841.49
677.741	13841.71
678.09	13810.3
678.438	13789.96
678.787	13887.81
679.135	13821.15
679.484	13775.27
679.832	13708.38
680.181	13616.41
680.529	13701.15
680.877	13585.22
681.225	13644.43
681.573	13755.84
681.922	13636.97
682.27	13619.12
682.618	13537.09
682.966	13554.26
683.314	13597.42
683.661	13549.52
684.009	13505.68
684.357	13371.67
684.705	13410.54
685.053	13427.49
685.4	13399.24
685.748	13221.39
686.095	13309.52
686.443	13251.22
686.79	13243.99
687.138	13229.3
687.485	13269.3
687.832	13136.87
688.18	13216.87
688.527	13121.73
688.874	13024.33
689.221	13022.52
689.568	13053.48
689.915	12916.31
690.262	12966.48
690.609	12951.11
690.956	12836.77
691.303	12899.82
691.65	12799.03
691.997	12853.72
692.344	12703.21
692.69	12608.07
693.037	12633.83
693.383	12483.56
693.73	12522.65
694.077	12454.63
694.423	12470.22
694.769	12407.17
695.116	12405.14
695.462	12327.4
695.808	12282.43
696.155	12319.49
696.501	12244.24
696.847	12249.66
697.193	12069.33
697.539	12251.02
697.885	12096.45
698.231	12069.56
698.577	12042.21
698.923	11978.26
699.269	11918.15
699.614	11833.18
699.96	11817.58
700.306	11774.42
700.651	11723.8
700.997	11754.31
701.342	11711.37
701.688	11666.85
702.033	11596.8
702.379	11534.88
702.724	11583.24
703.069	11574.43
703.415	11441.1
703.76	11401.1
704.105	11445.62
704.45	11390.7
704.795	11287.2
705.14	11285.62
705.485	11291.04
705.83	11199.07
706.175	11183.03
706.52	11105.97
706.865	11115.23
707.209	11137.6
707.554	11045.85
707.899	10986.42
708.243	10988.68
708.588	10961.56
708.932	10880.89
709.277	10900.09
709.621	10812.64
709.966	10806.76
710.31	10762.25
710.654	10694.68
710.998	10695.13
711.342	10712.53
711.687	10714.34
712.031	10663.94
712.375	10555.25
712.719	10649.25
713.063	10609.71
713.407	10589.59
713.75	10530.39
714.094	10493.1
714.438	10470.05
714.782	10508.92
715.125	10477.06
715.469	10468.02
715.812	10394.57
716.156	10453.78
716.499	10418.07
716.843	10389.83
717.186	10349.37
717.53	10374.91
717.873	10369.94
718.216	10324.74
718.559	10272.77
718.902	10206.78
719.246	10173.56
719.589	10127.23
719.932	10136.72
720.275	10159.32
720.617	10116.84
720.96	10105.54
721.303	10133.56
721.646	10116.39
721.989	10026.67
722.331	10090.4
722.674	10040.68
723.016	10050.63
723.359	10091.08
723.701	10023.51
724.044	9998.2
724.386	9969.72
724.729	9968.14
725.071	10019.44
725.413	9988.93
725.755	9943.06
726.097	9847.92
726.439	9860.57
726.782	9973.79
727.124	9988.93
727.465	9891.31
727.807	9889.27
728.149	9908.48
728.491	9889.05
728.833	9912.1
729.175	9888.6
729.516	9836.39
729.858	9885.66
730.199	9849.95
730.541	9877.75
730.882	9854.02
731.224	9941.02
731.565	9830.74
731.906	9829.61
732.248	9819.22
732.589	9799.56
732.93	9771.76
733.271	9789.39
733.612	9797.52
733.953	9709.17
734.294	9765.21
734.635	9765.21
734.976	9809.95
735.317	9689.73
735.658	9795.94
735.999	9726.34
736.339	9711.2
736.68	9761.59
737.021	9780.35
737.361	9698.09
737.702	9708.49
738.042	9746.45
738.383	9786.9
738.723	9779.45
739.063	9833.46
739.404	9756.17
739.744	9815.15
740.084	9793.23
740.424	9818.99
740.764	9803.63
741.104	9873
741.444	9783.06
741.784	9808.37
742.124	9905.54
742.464	9880.91
742.804	9807.24
743.143	9876.39
743.483	9895.38
743.823	9941.25
744.162	9981.25
744.502	10075.03
744.841	10000.23
745.181	10088.14
745.52	10036.84
745.86	10124.75
746.199	10129.95
746.538	10179.89
746.877	10230.73
747.216	10284.07
747.556	10289.94
747.895	10322.93
748.234	10348.02
748.573	10416.27
748.911	10425.76
749.25	10539.65
749.589	10554.34
749.928	10606.54
750.267	10706.43
750.605	10763.38
750.944	10804.73
751.283	10837.05
751.621	10890.15
751.96	11021
752.298	11063.48
752.636	11177.38
752.975	11234.32
753.313	11319.29
753.651	11472.51
753.989	11505.95
754.327	11557.03
754.666	11719.51
755.004	11883.35
755.342	11980.74
755.679	12174.41
756.017	12259.83
756.355	12356.1
756.693	12522.65
757.031	12653.95
757.368	12761.74
757.706	12982.3
758.044	13042.64
758.381	13277.66
758.719	13265.23
759.056	13529.4
759.394	13594.94
759.731	13737.53
760.068	13933.01
760.405	14017.75
760.743	14172.33
761.08	14330.51
761.417	14465.65
761.754	14660
762.091	14846.88
762.428	14978.18
762.765	15087.33
763.102	15325.52
763.438	15414.78
763.775	15578.16
764.112	15701.55
764.449	15967.53
764.785	16007.53
765.122	16091.82
765.458	16357.58
765.795	16469.89
766.131	16623.79
766.467	16774.74
766.804	16816.32
767.14	17012.48
767.476	17149.87
767.812	17268.51
768.148	17383.09
768.485	17537.89
768.821	17537.21
769.157	17694.94
769.492	17847.03
769.828	17972.45
770.164	18069.4
770.5	18177.64
770.836	18292.44
771.171	18356.17
771.507	18357.07
771.842	18491.31
772.178	18583.96
772.513	18684.52
772.849	18733.56
773.184	18860.11
773.519	18925.65
773.855	18949.6
774.19	19023.95
774.525	18960
774.86	19161.12
775.195	19230.95
775.53	19313.43
775.865	19277.05
776.2	19286.54
776.535	19226.2
776.87	19335.13
777.205	19366.31
777.539	19323.6
777.874	19520.21
778.209	19379.87
778.543	19415.8
778.878	19380.32
779.212	19454.45
779.547	19402.92
779.881	19626.42
780.215	19516.82
780.55	19583.71
780.884	19564.5
781.218	19628
781.552	19636.36
781.886	19477.5
782.22	19494.67
782.554	19542.13
782.888	19361.34
783.222	19381
783.556	19317.95
783.889	19395.24
784.223	19386.88
784.557	19402.24
784.89	19436.14
785.224	19321.79
785.557	19318.4
785.891	19244.28
786.224	19348.91
786.558	19349.14
786.891	19263.49
787.224	19308.24
787.557	19239.76
787.891	19232.98
788.224	19272.76
788.557	19251.97
788.89	19183.49
789.223	19150.05
789.556	19082.93
789.888	19098.07
790.221	19035.02
790.554	18981.01
790.887	18966.32
791.219	18882.26
791.552	18884.07
791.884	18780.34
792.217	18845.87
792.549	18805.42
792.882	18633
793.214	18694.92
793.546	18683.84
793.879	18544.64
794.211	18439.56
794.543	18594.81
794.875	18574.47
795.207	18576.96
795.539	18435.04
795.871	18467.81
796.203	18316.17
796.535	18284.08
796.867	18283.86
797.198	18161.37
797.53	18284.99
797.862	18084.31
798.193	18191.43
798.525	18021.72
798.856	18059
799.188	17997.08
799.519	17873.7
799.85	17794.83
800.182	17875.73
800.513	17779.46
800.844	17732.01
801.175	17824.88
801.506	17764.55
801.837	17657.43
802.168	17649.75
802.499	17529.52
802.83	17528.4
803.161	17540.37
803.491	17540.82
803.822	17502.86
804.153	17387.61
804.483	17297.89
804.814	17277.33
805.145	17198.46
805.475	17226.48
805.805	17085.47
806.136	17131.8
806.466	17111.91
806.796	17105.36
807.126	17028.07
807.457	16929.09
807.787	16893.38
808.117	16803.67
808.447	16862.65
808.777	16812.26
809.107	16735.42
809.436	16698.59
809.766	16678.47
810.096	16556.22
810.426	16539.27
810.755	16654.97
811.085	16571.13
811.414	16530.23
811.744	16437.35
812.073	16400.52
812.403	16341.99
812.732	16319.16
813.061	16362.78
813.39	16292.27
813.719	16232.16
814.049	16362.55
814.378	16183.8
814.707	16130.47
815.036	16167.3
815.365	16090.24
815.693	16021.77
816.022	16045.5
816.351	16043.01
816.68	15894.77
817.008	15947.65
817.337	15866.52
817.665	15761.21
817.994	15837.37
818.322	15762.79
818.651	15695.45
818.979	15692.96
819.307	15655
819.636	15677.6
819.964	15556.92
820.292	15590.82
820.62	15619.52
820.948	15689.8
821.276	15645.05
821.604	15636.24
821.932	15618.61
822.259	15590.14
822.587	15619.07
822.915	15502.23
823.243	15572.29
823.57	15659.97
823.898	15547.2
824.225	15523.93
824.553	15547.88
824.88	15599.41
825.207	15592.85
825.535	15583.14
825.862	15741.32
826.189	15558.73
826.516	15667.65
826.843	15647.31
827.17	15683.7
827.497	15688.67
827.824	15688.9
828.151	15586.98
828.478	15578.39
828.805	15683.7
829.131	15564.6
829.458	15629.69
829.785	15535.45
830.111	15560.99
830.438	15718.73
830.764	15549.24
831.09	15645.05
831.417	15549.01
831.743	15575.68
832.069	15667.65
832.395	15523.48
832.722	15547.2
833.048	15553.08
833.374	15518.5
833.7	15471.73
834.026	15524.61
834.351	15530.26
834.677	15490.03
835.003	15437.83
835.329	15485.74
835.654	15518.28
835.98	15250.04
836.306	15413.2
836.631	15272.64
836.956	15356.02
837.282	15314.44
837.607	15323.93
837.932	15252.75
838.258	15233.99
838.583	15358.96
838.908	15209.81
839.233	15224.05
839.558	15199.87
839.883	15140.44
840.208	15091.4
840.533	15068.12
840.858	15066.76
841.182	14965.98
841.507	14965.52
841.832	14927.33
842.156	14961
842.481	14886.66
842.805	14895.7
843.13	14862.7
843.454	14818.86
843.778	14768.24
844.103	14735.7
844.427	14732.54
844.751	14742.03
845.075	14665.19
845.399	14595.36
845.723	14444.18
846.047	14621.13
846.371	14442.15
846.695	14420.91
847.019	14376.84
847.343	14197.86
847.666	14225.43
847.99	14217.07
848.313	14158.99
848.637	14050.75
848.96	14036.06
849.284	13957.64
849.607	14027.47
849.931	13843.29
850.254	13759.45
850.577	13755.61
850.9	13618.22
851.223	13602.4
851.546	13652.56
851.869	13428.39
852.192	13483.98
852.515	13417.32
852.838	13373.7
853.161	13294.83
853.483	13229.53
853.806	13237.89
854.129	13223.88
854.451	13152.92
854.774	13088.74
855.096	13057.55
855.419	13096.65
855.741	12909.76
856.063	12921.51
856.385	12895.75
856.708	12875.86
857.03	12776.88
857.352	12780.05
857.674	12700.95
857.996	12688.07
858.318	12594.29
858.64	12702.53
858.961	12565.14
859.283	12486.49
859.605	12502.09
859.926	12563.78
860.248	12503.89
860.57	12433.39
860.891	12345.25
861.212	12376.21
861.534	12293.28
861.855	12245.14
862.176	12270.91
862.498	12279.72
862.819	12209.89
863.14	12232.49
863.461	12125.6
863.782	12162.43
864.103	12148.88
864.424	12085.6
864.745	12081.53
865.065	12069.56
865.386	12029.1
865.707	12057.8
866.027	12027.75
866.348	11978.26
866.668	11931.71
866.989	11937.81
867.309	11791.6
867.63	11926.96
867.95	11851.71
868.27	11787.08
868.59	11762.44
868.91	11853.97
869.23	11762.9
869.55	11748.89
869.87	11848.77
870.19	11676.12
870.51	11657.14
870.83	11753.41
871.15	11583.01
871.469	11707.53
871.789	11626.86
872.109	11608.1
872.428	11537.37
872.748	11616.69
873.067	11449.46
873.386	11564.71
873.706	11479.51
874.025	11432.96
874.344	11503.92
874.663	11472.96
874.982	11440.42
875.301	11431.61
875.62	11442.91
875.939	11472.74
876.258	11378.95
876.577	11356.13
876.896	11336.92
877.214	11266.19
877.533	11271.61
877.852	11271.61
878.17	11203.36
878.489	11360.42
878.807	11221.44
879.125	11189.13
879.444	11236.13
879.762	11188.22
880.08	11229.13
880.398	11124.04
880.716	11101.9
881.034	11100.09
881.352	11145.74
881.67	11044.05
881.988	11020.54
882.306	11016.7
882.624	10958.17
882.941	10858.29
883.259	10912.98
883.577	10883.82
883.894	10875.91
884.212	10866.88
884.529	10869.36
884.846	10771.51
885.164	10769.48
885.481	10711.85
885.798	10808.8
886.115	10666.65
886.432	10678.18
886.75	10659.88
887.067	10630.5
887.383	10606.32
887.7	10599.54
888.017	10490.84
888.334	10538.07
888.651	10410.16
888.967	10453.1
889.284	10397.28
889.6	10336.49
889.917	10280.45
890.233	10368.36
890.55	10269.83
890.866	10350.05
891.182	10259.21
891.498	10235.25
891.815	10244.29
892.131	10204.75
892.447	10110.29
892.763	10110.74
893.079	10086.33
893.395	10032.55
893.71	9931.76
894.026	9951.42
894.342	9878.65
894.657	9923.62
894.973	9811.31
895.289	9866.9
895.604	9815.83
895.92	9784.42
896.235	9756.85
896.55	9741.26
896.865	9720.01
897.181	9633.24
897.496	9626.23
897.811	9563.63
898.126	9579.23
898.441	9493.35
898.756	9447.03
899.071	9358.67
899.386	9491.54
899.7	9352.34
900.015	9343.98
900.33	9277.99
900.644	9296.97
900.959	9209.07
901.273	9197.31
901.588	9166.81
901.902	9137.88
902.216	9059.24
902.531	9076.64
902.845	9019.69
903.159	8956.87
903.473	8963.42
903.787	8927.94
904.101	8835.29
904.415	8844.78
904.729	8788.51
905.042	8758.46
905.356	8738.34
905.67	8763.2
905.984	8684.11
906.297	8660.61
906.611	8637.78
906.924	8578.12
907.237	8606.14
907.551	8593.49
907.864	8458.8
908.177	8536.09
908.491	8441.85
908.804	8446.6
909.117	8337.22
909.43	8298.81
909.743	8333.61
910.056	8254.06
910.368	8195.31
910.681	8243.44
910.994	8143.56
911.307	8099.94
911.619	8034.86
911.932	8110.56
912.244	7998.25
912.557	7988.53
912.869	7958.48
913.181	7966.39
913.494	7969.78
913.806	7882.1
914.118	7822.44
914.43	7823.57
914.742	7734.98
915.054	7664.02
915.366	7642.55
915.678	7607.07
915.99	7608.43
916.302	7566.17
916.613	7570.01
916.925	7513.52
917.236	7560.07
917.548	7501.99
917.859	7479.39
918.171	7365.72
918.482	7354.65
918.794	7388.32
919.105	7343.58
919.416	7285.05
919.727	7303.58
920.038	7258.38
920.349	7220.42
920.66	7124.83
920.971	7167.54
921.282	7135
921.593	7078.5
921.903	7059.07
922.214	7024.26
922.525	7046.18
922.835	7048.44
923.146	6952.18
923.456	6931.39
923.767	6858.17
924.077	6908.11
924.387	6882.8
924.697	6811.39
925.008	6812.97
925.318	6747.44
925.628	6715.12
925.938	6729.81
926.248	6642.13
926.558	6605.74
926.867	6621.56
927.177	6598.74
927.487	6612.52
927.796	6478.97
928.106	6484.39
928.416	6467.89
928.725	6445.07
929.034	6438.29
929.344	6420.89
929.653	6367.11
929.962	6346.32
930.271	6311.29
930.581	6252.99
930.89	6284.4
931.199	6222.48
931.508	6168.69
931.817	6239.65
932.125	6114.91
932.434	6133.67
932.743	6072.2
933.051	6016.61
933.36	6034.69
933.669	5996.04
933.977	6004.86
934.286	6002.14
934.594	5979.32
934.902	5919.89
935.21	5894.12
935.519	5880.11
935.827	5876.05
936.135	5834.01
936.443	5765.54
936.751	5770.51
937.059	5770.96
937.367	5718.54
937.674	5727.35
937.982	5694.58
938.29	5675.15
938.597	5661.36
938.905	5630.18
939.213	5575.26
939.52	5528.26
939.827	5540.01
940.135	5470.18
940.442	5469.05
940.749	5481.48
941.056	5531.65
941.363	5439
941.67	5425.89
941.977	5315.16
942.284	5355.16
942.591	5343.18
942.898	5346.34
943.205	5285.1
943.511	5230.87
943.818	5262.05
944.125	5237.42
944.431	5182.5
944.738	5171.88
945.044	5167.82
945.35	5145.67
945.657	5113.35
945.963	5095.5
946.269	5050.98
946.575	5011.21
946.881	5033.36
947.187	4990.65
947.493	5018.89
947.799	5013.7
948.105	4955.17
948.41	4928.73
948.716	4907.94
949.022	4865.68
949.327	4860.48
949.633	4791.33
949.938	4795.85
950.244	4823.64
950.549	4757.21
950.854	4750.88
951.16	4717.66
951.465	4701.61
951.77	4687.83
952.075	4723.76
952.38	4705.23
952.685	4640.37
952.99	4563.31
953.294	4598.79
953.599	4563.31
953.904	4545.23
954.209	4511.56
954.513	4527.15
954.818	4462.07
955.122	4420.49
955.426	4422.07
955.731	4484.9
956.035	4400.83
956.339	4436.99
956.643	4384.33
956.948	4396.08
957.252	4349.98
957.556	4303.88
957.86	4309.76
958.163	4314.51
958.467	4259.14
958.771	4258.24
959.075	4237.67
959.378	4185.7
959.682	4214.62
959.985	4168.29
960.289	4146.6
960.592	4132.82
960.896	4071.8
961.199	4093.95
961.502	4051.01
961.805	4075.19
962.108	4010.56
962.411	4023.21
962.714	3992.93
963.017	4027.06
963.32	4004.68
963.623	3973.5
963.926	3987.51
964.228	3926.27
964.531	3935.31
964.833	3862.77
965.136	3855.76
965.438	3844.46
965.741	3838.59
966.043	3800.85
966.345	3775.54
966.648	3794.97
966.95	3782.32
967.252	3768.08
967.554	3733.96
967.856	3749.32
968.158	3701.19
968.46	3653.96
968.761	3686.05
969.063	3656.22
969.365	3669.1
969.666	3690.11
969.968	3623
970.269	3599.95
970.571	3572.15
970.872	3555.88
971.174	3504.81
971.475	3560.63
971.776	3488.31
972.077	3470.69
972.378	3512.04
972.679	3503.91
972.98	3469.56
973.281	3438.82
973.582	3433.17
973.883	3450.12
974.183	3362.21
974.484	3427.75
974.785	3341.42
975.085	3371.71
975.386	3367.19
975.686	3312.72
975.986	3319.05
976.287	3312.05
976.587	3268.43
976.887	3241.99
977.187	3278.6
977.487	3258.04
977.787	3226.85
978.087	3217.36
978.387	3169.9
978.687	3171.71
978.987	3145.04
979.286	3158.15
979.586	3110.24
979.885	3121.77
980.185	3119.73
980.484	3081.54
980.784	3073.63
981.083	3065.27
981.382	3037.93
981.682	3065.27
981.981	3034.54
982.28	3024.82
982.579	2964.71
982.878	2968.55
983.177	2981.21
983.475	2965.16
983.774	2908.89
984.073	2903.47
984.372	2895.56
984.67	2883.36
984.969	2911.15
985.267	2902.56
985.566	2871.83
985.864	2853.3
986.162	2864.15
986.461	2824.15
986.759	2811.27
987.057	2796.58
987.355	2773.98
987.653	2785.28
987.951	2790.25
988.249	2742.8
988.547	2746.18
988.844	2717.26
989.142	2734.21
989.44	2695.11
989.737	2686.75
990.035	2696.47
990.332	2667.54
990.63	2637.26
990.927	2615.57
991.224	2599.07
991.521	2586.64
991.819	2590.93
992.116	2566.98
992.413	2609.24
992.71	2563.59
993.006	2536.25
993.303	2520.2
993.6	2539.86
993.897	2541.44
994.193	2512.29
994.49	2506.19
994.787	2485.4
995.083	2425.97
995.379	2447.21
995.676	2433.88
995.972	2446.98
996.268	2444.95
996.565	2425.52
996.861	2390.94
997.157	2383.03
997.453	2364.27
997.749	2366.31
998.044	2362.92
998.34	2356.82
998.636	2320.89
998.932	2300.55
999.227	2327.89
999.523	2299.19
999.818	2297.84
1000.114	2276.82
1000.409	2234.79
1000.704	2246.99
1001	2204.5
1001.295	2240.89
1001.59	2186.65
1001.885	2186.43
1002.18	2194.79
1002.475	2206.76
1002.77	2186.2
1003.065	2166.09
1003.359	2152.75
1003.654	2102.59
1003.949	2106.43
1004.243	2073.43
1004.538	2065.75
1004.832	2066.2
1005.127	2096.48
1005.421	2024.4
1005.715	2084.06
1006.009	2061.46
1006.304	2044.28
1006.598	1988.24
1006.892	1986.2
1007.186	1988.46
1007.48	1942.14
1007.773	1991.18
1008.067	1979.88
1008.361	1953.44
1008.655	1923.16
1008.948	1900.78
1009.242	1883.16
1009.535	1914.79
1009.829	1885.42
1010.122	1890.61
1010.415	1861.24
1010.708	1844.29
1011.001	1834.34
1011.295	1822.37
1011.588	1826.89
1011.881	1831.63
1012.173	1787.34
1012.466	1792.31
1012.759	1770.84
1013.052	1760
1013.344	1713.22
1013.637	1734.91
1013.93	1735.14
1014.222	1745.08
1014.514	1705.31
1014.807	1704.4
1015.099	1690.62
1015.391	1676.38
1015.683	1667.57
1015.976	1657.17
1016.268	1661.02
1016.56	1637.74
1016.851	1640.9
1017.143	1615.37
1017.435	1620.56
1017.727	1618.53
1018.018	1617.85
1018.31	1572.43
1018.602	1570.4
1018.893	1568.14
1019.185	1563.17
1019.476	1545.99
1019.767	1518.19
1020.058	1506.22
1020.35	1523.62
1020.641	1521.58
1020.932	1496.73
1021.223	1477.52
1021.514	1465.54
1021.804	1455.37
1022.095	1438.87
1022.386	1452.21
1022.677	1445.88
1022.967	1424.64
1023.258	1402.04
1023.548	1409.27
1023.839	1425.54
1024.129	1388.71
1024.419	1381.02
1024.709	1380.12
1025	1361.14
1025.29	1360.46
1025.58	1375.15
1025.87	1295.38
1026.16	1330.4
1026.449	1313
1026.739	1299.22
1027.029	1296.96
1027.319	1291.76
1027.608	1264.64
1027.898	1272.78
1028.187	1247.69
1028.477	1268.03
1028.766	1256.28
1029.055	1240.69
1029.344	1226
1029.634	1259.67
1029.923	1214.47
1030.212	1221.71
1030.501	1214.25
1030.79	1200.69
1031.078	1202.04
1031.367	1167.02
1031.656	1156.85
1031.945	1151.65
1032.233	1136.06
1032.522	1127.02
1032.81	1133.8
1033.099	1147.36
1033.387	1152.55
1033.675	1134.93
1033.963	1104.42
1034.251	1117.08
1034.54	1119.33
1034.828	1105.32
1035.116	1070.07
1035.403	1056.06
1035.691	1056.74
1035.979	1077.75
1036.267	1061.26
1036.554	1051.99
1036.842	1046.12
1037.129	1031.2
1037.417	1033.01
1037.704	1011.77
1037.992	1041.82
1038.279	1006.34
1038.566	1004.08
1038.853	1004.08
1039.14	1004.08
