Data from hue_310_FLMS001491_57.txt Node
Date: Mon Feb 06 15:49:53 GMT 2017
User: dcchb
Spectrometer: FLMS00149
Trigger mode: 0
Integration Time (sec): 2.000000E-2
Scans to average: 10
Electric dark correction enabled: true
Nonlinearity correction enabled: false
Boxcar width: 0
XAxis mode: Wavelengths
Number of Pixels in Spectrum: 2048
>>>>>Begin Spectral Data<<<<<
341.393	-17.81
341.776	-17.81
342.16	-17.81
342.543	-59.62
342.927	-80.63
343.31	-76.57
343.693	-67.53
344.077	-47.64
344.46	-63.23
344.843	-27.53
345.226	-58.71
345.61	-38.83
345.993	2.53
346.376	6.6
346.759	4.11
347.142	15.64
347.525	35.3
347.908	51.57
348.291	58.8
348.674	86.59
349.057	118.91
349.44	118.68
349.823	132.02
350.206	175.86
350.588	201.62
350.971	198.68
351.354	228.28
351.737	211.79
352.119	249.75
352.502	263.99
352.884	272.35
353.267	275.52
353.65	303.09
354.032	279.81
354.414	315.29
354.797	318.45
355.179	319.58
355.562	310.99
355.944	312.12
356.326	343.54
356.709	313.03
357.091	336.98
357.473	329.53
357.855	351.9
358.238	317.55
358.62	317.32
359.002	346.47
359.384	344.67
359.766	332.24
360.148	323.42
360.53	349.86
360.912	315.97
361.294	307.38
361.676	329.98
362.057	325.23
362.439	349.19
362.821	310.09
363.203	318.68
363.584	309.19
363.966	324.33
364.348	335.85
364.729	323.2
365.111	328.4
365.493	298.34
365.874	320.49
366.256	303.31
366.637	322.29
367.019	313.25
367.4	311.45
367.781	309.64
368.163	311.9
368.544	299.7
368.925	312.12
369.306	339.47
369.688	293.14
370.069	305.57
370.45	313.03
370.831	294.95
371.212	321.39
371.593	308.06
371.974	321.16
372.355	327.04
372.736	304.67
373.117	307.83
373.498	330.43
373.879	313.25
374.26	318.23
374.641	308.96
375.021	298.79
375.402	309.64
375.783	324.1
376.163	323.65
376.544	338.11
376.925	318.23
377.305	332.46
377.686	326.36
378.066	313.03
378.447	331.11
378.827	316.19
379.208	324.55
379.588	333.59
379.968	310.09
380.349	337.21
380.729	349.19
381.109	334.27
381.489	339.24
381.87	334.27
382.25	345.8
382.63	342.63
383.01	351.9
383.39	339.92
383.77	336.3
384.15	350.09
384.53	364.78
384.91	342.18
385.29	344.89
385.67	336.08
386.049	354.84
386.429	363.2
386.809	348.06
387.189	342.86
387.568	383.08
387.948	372.69
388.328	357.32
388.707	358.9
389.087	347.38
389.466	369.52
389.846	374.04
390.225	357.55
390.605	376.3
390.984	354.16
391.363	361.16
391.743	369.3
392.122	363.42
392.501	385.12
392.881	379.24
393.26	386.92
393.639	393.48
394.018	381.73
394.397	375.17
394.776	389.86
395.155	388.96
395.534	398
395.913	368.85
396.292	378.56
396.671	386.02
397.05	413.82
397.429	407.72
397.808	393.25
398.186	378.11
398.565	389.41
398.944	401.39
399.323	395.51
399.701	397.77
400.08	407.04
400.458	416.53
400.837	390.09
401.215	398.68
401.594	414.95
401.972	414.27
402.351	411.56
402.729	425.79
403.107	440.71
403.486	437.54
403.864	428.28
404.242	423.31
404.62	436.19
404.999	447.71
405.377	440.93
405.755	443.19
406.133	474.61
406.511	461.05
406.889	458.56
407.267	475.51
407.645	450.43
408.023	469.86
408.401	459.01
408.779	490.2
409.156	493.59
409.534	490.2
409.912	519.58
410.29	497.43
410.667	520.93
411.045	522.06
411.422	530.42
411.8	510.54
412.178	544.43
412.555	544.43
412.933	557.32
413.31	570.42
413.687	549.18
414.065	575.17
414.442	587.37
414.819	609.97
415.197	590.31
415.574	599.8
415.951	631.21
416.328	634.15
416.705	616.75
417.082	649.97
417.46	641.16
417.837	648.16
418.214	635.51
418.591	677.31
418.967	684.32
419.344	684.54
419.721	689.29
420.098	686.13
420.475	712.11
420.852	707.37
421.228	720.7
421.605	733.36
421.982	746.46
422.358	725.22
422.735	749.63
423.111	779
423.488	777.65
423.864	788.95
424.241	787.82
424.617	814.94
424.994	812
425.37	830.08
425.746	807.03
426.123	837.76
426.499	816.29
426.875	847.03
427.251	872.34
427.627	887.93
428.003	894.26
428.379	908.04
428.756	917.08
429.132	896.29
429.507	923.63
429.883	926.57
430.259	965.67
430.635	958.21
431.011	950.53
431.387	992.11
431.763	1004.31
432.138	1019.22
432.514	1009.96
432.89	1044.76
433.265	1021.03
433.641	1080.92
434.016	1047.92
434.392	1082.05
434.767	1101.71
435.143	1119.33
435.518	1103.52
435.894	1115.72
436.269	1143.29
436.644	1127.24
437.02	1157.75
437.395	1169.05
437.77	1168.6
438.145	1201.82
438.52	1188.03
438.895	1209.73
439.271	1214.47
439.646	1233.68
440.021	1248.82
440.395	1251.53
440.77	1258.54
441.145	1263.51
441.52	1292.21
441.895	1286.79
442.27	1253.79
442.645	1294.92
443.019	1323.85
443.394	1329.27
443.769	1328.6
444.143	1315.26
444.518	1327.92
444.892	1329.05
445.267	1343.74
445.641	1318.43
446.016	1374.7
446.39	1336.73
446.764	1352.32
447.139	1397.97
447.513	1377.63
447.887	1343.28
448.262	1366.56
448.636	1362.27
449.01	1374.02
449.384	1376.05
449.758	1370.85
450.132	1411.76
450.506	1419.89
450.88	1441.81
451.254	1388.48
451.628	1447.24
452.002	1459.21
452.376	1471.64
452.75	1440.91
453.123	1471.64
453.497	1488.36
453.871	1488.36
454.244	1480.68
454.618	1503.96
454.992	1548.48
455.365	1539.21
455.739	1563.62
456.112	1584.18
456.486	1599.77
456.859	1597.29
457.232	1629.83
457.606	1605.88
457.979	1603.16
458.352	1632.77
458.725	1656.04
459.099	1659.66
459.472	1698.3
459.845	1692.88
460.218	1701.92
460.591	1724.74
460.964	1682.26
461.337	1750.28
461.71	1729.71
462.083	1784.85
462.456	1774.46
462.829	1778.3
463.201	1795.25
463.574	1804.06
463.947	1819.2
464.32	1859.88
464.692	1868.92
465.065	1862.82
465.438	1871.18
465.81	1873.67
466.183	1932.65
466.555	1904.85
466.928	1970.16
467.3	1941.69
467.672	1981.46
468.045	2001.57
468.417	2013.32
468.789	2011.06
469.161	2056.26
469.534	2070.95
469.906	2089.03
470.278	2076.37
470.65	2124.05
471.022	2134.9
471.394	2187.56
471.766	2173.32
472.138	2191.4
472.51	2253.09
472.882	2245.63
473.253	2286.31
473.625	2273.88
473.997	2298.51
474.369	2315.24
474.74	2350.04
475.112	2360.43
475.484	2417.61
475.855	2408.79
476.227	2440.88
476.598	2504.61
476.97	2484.72
477.341	2545.06
477.713	2584.16
478.084	2602.23
478.455	2656.02
478.827	2615.79
479.198	2691.72
479.569	2721.33
479.94	2787.77
480.311	2770.59
480.682	2802.23
481.053	2880.42
481.424	2842.91
481.795	2882.68
482.166	2929.23
482.537	2948.21
482.908	3074.54
483.279	3064.37
483.65	3099.4
484.021	3108.66
484.391	3147.53
484.762	3174.42
485.133	3166.06
485.503	3225.95
485.874	3261.88
486.244	3308.43
486.615	3275.66
486.985	3354.53
487.356	3425.04
487.726	3384.59
488.097	3481.31
488.467	3479.5
488.837	3548.42
489.207	3551.14
489.578	3581.42
489.948	3613.05
490.318	3631.13
490.688	3664.58
491.058	3694.18
491.428	3714.29
491.798	3770.11
492.168	3837.46
492.538	3854.86
492.908	3870.22
493.278	3877.45
493.648	3924.68
494.017	3896.21
494.387	3950.67
494.757	4014.85
495.126	4015.76
495.496	3998.58
495.866	4054.17
496.235	4114.51
496.605	4106.83
496.974	4121.29
497.344	4166.03
497.713	4170.1
498.082	4175.3
498.452	4222.76
498.821	4212.36
499.19	4238.8
499.559	4284.68
499.928	4287.16
500.298	4321.28
500.667	4319.48
501.036	4326.03
501.405	4318.35
501.774	4360.38
502.143	4401.06
502.512	4399.93
502.88	4479.7
503.249	4421.85
503.618	4429.3
503.987	4525.12
504.356	4480.15
504.724	4487.83
505.093	4547.04
505.462	4532.35
505.83	4531.45
506.199	4587.27
506.567	4626.14
506.936	4636.08
507.304	4670.88
507.672	4658.9
508.041	4663.65
508.409	4726.92
508.777	4733.03
509.145	4793.59
509.514	4736.42
509.882	4707.94
510.25	4758.79
510.618	4815.51
510.986	4813.48
511.354	4804.44
511.722	4838.33
512.09	4863.42
512.458	4850.54
512.826	4861.16
513.193	4885.11
513.561	4893.7
513.929	4958.78
514.297	4952.68
514.664	4985
515.032	5027.48
515.4	5024.99
515.767	5078.55
516.135	5072.45
516.502	5005.56
516.869	5022.28
517.237	5068.61
517.604	5087.37
517.972	5132.34
518.339	5143.86
518.706	5129.4
519.073	5121.49
519.44	5163.75
519.808	5221.37
520.175	5160.36
520.542	5262.28
520.909	5245.78
521.276	5228.38
521.643	5286.46
522.009	5317.42
522.376	5329.85
522.743	5349.05
523.11	5429.5
523.477	5454.36
523.843	5431.31
524.21	5453.68
524.577	5499.11
524.943	5551.31
525.31	5582.04
525.676	5509.5
526.043	5615.04
526.409	5652.1
526.776	5626.56
527.142	5660.01
527.508	5700.23
527.874	5760.57
528.241	5749.95
528.607	5813.67
528.973	5790.62
529.339	5790.4
529.705	5841.47
530.071	5864.97
530.437	5908.36
530.803	5956.72
531.169	5986.33
531.535	6038.53
531.901	5980
532.267	6043.95
532.632	6034.69
532.998	6084.18
533.364	6099.77
533.73	6125.98
534.095	6162.14
534.461	6199.65
534.826	6212.31
535.192	6237.84
535.557	6265.87
535.923	6277.17
536.288	6249.37
536.653	6323.04
537.019	6351.74
537.384	6367.11
537.749	6389.7
538.114	6381.57
538.479	6459.99
538.845	6451.85
539.21	6465.64
539.575	6524.16
539.94	6518.06
540.305	6580.89
540.67	6612.98
541.034	6626.53
541.399	6608.46
541.764	6710.37
542.129	6698.85
542.494	6657.95
542.858	6752.86
543.223	6765.29
543.587	6840.77
543.952	6843.48
544.316	6788.79
544.681	6909.47
545.045	6871.73
545.41	6975.45
545.774	6965.06
546.138	6912.85
546.503	7030.59
546.867	7013.42
547.231	7085.51
547.595	7083.7
547.959	7069.01
548.324	7113.53
548.688	7145.84
549.052	7178.61
549.416	7191.72
549.779	7229
550.143	7263.13
550.507	7299.96
550.871	7260.42
551.235	7295.67
551.599	7355.1
551.962	7374.99
552.326	7438.94
552.689	7422.67
553.053	7421.99
553.417	7429
553.78	7548.32
554.143	7490.01
554.507	7553.74
554.87	7556.45
555.234	7591.71
555.597	7556.23
555.96	7594.87
556.323	7615.66
556.686	7628.99
557.05	7757.35
557.413	7709.22
557.776	7772.04
558.139	7719.61
558.502	7779.05
558.865	7777.24
559.228	7798.26
559.59	7865.15
559.953	7896.56
560.316	7955.09
560.679	7977.91
561.041	7996.22
561.404	7999.83
561.767	8048.64
562.129	8015.42
562.492	8064.01
562.854	8094.29
563.217	8106.95
563.579	8116.67
563.941	8163.9
564.304	8215.87
564.666	8238.47
565.028	8315.98
565.39	8275.98
565.753	8356.66
566.115	8252.25
566.477	8339.94
566.839	8359.82
567.201	8435.98
567.563	8460.61
567.925	8533.15
568.287	8478.46
568.648	8554.62
569.01	8526.6
569.372	8585.13
569.734	8684.33
570.095	8731.34
570.457	8703.54
570.819	8728.85
571.18	8746.71
571.542	8838
571.903	8843.2
572.265	8912.8
572.626	8917.55
572.987	8953.25
573.349	9032.57
573.71	9030.09
574.071	9153.7
574.432	9180.59
574.794	9282.96
575.155	9313.47
575.516	9328.16
575.877	9420.13
576.238	9459.23
576.599	9608.38
576.96	9684.53
577.32	9722.72
577.681	9781.48
578.042	9890.4
578.403	10012.43
578.763	10074.58
579.124	10180.11
579.485	10317.29
579.845	10457.17
580.206	10548.69
580.566	10651.06
580.927	10682.02
581.287	10910.49
581.648	11028
582.008	11196.81
582.368	11339.63
582.728	11523.13
583.089	11579.17
583.449	11810.58
583.809	11975.55
584.169	12230.46
584.529	12365.82
584.889	12669.54
585.249	12776.66
585.609	12961.06
585.969	13223.42
586.329	13445.56
586.688	13690.3
587.048	13860.47
587.408	14118.32
587.768	14326.67
588.127	14505.2
588.487	14902.48
588.846	15179.98
589.206	15299.75
589.565	15633.98
589.925	15980.64
590.284	16130.92
590.643	16523.22
591.003	16689.77
591.362	17022.87
591.721	17377.66
592.08	17616.75
592.44	18050.87
592.799	18356.85
593.158	18553
593.517	18732.21
593.876	19146.88
594.235	19519.53
594.593	19740.31
594.952	20067.54
595.311	20373.07
595.67	20653.51
596.029	21192.48
596.387	21481.96
596.746	21781.16
597.104	22065
597.463	22269.06
597.822	22800.57
598.18	22954.92
598.538	23180.22
598.897	23663.6
599.255	23754.22
599.613	24284.83
599.972	24506.52
600.33	24852.5
600.688	25056.33
601.046	25468.53
601.404	25808.4
601.762	26030.54
602.12	26543.3
602.478	26719.11
602.836	26975.6
603.194	27094.25
603.552	27388.93
603.91	27516.16
604.268	27912.75
604.625	28157.49
604.983	28600.19
605.341	28620.53
605.698	29101.88
606.056	29390.91
606.413	29589.32
606.771	29920.84
607.128	30155.41
607.485	30369.41
607.843	30479.69
608.2	30881.49
608.557	31427.01
608.914	31316.51
609.272	31672.88
609.629	32033.78
609.986	32243.71
610.343	32380.21
610.7	32912.62
611.057	32816.35
611.414	33122.34
611.771	33280.98
612.127	33596.9
612.484	33612.94
612.841	33861.98
613.198	33973.84
613.554	34218.13
613.911	34533.15
614.267	34642.97
614.624	34812.23
614.98	34944.89
615.337	35223.52
615.693	35467.36
616.05	35529.73
616.406	35885.65
616.762	35870.96
617.118	36117.51
617.475	36230.28
617.831	36412.87
618.187	36570.83
618.543	36652.86
618.899	37143.47
619.255	37072.97
619.611	37151.16
619.967	37396.57
620.323	37600.18
620.678	37466.85
621.034	37565.16
621.39	37755.89
621.746	37808.31
622.101	38307.96
622.457	37998.37
622.812	38300.96
623.168	38268.19
623.523	38608.07
623.879	38729.87
624.234	38483.55
624.589	38792.69
624.945	38880.15
625.3	38947.94
625.655	38904.78
626.01	39201.72
626.365	39158.79
626.72	39082.63
627.075	39171.44
627.43	39344.77
627.785	39293.92
628.14	39497.53
628.495	39668.38
628.85	39552.45
629.205	39495.73
629.559	39799.9
629.914	39681.94
630.269	39812.55
630.623	39664.08
630.978	39673.12
631.332	40016.62
631.687	40002.15
632.041	39845.55
632.396	39977.52
632.75	40041.7
633.104	40161.92
633.459	39960.12
633.813	40097.29
634.167	39963.96
634.521	40032.21
634.875	40109.72
635.229	40149.72
635.583	39911.99
635.937	40074.24
636.291	40064.07
636.645	40088.93
636.999	40023.85
637.352	40138.2
637.706	39956.73
638.06	40159.44
638.413	39918.77
638.767	40048.48
639.121	40120.8
639.474	39913.57
639.828	39981.14
640.181	40118.99
640.534	39902.5
640.888	39862.5
641.241	39742.05
641.594	39906.34
641.947	39932.55
642.301	39901.59
642.654	39968.48
643.007	40041.02
643.36	39825.44
643.713	39682.39
644.066	39954.92
644.419	39735.72
644.771	39540.47
645.124	39207.6
645.477	39272.46
645.83	38940.49
646.182	38837.21
646.535	38641.74
646.888	38855.29
647.24	38616.65
647.593	38851.9
647.945	38750.66
648.298	38639.25
648.65	38622.98
649.002	38549.99
649.355	38651
649.707	38501.63
650.059	38763.77
650.411	39221.38
650.763	39331.44
651.115	39517.42
651.467	39552.45
651.819	39487.14
652.171	39423.41
652.523	39425.9
652.875	39390.42
653.227	39410.53
653.578	39540.47
653.93	39447.82
654.282	39349.29
654.633	39215.96
654.985	39345.45
655.337	39302.06
655.688	39397.65
656.039	39585.44
656.391	39186.13
656.742	39285.34
657.094	39269.52
657.445	39391.32
657.796	39302.51
658.147	39238.33
658.498	39121.73
658.849	39243.98
659.2	39145
659.551	39093.48
659.902	39272.68
660.253	38985.23
660.604	39313.36
660.955	38933.48
661.306	39101.16
661.656	38954.5
662.007	39116.53
662.358	39004.21
662.708	39096.19
663.059	39038.34
663.409	38846.03
663.76	39004.21
664.11	39036.53
664.461	39187.49
664.811	39183.19
665.161	39119.92
665.511	38983.42
665.862	39100.48
666.212	39115.62
666.562	39096.19
666.912	38954.72
667.262	39058.68
667.612	39027.04
667.962	39067.26
668.312	38922.63
668.662	39041.95
669.011	38907.27
669.361	38874.95
669.711	38886.7
670.06	38799.7
670.41	38883.31
670.76	38745.24
671.109	38981.62
671.459	38967.38
671.808	38722.64
672.157	38795.63
672.507	38740.72
672.856	38780.72
673.205	38747.72
673.554	38902.97
673.904	38862.52
674.253	38949.3
674.602	38634.28
674.951	38268.87
675.3	38194.29
675.649	38596.09
675.998	38531.46
676.346	38710.89
676.695	38846.03
677.044	38461.63
677.393	38535.3
677.741	38596.99
678.09	38469.31
678.438	38488.97
678.787	38554.28
679.135	38680.61
679.484	38298.24
679.832	38403.78
680.181	38067.97
680.529	38294.4
680.877	38274.29
681.225	38224.12
681.573	38360.16
681.922	38052.83
682.27	37981.19
682.618	38073.84
682.966	37845.6
683.314	37890.8
683.661	37820.06
684.009	37717.02
684.357	37654.19
684.705	37681.09
685.053	37604.7
685.4	37619.39
685.748	37428.21
686.095	37442
686.443	37243.13
686.79	37237.26
687.138	37438.61
687.485	37201.78
687.832	37192.06
688.18	37200.19
688.527	37094.89
688.874	36972.4
689.221	36966.08
689.568	36853.76
689.915	36762.24
690.262	36765.86
690.609	36677.72
690.956	36525.18
691.303	36446.77
691.65	36252.87
691.997	36397.96
692.344	36152.99
692.69	36152.99
693.037	36209.71
693.383	35792.77
693.73	35969.27
694.077	35772.44
694.423	35860.57
694.769	35791.87
695.116	35530.18
695.462	35591.87
695.808	35396.85
696.155	35531.99
696.501	35308.49
696.847	35153.47
697.193	34919.12
697.539	35140.81
697.885	34903.98
698.231	34713.93
698.577	34741.05
698.923	34684.33
699.269	34553.26
699.614	34430.55
699.96	34326.37
700.306	34463.77
700.651	34190.56
700.997	34191.69
701.342	34111.91
701.688	34130.44
702.033	33941.3
702.379	33908.08
702.724	33775.88
703.069	33893.16
703.415	33528.65
703.76	33545.83
704.105	33553.51
704.45	33614.75
704.795	33275.1
705.14	33257.92
705.485	33180.19
705.83	33091.6
706.175	33123.47
706.52	33021.55
706.865	32814.32
707.209	32837.6
707.554	32629.24
707.899	32745.85
708.243	32522.13
708.588	32485.06
708.932	32379.53
709.277	32302.47
709.621	32427.66
709.966	32133.89
710.31	32226.77
710.654	31937.06
710.998	31999.43
711.342	31986.55
711.687	31934.8
712.031	31895.02
712.375	31620
712.719	31665.2
713.063	31589.49
713.407	31789.04
713.75	31545.2
714.094	31580.23
714.438	31450.29
714.782	31419.56
715.125	31343.4
715.469	31356.73
715.812	31056.85
716.156	30948.83
716.499	30922.39
716.843	31107.47
717.186	30730.53
717.53	30985.67
717.873	30917.42
718.216	30800.36
718.559	30704.55
718.902	30493.48
719.246	30609.86
719.589	30435.4
719.932	30561.5
720.275	30387.27
720.617	30328.28
720.96	30270.88
721.303	30215.07
721.646	30244.9
721.989	30003.1
722.331	30212.13
722.674	30102.75
723.016	30074.73
723.359	30081.74
723.701	30138.91
724.044	29927.84
724.386	29714.52
724.729	29786.83
725.071	29776.89
725.413	29877.45
725.755	29696.21
726.097	29598.36
726.439	29522.43
726.782	29538.47
727.124	29577.8
727.465	29376.67
727.807	29478.82
728.149	29336.67
728.491	29285.15
728.833	29381.87
729.175	29211.25
729.516	29207.64
729.858	29092.38
730.199	29126.73
730.541	29064.81
730.882	29006.06
731.224	29021.2
731.565	28920.41
731.906	28872.28
732.248	28908.21
732.589	28754.09
732.93	28653.98
733.271	28555
733.612	28684.94
733.953	28700.98
734.294	28443.59
734.635	28436.13
734.976	28471.84
735.317	28359.52
735.658	28359.75
735.999	28397.26
736.339	28328.56
736.68	28366.53
737.021	28102.58
737.361	28155.46
737.702	28262.35
738.042	28176.02
738.383	28095.12
738.723	28090.38
739.063	28050.15
739.404	28136.7
739.744	28021.45
740.084	27815.81
740.424	27908.01
740.764	27896.48
741.104	27983.94
741.444	27713.66
741.784	27722.48
742.124	27651.97
742.464	27583.95
742.804	27540.56
743.143	27605.19
743.483	27545.08
743.823	27388.93
744.162	27482.71
744.502	27424.86
744.841	27270.74
745.181	27437.74
745.52	27262.38
745.86	27244.75
746.199	27078.88
746.538	27163.4
746.877	27086.34
747.216	27134.47
747.556	27070.74
747.895	27020.35
748.234	26897.64
748.573	26817.87
748.911	26809.28
749.25	26832.78
749.589	26649.96
749.928	26754.14
750.267	26674.82
750.605	26644.09
750.944	26613.13
751.283	26479.12
751.621	26525.9
751.96	26412.91
752.298	26392.34
752.636	26364.77
752.975	26218.79
753.313	26184.89
753.651	26230.77
753.989	26085.68
754.327	26135.63
754.666	25950.55
755.004	26027.38
755.342	25921.62
755.679	25889.98
756.017	25781.29
756.355	25793.26
756.693	25798.91
757.031	25721.63
757.368	25542.42
757.706	25582.42
758.044	25412.71
758.381	25422.2
758.719	25289.77
759.056	25379.49
759.394	25344.91
759.731	24994.64
760.068	25078.93
760.405	24987.63
760.743	24935.88
761.08	24962.78
761.417	24753.52
761.754	24652.95
762.091	24627.19
762.428	24569.79
762.765	24299.29
763.102	24431.49
763.438	24383.36
763.775	24182.46
764.112	24211.61
764.449	24314.88
764.785	24073.99
765.122	24003.48
765.458	23935.46
765.795	23968.68
766.131	23892.52
766.467	23734.33
766.804	23649.59
767.14	23526.66
767.476	23570.04
767.812	23470.84
768.148	23455.7
768.485	23328.24
768.821	23183.61
769.157	23175.93
769.492	23146.78
769.828	23029.72
770.164	22907.69
770.5	22841.48
770.836	22786.11
771.171	22617.98
771.507	22613.01
771.842	22509.96
772.178	22547.25
772.513	22413.24
772.849	22342.73
773.184	22144.54
773.519	22246.46
773.855	21992.68
774.19	22000.82
774.525	21972.12
774.86	21906.13
775.195	21796.76
775.53	21778
775.865	21562.41
776.2	21495.3
776.535	21345.47
776.87	21383.66
777.205	21341.18
777.539	21226.83
777.874	21170.33
778.209	20998.36
778.543	21026.38
778.878	20886.5
779.212	20945.48
779.547	20766.28
779.881	20762.89
780.215	20621.87
780.55	20712.72
780.884	20505.72
781.218	20447.19
781.552	20439.28
781.886	20240.87
782.22	20180.53
782.554	20077.48
782.888	19889.01
783.222	19976.24
783.556	19951.61
783.889	19792.06
784.223	19732.18
784.557	19680.43
784.89	19663.93
785.224	19563.82
785.557	19405.86
785.891	19410.83
786.224	19409.25
786.558	19339.19
786.891	19172.65
787.224	19066.43
787.557	19140.78
787.891	19057.39
788.224	18915.25
788.557	18910.05
788.89	18848.36
789.223	18769.27
789.556	18631.42
789.888	18684.07
790.221	18680.91
790.554	18425.32
790.887	18399.33
791.219	18370.86
791.552	18360.69
791.884	18124.76
792.217	18151.2
792.549	18106.46
792.882	17984.43
793.214	17846.8
793.546	17938.55
793.879	17805
794.211	17629.86
794.543	17792.79
794.875	17659.69
795.207	17705.79
795.539	17569.98
795.871	17682.52
796.203	17367.95
796.535	17289.98
796.867	17350.77
797.198	17368.4
797.53	17287.5
797.862	17148.52
798.193	17154.39
798.525	16983.55
798.856	17012.48
799.188	16842.76
799.519	16826.72
799.85	16847.28
800.182	16807.51
800.513	16754.18
800.844	16541.3
801.175	16674.41
801.506	16601.19
801.837	16372.72
802.168	16417.46
802.499	16486.84
802.83	16314.64
803.161	16254.76
803.491	16292.72
803.822	16232.61
804.153	16145.61
804.483	16009.11
804.814	15965.95
805.145	16004.82
805.475	16040.98
805.805	15888.66
806.136	15900.64
806.466	15852.51
806.796	15858.16
807.126	15719.18
807.457	15738.84
807.787	15592.63
808.117	15566.64
808.447	15587.2
808.777	15576.81
809.107	15449.13
809.436	15498.62
809.766	15427.89
810.096	15388.34
810.426	15303.59
810.755	15292.07
811.085	15237.38
811.414	15240.55
811.744	15111.28
812.073	15125.52
812.403	15017.27
812.732	14996.03
813.061	15032.42
813.39	14904.28
813.719	14882.36
814.049	14955.81
814.378	14837.39
814.707	14856.83
815.036	14751.52
815.365	14747
815.693	14572.54
816.022	14566.89
816.351	14522.6
816.68	14455.26
817.008	14572.99
817.337	14377.74
817.665	14353.79
817.994	14350.63
818.322	14372.09
818.651	14297.29
818.979	14197.64
819.307	14283.73
819.636	14207.58
819.964	14139.33
820.292	14236.5
820.62	14094.59
820.948	14130.07
821.276	14136.39
821.604	14080.58
821.932	14141.37
822.259	14152.44
822.587	14071.08
822.915	14049.39
823.243	14097.07
823.57	14012.56
823.898	14065.44
824.225	14017.07
824.553	14026.57
824.88	14012.1
825.207	14043.97
825.535	14028.83
825.862	14046.68
826.189	13961.03
826.516	14071.76
826.843	14163.51
827.17	14087.36
827.497	14078.09
827.824	14034.02
828.151	14077.64
828.478	13963.29
828.805	14100.91
829.131	14012.33
829.458	14025.66
829.785	13930.07
830.111	14063.18
830.438	14093.91
830.764	14050.52
831.09	13964.65
831.417	13972.1
831.743	14039.45
832.069	14065.21
832.395	13911.77
832.722	13965.78
833.048	13905.89
833.374	13959.22
833.7	13863.18
834.026	13976.85
834.351	13901.37
834.677	13851.88
835.003	13890.98
835.329	13881.94
835.654	13812.11
835.98	13750.64
836.306	13786.12
836.631	13811.66
836.956	13701.83
837.282	13735.5
837.607	13651.21
837.932	13661.83
838.258	13681.49
838.583	13648.72
838.908	13573.7
839.233	13614.83
839.558	13552
839.883	13422.06
840.208	13543.42
840.533	13449.18
840.858	13444.66
841.182	13389.07
841.507	13376.41
841.832	13357.43
842.156	13311.78
842.481	13330.77
842.805	13334.38
843.13	13280.82
843.454	13190.2
843.778	13128.74
844.103	13126.93
844.427	13091.22
844.751	13116.99
845.075	13039.02
845.399	13118.57
845.723	12996.99
846.047	13009.42
846.371	12808.07
846.695	12856.65
847.019	12781.4
847.343	12741.4
847.666	12727.62
847.99	12637.9
848.313	12581.63
848.637	12539.37
848.96	12467.51
849.284	12390.23
849.607	12377.12
849.931	12375.31
850.254	12258.93
850.577	12188.65
850.9	12044.92
851.223	12135.54
851.546	12025.94
851.869	11864.14
852.192	11982.33
852.515	11963.34
852.838	11853.06
853.161	11845.38
853.483	11816.68
853.806	11657.81
854.129	11671.83
854.451	11612.62
854.774	11627.53
855.096	11553.86
855.419	11541.66
855.741	11501.89
856.063	11464.15
856.385	11387.54
856.708	11298.73
857.03	11318.16
857.352	11402.91
857.674	11255.79
857.996	11261.67
858.318	11164.95
858.64	11140.54
858.961	11171.73
859.283	11100.32
859.605	11048.57
859.926	11134.44
860.248	11038.85
860.57	11006.08
860.891	11042.46
861.212	10982.8
861.534	10924.73
861.855	10901.9
862.176	10917.72
862.498	10837.27
862.819	10850.83
863.14	10826.65
863.461	10880.21
863.782	10834.79
864.103	10794.33
864.424	10728.8
864.745	10753.66
865.065	10684.06
865.386	10686.54
865.707	10679.08
866.027	10684.51
866.348	10637.95
866.668	10639.54
866.989	10704.17
867.309	10540.78
867.63	10548.92
867.95	10533.32
868.27	10463.95
868.59	10521.8
868.91	10490.61
869.23	10509.14
869.55	10370.62
869.87	10404.74
870.19	10351.63
870.51	10402.03
870.83	10412.65
871.15	10366.55
871.469	10289.49
871.789	10354.8
872.109	10364.06
872.428	10236.84
872.748	10288.59
873.067	10251.98
873.386	10271.64
873.706	10177.63
874.025	10221.47
874.344	10092.88
874.663	10203.84
874.982	10210.85
875.301	10147.12
875.62	10121.36
875.939	10120.68
876.258	10120.91
876.577	9952.1
876.896	10083.39
877.214	9987.8
877.533	10041.59
877.852	9976.96
878.17	10004.3
878.489	9995.26
878.807	9985.77
879.125	9996.39
879.444	9896.05
879.762	9892.89
880.08	9893.12
880.398	9841.14
880.716	9872.1
881.034	9831.42
881.352	9776.73
881.67	9773.34
881.988	9772.67
882.306	9807.24
882.624	9767.24
882.941	9675.04
883.259	9658.09
883.577	9643.4
883.894	9651.99
884.212	9602.73
884.529	9596.63
884.846	9558.44
885.164	9565.21
885.481	9528.15
885.798	9550.3
886.115	9545.78
886.432	9473.01
886.75	9392.56
887.067	9431.43
887.383	9412.9
887.7	9428.5
888.017	9343.75
888.334	9355.05
888.651	9337.42
888.967	9271.66
889.284	9171.1
889.6	9241.61
889.917	9127.94
890.233	9149.18
890.55	9141.04
890.866	9246.35
891.182	9094.27
891.498	9069.86
891.815	9058.79
892.131	9011.78
892.447	8992.57
892.763	8983.76
893.079	8948.06
893.395	8958.45
893.71	8914.61
894.026	8876.19
894.342	8814.73
894.657	8801.84
894.973	8816.53
895.289	8766.82
895.604	8748.96
895.92	8735.86
896.235	8607.73
896.55	8710.77
896.865	8634.39
897.181	8541.06
897.496	8543.32
897.811	8531.34
898.126	8516.2
898.441	8418.58
898.756	8395.3
899.071	8403.66
899.386	8470.78
899.7	8389.43
900.015	8368.64
900.33	8237.34
900.644	8239.83
900.959	8213.16
901.273	8196.89
901.588	8147.4
901.902	8131.81
902.216	8092.48
902.531	8028.31
902.845	8084.58
903.159	8059.94
903.473	7969.32
903.787	7951.7
904.101	7925.03
904.415	7914.18
904.729	7888.2
905.042	7821.76
905.356	7762.55
905.67	7787.41
905.984	7703.79
906.297	7746.51
906.611	7664.47
906.924	7647.52
907.237	7670.58
907.551	7599.84
907.864	7608.88
908.177	7523.23
908.491	7549.45
908.804	7475.55
909.117	7441.65
909.43	7396.23
909.743	7378.15
910.056	7376.57
910.368	7369.57
910.681	7310.13
910.994	7299.06
911.307	7230.13
911.619	7156.69
911.932	7185.16
912.244	7141.32
912.557	7164.15
912.869	7121.21
913.181	7013.42
913.494	7079.18
913.806	7003.47
914.118	6979.75
914.43	6930.93
914.742	6937.94
915.054	6882.12
915.366	6898.62
915.678	6922.8
915.99	6823.14
916.302	6787.66
916.613	6727.32
916.925	6769.13
917.236	6728.9
917.548	6714.67
917.859	6659.98
918.171	6608.46
918.482	6548.8
918.794	6586.08
919.105	6548.34
919.416	6563.71
919.727	6513.54
920.038	6461.34
920.349	6444.62
920.66	6435.35
920.971	6396.48
921.282	6371.4
921.593	6343.83
921.903	6316.26
922.214	6245.53
922.525	6236.04
922.835	6216.6
923.146	6210.27
923.456	6167.34
923.767	6138.86
924.077	6151.29
924.387	6067.68
924.697	6054.35
925.008	6009.6
925.318	5985.42
925.628	6052.09
925.938	5950.62
926.248	5881.92
926.558	5877.18
926.867	5892.09
927.177	5873.11
927.487	5854.8
927.796	5785.88
928.106	5756.28
928.416	5768.7
928.725	5755.15
929.034	5744.3
929.344	5643.06
929.653	5692.77
929.962	5614.81
930.271	5628.37
930.581	5580.91
930.89	5558.09
931.199	5559.44
931.508	5529.39
931.817	5544.98
932.125	5524.87
932.434	5428.6
932.743	5411.65
933.051	5411.43
933.36	5400.58
933.669	5305.44
933.977	5285.55
934.286	5343.4
934.594	5275.38
934.902	5278.77
935.21	5274.71
935.519	5267.7
935.827	5170.3
936.135	5211.2
936.443	5168.72
936.751	5158.1
937.059	5114.26
937.367	5073.13
937.674	5068.16
937.982	5076.29
938.29	4999.68
938.597	5011.44
938.905	4939.8
939.213	4938.22
939.52	4969.86
939.827	4950.87
940.135	4911.1
940.442	4855.96
940.749	4871.55
941.056	4843.08
941.363	4798.79
941.67	4802.18
941.977	4770.54
942.284	4705.46
942.591	4765.11
942.898	4762.63
943.205	4662.97
943.511	4672.01
943.818	4617.55
944.125	4613.93
944.431	4578
944.738	4600.6
945.044	4557.44
945.35	4541.62
945.657	4475.86
945.963	4542.3
946.269	4478.12
946.575	4468.85
946.881	4465.01
947.187	4446.03
947.493	4447.16
947.799	4423.65
948.105	4382.07
948.41	4317.44
948.716	4335.97
949.022	4337.78
949.327	4272.92
949.633	4246.94
949.938	4291.91
950.244	4301.85
950.549	4207.39
950.854	4203.55
951.16	4187.05
951.465	4169.65
951.77	4125.58
952.075	4108.18
952.38	4146.37
952.685	4124.45
952.99	4087.84
953.294	4077.9
953.599	4038.81
953.904	4018.92
954.209	3975.53
954.513	3984.8
954.818	3992.48
955.122	3970.11
955.426	3975.98
955.731	3926.72
956.035	3946.38
956.339	3877.91
956.643	3921.52
956.948	3867.06
957.252	3851.47
957.556	3838.81
957.86	3831.81
958.163	3798.13
958.467	3777.8
958.771	3758.81
959.075	3721.75
959.378	3709.1
959.682	3695.76
959.985	3732.15
960.289	3713.62
960.592	3655.77
960.896	3697.8
961.199	3630.91
961.502	3636.78
961.805	3650.12
962.108	3570.8
962.411	3606.95
962.714	3516.56
963.017	3515.88
963.32	3539.61
963.623	3497.13
963.926	3503
964.228	3483.34
964.531	3475.66
964.833	3453.96
965.136	3447.18
965.438	3431.59
965.741	3430.91
966.043	3421.42
966.345	3377.35
966.648	3354.98
966.95	3317.47
967.252	3322.67
967.554	3336.45
967.856	3318.83
968.158	3302.55
968.46	3316.34
968.761	3284.48
969.063	3241.99
969.365	3226.85
969.666	3217.36
969.968	3191.37
970.269	3178.26
970.571	3161.77
970.872	3136.01
971.174	3164.93
971.475	3183.91
971.776	3159.28
972.077	3145.95
972.378	3114.99
972.679	3085.16
972.98	3093.75
973.281	3049.45
973.582	3070.7
973.883	3018.27
974.183	3083.8
974.484	3028.66
974.785	3006.29
975.085	2978.72
975.386	2999.29
975.686	2976.24
975.986	2961.77
976.287	2935.33
976.587	2898.5
976.887	2912.28
977.187	2924.26
977.487	2858.5
977.787	2896.46
978.087	2879.51
978.387	2865.73
978.687	2804.49
978.987	2811.49
979.286	2805.39
979.586	2792.96
979.885	2799.06
980.185	2771.95
980.484	2740.31
980.784	2733.08
981.083	2719.52
981.382	2707.54
981.682	2693.53
981.981	2722.23
982.28	2688.11
982.579	2678.16
982.878	2667.32
983.177	2654.44
983.475	2623.93
983.774	2610.37
984.073	2613.98
984.372	2583.48
984.67	2603.36
984.969	2572.18
985.267	2580.54
985.566	2534.89
985.864	2552.07
986.162	2557.04
986.461	2533.99
986.759	2526.98
987.057	2491.5
987.355	2485.85
987.653	2481.79
987.951	2482.46
988.249	2477.49
988.547	2440.2
988.844	2452.41
989.142	2439.75
989.44	2402.47
989.737	2415.57
990.035	2384.61
990.332	2387.78
990.63	2372.18
990.927	2376.25
991.224	2343.71
991.521	2302.13
991.819	2328.79
992.116	2335.12
992.413	2327.89
992.71	2291.96
993.006	2319.53
993.303	2267.78
993.6	2263.94
993.897	2237.95
994.193	2224.62
994.49	2233.66
994.787	2220.77
995.083	2182.58
995.379	2191.4
995.676	2185.97
995.972	2193.21
996.268	2182.36
996.565	2166.31
996.861	2155.69
997.157	2149.59
997.453	2135.35
997.749	2127.22
998.044	2141.91
998.34	2099.87
998.636	2100.78
998.932	2070.04
999.227	2043.6
999.523	2059.42
999.818	2054.68
1000.114	2023.04
1000.409	2023.72
1000.704	2020.1
1001	1998.18
1001.295	1974.23
1001.59	2009.93
1001.885	1994.34
1002.18	1955.7
1002.475	1922.03
1002.77	1899.2
1003.065	1914.34
1003.359	1913.21
1003.654	1939.65
1003.949	1899.88
1004.243	1882.93
1004.538	1929.94
1004.832	1870.05
1005.127	1894.46
1005.421	1844.06
1005.715	1852.88
1006.009	1808.58
1006.304	1795.7
1006.598	1801.8
1006.892	1767.68
1007.186	1806.77
1007.48	1750.5
1007.773	1748.92
1008.067	1770.62
1008.361	1735.36
1008.655	1703.05
1008.948	1729.49
1009.242	1674.8
1009.535	1720.9
1009.829	1709.6
1010.122	1673.44
1010.415	1667.8
1010.708	1627.57
1011.001	1630.51
1011.295	1648.81
1011.588	1631.41
1011.881	1633.9
1012.173	1601.36
1012.466	1628.02
1012.759	1610.4
1013.052	1580.57
1013.344	1590.74
1013.637	1564.07
1013.93	1558.19
1014.222	1553.67
1014.514	1532.21
1014.807	1529.27
1015.099	1551.41
1015.391	1516.84
1015.683	1550.28
1015.976	1513.45
1016.268	1498.76
1016.56	1477.97
1016.851	1491.75
1017.143	1459.67
1017.435	1472.55
1017.727	1456.73
1018.018	1429.84
1018.31	1442.49
1018.602	1414.69
1018.893	1428.48
1019.185	1411.08
1019.476	1390.74
1019.767	1382.38
1020.058	1384.19
1020.35	1378.76
1020.641	1374.02
1020.932	1357.97
1021.223	1367.24
1021.514	1323.4
1021.804	1335.6
1022.095	1332.66
1022.386	1312.1
1022.677	1306.67
1022.967	1315.26
1023.258	1286.34
1023.548	1278.88
1023.839	1280.91
1024.129	1270.74
1024.419	1243.85
1024.709	1263.51
1025	1236.62
1025.29	1234.81
1025.58	1238.65
1025.87	1245.66
1026.16	1214.47
1026.449	1203.85
1026.739	1223.74
1027.029	1202.04
1027.319	1164.76
1027.608	1184.42
1027.898	1163.85
1028.187	1168.6
1028.477	1141.93
1028.766	1131.76
1029.055	1169.28
1029.344	1130.18
1029.634	1135.83
1029.923	1120.69
1030.212	1107.81
1030.501	1106.68
1030.79	1102.61
1031.078	1086.34
1031.367	1065.55
1031.656	1090.64
1031.945	1061.71
1032.233	1034.14
1032.522	1047.25
1032.81	1039.56
1033.099	1055.16
1033.387	1020.81
1033.675	1024.87
1033.963	1015.16
1034.251	1034.37
1034.54	1005.44
1034.828	993.01
1035.116	999.79
1035.403	971.09
1035.691	979.9
1035.979	977.19
1036.267	964.31
1036.554	970.19
1036.842	946.68
1037.129	946.46
1037.417	952.56
1037.704	939.68
1037.992	935.84
1038.279	948.49
1038.566	923.18
1038.853	923.18
1039.14	923.18
