Data from hue_100_FLMS001491_00047.txt Node
Date: Tue Feb 07 17:03:14 GMT 2017
User: dcchb
Spectrometer: FLMS00149
Trigger mode: 0
Integration Time (sec): 2.000000E-2
Scans to average: 10
Electric dark correction enabled: true
Nonlinearity correction enabled: false
Boxcar width: 0
XAxis mode: Wavelengths
Number of Pixels in Spectrum: 2048
>>>>>Begin Spectral Data<<<<<
341.393	-7.84
341.776	-7.84
342.16	-7.84
342.543	-65.92
342.927	-75.86
343.31	-67.5
343.693	-60.94
344.077	-52.81
344.46	-72.24
344.843	-39.02
345.226	-27.5
345.61	-14.62
345.993	-25.92
346.376	3.46
346.759	5.04
347.142	36.91
347.525	36.23
347.908	35.55
348.291	70.35
348.674	79.16
349.057	93.85
349.44	131.59
349.823	139.5
350.206	172.04
350.588	182.21
350.971	224.25
351.354	240.97
351.737	228.31
352.119	254.75
352.502	243.45
352.884	274.87
353.267	290.23
353.65	282.32
354.032	297.92
354.414	305.37
354.797	328.65
355.179	325.49
355.562	310.8
355.944	318.71
356.326	342.66
356.709	320.74
357.091	339.27
357.473	337.91
357.855	333.17
358.238	340.85
358.62	346.05
359.002	350.12
359.384	334.98
359.766	343.11
360.148	341.53
360.53	343.56
360.912	328.2
361.294	353.28
361.676	347.63
362.057	340.17
362.439	326.62
362.821	332.27
363.203	344.92
363.584	323.9
363.966	328.88
364.348	307.63
364.729	319.38
365.111	306.73
365.493	342.66
365.874	326.84
366.256	314.19
366.637	306.05
367.019	322.1
367.4	310.12
367.781	309.89
368.163	295.2
368.544	305.37
368.925	306.28
369.306	313.06
369.688	317.12
370.069	304.47
370.45	311.02
370.831	320.29
371.212	322.55
371.593	307.41
371.974	302.21
372.355	319.16
372.736	333.17
373.117	327.07
373.498	313.51
373.879	329.55
374.26	349.89
374.641	328.65
375.021	313.96
375.402	314.19
375.783	325.71
376.163	347.63
376.544	355.32
376.925	334.07
377.305	318.03
377.686	349.44
378.066	357.35
378.447	345.15
378.827	334.07
379.208	332.94
379.588	341.53
379.968	349.21
380.349	342.89
380.729	352.15
381.109	340.63
381.489	345.6
381.87	342.66
382.25	346.5
382.63	363
383.01	348.99
383.39	369.33
383.77	343.79
384.15	327.75
384.53	365.71
384.91	351.47
385.29	351.7
385.67	387.86
386.049	370.91
386.429	375.65
386.809	365.94
387.189	377.69
387.568	364.13
387.948	372.72
388.328	391.02
388.707	375.43
389.087	376.56
389.466	388.08
389.846	392.6
390.225	384.02
390.605	382.66
390.984	381.53
391.363	384.02
391.743	385.15
392.122	382.89
392.501	389.89
392.881	384.02
393.26	407.07
393.639	394.86
394.018	390.34
394.397	380.85
394.776	395.77
395.155	403.22
395.534	394.41
395.913	391.02
396.292	405.71
396.671	406.39
397.05	430.57
397.429	418.59
397.808	412.72
398.186	388.53
398.565	409.1
398.944	417.01
399.323	414.97
399.701	428.76
400.08	424.92
400.458	416.56
400.837	437.8
401.215	443
401.594	434.41
401.972	420.62
402.351	435.09
402.729	448.65
403.107	441.87
403.486	439.38
403.864	441.87
404.242	466.5
404.62	464.69
404.999	460.62
405.377	472.37
405.755	475.99
406.133	452.26
406.511	466.27
406.889	470.34
407.267	480.51
407.645	468.31
408.023	481.41
408.401	494.97
408.779	487.74
409.156	489.32
409.534	496.1
409.912	499.49
410.29	494.75
410.667	477.8
411.045	521.19
411.422	526.84
411.8	504.92
412.178	516.89
412.555	516.22
412.933	516.89
413.31	529.32
413.687	543.11
414.065	539.94
414.442	505.82
414.819	527.06
415.197	551.02
415.574	542.43
415.951	546.95
416.328	551.47
416.705	574.74
417.082	550.79
417.46	563.22
417.837	576.78
418.214	575.65
418.591	566.61
418.967	604.35
419.344	589.21
419.721	606.38
420.098	591.47
420.475	601.64
420.852	597.12
421.228	597.12
421.605	583.56
421.982	602.09
422.358	612.71
422.735	621.75
423.111	644.12
423.488	625.59
423.864	614.07
424.241	657.91
424.617	648.42
424.994	659.94
425.37	662.2
425.746	653.84
426.123	651.8
426.499	652.93
426.875	669.43
427.251	654.74
427.627	709.88
428.003	671.01
428.379	697.45
428.756	711.46
429.132	719.15
429.507	734.06
429.883	731.12
430.259	730.67
430.635	738.58
431.011	738.13
431.387	746.94
431.763	772.48
432.138	752.37
432.514	772.03
432.89	793.27
433.265	795.53
433.641	820.84
434.016	828.3
434.392	810.22
434.767	814.06
435.143	836.21
435.518	830.33
435.894	849.09
436.269	852.48
436.644	853.38
437.02	875.08
437.395	870.56
437.77	896.09
438.145	871.46
438.52	884.12
438.895	887.5
439.271	906.71
439.646	915.07
440.021	900.16
440.395	943.77
440.77	922.53
441.145	935.41
441.52	937.45
441.895	961.63
442.27	975.86
442.645	951.01
443.019	981.06
443.394	978.58
443.769	960.95
444.143	993.49
444.518	1001.85
444.892	998.24
445.267	1010.67
445.641	1010.44
446.016	1028.74
446.39	1025.81
446.764	1008.63
447.139	1045.24
447.513	1034.39
447.887	1058.57
448.262	1044.34
448.636	1060.16
449.01	1053.15
449.384	1059.7
449.758	1068.29
450.132	1109.65
450.506	1111.91
450.88	1114.39
451.254	1126.14
451.628	1131.57
452.002	1135.63
452.376	1152.13
452.75	1153.49
453.123	1160.27
453.497	1185.8
453.871	1185.8
454.244	1204.11
454.618	1202.3
454.992	1220.6
455.365	1219.47
455.739	1257.21
456.112	1286.82
456.486	1294.27
456.859	1301.05
457.232	1309.19
457.606	1331.34
457.979	1360.26
458.352	1381.96
458.725	1393.03
459.099	1394.61
459.472	1400.26
459.845	1430.99
460.218	1452.01
460.591	1471.67
460.964	1475.29
461.337	1512.8
461.71	1528.17
462.083	1532.23
462.456	1542.85
462.829	1577.43
463.201	1565.91
463.574	1607.03
463.947	1645.68
464.32	1653.81
464.692	1685
465.065	1695.17
465.438	1701.27
465.81	1739.01
466.183	1774.71
466.555	1829.85
466.928	1827.82
467.3	1852
467.672	1870.3
468.045	1909.85
468.417	1905.33
468.789	1919.34
469.161	2001.6
469.534	1999.57
469.906	2083.41
470.278	2109.17
470.65	2131.99
471.022	2188.71
471.394	2225.55
471.766	2250.18
472.138	2291.31
472.51	2349.84
472.882	2384.19
473.253	2417.63
473.625	2447.69
473.997	2530.17
474.369	2563.39
474.74	2653.56
475.112	2659.44
475.484	2765.42
475.855	2779.21
476.227	2806.78
476.598	2965.64
476.97	3035.02
477.341	3069.59
477.713	3190.95
478.084	3250.38
478.455	3345.29
478.827	3372.86
479.198	3474.1
479.569	3582.8
479.94	3722.46
480.311	3798.16
480.682	3872.29
481.053	3995.9
481.424	4079.51
481.795	4155.44
482.166	4293.52
482.537	4382.78
482.908	4500.29
483.279	4594.07
483.65	4719.72
484.021	4865.25
484.391	4995.87
484.762	5039.71
485.133	5148.64
485.503	5319.7
485.874	5514.95
486.244	5606.25
486.615	5707.27
486.985	5828.62
487.356	6024.54
487.726	6129.63
488.097	6352.9
488.467	6425.44
488.837	6568.49
489.207	6801.93
489.578	6921.92
489.948	7080.11
490.318	7198.07
490.688	7348.8
491.058	7505.64
491.428	7716.7
491.798	7873.31
492.168	8030.14
492.538	8181.78
492.908	8356.69
493.278	8499.96
493.648	8635.32
494.017	8841.42
494.387	8939.5
494.757	9057.91
495.126	9238.02
495.496	9313.27
495.866	9418.58
496.235	9680.95
496.605	9779.02
496.974	9942.63
497.344	10060.82
497.713	10176.53
498.082	10314.6
498.452	10477.54
498.821	10590.98
499.19	10701.26
499.559	10844.98
499.928	10975.6
500.298	11126.11
500.667	11222.6
501.036	11239.55
501.405	11423.5
501.774	11454.68
502.143	11680.67
502.512	11702.36
502.88	11835.01
503.249	12015.57
503.618	12071.84
503.987	12059.64
504.356	12195.68
504.724	12327.43
505.093	12416.02
505.462	12510.93
505.83	12579.17
506.199	12757.02
506.567	12879.51
506.936	12961.31
507.304	13076.34
507.672	13163.79
508.041	13231.14
508.409	13284.02
508.777	13440.62
509.145	13471.58
509.514	13560.17
509.882	13643.1
510.25	13660.05
510.618	13875.64
510.986	13843.32
511.354	13973.26
511.722	14061.62
512.09	14240.83
512.458	14215.29
512.826	14340.03
513.193	14379.35
513.561	14406.02
513.929	14451.89
514.297	14633.36
514.664	14735.95
515.032	14674.49
515.4	14838.55
515.767	14824.31
516.135	14906.57
516.502	14794.26
516.869	14982.73
517.237	15123.51
517.604	15090.07
517.972	15205.32
518.339	15248.26
518.706	15246
519.073	15284.41
519.44	15358.99
519.808	15482.6
520.175	15380.91
520.542	15649.83
520.909	15608.93
521.276	15620.9
521.643	15736.38
522.009	15776.38
522.376	15820.9
522.743	15946.09
523.11	16012.3
523.477	16052.3
523.843	16137.05
524.21	16226.99
524.577	16357.83
524.943	16340.88
525.31	16285.07
525.676	16447.55
526.043	16427.21
526.409	16522.35
526.776	16688.67
527.142	16614.55
527.508	16633.98
527.874	16764.83
528.241	16773.87
528.607	16885.5
528.973	16953.3
529.339	16759.63
529.705	16839.4
530.071	16926.18
530.437	16940.64
530.803	16982.9
531.169	17003.69
531.535	16836.92
531.901	16925.73
532.267	16958.95
532.632	17093.63
532.998	17120.3
533.364	17082.11
533.73	17125.5
534.095	17069.23
534.461	17093.18
534.826	17133.18
535.192	17134.54
535.557	17205.72
535.923	17080.75
536.288	17061.32
536.653	17160.3
537.019	17014.09
537.384	17083.46
537.749	17103.12
538.114	16946.29
538.479	17023.35
538.845	17034.65
539.21	16878.72
539.575	16960.98
539.94	16890.47
540.305	16887.99
540.67	16811.15
541.034	16900.42
541.399	16959.17
541.764	16846.63
542.129	16815.22
542.494	16835.33
542.858	16779.97
543.223	16818.16
543.587	16747.88
543.952	16761.44
544.316	16742
544.681	16711.95
545.045	16662.23
545.41	16704.04
545.774	16686.64
546.138	16640.31
546.503	16617.26
546.867	16542.01
547.231	16697.03
547.595	16530.03
547.959	16511.95
548.324	16424.05
548.688	16415.01
549.052	16449.13
549.416	16434.44
549.779	16344.5
550.143	16334.56
550.507	16356.48
550.871	16365.74
551.235	16247.78
551.599	16410.03
551.962	16342.01
552.326	16362.13
552.689	16390.15
553.053	16269.47
553.417	16229.93
553.78	16259.3
554.143	16198.51
554.507	16297.72
554.87	16185.63
555.234	16322.35
555.597	16158.06
555.96	16208.01
556.323	16187.44
556.686	16128.01
557.05	16216.37
557.413	16280.55
557.776	16173.88
558.139	16259.08
558.502	16290.72
558.865	16315.8
559.228	16242.58
559.59	16284.84
559.953	16214.79
560.316	16323.03
560.679	16348.34
561.041	16418.17
561.404	16358.51
561.767	16429.47
562.129	16281.45
562.492	16461.78
562.854	16393.09
563.217	16370.49
563.579	16378.62
563.941	16532.97
564.304	16441.67
564.666	16544.27
565.028	16528
565.39	16552.63
565.753	16642.34
566.115	16617.49
566.477	16744.04
566.839	16721.66
567.201	16706.52
567.563	16713.08
567.925	16829.91
568.287	16829.68
568.648	16745.84
569.01	16798.95
569.372	16854.32
569.734	16740.87
570.095	16889.57
570.457	16922.56
570.819	16895.9
571.18	16847.31
571.542	17036.23
571.903	16927.99
572.265	16992.17
572.626	17064.93
572.987	17040.75
573.349	17102.45
573.71	17082.79
574.071	17161.43
574.432	17081.66
574.794	17244.81
575.155	17137.47
575.516	17088.43
575.877	17222.67
576.238	17207.3
576.599	17214.08
576.96	17200.97
577.32	17219.05
577.681	17264.02
578.042	17268.32
578.403	17224.7
578.763	17207.53
579.124	17362.33
579.485	17343.8
579.845	17337.24
580.206	17298.6
580.566	17252.05
580.927	17248.88
581.287	17344.47
581.648	17266.06
582.008	17391.48
582.368	17311.48
582.728	17347.86
583.089	17204.82
583.449	17280.29
583.809	17230.13
584.169	17304.02
584.529	17248.2
584.889	17419.05
585.249	17171.82
585.609	17142.67
585.969	17266.28
586.329	17267.87
586.688	17310.12
587.048	17262.22
587.408	17229.45
587.768	17196.68
588.127	17128.43
588.487	17120.3
588.846	17218.15
589.206	17169.79
589.565	17074.65
589.925	17178.38
590.284	17171.82
590.643	17171.37
591.003	17215.21
591.362	17165.95
591.721	17139.05
592.08	17090.24
592.44	17137.02
592.799	17146.96
593.158	17139.05
593.517	17128.66
593.876	17119.39
594.235	17052.73
594.593	17051.83
594.952	17043.01
595.311	17000.53
595.67	17110.81
596.029	17229.67
596.387	17116
596.746	17129.56
597.104	17024.26
597.463	17037.59
597.822	17067.42
598.18	17010.7
598.538	16996.46
598.897	17084.37
599.255	16904.71
599.613	17197.36
599.972	17085.72
600.33	17016.8
600.688	16929.79
601.046	17142.44
601.404	17153.07
601.762	17066.51
602.12	17093.18
602.478	17146.96
602.836	17164.14
603.194	17087.08
603.552	17064.03
603.91	17077.81
604.268	17026.06
604.625	17014.76
604.983	17164.82
605.341	17046.85
605.698	17153.97
606.056	17190.35
606.413	17105.84
606.771	17129.11
607.128	17137.25
607.485	16924.82
607.843	17100.41
608.2	17346.73
608.557	17169.11
608.914	17193.29
609.272	17305.83
609.629	17347.41
609.986	17373.85
610.343	17238.04
610.7	17400.52
611.057	17344.7
611.414	17309.9
611.771	17314.64
612.127	17474.64
612.484	17394.64
612.841	17439.16
613.198	17362.55
613.554	17409.56
613.911	17416.11
614.267	17405.71
614.624	17368.43
614.98	17407.07
615.337	17560.29
615.693	17428.31
616.05	17448.2
616.406	17529.1
616.762	17496.11
617.118	17416.11
617.475	17591.92
617.831	17623.11
618.187	17467.41
618.543	17588.76
618.899	17634.86
619.255	17645.48
619.611	17659.04
619.967	17619.04
620.323	17718.93
620.678	17669.66
621.034	17622.88
621.39	17527.52
621.746	17544.69
622.101	17815.65
622.457	17599.38
622.812	17609.33
623.168	17763.45
623.523	17678.25
623.879	17756.21
624.234	17580.85
624.589	17609.78
624.945	17628.31
625.3	17619.72
625.655	17692.49
626.01	17760.51
626.365	17581.3
626.72	17609.78
627.075	17684.8
627.43	17655.2
627.785	17622.43
628.14	17643.45
628.495	17743.33
628.85	17656.56
629.205	17577.46
629.559	17658.82
629.914	17551.25
630.269	17632.83
630.623	17527.52
630.978	17537.69
631.332	17544.47
631.687	17579.95
632.041	17480.51
632.396	17617.23
632.75	17443.45
633.104	17471.48
633.459	17350.8
633.813	17415.66
634.167	17361.2
634.521	17313.74
634.875	17453.62
635.229	17349.22
635.583	17349.9
635.937	17305.38
636.291	17177.7
636.645	17266.51
636.999	17203.91
637.352	17217.92
637.706	17154.2
638.06	17161.2
638.413	17244.81
638.767	17110.81
639.121	17179.73
639.474	17105.38
639.828	17002.11
640.181	17108.55
640.534	17071.94
640.888	16948.55
641.241	17030.58
641.594	17010.7
641.947	17002.34
642.301	17007.31
642.654	16993.3
643.007	16970.02
643.36	16960.75
643.713	16939.96
644.066	17067.19
644.419	16870.14
644.771	16847.54
645.124	16628.56
645.477	16610.26
645.83	16557.83
646.182	16489.13
646.535	16323.94
646.888	16383.14
647.24	16370.26
647.593	16359.41
647.945	16357.15
648.298	16220.89
648.65	16226.08
649.002	16262.69
649.355	16289.36
649.707	16276.93
650.059	16430.37
650.411	16580.88
650.763	16593.08
651.115	16765.05
651.467	16671.95
651.819	16745.17
652.171	16631.05
652.523	16570.48
652.875	16673.08
653.227	16627.2
653.578	16672.85
653.93	16666.75
654.282	16568.22
654.633	16568.67
654.985	16684.6
655.337	16615.68
655.688	16565.96
656.039	16683.47
656.391	16590.14
656.742	16613.19
657.094	16603.93
657.445	16662.23
657.796	16609.58
658.147	16634.89
658.498	16644.6
658.849	16728.67
659.2	16697.94
659.551	16613.42
659.902	16606.64
660.253	16668.11
660.604	16648.67
660.955	16599.86
661.306	16712.4
661.656	16620.88
662.007	16671.27
662.358	16722.79
662.708	16679.41
663.059	16626.75
663.409	16568.9
663.76	16720.08
664.11	16721.89
664.461	16730.48
664.811	16730.25
665.161	16668.56
665.511	16651.16
665.862	16636.92
666.212	16675.11
666.562	16711.04
666.912	16688.45
667.262	16647.09
667.612	16718.5
667.962	16791.27
668.312	16740.65
668.662	16814.32
669.011	16673.3
669.361	16654.1
669.711	16648.45
670.06	16680.08
670.41	16587.66
670.76	16706.52
671.109	16704.72
671.459	16596.47
671.808	16560.09
672.157	16582.69
672.507	16488.68
672.856	16481.22
673.205	16537.49
673.554	16561.9
673.904	16538.39
674.253	16617.49
674.602	16584.72
674.951	16281.9
675.3	16172.3
675.649	16535.23
675.998	16430.15
676.346	16451.84
676.695	16547.21
677.044	16362.13
677.393	16423.37
677.741	16402.58
678.09	16356.93
678.438	16366.65
678.787	16333.2
679.135	16308.79
679.484	16150.38
679.832	16262.47
680.181	16120.78
680.529	16171.4
680.877	16145.41
681.225	16060.44
681.573	16222.02
681.922	16116.93
682.27	15999.2
682.618	16048.46
682.966	15978.63
683.314	16007.33
683.661	15873.33
684.009	15887.11
684.357	15729.83
684.705	15811.63
685.053	15864.74
685.4	15749.49
685.748	15707.68
686.095	15674.69
686.443	15674.69
686.79	15562.15
687.138	15612.32
687.485	15644.41
687.832	15467.01
688.18	15568.47
688.527	15434.02
688.874	15420.68
689.221	15410.06
689.568	15319.67
689.915	15346.11
690.262	15279.44
690.609	15307.46
690.956	15187.24
691.303	15276.05
691.65	15030.64
691.997	15133.01
692.344	14931.66
692.69	14953.8
693.037	14909.06
693.383	14793.13
693.73	14930.3
694.077	14777.54
694.423	14793.58
694.769	14761.94
695.116	14619.57
695.462	14644.66
695.808	14568.5
696.155	14565.11
696.501	14525.34
696.847	14462.06
697.193	14338.45
697.539	14414.83
697.885	14323.99
698.231	14184.78
698.577	14368.51
698.923	14220.71
699.269	14072.47
699.614	14025.69
699.96	13963.77
700.306	13937.56
700.651	13944.11
700.997	13859.59
701.342	13790.67
701.688	13823.21
702.033	13712.48
702.379	13674.74
702.724	13632.25
703.069	13720.39
703.415	13580.05
703.76	13590.67
704.105	13551.13
704.45	13435.65
704.795	13412.15
705.14	13341.19
705.485	13311.36
705.83	13313.39
706.175	13233.62
706.52	13179.39
706.865	13168.09
707.209	13095.77
707.554	13075.43
707.899	12996.34
708.243	13049.22
708.588	12974.64
708.932	12903.91
709.277	12811.49
709.621	12912.27
709.966	12782.56
710.31	12824.14
710.654	12735.55
710.998	12718.38
711.342	12753.41
711.687	12621.66
712.031	12699.85
712.375	12550.93
712.719	12596.8
713.063	12635.9
713.407	12598.16
713.75	12571.72
714.094	12444.26
714.438	12387.09
714.782	12496.69
715.125	12323.59
715.469	12380.54
715.812	12282.01
716.156	12242.69
716.499	12205.4
716.843	12280.2
717.186	12156.81
717.53	12264.61
717.873	12236.81
718.216	12197.49
718.559	12176.25
718.902	12102.8
719.246	12106.19
719.589	12101.67
719.932	11968.8
720.275	11992.3
720.617	12007.89
720.96	12011.05
721.303	12037.72
721.646	12021.68
721.989	11874.33
722.331	12065.06
722.674	11934.9
723.016	11997.95
723.359	11884.73
723.701	11893.77
724.044	11875.46
724.386	11795.24
724.729	11828.23
725.071	11834.11
725.413	11885.63
725.755	11796.14
726.097	11772.42
726.439	11715.02
726.782	11614.45
727.124	11764.06
727.465	11745.75
727.807	11741.46
728.149	11688.8
728.491	11630.95
728.833	11739.87
729.175	11648.58
729.516	11604.29
729.858	11647.22
730.199	11684.96
730.541	11680.67
730.882	11628.47
731.224	11753.66
731.565	11632.08
731.906	11529.48
732.248	11657.84
732.589	11541.01
732.93	11562.93
733.271	11587.79
733.612	11577.17
733.953	11611.06
734.294	11568.81
734.635	11542.37
734.976	11567.9
735.317	11565.64
735.658	11475.93
735.999	11586.43
736.339	11564.96
736.68	11608.58
737.021	11557.96
737.361	11482.93
737.702	11557.28
738.042	11562.93
738.383	11501.69
738.723	11559.31
739.063	11502.59
739.404	11606.77
739.744	11583.72
740.084	11564.51
740.424	11604.51
740.764	11574.23
741.104	11660.1
741.444	11630.95
741.784	11595.02
742.124	11657.39
742.464	11656.26
742.804	11684.96
743.143	11681.35
743.483	11646.09
743.823	11698.29
744.162	11743.94
744.502	11711.18
744.841	11781.46
745.181	11835.69
745.52	11803.83
745.86	11924.28
746.199	11849.7
746.538	11982.58
746.877	12044.5
747.216	12113.42
747.556	12068.23
747.895	12186.19
748.234	12117.04
748.573	12263.25
748.911	12297.6
749.25	12373.3
749.589	12409.46
749.928	12504.37
750.267	12536.46
750.605	12649
750.944	12660.53
751.283	12694.43
751.621	12877.47
751.96	12904.36
752.298	13113.17
752.636	13131.25
752.975	13128.99
753.313	13236.11
753.651	13416.89
753.989	13467.29
754.327	13527.17
754.666	13641.29
755.004	13848.75
755.342	14027.72
755.679	14067.27
756.017	14135.74
756.355	14455.74
756.693	14477.2
757.031	14708.84
757.368	14771.21
757.706	14897.98
758.044	14993.35
758.381	15194.25
758.719	15422.49
759.056	15494.8
759.394	15666.1
759.731	15800.33
760.068	15943.61
760.405	16196.93
760.743	16171.17
761.08	16355.57
761.417	16593.98
761.754	16765.96
762.091	16972.28
762.428	17056.57
762.765	17141.77
763.102	17439.61
763.438	17462.89
763.775	17550.57
764.112	17828.08
764.449	18004.34
764.785	18152.59
765.122	18224.45
765.458	18353.03
765.795	18453.6
766.131	18650.43
766.467	18691.56
766.804	18902.85
767.14	18882.06
767.476	19220.13
767.812	19176.06
768.148	19397.53
768.485	19449.5
768.821	19437.75
769.157	19587.58
769.492	19733.79
769.828	19890.62
770.164	19815.14
770.5	20012.43
770.836	20046.32
771.171	20080.9
771.507	20279.31
771.842	20211.29
772.178	20341.91
772.513	20496.48
772.849	20443.37
773.184	20477.5
773.519	20626.87
773.855	20637.95
774.19	20608.57
774.525	20757.94
774.86	20848.79
775.195	20930.14
775.53	20851.95
775.865	20896.24
776.2	20816.92
776.535	20889.92
776.87	20992.74
777.205	20928.56
777.539	20952.74
777.874	21090.14
778.209	20900.76
778.543	21046.52
778.878	21006.52
779.212	21055.11
779.547	21087.43
779.881	21148.44
780.215	21025.05
780.55	21129.68
780.884	21031.38
781.218	21037.26
781.552	21086.75
781.886	21016.69
782.22	20969.46
782.554	21008.33
782.888	20792.52
783.222	20936.24
783.556	20820.31
783.889	20873.42
784.223	20783.25
784.557	20703.93
784.89	20738.28
785.224	20701
785.557	20610.6
785.891	20593.43
786.224	20482.02
786.558	20616.48
786.891	20485.41
787.224	20518.18
787.557	20467.78
787.891	20444.28
788.224	20450.38
788.557	20472.98
788.89	20362.25
789.223	20402.25
789.556	20366.31
789.888	20258.97
790.221	20228.92
790.554	20162.7
790.887	20123.61
791.219	20031.41
791.552	20058.3
791.884	19961.13
792.217	19940.56
792.549	19802.71
792.882	19783.05
793.214	19788.02
793.546	19825.09
793.879	19694.24
794.211	19583.96
794.543	19650.85
794.875	19635.94
795.207	19731.3
795.539	19593.45
795.871	19536.28
796.203	19455.38
796.535	19378.09
796.867	19353.01
797.198	19302.61
797.53	19213.58
797.862	19231.66
798.193	19179.23
798.525	19034.37
798.856	19079.12
799.188	18827.15
799.519	18849.97
799.85	18778.33
800.182	18758.22
800.513	18869.18
800.844	18691.56
801.175	18817.2
801.506	18697.88
801.837	18672.12
802.168	18581.05
802.499	18609.07
802.83	18498.34
803.161	18409.98
803.491	18518.91
803.822	18498.12
804.153	18391.45
804.483	18249.76
804.814	18127.73
805.145	18201.63
805.475	18131.8
805.805	18093.61
806.136	18077.79
806.466	18065.36
806.796	18033.72
807.126	17906.94
807.457	17839.15
807.787	17944.46
808.117	17841.18
808.447	17683.67
808.777	17840.73
809.107	17721.41
809.436	17664.69
809.766	17664.69
810.096	17486.62
810.426	17567.52
810.755	17502.44
811.085	17489.78
811.414	17464.24
811.744	17281.88
812.073	17324.36
812.403	17302.89
812.732	17250.92
813.061	17247.53
813.39	17067.42
813.719	17061.99
814.049	17190.58
814.378	17029.45
814.707	16980.42
815.036	17065.84
815.365	16960.08
815.693	16826.52
816.022	16885.95
816.351	16800.76
816.68	16759.18
817.008	16892.73
817.337	16568.67
817.665	16698.16
817.994	16680.08
818.322	16586.98
818.651	16584.95
818.979	16466.3
819.307	16629.01
819.636	16620.42
819.964	16545.62
820.292	16469.92
820.62	16521.9
820.948	16483.93
821.276	16416.14
821.604	16473.08
821.932	16480.99
822.259	16472.18
822.587	16454.33
822.915	16297.5
823.243	16426.53
823.57	16283.94
823.898	16356.02
824.225	16310.38
824.553	16349.47
824.88	16430.6
825.207	16455.68
825.535	16304.73
825.862	16416.81
826.189	16306.76
826.516	16438.28
826.843	16421.33
827.17	16368.91
827.497	16337.95
827.824	16372.3
828.151	16404.61
828.478	16410.26
828.805	16534.55
829.131	16377.49
829.458	16323.94
829.785	16295.24
830.111	16287.78
830.438	16413.88
830.764	16296.37
831.09	16444.38
831.417	16219.53
831.743	16391.28
832.069	16322.13
832.395	16204.84
832.722	16330.26
833.048	16257.72
833.374	16274.44
833.7	16187.22
834.026	16196.03
834.351	16210.72
834.677	16224.5
835.003	16165.97
835.329	16264.28
835.654	16225.41
835.98	16100.66
836.306	16260.66
836.631	16011.18
836.956	16140.21
837.282	16138.86
837.607	16113.32
837.932	16025.86
838.258	16041.23
838.583	15976.83
838.908	15923.04
839.233	15912.87
839.558	15867.22
839.883	15816.83
840.208	15820.67
840.533	15801.01
840.858	15840.56
841.182	15745.65
841.507	15796.94
841.832	15759.2
842.156	15676.49
842.481	15583.39
842.805	15545.65
843.13	15424.3
843.454	15497.29
843.778	15532.09
844.103	15541.81
844.427	15366.9
844.751	15430.85
845.075	15360.34
845.399	15269.05
845.723	15200.35
846.047	15200.12
846.371	15134.36
846.695	15074.93
847.019	14978.43
847.343	15015.95
847.666	14936.63
847.99	14876.52
848.313	14789.51
848.637	14719.01
848.96	14716.75
849.284	14709.06
849.607	14533.93
849.931	14513.14
850.254	14457.32
850.577	14334.61
850.9	14220.04
851.223	14199.7
851.546	14195.4
851.869	14156.31
852.192	14199.47
852.515	13971.68
852.838	14033.83
853.161	13929.65
853.483	13814.62
853.806	13844.23
854.129	13798.58
854.451	13781.18
854.774	13680.84
855.096	13655.3
855.419	13619.83
855.741	13626.38
856.063	13501.64
856.385	13515.87
856.708	13420.28
857.03	13348.87
857.352	13321.53
857.674	13248.31
857.996	13305.03
858.318	13211.7
858.64	13219.38
858.961	13193.62
859.283	13101.2
859.605	13083.34
859.926	13055.32
860.248	13021.88
860.57	12928.54
860.891	12948.88
861.212	12870.01
861.534	12863.69
861.855	12797.02
862.176	12841.09
862.498	12892.61
862.819	12811.49
863.14	12849.22
863.461	12760.19
863.782	12729.91
864.103	12721.32
864.424	12721.32
864.745	12694.88
865.065	12607.42
865.386	12550.48
865.707	12520.19
866.027	12558.84
866.348	12530.36
866.668	12482.68
866.989	12494.43
867.309	12484.26
867.63	12495.56
867.95	12480.65
868.27	12389.58
868.59	12400.65
868.91	12373.76
869.23	12332.63
869.55	12305.51
869.87	12339.41
870.19	12309.58
870.51	12262.57
870.83	12258.28
871.15	12248.11
871.469	12241.78
871.789	12246.53
872.109	12200.65
872.428	12100.77
872.748	12007.44
873.067	12121.33
873.386	12089.24
873.706	12169.47
874.025	12055.35
874.344	11987.33
874.663	12054.89
874.982	12015.12
875.301	11968.57
875.62	11923.6
875.939	11886.76
876.258	11828.69
876.577	11856.03
876.896	11839.08
877.214	11761.8
877.533	11784.85
877.852	11788.24
878.17	11728.8
878.489	11772.64
878.807	11716.6
879.125	11689.48
879.444	11722.02
879.762	11650.61
880.08	11602.48
880.398	11584.85
880.716	11580.78
881.034	11576.49
881.352	11564.51
881.67	11573.1
881.988	11532.2
882.306	11509.82
882.624	11392.77
882.941	11384.86
883.259	11334.91
883.577	11386.89
883.894	11387.79
884.212	11356.38
884.529	11344.41
884.846	11315.03
885.164	11224.41
885.481	11183.28
885.798	11154.13
886.115	11088.37
886.432	11107.8
886.75	11128.59
887.067	11059.21
887.383	11134.69
887.7	11107.12
888.017	11084.07
888.334	11010.63
888.651	10987.58
888.967	10936.05
889.284	10855.6
889.6	10893.12
889.917	10806.34
890.233	10815.83
890.55	10715.04
890.866	10723.4
891.182	10708.49
891.498	10780.13
891.815	10663.07
892.131	10670.3
892.447	10620.36
892.763	10541.04
893.079	10538.78
893.395	10523.41
893.71	10504.65
894.026	10393.92
894.342	10329.29
894.657	10382.17
894.973	10330.42
895.289	10261.5
895.604	10335.17
895.92	10187.37
896.235	10253.59
896.55	10187.6
896.865	10153.25
897.181	10089.52
897.496	10137.43
897.811	10006.14
898.126	10035.06
898.441	9943.99
898.756	9864.67
899.071	9835.29
899.386	9870.55
899.7	9759.59
900.015	9783.09
900.33	9715.07
900.644	9664.45
900.959	9676.65
901.273	9721.85
901.588	9620.38
901.902	9540.16
902.216	9455.42
902.531	9534.06
902.845	9426.72
903.159	9406.38
903.473	9442.99
903.787	9335.87
904.101	9298.13
904.415	9321.63
904.729	9243.22
905.042	9193.95
905.356	9175.2
905.67	9170.68
905.984	9098.81
906.297	9105.82
906.611	9052.04
906.924	9010.46
907.237	9050.91
907.551	8907.41
907.864	8879.39
908.177	8868.76
908.491	8855.43
908.804	8777.01
909.117	8714.42
909.43	8658.15
909.743	8672.61
910.056	8652.05
910.368	8588.32
910.681	8532.05
910.994	8552.16
911.307	8531.37
911.619	8519.85
911.932	8472.62
912.244	8419.51
912.557	8383.13
912.869	8298.61
913.181	8248.89
913.494	8295.9
913.806	8262.45
914.118	8275.11
914.43	8150.59
914.742	8170.48
915.054	8123.92
915.366	8099.07
915.678	7994.89
915.99	8028.33
916.302	7940.2
916.613	7882.58
916.925	7864.95
917.236	7845.29
917.548	7780.43
917.859	7828.34
918.171	7770.49
918.482	7760.54
918.794	7683.26
919.105	7658.63
919.416	7665.41
919.727	7586.09
920.038	7557.84
920.349	7510.16
920.66	7483.04
920.971	7536.82
921.282	7478.74
921.593	7354.91
921.903	7363.04
922.214	7375.02
922.525	7316.04
922.835	7245.08
923.146	7298.41
923.456	7249.6
923.767	7193.1
924.077	7203.72
924.387	7105.65
924.697	7111.97
925.008	7081.92
925.318	7050.96
925.628	7005.76
925.938	7048.92
926.248	6934.58
926.558	6895.03
926.867	6938.87
927.177	6833.79
927.487	6866.1
927.796	6782.27
928.106	6804.86
928.416	6755.15
928.725	6771.42
929.034	6673.34
929.344	6689.84
929.653	6721.02
929.962	6603.74
930.271	6570.07
930.581	6552.89
930.89	6450.07
931.199	6500.24
931.508	6528.26
931.817	6494.82
932.125	6453.01
932.434	6442.16
932.743	6386.57
933.051	6297.76
933.36	6270.41
933.669	6322.62
933.977	6269.51
934.286	6230.64
934.594	6253.92
934.902	6204.43
935.21	6174.82
935.519	6174.15
935.827	6152.9
936.135	6008.05
936.443	6009.86
936.751	6020.48
937.059	6015.51
937.367	5960.37
937.674	5995.17
937.982	5946.13
938.29	5923.08
938.597	5908.39
938.905	5864.32
939.213	5814.61
939.52	5795.62
939.827	5836.75
940.135	5763.31
940.442	5763.08
940.749	5747.72
941.056	5761.05
941.363	5624.1
941.67	5644.89
941.977	5603.54
942.284	5579.13
942.591	5563.09
942.898	5509.3
943.205	5525.35
943.511	5547.72
943.818	5441.74
944.125	5413.26
944.431	5408.06
944.738	5415.52
945.044	5377.56
945.35	5343.88
945.657	5325.35
945.963	5287.84
946.269	5273.6
946.575	5231.8
946.881	5241.06
947.187	5235.87
947.493	5194.28
947.799	5176.21
948.105	5138.92
948.41	5115.87
948.716	5110.44
949.022	5077.45
949.327	5087.62
949.633	4964.91
949.938	4985.02
950.244	4985.02
950.549	4954.97
950.854	4931.24
951.16	4924.91
951.465	4924.01
951.77	4915.42
952.075	4833.16
952.38	4834.75
952.685	4837.46
952.99	4828.42
953.294	4799.27
953.599	4773.28
953.904	4733.05
954.209	4697.12
954.513	4699.16
954.818	4615.99
955.122	4676.11
955.426	4646.73
955.731	4615.77
956.035	4559.05
956.339	4576.45
956.643	4615.54
956.948	4551.59
957.252	4513.62
957.556	4522.21
957.86	4479.73
958.163	4487.64
958.467	4446.73
958.771	4449.9
959.075	4440.18
959.378	4412.61
959.682	4413.97
959.985	4356.11
960.289	4332.84
960.592	4262.78
960.896	4303.46
961.199	4274.53
961.502	4293.07
961.805	4257.59
962.108	4223.46
962.411	4226.85
962.714	4220.75
963.017	4216
963.32	4124.71
963.623	4124.71
963.926	4105.95
964.228	4093.97
964.531	4129.91
964.833	4026.63
965.136	4054.88
965.438	4032.28
965.741	3975.33
966.043	3988.21
966.345	3962
966.648	3949.57
966.95	3966.97
967.252	3872.51
967.554	3920.87
967.856	3879.97
968.158	3847.88
968.46	3855.34
968.761	3846.52
969.063	3830.03
969.365	3850.36
969.666	3771.27
969.968	3737.6
970.269	3761.33
970.571	3751.84
970.872	3696.92
971.174	3660.54
971.475	3687.66
971.776	3655.57
972.077	3620.54
972.378	3580.99
972.679	3661.9
972.98	3601.78
973.281	3600.65
973.582	3602.91
973.883	3583.48
974.183	3534.89
974.484	3522.69
974.785	3524.95
975.085	3460.54
975.386	3513.42
975.686	3488.79
975.986	3451.51
976.287	3449.02
976.587	3421.45
976.887	3425.74
977.187	3355.24
977.487	3409.02
977.787	3339.87
978.087	3362.02
978.387	3321.11
978.687	3270.95
978.987	3309.14
979.286	3262.58
979.586	3264.62
979.885	3249.7
980.185	3211.29
980.484	3261.91
980.784	3235.24
981.083	3210.38
981.382	3188.24
981.682	3166.99
981.981	3162.93
982.28	3160.44
982.579	3106.66
982.878	3097.84
983.177	3109.82
983.475	3096.26
983.774	3078.41
984.073	3059.43
984.372	3059.65
984.67	2998.18
984.969	3028.24
985.267	3012.87
985.566	3017.17
985.864	3003.38
986.162	2942.14
986.461	2929.71
986.759	2923.84
987.057	2940.78
987.355	2872.09
987.653	2882.03
987.951	2891.52
988.249	2905.53
988.547	2860.33
988.844	2837.06
989.142	2818.08
989.44	2785.31
989.737	2793.9
990.035	2782.6
990.332	2789.83
990.63	2760.68
990.927	2748.25
991.224	2718.19
991.521	2693.56
991.819	2677.06
992.116	2700.79
992.413	2675.93
992.71	2693.79
993.006	2668.93
993.303	2628.48
993.6	2657.4
993.897	2616.95
994.193	2630.06
994.49	2614.92
994.787	2569.27
995.083	2557.07
995.379	2535.6
995.676	2513.45
995.972	2543.51
996.268	2504.86
996.565	2483.62
996.861	2449.95
997.157	2446.56
997.453	2488.37
997.749	2465.99
998.044	2429.84
998.34	2451.98
998.636	2443.4
998.932	2434.13
999.227	2406.56
999.523	2376.05
999.818	2395.71
1000.114	2335.38
1000.409	2327.47
1000.704	2328.6
1001	2301.25
1001.295	2327.69
1001.59	2299.22
1001.885	2298.32
1002.18	2258.54
1002.475	2207.24
1002.77	2250.18
1003.065	2233.46
1003.359	2245.21
1003.654	2185.1
1003.949	2186.23
1004.243	2175.83
1004.538	2163.86
1004.832	2135.16
1005.127	2174.25
1005.421	2122.05
1005.715	2140.58
1006.009	2118.66
1006.304	2094.7
1006.598	2087.7
1006.892	2074.59
1007.186	2042.05
1007.48	2031.2
1007.773	2052.9
1008.067	2027.81
1008.361	1996.4
1008.655	2043.63
1008.948	1988.27
1009.242	1988.72
1009.535	1932.68
1009.829	1940.13
1010.122	1932.9
1010.415	1929.96
1010.708	1920.92
1011.001	1898.1
1011.295	1911.21
1011.588	1863.52
1011.881	1881.15
1012.173	1859.23
1012.466	1831.21
1012.759	1849.97
1013.052	1809.06
1013.344	1842.28
1013.637	1824.66
1013.93	1814.49
1014.222	1797.76
1014.514	1803.41
1014.807	1791.44
1015.099	1772.68
1015.391	1748.73
1015.683	1743.98
1015.976	1708.95
1016.268	1709.4
1016.56	1701.72
1016.851	1723.19
1017.143	1700.36
1017.435	1682.06
1017.727	1656.98
1018.018	1663.08
1018.31	1636.64
1018.602	1640.03
1018.893	1602.74
1019.185	1617.88
1019.476	1607.94
1019.767	1617.66
1020.058	1587.6
1020.35	1557.32
1020.641	1542.63
1020.932	1566.36
1021.223	1537.43
1021.514	1529.07
1021.804	1556.41
1022.095	1540.6
1022.386	1498.11
1022.677	1511.67
1022.967	1466.25
1023.258	1460.82
1023.548	1446.13
1023.839	1442.29
1024.129	1437.32
1024.419	1405.23
1024.709	1412.01
1025	1425.57
1025.29	1409.3
1025.58	1364.1
1025.87	1390.99
1026.16	1353.48
1026.449	1358.9
1026.739	1375.18
1027.029	1310.54
1027.319	1346.25
1027.608	1361.62
1027.898	1308.74
1028.187	1311
1028.477	1305.12
1028.766	1299.02
1029.055	1296.53
1029.344	1287.72
1029.634	1274.61
1029.923	1257.21
1030.212	1238.68
1030.501	1213.37
1030.79	1253.82
1031.078	1212.47
1031.367	1262.18
1031.656	1225.58
1031.945	1220.6
1032.233	1199.14
1032.522	1175.63
1032.81	1176.54
1033.099	1174.5
1033.387	1166.37
1033.675	1156.88
1033.963	1151
1034.251	1167.72
1034.54	1146.93
1034.828	1117.1
1035.116	1113.71
1035.403	1092.25
1035.691	1107.39
1035.979	1097.22
1036.267	1068.74
1036.554	1100.61
1036.842	1078.01
1037.129	1073.49
1037.417	1061.06
1037.704	1054.73
1037.992	1014.28
1038.279	1012.25
1038.566	1034.17
1038.853	1034.17
1039.14	1034.17
