Data from hue_38_FLMS001491_00022.txt Node
Date: Tue Feb 07 17:31:16 GMT 2017
User: dcchb
Spectrometer: FLMS00149
Trigger mode: 0
Integration Time (sec): 2.000000E-2
Scans to average: 10
Electric dark correction enabled: true
Nonlinearity correction enabled: false
Boxcar width: 0
XAxis mode: Wavelengths
Number of Pixels in Spectrum: 2048
>>>>>Begin Spectral Data<<<<<
341.393	-6.84
341.776	-6.84
342.16	-6.84
342.543	-63.33
342.927	-75.08
343.31	-54.97
343.693	-74.4
344.077	-52.94
344.46	-67.85
344.843	-45.71
345.226	-50.22
345.61	-43.9
345.993	-17.91
346.376	3.56
346.759	16.67
347.142	38.13
347.525	41.3
347.908	39.94
348.291	73.84
348.674	98.47
349.057	95.99
349.44	131.47
349.823	144.12
350.206	165.14
350.588	213.95
350.971	221.41
351.354	225.7
351.737	252.82
352.119	244.68
352.502	258.47
352.884	271.8
353.267	293.04
353.65	304.57
354.032	307.28
354.414	305.7
354.797	318.58
355.179	338.47
355.562	340.73
355.944	344.57
356.326	333.72
356.709	363.78
357.091	329.65
357.473	354.28
357.855	350.89
358.238	339.82
358.62	354.74
359.002	356.32
359.384	334.4
359.766	343.44
360.148	337.56
360.53	346.38
360.912	353.15
361.294	361.52
361.676	311.8
362.057	343.44
362.439	328.3
362.821	333.49
363.203	330.33
363.584	307.28
363.966	352.25
364.348	338.69
364.729	311.57
365.111	346.15
365.493	323.1
365.874	306.15
366.256	293.5
366.637	321.07
367.019	341.63
367.4	326.26
367.781	324
368.163	328.97
368.544	321.52
368.925	320.16
369.306	327.39
369.688	325.36
370.069	324.23
370.45	306.15
370.831	322.42
371.212	325.81
371.593	293.72
371.974	325.58
372.355	319.26
372.736	314.29
373.117	318.35
373.498	317
373.879	324.68
374.26	320.84
374.641	326.49
375.021	335.08
375.402	340.05
375.783	326.94
376.163	335.08
376.544	338.01
376.925	340.95
377.305	335.53
377.686	342.31
378.066	336.43
378.447	342.08
378.827	325.81
379.208	344.57
379.588	349.54
379.968	330.56
380.349	361.06
380.729	344.57
381.109	334.17
381.489	340.73
381.87	342.99
382.25	337.11
382.63	348.63
383.01	345.25
383.39	357
383.77	343.66
384.15	351.12
384.53	372.36
384.91	359.48
385.29	371.46
385.67	380.05
386.049	343.21
386.429	347.5
386.809	353.15
387.189	355.87
387.568	352.48
387.948	361.74
388.328	365.81
388.707	371.69
389.087	377.33
389.466	373.72
389.846	377.33
390.225	374.85
390.605	359.93
390.984	354.51
391.363	356.09
391.743	365.58
392.122	380.5
392.501	385.92
392.881	391.35
393.26	399.48
393.639	378.24
394.018	381.85
394.397	389.09
394.776	394.51
395.155	397
395.534	405.81
395.913	414.4
396.292	383.66
396.671	396.32
397.05	394.28
397.429	404.23
397.808	397
398.186	404.68
398.565	399.26
398.944	411.46
399.323	393.83
399.701	419.59
400.08	395.64
400.458	403.77
400.837	401.29
401.215	409.88
401.594	408.07
401.972	415.3
402.351	407.16
402.729	406.71
403.107	413.04
403.486	415.53
403.864	410.78
404.242	424.34
404.62	429.99
404.999	448.29
405.377	451.68
405.755	408.75
406.133	448.07
406.511	430.21
406.889	455.07
407.267	452.36
407.645	427.05
408.023	450.1
408.401	456.88
408.779	448.29
409.156	473.83
409.534	453.04
409.912	450.33
410.29	452.36
410.667	477.22
411.045	468.63
411.422	472.25
411.8	453.94
412.178	472.7
412.555	462.3
412.933	509.76
413.31	480.38
413.687	471.12
414.065	491.68
414.442	497.33
414.819	508.63
415.197	526.26
415.574	515.41
415.951	492.59
416.328	487.16
416.705	514.28
417.082	496.65
417.46	502.76
417.837	506.37
418.214	517.22
418.591	543.43
418.967	526.26
419.344	525.35
419.721	539.14
420.098	558.35
420.475	538.69
420.852	538.69
421.228	568.74
421.605	549.08
421.982	563.77
422.358	546.82
422.735	564.22
423.111	582.08
423.488	564.22
423.864	562.19
424.241	584.56
424.617	572.81
424.994	591.79
425.37	571.23
425.746	586.37
426.123	561.06
426.499	589.08
426.875	581.62
427.251	605.58
427.627	598.8
428.003	622.98
428.379	617.33
428.756	606.71
429.132	639.02
429.507	643.09
429.883	630.44
430.259	650.55
430.635	636.08
431.011	656.88
431.387	644.67
431.763	678.12
432.138	654.62
432.514	665.01
432.89	666.59
433.265	697.55
433.641	674.05
434.016	680.15
434.392	703.65
434.767	710.21
435.143	683.09
435.518	720.6
435.894	710.66
436.269	752.24
436.644	744.78
437.02	757.66
437.395	738.23
437.77	755.18
438.145	768.06
438.52	775.74
438.895	780.26
439.271	771.67
439.646	780.04
440.021	793.14
440.395	780.49
440.77	771.9
441.145	781.17
441.52	791.34
441.895	813.48
442.27	804.89
442.645	829.53
443.019	815.74
443.394	824.1
443.769	850.32
444.143	836.98
444.518	859.13
444.892	859.81
445.267	816.65
445.641	844.67
446.016	852.8
446.39	852.35
446.764	859.13
447.139	876.08
447.513	866.81
447.887	852.12
448.262	900.48
448.636	852.12
449.01	899.35
449.384	881.05
449.758	884.89
450.132	909.75
450.506	872.01
450.88	897.77
451.254	919.24
451.628	956.53
452.002	969.86
452.376	932.35
452.75	957.88
453.123	938.68
453.497	975.29
453.871	971.67
454.244	994.95
454.618	1005.11
454.992	1039.46
455.365	1019.8
455.739	1038.11
456.112	1038.33
456.486	1053.48
456.859	1031.1
457.232	1065.45
457.606	1074.72
457.979	1118.78
458.352	1095.96
458.725	1128.95
459.099	1117.88
459.472	1134.38
459.845	1147.48
460.218	1157.65
460.591	1183.19
460.964	1180.03
461.337	1193.13
461.71	1211.66
462.083	1236.3
462.456	1221.83
462.829	1225.67
463.201	1260.93
463.574	1242.85
463.947	1300.25
464.32	1300.02
464.692	1330.76
465.065	1323.07
465.438	1344.54
465.81	1369.4
466.183	1395.61
466.555	1406.23
466.928	1413.69
467.3	1434.03
467.672	1452.11
468.045	1482.39
468.417	1505.89
468.789	1498.21
469.161	1513.58
469.534	1564.42
469.906	1592.22
470.278	1568.49
470.65	1606.91
471.022	1654.59
471.394	1666.57
471.766	1733.01
472.138	1734.59
472.51	1798.99
472.882	1831.99
473.253	1832.89
473.625	1843.28
473.997	1926.9
474.369	1930.51
474.74	1967.58
475.112	2007.12
475.484	2029.27
475.855	2123.05
476.227	2139.55
476.598	2177.97
476.97	2194.69
477.341	2259.32
477.713	2352.65
478.084	2384.51
478.455	2448.92
478.827	2487.56
479.198	2585.19
479.569	2622.7
479.94	2668.8
480.311	2754.22
480.682	2798.51
481.053	2898.4
481.424	2979.53
481.795	3023.14
482.166	3128.45
482.537	3175.45
482.908	3238.73
483.279	3347.43
483.65	3385.84
484.021	3513.07
484.391	3565.05
484.762	3639.17
485.133	3710.35
485.503	3793.29
485.874	3918.71
486.244	3992.61
486.615	4097.24
486.985	4180.85
487.356	4316.67
487.726	4385.59
488.097	4479.37
488.467	4521.41
488.837	4680.05
489.207	4772.7
489.578	4879.59
489.948	4977.89
490.318	5096.31
490.688	5192.35
491.058	5293.82
491.428	5383.98
491.798	5472.57
492.168	5627.37
492.538	5717.08
492.908	5819.68
493.278	5930.86
493.648	6057.19
494.017	6110.74
494.387	6172.66
494.757	6277.52
495.126	6373.11
495.496	6460.34
495.866	6539.43
496.235	6679.77
496.605	6838.63
496.974	6856.03
497.344	6984.62
497.713	7148.46
498.082	7177.16
498.452	7299.64
498.821	7371.5
499.19	7401.33
499.559	7491.95
499.928	7592.51
500.298	7682.45
500.667	7790.93
501.036	7841.09
501.405	7906.4
501.774	7980.07
502.143	8067.53
502.512	8129.9
502.88	8294.19
503.249	8343
503.618	8409.44
503.987	8494.41
504.356	8622.32
504.724	8710.67
505.093	8697.34
505.462	8821.18
505.83	8935.53
506.199	8954.96
506.567	9079.93
506.936	9158.8
507.304	9215.97
507.672	9255.97
508.041	9375.52
508.409	9440.6
508.777	9511.33
509.145	9647.6
509.514	9648.28
509.882	9756.75
510.25	9779.12
510.618	9778.44
510.986	9859.12
511.354	10067.7
511.722	10123.29
512.09	10147.93
512.458	10166.91
512.826	10304.53
513.193	10373.91
513.561	10433.12
513.929	10507.46
514.297	10584.52
514.664	10679.66
515.032	10744.07
515.4	10817.06
515.767	10840.56
516.135	10949.03
516.502	10894.12
516.869	11015.7
517.237	11112.87
517.604	11101.8
517.972	11258.86
518.339	11297.73
518.706	11348.35
519.073	11363.49
519.44	11434.9
519.808	11591.05
520.175	11613.2
520.542	11730.93
520.909	11791.27
521.276	11859.07
521.643	11950.82
522.009	12045.73
522.376	12062.45
522.743	12083.02
523.11	12262.9
523.477	12347.42
523.843	12437.58
524.21	12487.98
524.577	12628.09
524.943	12658.37
525.31	12718.93
525.676	12829.21
526.043	12980.39
526.409	12932.94
526.776	13102.65
527.142	13076.44
527.508	13299.71
527.874	13360.95
528.241	13310.55
528.607	13412.47
528.973	13614.05
529.339	13534.05
529.705	13745.8
530.071	13835.06
530.437	13899.69
530.803	13894.95
531.169	14014.26
531.535	14035.96
531.901	14109.18
532.267	14115.73
532.632	14277.99
532.998	14353.24
533.364	14398.66
533.73	14422.16
534.095	14559.79
534.461	14663.29
534.826	14682.04
535.192	14748.26
535.557	14772.21
535.923	14824.64
536.288	14926.1
536.653	14969.72
537.019	14956.84
537.384	14985.99
537.749	15144.63
538.114	15142.6
538.479	15209.04
538.845	15240.22
539.21	15281.12
539.575	15351.63
539.94	15478.86
540.305	15478.18
540.67	15524.73
541.034	15552.08
541.399	15645.63
541.764	15741.9
542.129	15797.04
542.494	15867.32
542.858	15939.41
543.223	15904.16
543.587	16057.37
543.952	16069.35
544.316	16141.67
544.681	16158.61
545.045	16188.67
545.41	16332.85
545.774	16460.53
546.138	16393.18
546.503	16469.34
546.867	16442.22
547.231	16620.3
547.595	16622.56
547.959	16768.32
548.324	16751.59
548.688	16781.88
549.052	16939.16
549.416	16890.12
549.779	16871.14
550.143	17069.33
550.507	17018.93
550.871	17181.86
551.235	17206.72
551.599	17272.03
551.962	17328.08
552.326	17380.96
552.689	17498.24
553.053	17437.68
553.417	17472.93
553.78	17646.94
554.143	17668.86
554.507	17784.33
554.87	17745.24
555.234	17987.04
555.597	17876.54
555.96	17899.81
556.323	17992.46
556.686	17969.87
557.05	18202.85
557.413	18233.36
557.776	18255.51
558.139	18406.69
558.502	18417.09
558.865	18449.4
559.228	18689.62
559.59	18610.53
559.953	18669.96
560.316	18872.44
560.679	18806
561.041	18932.1
561.404	19012.55
561.767	19129.38
562.129	19005.32
562.492	19260
562.854	19276.95
563.217	19282.6
563.579	19324.18
563.941	19408.7
564.304	19488.24
564.666	19731.18
565.028	19647.56
565.39	19761.68
565.753	19936.14
566.115	19936.14
566.477	20049.36
566.839	20078.06
567.201	20131.39
567.563	20201.45
567.925	20388.56
568.287	20283.03
568.648	20447.09
569.01	20583.81
569.372	20491.61
569.734	20664.94
570.095	20661.1
570.457	20961.43
570.819	20935.21
571.18	20955.55
571.542	21146.96
571.903	21082.55
572.265	21236
572.626	21262.44
572.987	21389.44
573.349	21430.34
573.71	21612.26
574.071	21726.15
574.432	21806.15
574.794	21901.29
575.155	21922.98
575.516	21991.91
575.877	22095.63
576.238	22223.77
576.599	22431.67
576.96	22435.51
577.32	22537.88
577.681	22736.97
578.042	22834.15
578.403	22935.61
578.763	23122.95
579.124	23167.92
579.485	23381.25
579.845	23512.55
580.206	23641.13
580.566	23736.49
580.927	23834.8
581.287	24140.78
581.648	24229.36
582.008	24408.34
582.368	24520.65
582.728	24652.63
583.089	24781.44
583.449	24926.29
583.809	25073.63
584.169	25368.09
584.529	25361.54
584.889	25908.87
585.249	25855.53
585.609	25936.66
585.969	26303.43
586.329	26505.01
586.688	26704.33
587.048	26764.21
587.408	27021.15
587.768	27172.56
588.127	27334.82
588.487	27668.82
588.846	27866.33
589.206	27917.63
589.565	28248.01
589.925	28509.48
590.284	28587.44
590.643	28884.83
591.003	29165.05
591.362	29302.9
591.721	29516.68
592.08	29810.69
592.44	29949.44
592.799	30234.18
593.158	30265.14
593.517	30509.2
593.876	30750.77
594.235	30969.07
594.593	31136.98
594.952	31398.67
595.311	31609.96
595.67	31720.69
596.029	32203.62
596.387	32362.93
596.746	32442.93
597.104	32519.99
597.463	32802.92
597.822	33180.09
598.18	33191.84
598.538	33275.45
598.897	33685.61
599.255	33492.4
599.613	34214.64
599.972	34146.16
600.33	34368.98
600.688	34412.82
601.046	34672.7
601.404	34871.57
601.762	34978.91
602.12	35253.93
602.478	35483.76
602.836	35629.06
603.194	35497.77
603.552	35920.13
603.91	35787.93
604.268	36178.88
604.625	36093.01
604.983	36448.7
605.341	36383.39
605.698	36723.05
606.056	36993.55
606.413	36950.61
606.771	37323.03
607.128	37410.03
607.485	37362.12
607.843	37533.87
608.2	37876.69
608.557	38014.09
608.914	37973.18
609.272	38189.67
609.629	38494.98
609.986	38525.03
610.343	38624.24
610.7	38948.3
611.057	38838.02
611.414	38969.09
611.771	39155.3
612.127	39385.12
612.484	39487.04
612.841	39642.29
613.198	39405.24
613.554	39667.15
613.911	40046.12
614.267	39920.7
614.624	40052
614.98	40163.63
615.337	40352.55
615.693	40476.39
616.05	40472.33
616.406	40759.78
616.762	40769.94
617.118	40807.23
617.475	40865.31
617.831	41095.81
618.187	41129.48
618.543	41219.65
618.899	41342.36
619.255	41469.14
619.611	41402.24
619.967	41670.03
620.323	41720.43
620.678	41679.53
621.034	41736.02
621.39	41651.5
621.746	41806.08
622.101	42185.27
622.457	42032.51
622.812	42000.65
623.168	42241.77
623.523	42298.94
623.879	42491.48
624.234	42255.56
624.589	42232.73
624.945	42442.22
625.3	42416.23
625.655	42496.45
626.01	42528.54
626.365	42592.27
626.72	42630.46
627.075	42662.55
627.43	42546.17
627.785	42630.69
628.14	42662.78
628.495	42697.35
628.85	42728.76
629.205	42594.76
629.559	42850.79
629.914	42640.63
630.269	42763.56
630.623	42609.22
630.978	42664.13
631.332	42911.13
631.687	43054.18
632.041	42823
632.396	42890.79
632.75	42749.55
633.104	42921.53
633.459	42746.16
633.813	42760.4
634.167	42871.81
634.521	42781.87
634.875	42863.68
635.229	42816.9
635.583	42678.37
635.937	42728.99
636.291	42657.13
636.645	42869.32
636.999	42664.36
637.352	42700.97
637.706	42551.14
638.06	42578.94
638.413	42632.27
638.767	42628.43
639.121	42672.49
639.474	42551.37
639.828	42433.4
640.181	42462.1
640.534	42526.28
640.888	42370.35
641.241	42270.92
641.594	42373.52
641.947	42584.59
642.301	42321.54
642.654	42556.34
643.007	42459.17
643.36	42349.56
643.713	42397.92
644.066	42370.58
644.419	42121.55
644.771	42012.85
645.124	41552.75
645.477	41567.66
645.83	41381.91
646.182	41319.54
646.535	41126.55
646.888	41196.6
647.24	40986.44
647.593	41127.22
647.945	40995.25
648.298	41027.79
648.65	40783.28
649.002	40935.82
649.355	40948.92
649.707	41043.84
650.059	41120.67
650.411	41374.9
650.763	41652.86
651.115	42011.49
651.467	41856.7
651.819	41846.07
652.171	41759.98
652.523	41736.25
652.875	41683.14
653.227	41562.01
653.578	41772.86
653.93	41698.28
654.282	41487.21
654.633	41292.42
654.985	41483.15
655.337	41439.08
655.688	41599.08
656.039	41782.57
656.391	41362.92
656.742	41358.18
657.094	41451.73
657.445	41687.66
657.796	41429.81
658.147	41464.84
658.498	41429.14
658.849	41546.87
659.2	41488.57
659.551	41389.36
659.902	41638.4
660.253	41300.78
660.604	41425.97
660.955	41255.36
661.306	41325.86
661.656	41263.27
662.007	41368.57
662.358	41299.2
662.708	41321.79
663.059	41286.32
663.409	41141.69
663.76	41478.4
664.11	41470.27
664.461	41354.34
664.811	41423.49
665.161	41331.51
665.511	41195.92
665.862	41331.29
666.212	41498.51
666.562	41323.15
666.912	41332.42
667.262	41177.17
667.612	41177.84
667.962	41345.52
668.312	41257.62
668.662	41427.78
669.011	41428.68
669.361	41109.37
669.711	41231.63
670.06	41007.68
670.41	40979.43
670.76	40938.98
671.109	41149.82
671.459	41040.9
671.808	41095.81
672.157	41059.43
672.507	40886.78
672.856	40963.39
673.205	40989.83
673.554	40985.98
673.904	40971.75
674.253	41155.7
674.602	40994.35
674.951	40366.79
675.3	40263.07
675.649	40820.57
675.998	40827.8
676.346	40877.96
676.695	41094.91
677.044	40619.89
677.393	40969.71
677.741	40869.6
678.09	40658.99
678.438	40550.52
678.787	40582.61
679.135	40627.12
679.484	40391.2
679.832	40607.24
680.181	40294.03
680.529	40523.17
680.877	40404.3
681.225	40226.91
681.573	40583.06
681.922	40300.35
682.27	40148.27
682.618	40096.74
682.966	40140.81
683.314	40046.57
683.661	39964.09
684.009	39689.97
684.357	39814.49
684.705	39696.53
685.053	39734.49
685.4	39650.65
685.748	39452.24
686.095	39522.75
686.443	39442.07
686.79	39353.26
687.138	39450.43
687.485	39563.42
687.832	39218.35
688.18	39258.12
688.527	38973.83
688.874	38965.02
689.221	38983.55
689.568	39012.25
689.915	38848.19
690.262	38788.08
690.609	38766.38
690.956	38715.31
691.303	38709.66
691.65	38354.42
691.997	38278.49
692.344	38287.3
692.69	38289.78
693.037	38127.98
693.383	37889.79
693.73	38048.43
694.077	37718.5
694.423	37726.41
694.769	37686.18
695.116	37553.53
695.462	37569.8
695.808	37496.13
696.155	37539.07
696.501	37233.54
696.847	37253.43
697.193	37079.65
697.539	37043.26
697.885	36816.38
698.231	36745.64
698.577	36739.77
698.923	36730.05
699.269	36485.09
699.614	36288.03
699.96	36395.14
700.306	36342.94
700.651	36117.41
700.997	36054.36
701.342	36015.27
701.688	35933.46
702.033	35935.04
702.379	35888.04
702.724	35553.81
703.069	35677.88
703.415	35386.36
703.76	35450.31
704.105	35509.07
704.45	35496.41
704.795	35305
705.14	35114.95
705.485	35109.53
705.83	34941.4
706.175	35027.05
706.52	34804.45
706.865	34774.4
707.209	34817.79
707.554	34647.17
707.899	34631.12
708.243	34505.93
708.588	34460.51
708.932	34165.37
709.277	34213.28
709.621	34337.57
709.966	33896.68
710.31	34086.28
710.654	33758.15
710.998	33761.32
711.342	33821.43
711.687	33763.35
712.031	33564.48
712.375	33395.45
712.719	33418.27
713.063	33514.09
713.407	33512.51
713.75	33366.98
714.094	33414.66
714.438	33168.56
714.782	33130.37
715.125	33047.21
715.469	33223.48
715.812	32932.86
716.156	32832.98
716.499	32835.01
716.843	32895.12
717.186	32644.51
717.53	32704.85
717.873	32736.71
718.216	32615.13
718.559	32409.26
718.902	32231.41
719.246	32452.65
719.589	32214.46
719.932	32180.11
720.275	32099.21
720.617	32068.48
720.96	32122.94
721.303	32086.11
721.646	32070.51
721.989	31912.78
722.331	31999.33
722.674	31906
723.016	31846.56
723.359	31688.6
723.701	31853.57
724.044	31651.77
724.386	31590.3
724.729	31466.23
725.071	31544.88
725.413	31489.06
725.755	31490.64
726.097	31238.44
726.439	31213.13
726.782	31186.69
727.124	31299.01
727.465	31156.86
727.807	31126.81
728.149	31063.99
728.491	30991.9
728.833	30942.86
729.175	30826.93
729.516	30787.83
729.858	30869.64
730.199	30763.43
730.541	30744.22
730.882	30793.94
731.224	30794.61
731.565	30548.29
731.906	30562.08
732.248	30542.87
732.589	30383.1
732.93	30323.67
733.271	30319.15
733.612	30220.17
733.953	30390.78
734.294	30099.27
734.635	30080.51
734.976	30162.54
735.317	30042.32
735.658	30024.01
735.999	29976.1
736.339	29860.85
736.68	30074.86
737.021	29892.72
737.361	29755.09
737.702	29945.6
738.042	29877.35
738.383	29739.95
738.723	29903.34
739.063	29699.28
739.404	29801.65
739.744	29617.24
740.084	29583.12
740.424	29550.58
740.764	29529.56
741.104	29491.82
741.444	29402.33
741.784	29275.78
742.124	29322.56
742.464	29213.19
742.804	29233.07
743.143	29042.8
743.483	29243.24
743.823	29071.04
744.162	28894.33
744.502	28992.4
744.841	28932.06
745.181	29147.65
745.52	28894.55
745.86	29039.41
746.199	28968
746.538	28749.02
746.877	28840.99
747.216	28852.52
747.556	28715.12
747.895	28720.32
748.234	28569.59
748.573	28504.05
748.911	28548.35
749.25	28377.28
749.589	28311.74
749.928	28351.06
750.267	28372.76
750.605	28297.5
750.944	28258.41
751.283	28144.51
751.621	28174.8
751.96	28095.02
752.298	27941.58
752.636	28005.31
752.975	27779.33
753.313	27772.55
753.651	27896.84
753.989	27646.67
754.327	27772.32
754.666	27527.58
755.004	27611.87
755.342	27636.73
755.679	27590.63
756.017	27296.85
756.355	27463.4
756.693	27346.34
757.031	27338.21
757.368	27216.18
757.706	27140.02
758.044	27082.4
758.381	27164.88
758.719	26993.13
759.056	27029.06
759.394	26862.74
759.731	26727.83
760.068	26657.77
760.405	26531
760.743	26482.41
761.08	26597.66
761.417	26465.46
761.754	26340.72
762.091	26364
762.428	26151.12
762.765	26139.37
763.102	26169.42
763.438	25837
763.775	25846.72
764.112	25900.05
764.449	25958.81
764.785	25748.42
765.122	25624.35
765.458	25451.48
765.795	25387.07
766.131	25433.4
766.467	25220.98
766.804	25237.02
767.14	25114.76
767.476	25058.04
767.812	24994.09
768.148	24994.99
768.485	24825.96
768.821	24669.13
769.157	24691.5
769.492	24650.14
769.828	24636.81
770.164	24252.19
770.5	24336.7
770.836	24345.97
771.171	24150.49
771.507	24095.58
771.842	24016.71
772.178	23897.39
772.513	23889.48
772.849	23938.98
773.184	23681.81
773.519	23631.64
773.855	23592.54
774.19	23490.85
774.525	23555.03
774.86	23446.78
775.195	23416.05
775.53	23285.21
775.865	23191.42
776.2	22976.51
776.535	22811.77
776.87	22746.46
777.205	22672.57
777.539	22571.1
777.874	22525.23
778.209	22450.2
778.543	22386.7
778.878	22257.21
779.212	22252.24
779.547	22204.56
779.881	22138.57
780.215	21962.3
780.55	22015.18
780.884	21871.68
781.218	21939.03
781.552	21838.69
781.886	21693.16
782.22	21520.51
782.554	21521.41
782.888	21290.68
783.222	21208.88
783.556	21160.29
783.889	21161.2
784.223	20824.48
784.557	20900.86
784.89	20894.99
785.224	20790.58
785.557	20779.96
785.891	20752.84
786.224	20595.56
786.558	20614.99
786.891	20388.56
787.224	20391.95
787.557	20238.73
787.891	20203.25
788.224	20239.19
788.557	20273.53
788.89	20141.56
789.223	20125.97
789.556	19887.78
789.888	19865.18
790.221	19847.78
790.554	19708.13
790.887	19668.13
791.219	19599.2
791.552	19525.98
791.884	19415.93
792.217	19487.34
792.549	19287.57
792.882	19234.47
793.214	19062.27
793.546	19176.61
793.879	19042.61
794.211	18991.08
794.543	19031.08
794.875	18938.88
795.207	18959.44
795.539	18789.05
795.871	18761.94
796.203	18650.07
796.535	18574.14
796.867	18556.52
797.198	18478.78
797.53	18439.01
797.862	18262.74
798.193	18337.99
798.525	18163.53
798.856	18213.25
799.188	18034.27
799.519	17936.42
799.85	17804
800.182	17831.57
800.513	17848.29
800.844	17626.37
801.175	17724.9
801.506	17793.6
801.837	17640.61
802.168	17592.93
802.499	17555.19
802.83	17472.25
803.161	17422.99
803.491	17402.65
803.822	17279.72
804.153	17320.39
804.483	17169.66
804.814	17154.75
805.145	17106.84
805.475	17046.5
805.805	17009.89
806.136	16979.16
806.466	16934.19
806.796	16984.58
807.126	16786.62
807.457	16688.54
807.787	16735.32
808.117	16670.69
808.447	16669.79
808.777	16644.48
809.107	16499.62
809.436	16519.74
809.766	16524.48
810.096	16418.27
810.426	16306.41
810.755	16188.22
811.085	16309.12
811.414	16329.91
811.744	16239.29
812.073	16109.58
812.403	16133.08
812.732	16039.52
813.061	16044.04
813.39	15975.79
813.719	15900.32
814.049	16031.16
814.378	15894.21
814.707	15809.02
815.036	15821.67
815.365	15720.89
815.693	15599.76
816.022	15599.53
816.351	15598.86
816.68	15455.81
817.008	15501.23
817.337	15372.19
817.665	15339.2
817.994	15386.21
818.322	15282.48
818.651	15252.88
818.979	15270.95
819.307	15241.8
819.636	15216.04
819.964	15038.19
820.292	15154.35
820.62	15076.61
820.948	15054.91
821.276	15125.65
821.604	15018.98
821.932	15160.67
822.259	15157.74
822.587	15135.14
822.915	15072.09
823.243	15088.13
823.57	15056.27
823.898	15040.23
824.225	15044.75
824.553	14984.63
824.88	14957.74
825.207	15000.45
825.535	15000
825.862	15002.03
826.189	15024.63
826.516	15057.63
826.843	15130.62
827.17	15046.78
827.497	15068.7
827.824	15067.8
828.151	15055.37
828.478	15070.96
828.805	14995.03
829.131	15040.9
829.458	15043.62
829.785	14907.57
830.111	15047.68
830.438	15107.34
830.764	14966.56
831.09	15031.64
831.417	14936.05
831.743	14962.94
832.069	14974.69
832.395	14931.53
832.722	14950.51
833.048	14814.02
833.374	14857.18
833.7	14825.99
834.026	14789.39
834.351	14833
834.677	14870.29
835.003	14836.16
835.329	14836.62
835.654	14888.59
835.98	14746.67
836.306	14759.33
836.631	14618.09
836.956	14759.56
837.282	14726.34
837.607	14641.82
837.932	14641.59
838.258	14576.06
838.583	14599.79
838.908	14484.08
839.233	14558.66
839.558	14473.69
839.883	14403.86
840.208	14358.66
840.533	14425.55
840.858	14272.34
841.182	14353.24
841.507	14430.98
841.832	14174.03
842.156	14316.18
842.481	14221.94
842.805	14154.83
843.13	14226.01
843.454	14145.11
843.778	14091.1
844.103	14080.7
844.427	14032.57
844.751	13999.35
845.075	13999.12
845.399	13996.19
845.723	13842.29
846.047	13898.56
846.371	13786.93
846.695	13755.97
847.019	13692.46
847.343	13619.25
847.666	13533.37
847.99	13519.59
848.313	13411.57
848.637	13384.45
848.96	13357.56
849.284	13364.56
849.607	13183.1
849.931	13217.9
850.254	13047.06
850.577	13007.96
850.9	12933.84
851.223	12931.81
851.546	12887.29
851.869	12840.28
852.192	12841.87
852.515	12716.22
852.838	12743.79
853.161	12748.76
853.483	12621.98
853.806	12547.86
854.129	12501.31
854.451	12505.83
854.774	12473.06
855.096	12377.25
855.419	12438.26
855.741	12326.63
856.063	12243.92
856.385	12236.91
856.708	12142.22
857.03	12094.09
857.352	12185.61
857.674	12037.82
857.996	12088.44
858.318	12041.66
858.64	12025.84
858.961	11908.78
859.283	11923.25
859.605	11865.62
859.926	11848.45
860.248	11838.28
860.57	11813.19
860.891	11848.45
861.212	11725.06
861.534	11664.27
861.855	11622.91
862.176	11636.47
862.498	11631.95
862.819	11658.85
863.14	11539.98
863.461	11612.52
863.782	11507.44
864.103	11533.88
864.424	11449.81
864.745	11561.67
865.065	11430.38
865.386	11423.6
865.707	11390.15
866.027	11390.6
866.348	11384.5
866.668	11298.86
866.989	11306.09
867.309	11238.07
867.63	11242.59
867.95	11258.86
868.27	11223.83
868.59	11205.3
868.91	11147.67
869.23	11127.33
869.55	11096.37
869.87	11155.13
870.19	11132.08
870.51	11039.2
870.83	11180.67
871.15	11089.14
871.469	10992.2
871.789	11016.6
872.109	11081.69
872.428	10982.71
872.748	10999.65
873.067	10967.79
873.386	11007.34
873.706	10981.35
874.025	10935.25
874.344	10953.78
874.663	10935.93
874.982	10849.15
875.301	10845.08
875.62	10822.03
875.939	10796.04
876.258	10767.8
876.577	10695.71
876.896	10794.91
877.214	10672.88
877.533	10726.22
877.852	10705.88
878.17	10778.42
878.489	10740.45
878.807	10707.91
879.125	10676.95
879.444	10627.01
879.762	10603.73
880.08	10587.69
880.398	10462.27
880.716	10548.14
881.034	10537.07
881.352	10492.55
881.67	10497.52
881.988	10464.53
882.306	10412.1
882.624	10378.43
882.941	10327.58
883.259	10283.51
883.577	10258.88
883.894	10304.53
884.212	10317.41
884.529	10263.85
884.846	10264.08
885.164	10224.08
885.481	10227.7
885.798	10180.69
886.115	10118.32
886.432	10149.28
886.75	10073.58
887.067	10105.21
887.383	10022.5
887.7	10082.84
888.017	10021.37
888.334	9964.88
888.651	9963.52
888.967	9918.1
889.284	9874.94
889.6	9854.37
889.917	9792.68
890.233	9839.46
890.55	9752.68
890.866	9736.18
891.182	9707.26
891.498	9694.6
891.815	9660.03
892.131	9650.09
892.447	9659.35
892.763	9565.12
893.079	9553.14
893.395	9519.47
893.71	9511.56
894.026	9409.87
894.342	9438.11
894.657	9362.64
894.973	9375.29
895.289	9390.66
895.604	9365.12
895.92	9260.94
896.235	9255.75
896.55	9226.14
896.865	9192.7
897.181	9174.17
897.496	9086.71
897.811	9045.58
898.126	9095.07
898.441	9042.19
898.756	9007.84
899.071	9008.75
899.386	9035.19
899.7	8859.37
900.015	8910.67
900.33	8792.71
900.644	8825.7
900.959	8792.48
901.273	8754.97
901.588	8738.47
901.902	8647.63
902.216	8636.1
902.531	8630
902.845	8663.67
903.159	8580.73
903.473	8550.91
903.787	8481.98
904.101	8399.95
904.415	8472.26
904.729	8405.82
905.042	8321.53
905.356	8337.58
905.67	8339.84
905.984	8340.52
906.297	8328.54
906.611	8241.31
906.924	8227.07
907.237	8127.87
907.551	8140.07
907.864	8103.91
908.177	8139.62
908.491	8097.81
908.804	7972.39
909.117	8021.43
909.43	7945.5
909.743	7870.25
910.056	7910.02
910.368	7818.04
910.681	7820.75
910.994	7778.27
911.307	7762
911.619	7671.38
911.932	7697.59
912.244	7612.85
912.557	7642.23
912.869	7584.83
913.181	7548.67
913.494	7541.89
913.806	7429.8
914.118	7490.82
914.43	7488.56
914.742	7435
915.054	7385.51
915.366	7407.43
915.678	7253.09
915.99	7256.93
916.302	7253.54
916.613	7252.63
916.925	7196.82
917.236	7168.57
917.548	7107.33
917.859	7163.37
918.171	7092.64
918.482	7046.76
918.794	7016.48
919.105	7009.48
919.416	6949.59
919.727	6975.81
920.038	6926.77
920.349	6870.72
920.66	6863.94
920.971	6849.93
921.282	6844.06
921.593	6732.65
921.903	6673.67
922.214	6667.56
922.525	6649.94
922.835	6625.98
923.146	6590.28
923.456	6531.3
923.767	6525.42
924.077	6541.24
924.387	6505.31
924.697	6529.04
925.008	6477.97
925.318	6438.19
925.628	6383.05
925.938	6346.9
926.248	6342.83
926.558	6303.51
926.867	6290.85
927.177	6258.99
927.487	6224.19
927.796	6172.89
928.106	6186
928.416	6130.18
928.725	6129.5
929.034	6109.84
929.344	6095.15
929.653	6070.97
929.962	5999.33
930.271	6018.54
930.581	5994.14
930.89	5981.93
931.199	5860.81
931.508	5860.58
931.817	5917.98
932.125	5834.14
932.434	5833.91
932.743	5768.83
933.051	5715.05
933.36	5737.65
933.669	5666.24
933.977	5660.59
934.286	5685.44
934.594	5672.56
934.902	5623.07
935.21	5542.4
935.519	5579.46
935.827	5540.81
936.135	5492.45
936.443	5498.78
936.751	5494.71
937.059	5428.28
937.367	5417.2
937.674	5456.3
937.982	5414.94
938.29	5340.14
938.597	5379.01
938.905	5305.11
939.213	5265.34
939.52	5247.26
939.827	5298.11
940.135	5197.09
940.442	5197.55
940.749	5225.34
941.056	5136.31
941.363	5125.68
941.67	5090.88
941.977	5082.52
942.284	5074.16
942.591	5086.36
942.898	5020.6
943.205	5038.68
943.511	4971.11
943.818	4989.19
944.125	4944.22
944.431	4910.55
944.738	4880.95
945.044	4920.27
945.35	4864
945.657	4821.06
945.963	4803.21
946.269	4778.35
946.575	4798.24
946.881	4733.83
947.187	4753.26
947.493	4709.88
947.799	4690.22
948.105	4681.85
948.41	4654.51
948.716	4661.52
949.022	4635.3
949.327	4606.83
949.633	4537.68
949.938	4598.01
950.244	4516.43
950.549	4511.69
950.854	4494.29
951.16	4491.12
951.465	4462.88
951.77	4434.18
952.075	4380.39
952.38	4408.64
952.685	4384.01
952.99	4347.17
953.294	4336.33
953.599	4292.49
953.904	4339.49
954.209	4275.31
954.513	4261.3
954.818	4236.22
955.122	4224.24
955.426	4204.8
955.731	4224.92
956.035	4152.38
956.339	4171.13
956.643	4108.99
956.948	4160.29
957.252	4101.3
957.556	4085.03
957.86	4031.48
958.163	4049.1
958.467	4056.33
958.771	4055.88
959.075	4022.89
959.378	3971.82
959.682	4005.94
959.985	3946.05
960.289	3937.24
960.592	3868.32
960.896	3915.77
961.199	3888.2
961.502	3839.16
961.805	3850.69
962.108	3795.1
962.411	3800.97
962.714	3803.69
963.017	3777.7
963.32	3771.82
963.623	3752.39
963.926	3734.31
964.228	3701.99
964.531	3701.09
964.833	3727.08
965.136	3662.45
965.438	3633.75
965.741	3623.35
966.043	3594.43
966.345	3623.13
966.648	3607.98
966.95	3588.32
967.252	3586.52
967.554	3589.45
967.856	3561.21
968.158	3525.5
968.46	3493.18
968.761	3477.37
969.063	3490.25
969.365	3411.38
969.666	3447.31
969.968	3409.35
970.269	3411.15
970.571	3405.5
970.872	3384.04
971.174	3323.02
971.475	3356.24
971.776	3348.78
972.077	3331.38
972.378	3290.93
972.679	3258.84
972.98	3281.44
973.281	3270.82
973.582	3233.53
973.883	3265.39
974.183	3229.24
974.484	3204.38
974.785	3152.4
975.085	3187.66
975.386	3202.35
975.686	3142.01
975.986	3134.32
976.287	3161.67
976.587	3070.15
976.887	3082.57
977.187	3083.93
977.487	3089.58
977.787	3066.53
978.087	3021.78
978.387	3015.91
978.687	3024.72
978.987	2945.63
979.286	2988.79
979.586	2978.17
979.885	2977.72
980.185	2908.79
980.484	2890.94
980.784	2943.14
981.083	2878.29
981.382	2921
981.682	2884.39
981.981	2856.14
982.28	2824.73
982.579	2831.51
982.878	2841
983.177	2823.82
983.475	2822.69
983.774	2788.57
984.073	2795.8
984.372	2745.86
984.67	2769.81
984.969	2747.44
985.267	2724.62
985.566	2722.81
985.864	2714
986.162	2697.27
986.461	2666.54
986.759	2704.96
987.057	2655.24
987.355	2621.12
987.653	2661.34
987.951	2649.59
988.249	2620.44
988.547	2584.28
988.844	2601.91
989.142	2563.94
989.44	2542.02
989.737	2536.37
990.035	2540.22
990.332	2527.33
990.63	2508.35
990.927	2507.9
991.224	2501.35
991.521	2472.65
991.819	2498.41
992.116	2448.24
992.413	2431.97
992.71	2410.5
993.006	2405.53
993.303	2436.49
993.6	2417.96
993.897	2391.07
994.193	2341.8
994.49	2373.44
994.787	2319.66
995.083	2321.92
995.379	2344.97
995.676	2321.24
995.972	2322.82
996.268	2284.63
996.565	2272.2
996.861	2255.93
997.157	2305.87
997.453	2261.8
997.749	2244.63
998.044	2205.08
998.34	2237.62
998.636	2195.82
998.932	2215.03
999.227	2191.3
999.523	2154.24
999.818	2124.63
1000.114	2161.92
1000.409	2135.93
1000.704	2143.84
1001	2157.85
1001.295	2090.74
1001.59	2085.76
1001.885	2077.18
1002.18	2047.57
1002.475	2037.4
1002.77	2075.6
1003.065	2038.53
1003.359	2023.39
1003.654	2007.57
1003.949	2012.09
1004.243	2013.9
1004.538	1965.09
1004.832	1958.99
1005.127	2007.12
1005.421	1955.15
1005.715	1959.89
1006.009	1907.24
1006.304	1900.46
1006.598	1912.66
1006.892	1916.05
1007.186	1892.55
1007.48	1871.08
1007.773	1899.1
1008.067	1902.49
1008.361	1865.43
1008.655	1839.67
1008.948	1811.87
1009.242	1798.99
1009.535	1822.72
1009.829	1788.82
1010.122	1794.92
1010.415	1784.08
1010.708	1735.94
1011.001	1742.27
1011.295	1754.7
1011.588	1776.62
1011.881	1717.86
1012.173	1702.05
1012.466	1712.89
1012.759	1685.32
1013.052	1692.78
1013.344	1698.66
1013.637	1684.19
1013.93	1677.19
1014.222	1643.06
1014.514	1649.17
1014.807	1667.92
1015.099	1606.45
1015.391	1640.35
1015.683	1609.84
1015.976	1555.38
1016.268	1619.79
1016.56	1603.52
1016.851	1568.94
1017.143	1570.98
1017.435	1555.83
1017.727	1530.75
1018.018	1495.5
1018.31	1504.54
1018.602	1524.2
1018.893	1491.88
1019.185	1492.33
1019.476	1483.52
1019.767	1460.92
1020.058	1446.46
1020.35	1445.56
1020.641	1452.11
1020.932	1436.97
1021.223	1426.12
1021.514	1426.8
1021.804	1403.97
1022.095	1411.21
1022.386	1398.78
1022.677	1368.72
1022.967	1387.48
1023.258	1383.41
1023.548	1357.65
1023.839	1338.44
1024.129	1336.18
1024.419	1330.98
1024.709	1305.45
1025	1287.82
1025.29	1307.48
1025.58	1293.92
1025.87	1273.13
1026.16	1260.7
1026.449	1282.85
1026.739	1254.6
1027.029	1239.91
1027.319	1242.85
1027.608	1246.92
1027.898	1246.01
1028.187	1221.61
1028.477	1207.6
1028.766	1205.79
1029.055	1170.53
1029.344	1177.99
1029.634	1182.74
1029.923	1172.57
1030.212	1187.93
1030.501	1156.75
1030.79	1160.14
1031.078	1129.86
1031.367	1115.39
1031.656	1115.85
1031.945	1129.18
1032.233	1112.91
1032.522	1103.87
1032.81	1123.76
1033.099	1121.72
1033.387	1079.24
1033.675	1092.57
1033.963	1036.3
1034.251	1062.74
1034.54	1041.72
1034.828	1039.92
1035.116	1046.24
1035.403	1024.55
1035.691	1018
1035.979	1035.4
1036.267	1016.19
1036.554	1007.83
1036.842	1001.73
1037.129	980.93
1037.417	988.62
1037.704	996.3
1037.992	976.19
1038.279	963.76
1038.566	969.18
1038.853	969.18
1039.14	969.18
