Data from hue_36_FLMS001491_00089.txt Node
Date: Tue Feb 07 17:30:25 GMT 2017
User: dcchb
Spectrometer: FLMS00149
Trigger mode: 0
Integration Time (sec): 2.000000E-2
Scans to average: 10
Electric dark correction enabled: true
Nonlinearity correction enabled: false
Boxcar width: 0
XAxis mode: Wavelengths
Number of Pixels in Spectrum: 2048
>>>>>Begin Spectral Data<<<<<
341.393	-28.15
341.776	-28.15
342.16	-28.15
342.543	-65.89
342.927	-73.12
343.31	-54.81
343.693	-71.31
344.077	-76.74
344.46	-68.83
344.843	-79.67
345.226	-45.55
345.61	-19.79
345.993	-10.07
346.376	-20.01
346.759	13.43
347.142	40.1
347.525	44.17
347.908	64.05
348.291	79.64
348.674	91.17
349.057	114.22
349.44	109.93
349.823	148.12
350.206	146.99
350.588	194.9
350.971	213.88
351.354	228.57
351.737	217.95
352.119	247.1
352.502	262.46
352.884	269.24
353.267	279.87
353.65	307.66
354.032	299.3
354.414	304.05
354.797	308.34
355.179	331.39
355.562	338.85
355.944	319.86
356.326	335.68
356.709	355.8
357.091	334.78
357.473	340.65
357.855	346.08
358.238	342.46
358.62	351.73
359.002	333.88
359.384	343.14
359.766	343.59
360.148	353.76
360.53	331.39
360.912	331.62
361.294	330.03
361.676	318.28
362.057	325.29
362.439	321.45
362.821	329.13
363.203	335.01
363.584	331.62
363.966	324.84
364.348	324.16
364.729	322.35
365.111	323.71
365.493	333.88
365.874	327.55
366.256	320.99
366.637	326.19
367.019	334.1
367.4	330.71
367.781	309.24
368.163	329.36
368.544	285.06
368.925	313.99
369.306	310.6
369.688	325.97
370.069	337.94
370.45	337.94
370.831	330.26
371.212	321.22
371.593	318.73
371.974	299.75
372.355	310.6
372.736	320.32
373.117	289.81
373.498	294.78
373.879	295.68
374.26	302.92
374.641	318.96
375.021	310.37
375.402	337.72
375.783	302.01
376.163	325.06
376.544	318.28
376.925	325.74
377.305	331.84
377.686	325.97
378.066	323.25
378.447	341.11
378.827	332.29
379.208	330.03
379.588	317.15
379.968	326.87
380.349	337.27
380.729	336.81
381.109	318.28
381.489	330.71
381.87	333.42
382.25	345.85
382.63	317.15
383.01	333.65
383.39	343.59
383.77	333.88
384.15	346.76
384.53	325.06
384.91	345.63
385.29	359.41
385.67	340.65
386.049	342.46
386.429	364.84
386.809	350.37
387.189	365.51
387.568	347.43
387.948	368.68
388.328	354.21
388.707	356.02
389.087	344.95
389.466	365.96
389.846	358.51
390.225	367.55
390.605	336.14
390.984	363.71
391.363	353.99
391.743	361.9
392.122	360.99
392.501	369.13
392.881	355.12
393.26	357.38
393.639	351.95
394.018	377.04
394.397	371.39
394.776	371.39
395.155	372.07
395.534	360.54
395.913	377.94
396.292	367.55
396.671	373.2
397.05	381.78
397.429	367.55
397.808	381.78
398.186	390.15
398.565	373.65
398.944	408.45
399.323	393.31
399.701	387.21
400.08	385.4
400.458	393.53
400.837	389.24
401.215	395.79
401.594	370.03
401.972	386.76
402.351	405.06
402.729	373.2
403.107	415.68
403.486	382.24
403.864	411.61
404.242	386.53
404.62	403.93
404.999	395.79
405.377	406.42
405.755	395.34
406.133	415.68
406.511	417.26
406.889	415.46
407.267	403.93
407.645	428.79
408.023	421.1
408.401	430.14
408.779	430.37
409.156	405.96
409.534	420.65
409.912	422.46
410.29	424.95
410.667	439.41
411.045	451.84
411.422	448.22
411.8	461.56
412.178	469.47
412.555	459.3
412.933	470.82
413.31	438.73
413.687	464.04
414.065	455
414.442	446.87
414.819	459.52
415.197	473.76
415.574	464.95
415.951	485.96
416.328	472.85
416.705	449.58
417.082	444.38
417.46	490.03
417.837	492.06
418.214	494.55
418.591	494.78
418.967	462.91
419.344	502.01
419.721	500.42
420.098	484.38
420.475	480.76
420.852	501.78
421.228	500.42
421.605	500.65
421.982	508.11
422.358	509.69
422.735	515.57
423.111	511.95
423.488	518.96
423.864	526.86
424.241	528.9
424.617	524.6
424.994	543.14
425.37	530.03
425.746	537.71
426.123	533.64
426.499	525.96
426.875	542.01
427.251	538.39
427.627	562.8
428.003	551.95
428.379	572.74
428.756	556.69
429.132	573.87
429.507	553.76
429.883	590.14
430.259	581.1
430.635	577.26
431.011	559.86
431.387	584.94
431.763	612.51
432.138	605.05
432.514	602.12
432.89	598.95
433.265	621.33
433.641	592.17
434.016	615.45
434.392	631.72
434.767	633.53
435.143	636.47
435.518	639.18
435.894	648.22
436.269	659.29
436.644	635.79
437.02	652.74
437.395	654.09
437.77	674.21
438.145	680.53
438.52	661.1
438.895	682.34
439.271	689.57
439.646	683.92
440.021	714.88
440.395	704.04
440.77	688.67
441.145	695
441.52	721.21
441.895	702.68
442.27	733.19
442.645	717.59
443.019	693.41
443.394	713.75
443.769	744.94
444.143	717.37
444.518	735.45
444.892	760.3
445.267	725.28
445.641	746.29
446.016	761.43
446.39	753.98
446.764	759.85
447.139	751.49
447.513	743.36
447.887	775.67
448.262	765.95
448.636	774.54
449.01	781.1
449.384	757.82
449.758	794.43
450.132	756.01
450.506	800.08
450.88	812.05
451.254	789.23
451.628	794.88
452.002	812.28
452.376	834.65
452.75	812.51
453.123	824.71
453.497	828.1
453.871	852.73
454.244	843.92
454.618	856.12
454.992	858.16
455.365	903.8
455.739	896.8
456.112	912.39
456.486	886.18
456.859	909.68
457.232	912.39
457.606	912.39
457.979	906.97
458.352	958.72
458.725	946.51
459.099	966.18
459.472	971.37
459.845	980.86
460.218	991.71
460.591	989.9
460.964	997.81
461.337	1024.25
461.71	1029.22
462.083	1050.24
462.456	1036.91
462.829	1043.01
463.201	1072.84
463.574	1073.07
463.947	1041.2
464.32	1115.32
464.692	1128.43
465.065	1126.4
465.438	1114.87
465.81	1175.89
466.183	1148.32
466.555	1197.81
466.928	1191.03
467.3	1212.95
467.672	1236.9
468.045	1259.5
468.417	1266.05
468.789	1281.65
469.161	1286.84
469.534	1294.75
469.906	1324.13
470.278	1381.08
470.65	1387.41
471.022	1386.73
471.394	1400.51
471.766	1414.52
472.138	1437.12
472.51	1488.65
472.882	1483
473.253	1551.24
473.625	1552.83
473.997	1605.71
474.369	1595.54
474.74	1645.71
475.112	1679.6
475.484	1692.03
475.855	1747.4
476.227	1764.12
476.598	1807.06
476.97	1855.64
477.341	1928.18
477.713	1920.95
478.084	1979.48
478.455	2060.16
478.827	2073.49
479.198	2158.69
479.569	2191.45
479.94	2283.2
480.311	2286.14
480.682	2366.36
481.053	2432.58
481.424	2513.03
481.795	2525
482.166	2589.86
482.537	2655.62
482.908	2735.39
483.279	2803.19
483.65	2862.4
484.021	2954.82
484.391	2989.62
484.762	3100.13
485.133	3102.84
485.503	3203.86
485.874	3300.13
486.244	3344.87
486.615	3442.49
486.985	3577.41
487.356	3657.86
487.726	3736.5
488.097	3785.54
488.467	3838.42
488.837	3978.98
489.207	4042.48
489.578	4182.81
489.948	4266.88
490.318	4371.28
490.688	4372.41
491.058	4507.1
491.428	4630.71
491.798	4727.66
492.168	4806.75
492.538	4902.57
492.908	5039.74
493.278	5098.72
493.648	5139.62
494.017	5261.88
494.387	5358.15
494.757	5394.99
495.126	5490.12
495.496	5569.67
495.866	5617.58
496.235	5774.86
496.605	5889.66
496.974	5916.33
497.344	6018.92
497.713	6122.2
498.082	6198.13
498.452	6202.42
498.821	6324
499.19	6395.41
499.559	6478.35
499.928	6561.51
500.298	6687.61
500.667	6773.25
501.036	6754.27
501.405	6845.79
501.774	6911.56
502.143	6968.96
502.512	7108.39
502.88	7109.74
503.249	7154.49
503.618	7208.72
503.987	7306.57
504.356	7417.08
504.724	7467.25
505.093	7584.76
505.462	7638.09
505.83	7679.44
506.199	7752.66
506.567	7874.92
506.936	7838.54
507.304	7965.99
507.672	8041.92
508.041	8117.85
508.409	8127.79
508.777	8210.05
509.145	8268.36
509.514	8360.78
509.882	8400.1
510.25	8401.01
510.618	8426.32
510.986	8539.08
511.354	8675.13
511.722	8725.07
512.09	8836.93
512.458	8810.49
512.826	8883.71
513.193	8903.82
513.561	8954.21
513.929	9076.47
514.297	9198.95
514.664	9156.69
515.032	9205.51
515.4	9273.75
515.767	9417.25
516.135	9416.57
516.502	9438.27
516.869	9596.91
517.237	9546.74
517.604	9565.95
517.972	9633.29
518.339	9773.4
518.706	9771.37
519.073	9824.02
519.44	9907.63
519.808	9971.59
520.175	9960.74
520.542	10110.57
520.909	10052.94
521.276	10164.58
521.643	10273.95
522.009	10360.96
522.376	10401.86
522.743	10393.27
523.11	10498.81
523.477	10699.48
523.843	10655.64
524.21	10828.97
524.577	10940.6
524.943	10882.98
525.31	10901.28
525.676	10986.93
526.043	11113.93
526.409	11126.13
526.776	11213.82
527.142	11275.06
527.508	11309.41
527.874	11426.47
528.241	11474.15
528.607	11506.01
528.973	11647.93
529.339	11645.67
529.705	11779.68
530.071	11838.88
530.437	11958.43
530.803	11990.97
531.169	12018.99
531.535	12065.77
531.901	12075.26
532.267	12160.68
532.632	12276.39
532.998	12260.79
533.364	12367.91
533.73	12411.98
534.095	12502.14
534.461	12559.77
534.826	12607.45
535.192	12614.91
535.557	12700.78
535.923	12750.5
536.288	12752.76
536.653	12884.96
537.019	12839.31
537.384	12889.25
537.749	12982.81
538.114	13010.38
538.479	13086.53
538.845	13155.46
539.21	13120.66
539.575	13241.33
539.94	13348
540.305	13383.7
540.67	13319.3
541.034	13461.89
541.399	13350.71
541.764	13559.74
542.129	13512.29
542.494	13639.51
542.858	13619.18
543.223	13702.79
543.587	13727.87
543.952	13753.86
544.316	13884.71
544.681	13896.68
545.045	13916.57
545.41	13992.73
545.774	14085.15
546.138	14083.34
546.503	14136.68
546.867	14101.65
547.231	14334.86
547.595	14338.25
547.959	14331.7
548.324	14385.48
548.688	14429.1
549.052	14524.24
549.416	14601.52
549.779	14557.68
550.143	14592.26
550.507	14677.91
550.871	14803.78
551.235	14734.17
551.599	14881.97
551.962	14894.85
552.326	14988.18
552.689	15074.05
553.053	15016.43
553.417	15064.34
553.78	15197.67
554.143	15145.69
554.507	15219.13
554.87	15229.98
555.234	15403.99
555.597	15381.62
555.96	15383.88
556.323	15429.52
556.686	15481.5
557.05	15565.11
557.413	15654.15
557.776	15649.86
558.139	15871.77
558.502	15780.25
558.865	15887.14
559.228	16058.21
559.59	16018.66
559.953	16066.57
560.316	16163.97
560.679	16184.76
561.041	16337.52
561.404	16346.79
561.767	16480.12
562.129	16417.97
562.492	16607.12
562.854	16554.24
563.217	16575.48
563.579	16646.89
563.941	16775.7
564.304	16805.98
564.666	16960.78
565.028	16891.63
565.39	17019.54
565.753	17144.05
566.115	17127.33
566.477	17202.13
566.839	17227.44
567.201	17401.68
567.563	17438.28
567.925	17491.84
568.287	17572.74
568.648	17594.66
569.01	17752.85
569.372	17804.83
569.734	17770.48
570.095	17958.72
570.457	18031.49
570.819	18015.22
571.18	18049.34
571.542	18215.44
571.903	18218.6
572.265	18250.69
572.626	18348.54
572.987	18377.47
573.349	18499.5
573.71	18568.2
574.071	18675.31
574.432	18774.97
574.794	18951.46
575.155	19015.87
575.516	19011.12
575.877	19078.69
576.238	19177
576.599	19329.08
576.96	19322.53
577.32	19372.7
577.681	19654.05
578.042	19757.77
578.403	19759.13
578.763	19938.56
579.124	20198.44
579.485	20286.8
579.845	20447.24
580.206	20490.86
580.566	20673.45
580.927	20794.58
581.287	20974.01
581.648	20998.64
582.008	21326.32
582.368	21290.84
582.728	21618.74
583.089	21713.43
583.449	21927.66
583.809	22066.41
584.169	22212.85
584.529	22423.46
584.889	22751.59
585.249	22747.3
585.609	22935.77
585.969	23229.09
586.329	23227.74
586.688	23552.93
587.048	23686.03
587.408	23869.3
587.768	24177.09
588.127	24243.76
588.487	24447.82
588.846	24736.62
589.206	24956.05
589.565	25101.36
589.925	25458.41
590.284	25551.29
590.643	25836.03
591.003	26007.1
591.362	26410.48
591.721	26524.6
592.08	26776.57
592.44	26925.27
592.799	27176.11
593.158	27317.8
593.517	27514.86
593.876	27865.58
594.235	27943.54
594.593	28251.56
594.952	28443.87
595.311	28608.16
595.67	29002.05
596.029	29251.53
596.387	29419.21
596.746	29647.45
597.104	29676.83
597.463	29952.08
597.822	30144.62
598.18	30300.55
598.538	30595.9
598.897	30891.26
599.255	30786.41
599.613	31403.57
599.972	31428.43
600.33	31631.13
600.688	31710
601.046	32008.3
601.404	32387.04
601.762	32255.52
602.12	32599.02
602.478	32948.16
602.836	33067.7
603.194	32998.1
603.552	33304.08
603.91	33265.44
604.268	33662.94
604.625	33662.72
604.983	34015.25
605.341	33923.5
605.698	34210.05
606.056	34534.56
606.413	34472.86
606.771	34716.7
607.128	34945.85
607.485	34891.16
607.843	35132.28
608.2	35425.38
608.557	35568.2
608.914	35467.41
609.272	35897.91
609.629	36042.77
609.986	36298.13
610.343	36137
610.7	36491.57
611.057	36584.67
611.414	36591.23
611.771	36791.9
612.127	37010.43
612.484	37162.96
612.841	37247.26
613.198	37273.7
613.554	37458.32
613.911	37556.4
614.267	37673.23
614.624	37733.57
614.98	37954.58
615.337	38012.66
615.693	38112.09
616.05	38181.92
616.406	38537.16
616.762	38519.31
617.118	38463.27
617.475	38511.85
617.831	38751.4
618.187	38809.7
618.543	38971.05
618.899	39111.16
619.255	39083.59
619.611	39124.95
619.967	39287.88
620.323	39570.81
620.678	39305.73
621.034	39195.45
621.39	39478.38
621.746	39486.29
622.101	39861.42
622.457	39578.04
622.812	39716.34
623.168	39841.99
623.523	40002.21
623.879	40081.53
624.234	39929.44
624.589	40103.68
624.945	40023.91
625.3	40274.07
625.655	40228.19
626.01	40392.26
626.365	40476.55
626.72	40389.32
627.075	40368.98
627.43	40428.87
627.785	40328.76
628.14	40405.14
628.495	40450.79
628.85	40375.99
629.205	40372.82
629.559	40480.84
629.914	40407.17
630.269	40550.45
630.623	40468.41
630.978	40564.23
631.332	40636.32
631.687	40658.24
632.041	40449.2
632.396	40557.22
632.75	40542.31
633.104	40582.53
633.459	40493.95
633.813	40466.61
634.167	40654.62
634.521	40551.35
634.875	40667.05
635.229	40425.25
635.583	40463.44
635.937	40467.51
636.291	40413.95
636.645	40456.44
636.999	40354.74
637.352	40524.68
637.706	40361.75
638.06	40533.5
638.413	40461.41
638.767	40281.98
639.121	40369.43
639.474	40204.01
639.828	40177.57
640.181	40172.83
640.534	40384.57
640.888	40229.32
641.241	39992.04
641.594	40160.85
641.947	40348.87
642.301	40295.31
642.654	40269.32
643.007	40261.19
643.36	40238.14
643.713	40125.15
644.066	40225.26
644.419	39885.6
644.771	39803.8
645.124	39366.97
645.477	39292.17
645.83	39086.08
646.182	38964.72
646.535	38966.76
646.888	39020.77
647.24	38893.99
647.593	39133.31
647.945	38964.27
648.298	38846.54
648.65	38720.44
649.002	38730.15
649.355	38853.54
649.707	38768.8
650.059	38738.74
650.411	39271.16
650.763	39427.99
651.115	39777.13
651.467	39577.14
651.819	39712.5
652.171	39487.65
652.523	39478.61
652.875	39493.07
653.227	39269.8
653.578	39435.67
653.93	39455.11
654.282	39254.43
654.633	39169.24
654.985	39262.34
655.337	39327.43
655.688	39327.65
656.039	39526.97
656.391	39246.98
656.742	39126.53
657.094	39237.03
657.445	39282.91
657.796	39266.64
658.147	39290.14
658.498	39286.75
658.849	39350.93
659.2	39179.86
659.551	39154.78
659.902	39425.95
660.253	39188.45
660.604	39328.78
660.955	39060.54
661.306	39239.97
661.656	39129.24
662.007	39224.15
662.358	39197.26
662.708	38981.22
663.059	39154.32
663.409	38903.03
663.76	39169.24
664.11	39289.24
664.461	39190.71
664.811	39102.35
665.161	39208.11
665.511	38987.77
665.862	38903.03
666.212	39077.49
666.562	39144.83
666.912	39013.08
667.262	38989.13
667.612	39104.83
667.962	39016.25
668.312	39070.94
668.662	39371.72
669.011	39076.81
669.361	38999.75
669.711	38976.48
670.06	38884.05
670.41	38901.67
670.76	38748.01
671.109	38995.01
671.459	38970.15
671.808	38719.98
672.157	38928.34
672.507	38672.3
672.856	38714.56
673.205	38836.37
673.554	38952.52
673.904	38718.85
674.253	38844.73
674.602	38907.55
674.951	38270.73
675.3	38095.37
675.649	38751.85
675.998	38782.13
676.346	38575.36
676.695	38832.3
677.044	38473.66
677.393	38648.57
677.741	38597.5
678.09	38601.34
678.438	38557.28
678.787	38503.49
679.135	38478.18
679.484	38316.61
679.832	38465.53
680.181	38285.42
680.529	38335.59
680.877	38287.91
681.225	38165.65
681.573	38368.36
681.922	38136.05
682.27	37988.7
682.618	38022.6
682.966	37995.71
683.314	38006.78
683.661	37818.31
684.009	37714.14
684.357	37587.13
684.705	37553.46
685.053	37659.45
685.4	37499.68
685.748	37409.28
686.095	37331.77
686.443	37374.71
686.79	37138.56
687.138	37336.07
687.485	37372.9
687.832	37206.35
688.18	37243.64
688.527	37020.82
688.874	37040.71
689.221	36867.38
689.568	36743.31
689.915	36674.84
690.262	36694.05
690.609	36732.69
690.956	36487.05
691.303	36494.28
691.65	36332.02
691.997	36370.22
692.344	36172.93
692.69	36087.06
693.037	36104.46
693.383	35928.42
693.73	36053.16
694.077	35767.29
694.423	35745.83
694.769	35670.57
695.116	35730.91
695.462	35559.62
695.808	35478.49
696.155	35497.7
696.501	35237.59
696.847	35186.52
697.193	34947.65
697.539	35255.22
697.885	34927.99
698.231	34854.78
698.577	34846.19
698.923	34770.48
699.269	34532.98
699.614	34353.55
699.96	34385.41
700.306	34324.39
700.651	34160.78
700.997	34080.78
701.342	34125.53
701.688	34134.12
702.033	33881.92
702.379	33828.81
702.724	33719.44
703.069	33839.44
703.415	33528.48
703.76	33541.59
704.105	33542.27
704.45	33411.88
704.795	33149.28
705.14	33167.36
705.485	33173.24
705.83	33064.09
706.175	33046.24
706.52	32912.68
706.865	32690.99
707.209	32839.69
707.554	32769.18
707.899	32851.21
708.243	32448.06
708.588	32550.88
708.932	32232.7
709.277	32373.26
709.621	32343.43
709.966	32194.51
710.31	32200.38
710.654	31947.06
710.998	32109.99
711.342	32111.34
711.687	31827.06
712.031	31875.19
712.375	31758.59
712.719	31738.47
713.063	31656.44
713.407	31691.02
713.75	31584.13
714.094	31496.22
714.438	31343.91
714.782	31392.95
715.125	31145.95
715.469	31324.02
715.812	31132.39
716.156	31028.21
716.499	31028.44
716.843	30938.95
717.186	30807.2
717.53	30911.83
717.873	30831.38
718.216	30879.51
718.559	30607.88
718.902	30437.04
719.246	30575.11
719.589	30457.15
719.932	30357.72
720.275	30229.13
720.617	30246.31
720.96	30287.21
721.303	30391.62
721.646	30249.25
721.989	30103.49
722.331	30087.22
722.674	29978.75
723.016	30095.8
723.359	29915.24
723.701	30060.33
724.044	29772.2
724.386	29714.8
724.729	29802.93
725.071	29740.56
725.413	29736.04
725.755	29671.41
726.097	29566.33
726.439	29412.66
726.782	29513.9
727.124	29546.89
727.465	29357.52
727.807	29317.29
728.149	29325.88
728.491	29274.13
728.833	29348.03
729.175	29198.43
729.516	29113.91
729.858	29094.02
730.199	29057.87
730.541	29028.26
730.882	29013.12
731.224	29030.3
731.565	28765.67
731.906	28771.77
732.248	28892.45
732.589	28601.61
732.93	28664.43
733.271	28663.07
733.612	28655.62
733.953	28766.8
734.294	28505.11
734.635	28494.04
734.976	28486.36
735.317	28335.4
735.658	28428.96
735.999	28426.92
736.339	28262.18
736.68	28397.77
737.021	28277.77
737.361	28144.67
737.702	28229.19
738.042	28175.63
738.383	27967.05
738.723	28042.53
739.063	27969.76
739.404	28088.63
739.744	27985.13
740.084	27820.16
740.424	27928.4
740.764	27854.73
741.104	27926.6
741.444	27734.96
741.784	27706.49
742.124	27771.12
742.464	27633.27
742.804	27665.81
743.143	27546.27
743.483	27527.51
743.823	27442.77
744.162	27505.14
744.502	27373.62
744.841	27403.9
745.181	27388.98
745.52	27290.91
745.86	27307.63
746.199	27317.57
746.538	27176.33
746.877	27330.68
747.216	27322.54
747.556	27097.47
747.895	27147.41
748.234	26957.58
748.573	26949.9
748.911	26954.64
749.25	26951.03
749.589	26801.88
749.928	26843.91
750.267	26770.24
750.605	26677.36
750.944	26645.05
751.283	26505.62
751.621	26645.95
751.96	26405.28
752.298	26523.02
752.636	26489.57
752.975	26385.17
753.313	26245.51
753.651	26436.24
753.989	26291.38
754.327	26251.84
754.666	26099.53
755.004	26130.94
755.342	26110.6
755.679	26039.64
756.017	25900.89
756.355	26030.6
756.693	25886.88
757.031	25888.68
757.368	25700.89
757.706	25667.45
758.044	25581.8
758.381	25628.58
758.719	25547
759.056	25446.66
759.394	25422.26
759.731	25233.33
760.068	25330.73
760.405	25100
760.743	25119.66
761.08	25156.27
761.417	24980.68
761.754	24960.57
762.091	24905.88
762.428	24714.7
762.765	24705.89
763.102	24653.91
763.438	24625.21
763.775	24463.86
764.112	24442.17
764.449	24377.54
764.785	24244.43
765.122	24243.53
765.458	24138.9
765.795	24144.32
766.131	24046.92
766.467	24038.11
766.804	23900.94
767.14	23714.05
767.476	23859.81
767.812	23615.52
768.148	23717.44
768.485	23484.45
768.821	23371.01
769.157	23197
769.492	23309.99
769.828	23271.8
770.164	23039.95
770.5	22985.26
770.836	22977.35
771.171	22850.12
771.507	22814.41
771.842	22613.97
772.178	22681.99
772.513	22600.18
772.849	22502.33
773.184	22338.04
773.519	22470.24
773.855	22337.36
774.19	22201.55
774.525	22104.38
774.86	22067.77
775.195	22039.75
775.53	21929.47
775.865	21904.16
776.2	21613.32
776.535	21616.25
776.87	21631.85
777.205	21421.91
777.539	21358.18
777.874	21457.16
778.209	21213.1
778.543	21184.85
778.878	21097.17
779.212	20961.13
779.547	20863.96
779.881	20948.47
780.215	20800.23
780.55	20864.41
780.884	20677.97
781.218	20592.78
781.552	20520.92
781.886	20485.89
782.22	20367.92
782.554	20369.96
782.888	20138.1
783.222	20062.17
783.556	20100.36
783.889	19926.58
784.223	19919.12
784.557	19869.41
784.89	19866.02
785.224	19708.06
785.557	19679.36
785.891	19587.38
786.224	19558.91
786.558	19478
786.891	19327.73
787.224	19296.09
787.557	19152.36
787.891	19186.26
788.224	19143.55
788.557	19058.35
788.89	19023.1
789.223	19043.89
789.556	18846.16
789.888	18813.84
790.221	18816.33
790.554	18653.17
790.887	18612.49
791.219	18481.19
791.552	18511.7
791.884	18378.6
792.217	18314.87
792.549	18334.31
792.882	18186.29
793.214	18043.01
793.546	18079.4
793.879	18039.85
794.211	17965.28
794.543	18015.44
794.875	17838.27
795.207	17897.26
795.539	17731.61
795.871	17740.42
796.203	17612.07
796.535	17578.39
796.867	17384.5
797.198	17443.03
797.53	17419.75
797.862	17302.02
798.193	17320.77
798.525	17262.92
798.856	17230.15
799.188	17048.24
799.519	16968.92
799.85	16868.36
800.182	16953.33
800.513	16871.52
800.844	16749.71
801.175	16910.61
801.506	16827
801.837	16684.41
802.168	16647.12
802.499	16628.36
802.83	16582.94
803.161	16445.32
803.491	16467.69
803.822	16466.78
804.153	16282.61
804.483	16204.19
804.814	16221.82
805.145	16181.37
805.475	16253.68
805.805	16041.94
806.136	16067.25
806.466	16104.76
806.796	16019.56
807.126	15875.84
807.457	15895.5
807.787	15859.12
808.117	15722.17
808.447	15704.09
808.777	15757.88
809.107	15633.59
809.436	15657.77
809.766	15582.51
810.096	15585.23
810.426	15447.38
810.755	15500.26
811.085	15455.29
811.414	15367.15
811.744	15271.79
812.073	15284.44
812.403	15293.93
812.732	15143.2
813.061	15146.59
813.39	15081.74
813.719	15057.78
814.049	15097.56
814.378	14978.24
814.707	14992.92
815.036	14940.5
815.365	14893.94
815.693	14810.1
816.022	14836.54
816.351	14730.33
816.68	14681.29
817.008	14707.73
817.337	14634.97
817.665	14503.67
817.994	14597
818.322	14604.01
818.651	14499.6
818.979	14403.34
819.307	14476.78
819.636	14352.04
819.964	14303.45
820.292	14372.83
820.62	14303.9
820.948	14275.66
821.276	14404.24
821.604	14332.6
821.932	14418.25
822.259	14342.32
822.587	14246.05
822.915	14294.86
823.243	14314.07
823.57	14228.2
823.898	14243.11
824.225	14244.47
824.553	14218.26
824.88	14199.27
825.207	14291.47
825.535	14209.44
825.862	14203.79
826.189	14194.53
826.516	14255.09
826.843	14270.01
827.17	14174.87
827.497	14225.49
827.824	14204.02
828.151	14225.26
828.478	14167.86
828.805	14220.74
829.131	14231.14
829.458	14165.38
829.785	14202.66
830.111	14135.09
830.438	14183.68
830.764	14193.17
831.09	14159.73
831.417	14106.62
831.743	14141.87
832.069	14066.85
832.395	14091.25
832.722	14099.16
833.048	14060.52
833.374	14035.89
833.7	13952.95
834.026	14057.13
834.351	14086.51
834.677	13992.5
835.003	14098.94
835.329	14041.76
835.654	14019.17
835.98	13906.4
836.306	13918.15
836.631	13922.9
836.956	13904.59
837.282	13912.5
837.607	13775.56
837.932	13851.71
838.258	13809.91
838.583	13758.83
838.908	13683.35
839.233	13709.57
839.558	13724.71
839.883	13690.13
840.208	13624.37
840.533	13635.45
840.858	13579.4
841.182	13647.65
841.507	13591.38
841.832	13512.96
842.156	13465.96
842.481	13617.59
842.805	13394.32
843.13	13415.57
843.454	13437.49
843.778	13370.37
844.103	13328.79
844.427	13284.72
844.751	13273.65
845.075	13223.93
845.399	13166.08
845.723	13115.01
846.047	13063.26
846.371	13039.98
846.695	13068.68
847.019	12936.93
847.343	12848.57
847.666	12819.65
847.99	12834.34
848.313	12675.92
848.637	12765.41
848.96	12663.04
849.284	12614.23
849.607	12551.41
849.931	12539.43
850.254	12387.12
850.577	12372.2
850.9	12249.49
851.223	12249.49
851.546	12227.35
851.869	12178.08
852.192	12150.06
852.515	12050.86
852.838	12037.52
853.161	12012.44
853.483	11948.94
853.806	11850.63
854.129	11864.65
854.451	11807.25
854.774	11776.74
855.096	11707.59
855.419	11708.49
855.741	11720.69
856.063	11666.46
856.385	11624.65
856.708	11547.82
857.03	11515.73
857.352	11480.02
857.674	11380.14
857.996	11484.09
858.318	11405
858.64	11347.15
858.961	11256.98
859.283	11323.87
859.605	11258.11
859.926	11245.68
860.248	11192.57
860.57	11148.73
860.891	11139.24
861.212	11073.03
861.534	11101.28
861.855	11005.46
862.176	11088.17
862.498	11090.43
862.819	11060.37
863.14	11020.6
863.461	10940.38
863.782	10947.16
864.103	10918.68
864.424	10922.98
864.745	10879.59
865.065	10788.74
865.386	10801.4
865.707	10768.86
866.027	10817.89
866.348	10811.57
866.668	10774.28
866.989	10710.55
867.309	10708.97
867.63	10690.21
867.95	10719.82
868.27	10655.19
868.59	10646.37
868.91	10573.61
869.23	10604.57
869.55	10588.07
869.87	10642.08
870.19	10552.59
870.51	10644.11
870.83	10621.29
871.15	10513.72
871.469	10504.68
871.789	10511.91
872.109	10426.94
872.428	10448.86
872.748	10429.88
873.067	10453.61
873.386	10383.1
873.706	10410.9
874.025	10279.15
874.344	10311.92
874.663	10324.57
874.982	10238.93
875.301	10306.95
875.62	10270.34
875.939	10191.47
876.258	10232.37
876.577	10165.48
876.896	10131.36
877.214	10179.04
877.533	10162.77
877.852	10204.35
878.17	10185.37
878.489	10134.52
878.807	10113.51
879.125	10033.51
879.444	10115.54
879.762	10020.63
880.08	10012.72
880.398	9966.84
880.716	9988.31
881.034	9985.15
881.352	9941.98
881.67	9959.84
881.988	9925.49
882.306	9850.91
882.624	9849.11
882.941	9739.73
883.259	9801.65
883.577	9779.95
883.894	9697.25
884.212	9767.75
884.529	9679.62
884.846	9781.08
885.164	9625.83
885.481	9677.13
885.798	9726.17
886.115	9577.47
886.432	9618.6
886.75	9503.13
887.067	9572.95
887.383	9520.98
887.7	9495.44
888.017	9449.57
888.334	9428.33
888.651	9476.69
888.967	9510.58
889.284	9309.68
889.6	9374.99
889.917	9273.75
890.233	9335.67
890.55	9243.02
890.866	9238.95
891.182	9233.98
891.498	9135
891.815	9160.08
892.131	9074.44
892.447	9151.5
892.763	9123.47
893.079	9031.05
893.395	9007.77
893.71	8977.49
894.026	8997.6
894.342	8990.37
894.657	8862.46
894.973	8855.23
895.289	8901.79
895.604	8891.62
895.92	8808.23
896.235	8779.08
896.55	8740.89
896.865	8746.31
897.181	8700.44
897.496	8704.73
897.811	8707.89
898.126	8683.49
898.441	8537.05
898.756	8588.8
899.071	8527.11
899.386	8492.53
899.7	8385.19
900.015	8394.23
900.33	8327.79
900.644	8400.56
900.959	8334.12
901.273	8350.16
901.588	8267.9
901.902	8155.14
902.216	8187.68
902.531	8202.37
902.845	8136.61
903.159	8070.4
903.473	8119.21
903.787	8025.42
904.101	8010.51
904.415	8015.03
904.729	7942.71
905.042	7956.5
905.356	7889.38
905.67	7857.97
905.984	7894.81
906.297	7841.25
906.611	7791.08
906.924	7784.53
907.237	7786.11
907.551	7744.3
907.864	7711.31
908.177	7679.44
908.491	7577.3
908.804	7610.07
909.117	7561.03
909.43	7484.42
909.743	7513.8
910.056	7482.39
910.368	7449.17
910.681	7387.25
910.994	7382.05
911.307	7312.9
911.619	7268.38
911.932	7308.83
912.244	7230.42
912.557	7263.64
912.869	7173.7
913.181	7227.93
913.494	7177.54
913.806	7118.78
914.118	7131.44
914.43	7075.62
914.742	7002.17
915.054	7012.12
915.366	6999.69
915.678	6912.23
915.99	6938.45
916.302	6843.76
916.613	6798.34
916.925	6823.65
917.236	6853.93
917.548	6776.64
917.859	6776.19
918.171	6700.04
918.482	6711.11
918.794	6656.87
919.105	6662.97
919.416	6593.82
919.727	6591.79
920.038	6572.58
920.349	6433.83
920.66	6495.75
920.971	6430.66
921.282	6446.94
921.593	6398.8
921.903	6364.9
922.214	6412.81
922.525	6292.14
922.835	6311.57
923.146	6237
923.456	6237.45
923.767	6209.43
924.077	6203.33
924.387	6156.1
924.697	6163.78
925.008	6122.88
925.318	6109.54
925.628	6087.4
925.938	6047.62
926.248	5974.63
926.558	5945.48
926.867	5943.22
927.177	5954.97
927.487	5955.2
927.796	5890.34
928.106	5859.15
928.416	5858.93
928.725	5848.53
929.034	5792.04
929.344	5775.99
929.653	5738.48
929.962	5788.65
930.271	5691.02
930.581	5666.16
930.89	5652.38
931.199	5647.63
931.508	5641.31
931.817	5583.91
932.125	5559.05
932.434	5526.96
932.743	5461.2
933.051	5444.02
933.36	5485.83
933.669	5395.44
933.977	5436.79
934.286	5357.25
934.594	5367.42
934.902	5331.71
935.21	5317.7
935.519	5314.76
935.827	5309.79
936.135	5265.95
936.443	5162.9
936.751	5199.96
937.059	5210.13
937.367	5177.14
937.674	5191.83
937.982	5122.9
938.29	5103.47
938.597	5070.25
938.905	5017.59
939.213	5016.69
939.52	4959.06
939.827	5009.68
940.135	4999.97
940.442	4956.8
940.749	4943.92
941.056	4968.1
941.363	4882.46
941.67	4904.38
941.977	4856.47
942.284	4798.16
942.591	4786.41
942.898	4829.8
943.205	4811.5
943.511	4774.89
943.818	4717.71
944.125	4692.4
944.431	4695.34
944.738	4698.96
945.044	4611.28
945.35	4652.86
945.657	4609.47
945.963	4560.2
946.269	4594.1
946.575	4532.41
946.881	4541.67
947.187	4523.6
947.493	4502.58
947.799	4474.11
948.105	4396.37
948.41	4395.46
948.716	4382.13
949.022	4401.34
949.327	4352.3
949.633	4294.9
949.938	4341.23
950.244	4299.65
950.549	4266.88
950.854	4265.3
951.16	4258.74
951.465	4244.06
951.77	4235.92
952.075	4156.15
952.38	4200.44
952.685	4192.76
952.99	4117.28
953.294	4147.33
953.599	4112.31
953.904	4099.65
954.209	4081.57
954.513	4074.12
954.818	4043.38
955.122	4002.03
955.426	4002.25
955.731	3989.37
956.035	3969.26
956.339	3949.15
956.643	3929.71
956.948	3943.05
957.252	3925.65
957.556	3922.48
957.86	3862.6
958.163	3866.66
958.467	3842.48
958.771	3845.2
959.075	3821.47
959.378	3796.61
959.682	3804.07
959.985	3747.34
960.289	3699.66
960.592	3701.92
960.896	3729.72
961.199	3682.71
961.502	3679.55
961.805	3670.74
962.108	3614.69
962.411	3622.15
962.714	3604.98
963.017	3616.73
963.32	3581.25
963.623	3584.86
963.926	3559.1
964.228	3521.59
964.531	3507.13
964.833	3515.03
965.136	3481.82
965.438	3451.31
965.741	3437.52
966.043	3437.75
966.345	3426.22
966.648	3418.54
966.95	3383.06
967.252	3371.99
967.554	3340.35
967.856	3348.71
968.158	3303.97
968.46	3301.71
968.761	3325.21
969.063	3301.93
969.365	3314.81
969.666	3267.81
969.968	3241.14
970.269	3247.92
970.571	3221.71
970.872	3211.09
971.174	3195.72
971.475	3176.96
971.776	3100.36
972.077	3164.76
972.378	3170.64
972.679	3155.27
972.98	3155.72
973.281	3098.55
973.582	3097.19
973.883	3046.12
974.183	3056.52
974.484	3074.14
974.785	3049.06
975.085	3021.49
975.386	3033.01
975.686	2995.73
975.986	3020.81
976.287	2954.82
976.587	2932
976.887	2945.78
977.187	2925.9
977.487	2931.55
977.787	2879.12
978.087	2907.37
978.387	2902.85
978.687	2856.97
978.987	2859.91
979.286	2848.84
979.586	2815.17
979.885	2794.6
980.185	2765.68
980.484	2779.69
980.784	2765.9
981.083	2804.77
981.382	2765.22
981.682	2761.16
981.981	2743.76
982.28	2726.58
982.579	2717.32
982.878	2703.08
983.177	2691.33
983.475	2687.26
983.774	2666.47
984.073	2662.85
984.372	2606.13
984.67	2621.27
984.969	2578.11
985.267	2588.28
985.566	2577.88
985.864	2588.96
986.162	2574.49
986.461	2545.57
986.759	2544.89
987.057	2508.06
987.355	2524.78
987.653	2480.49
987.951	2478
988.249	2487.72
988.547	2520.03
988.844	2434.39
989.142	2470.77
989.44	2442.29
989.737	2464.44
990.035	2412.69
990.332	2399.36
990.63	2396.19
990.927	2350.77
991.224	2402.52
991.521	2372.92
991.819	2353.48
992.116	2365.91
992.413	2311.68
992.71	2285.69
993.006	2279.36
993.303	2307.83
993.6	2280.04
993.897	2253.82
994.193	2272.13
994.49	2287.04
994.787	2232.58
995.083	2199.82
995.379	2212.92
995.676	2217.89
995.972	2183.32
996.268	2204.79
996.565	2205.69
996.861	2170.66
997.157	2174.28
997.453	2150.32
997.749	2161.62
998.044	2118.46
998.34	2140.38
998.636	2129.99
998.932	2103.55
999.227	2058.58
999.523	2059.25
999.818	2028.52
1000.114	2052.93
1000.409	2019.93
1000.704	2027.39
1001	2008.63
1001.295	2007.5
1001.59	1991.68
1001.885	2002.53
1002.18	2010.44
1002.475	1992.36
1002.77	1956.43
1003.065	1952.82
1003.359	1897.22
1003.654	1915.08
1003.949	1925.47
1004.243	1925.7
1004.538	1884.34
1004.832	1923.89
1005.127	1873.27
1005.421	1890.44
1005.715	1875.98
1006.009	1859.49
1006.304	1856.1
1006.598	1801.18
1006.892	1828.53
1007.186	1807.51
1007.48	1787.85
1007.773	1792.59
1008.067	1780.62
1008.361	1771.35
1008.655	1766.83
1008.948	1770.9
1009.242	1754.4
1009.535	1748.75
1009.829	1725.7
1010.122	1697.68
1010.415	1690
1010.708	1682.09
1011.001	1696.1
1011.295	1673.28
1011.588	1656.33
1011.881	1649.77
1012.173	1648.19
1012.466	1593.28
1012.759	1629.21
1013.052	1631.24
1013.344	1585.14
1013.637	1596.44
1013.93	1575.2
1014.222	1582.43
1014.514	1592.83
1014.807	1552.6
1015.099	1546.95
1015.391	1530.45
1015.683	1518.25
1015.976	1535.2
1016.268	1529.32
1016.56	1518.25
1016.851	1467.86
1017.143	1487.52
1017.435	1455.43
1017.727	1499.95
1018.018	1463.79
1018.31	1480.74
1018.602	1408.42
1018.893	1435.54
1019.185	1388.08
1019.476	1427.41
1019.767	1399.16
1020.058	1403
1020.35	1379.27
1020.641	1394.19
1020.932	1354.41
1021.223	1333.62
1021.514	1346.05
1021.804	1334.53
1022.095	1331.36
1022.386	1313.74
1022.677	1338.37
1022.967	1302.44
1023.258	1324.58
1023.548	1299.5
1023.839	1280.29
1024.129	1279.84
1024.419	1275.55
1024.709	1264.92
1025	1261.53
1025.29	1237.58
1025.58	1232.38
1025.87	1223.34
1026.16	1235.32
1026.449	1215.21
1026.739	1205.94
1027.029	1193.06
1027.319	1200.97
1027.608	1216.11
1027.898	1193.29
1028.187	1154.64
1028.477	1156
1028.766	1180.63
1029.055	1129.11
1029.344	1110.35
1029.634	1123.46
1029.923	1116.23
1030.212	1145.61
1030.501	1104.48
1030.79	1055.66
1031.078	1097.25
1031.367	1083.01
1031.656	1092.27
1031.945	1069.68
1032.233	1067.19
1032.522	1070.13
1032.81	1057.47
1033.099	1051.82
1033.387	1051.37
1033.675	1035.55
1033.963	1039.17
1034.251	1022.44
1034.54	1007.53
1034.828	1018.15
1035.116	991.49
1035.403	1018.38
1035.691	983.35
1035.979	980.41
1036.267	969.56
1036.554	946.29
1036.842	952.16
1037.129	949.9
1037.417	953.97
1037.704	948.77
1037.992	935.44
1038.279	928.21
1038.566	917.81
1038.853	917.81
1039.14	917.81
