Data from hue_340_FLMS001491_57.txt Node
Date: Mon Feb 06 15:43:18 GMT 2017
User: dcchb
Spectrometer: FLMS00149
Trigger mode: 0
Integration Time (sec): 2.000000E-2
Scans to average: 10
Electric dark correction enabled: true
Nonlinearity correction enabled: false
Boxcar width: 0
XAxis mode: Wavelengths
Number of Pixels in Spectrum: 2048
>>>>>Begin Spectral Data<<<<<
341.393	-10.54
341.776	-10.54
342.16	-10.54
342.543	-65.45
342.927	-95.51
343.31	-81.72
343.693	-69.52
344.077	-71.1
344.46	-54.15
344.843	-62.51
345.226	-51.89
345.61	-38.78
345.993	-36.07
346.376	15.45
346.759	20.42
347.142	20.65
347.525	57.48
347.908	66.3
348.291	80.99
348.674	82.34
349.057	122.12
349.44	133.41
349.823	152.4
350.206	151.27
350.588	157.37
350.971	214.99
351.354	225.84
351.737	243.02
352.119	248.21
352.502	273.52
352.884	269
353.267	275.11
353.65	297.7
354.032	284.82
354.414	279.63
354.797	296.57
355.179	309.68
355.562	325.73
355.944	325.95
356.326	323.92
356.709	332.51
357.091	340.41
357.473	340.19
357.855	334.54
358.238	335.44
358.62	334.31
359.002	311.94
359.384	313.97
359.766	321.88
360.148	318.95
360.53	320.75
360.912	327.99
361.294	318.49
361.676	339.74
362.057	328.44
362.439	322.79
362.821	318.27
363.203	303.13
363.584	316.01
363.966	297.03
364.348	312.84
364.729	334.31
365.111	325.05
365.493	320.53
365.874	317.36
366.256	326.18
366.637	321.43
367.019	292.05
367.4	322.34
367.781	321.66
368.163	295.9
368.544	320.75
368.925	298.83
369.306	315.33
369.688	289.79
370.069	321.43
370.45	290.7
370.831	300.87
371.212	297.25
371.593	291.6
371.974	315.56
372.355	301.09
372.736	319.85
373.117	324.82
373.498	320.08
373.879	318.72
374.26	307.65
374.641	313.07
375.021	314.65
375.402	313.3
375.783	330.7
376.163	319.4
376.544	316.69
376.925	304.94
377.305	300.87
377.686	329.57
378.066	312.62
378.447	308.78
378.827	322.11
379.208	316.23
379.588	312.62
379.968	342.67
380.349	341.09
380.729	333.86
381.109	331.15
381.489	325.27
381.87	307.87
382.25	319.4
382.63	337.7
383.01	316.69
383.39	339.96
383.77	336.12
384.15	338.15
384.53	318.95
384.91	343.8
385.29	343.58
385.67	337.7
386.049	333.86
386.429	341.32
386.809	331.6
387.189	343.8
387.568	346.74
387.948	338.83
388.328	339.28
388.707	311.94
389.087	356.23
389.466	366.4
389.846	350.81
390.225	339.74
390.605	341.77
390.984	344.71
391.363	351.49
391.743	369.11
392.122	349.68
392.501	359.62
392.881	375.44
393.26	380.64
393.639	359.4
394.018	360.98
394.397	366.63
394.776	382.9
395.155	362.34
395.534	366.18
395.913	377.48
396.292	363.01
396.671	379.74
397.05	366.63
397.429	360.98
397.808	352.17
398.186	366.18
398.565	385.84
398.944	379.51
399.323	373.18
399.701	385.61
400.08	375.44
400.458	381.09
400.837	372.5
401.215	367.08
401.594	371.83
401.972	385.84
402.351	410.02
402.729	382
403.107	402.79
403.486	405.05
403.864	404.14
404.242	414.54
404.62	419.28
404.999	381.09
405.377	412.73
405.755	412.5
406.133	418.6
406.511	426.29
406.889	426.74
407.267	421.09
407.645	421.09
408.023	438.27
408.401	429
408.779	417.93
409.156	445.27
409.534	439.62
409.912	414.76
410.29	448.21
410.667	430.36
411.045	441.88
411.422	448.21
411.8	477.81
412.178	463.35
412.555	479.62
412.933	451.82
413.31	483.69
413.687	502.22
414.065	478.72
414.442	486.4
414.819	485.95
415.197	491.15
415.574	500.18
415.951	492.05
416.328	499.73
416.705	511.94
417.082	517.59
417.46	507.87
417.837	516.46
418.214	521.2
418.591	516.46
418.967	541.31
419.344	545.61
419.721	550.13
420.098	556
420.475	554.42
420.852	560.3
421.228	555.78
421.605	557.81
421.982	556.45
422.358	587.41
422.735	568.21
423.111	564.14
423.488	563.91
423.864	585.15
424.241	597.81
424.617	610.24
424.994	601.65
425.37	595.1
425.746	631.03
426.123	616.11
426.499	616.11
426.875	620.18
427.251	651.82
427.627	630.58
428.003	630.8
428.379	624.48
428.756	663.34
429.132	642.1
429.507	651.59
429.883	655.21
430.259	686.85
430.635	689.33
431.011	668.54
431.387	698.82
431.763	706.96
432.138	714.87
432.514	718.48
432.89	708.54
433.265	717.13
433.641	736.34
434.016	725.49
434.392	768.43
434.767	755.55
435.143	737.69
435.518	745.38
435.894	761.19
436.269	767.3
436.644	774.98
437.02	804.36
437.395	810.46
437.77	801.87
438.145	795.54
438.52	806.84
438.895	820.18
439.271	812.94
439.646	835.09
440.021	837.58
440.395	821.53
440.77	835.09
441.145	825.6
441.52	876.9
441.895	860.85
442.27	848.2
442.645	872.15
443.019	882.55
443.394	858.82
443.769	882.32
444.143	883
444.518	899.27
444.892	901.98
445.267	892.04
445.641	896.11
446.016	894.75
446.39	912.38
446.764	892.72
447.139	911.47
447.513	897.46
447.887	924.58
448.262	939.04
448.636	925.71
449.01	937.91
449.384	910.57
449.758	936.78
450.132	950.57
450.506	958.25
450.88	930.46
451.254	948.76
451.628	987.4
452.002	963.9
452.376	984.47
452.75	993.28
453.123	988.76
453.497	1003
453.871	1032.37
454.244	1025.14
454.618	1018.82
454.992	1024.46
455.365	1053.16
455.739	1059.49
456.112	1066.05
456.486	1085.71
456.859	1050.23
457.232	1077.8
457.606	1054.07
457.979	1088.64
458.352	1125.93
458.725	1116.67
459.099	1149.43
459.472	1120.96
459.845	1127.96
460.218	1164.8
460.591	1160.28
460.964	1181.97
461.337	1176.55
461.71	1204.57
462.083	1195.76
462.456	1211.13
462.829	1224.91
463.201	1182.2
463.574	1222.2
463.947	1243.44
464.32	1298.13
464.692	1243.44
465.065	1290.67
465.438	1335.64
465.81	1290.9
466.183	1320.28
466.555	1339.94
466.928	1338.13
467.3	1360.27
467.672	1376.32
468.045	1402.99
468.417	1395.3
468.789	1396.66
469.161	1415.87
469.534	1431.01
469.906	1478.01
470.278	1471.01
470.65	1491.8
471.022	1485.7
471.394	1498.8
471.766	1513.04
472.138	1556.2
472.51	1568.18
472.882	1583.77
473.253	1625.58
473.625	1619.48
473.997	1677.33
474.369	1678.01
474.74	1661.28
475.112	1698.35
475.484	1706.03
475.855	1753.03
476.227	1771.56
476.598	1805.46
476.97	1801.62
477.341	1829.42
477.713	1865.35
478.084	1893.82
478.455	1915.97
478.827	1947.38
479.198	1952.58
479.569	1993.93
479.94	2023.08
480.311	2061.05
480.682	2069.86
481.053	2094.72
481.424	2141.27
481.795	2155.28
482.166	2192.12
482.537	2212.91
482.908	2289.52
483.279	2309.4
483.65	2338.55
484.021	2368.38
484.391	2365.22
484.762	2420.81
485.133	2422.85
485.503	2490.41
485.874	2525.89
486.244	2518.89
486.615	2603.18
486.985	2613.58
487.356	2628.26
487.726	2685.44
488.097	2697.19
488.467	2751.65
488.837	2782.38
489.207	2811.54
489.578	2845.89
489.948	2847.02
490.318	2859.44
490.688	2908.26
491.058	2954.13
491.428	2996.84
491.798	2996.62
492.168	3047.46
492.538	3080.46
492.908	3115.94
493.278	3165.88
493.648	3155.26
494.017	3193.9
494.387	3193.45
494.757	3271.64
495.126	3263.73
495.496	3265.99
495.866	3343.27
496.235	3361.8
496.605	3388.02
496.974	3399.09
497.344	3436.38
497.713	3400
498.082	3439.09
498.452	3506.43
498.821	3484.74
499.19	3497.39
499.559	3526.77
499.928	3545.08
500.298	3577.17
500.667	3570.16
501.036	3606.32
501.405	3593.21
501.774	3646.32
502.143	3663.04
502.512	3691.29
502.88	3688.35
503.249	3689.25
503.618	3737.61
503.987	3739.87
504.356	3772.19
504.724	3784.84
505.093	3801.34
505.462	3792.08
505.83	3851.06
506.199	3893.99
506.567	3932.18
506.936	3876.37
507.304	3907.78
507.672	3916.82
508.041	3943.26
508.409	3962.69
508.777	3981.45
509.145	4032.3
509.514	3969.02
509.882	4022.35
510.25	4064.84
510.618	4053.76
510.986	4063.71
511.354	4052.86
511.722	4078.85
512.09	4206.98
512.458	4092.86
512.826	4209.47
513.193	4191.16
513.561	4199.3
513.929	4211.27
514.297	4216.92
514.664	4239.52
515.032	4246.75
515.4	4268.67
515.767	4304.6
516.135	4281.55
516.502	4256.92
516.869	4309.58
517.237	4310.93
517.604	4347.54
517.972	4314.77
518.339	4370.14
518.706	4385.28
519.073	4389.8
519.44	4413.3
519.808	4461.21
520.175	4396.81
520.542	4452.62
520.909	4517.93
521.276	4443.36
521.643	4524.94
522.009	4501.21
522.376	4562.22
522.743	4567.2
523.11	4552.96
523.477	4619.85
523.843	4597.03
524.21	4659.85
524.577	4740.75
524.943	4735.33
525.31	4716.8
525.676	4796.57
526.043	4756.8
526.409	4855.1
526.776	4845.38
527.142	4870.01
527.508	4890.13
527.874	4950.46
528.241	4916.79
528.607	4924.25
528.973	4983.68
529.339	4981.2
529.705	5029.56
530.071	5059.39
530.437	5041.76
530.803	5085.83
531.169	5085.37
531.535	5139.61
531.901	5148.42
532.267	5171.25
532.632	5218.7
532.998	5212.15
533.364	5220.74
533.73	5248.08
534.095	5299.61
534.461	5304.35
534.826	5351.36
535.192	5374.18
535.557	5385.03
535.923	5385.93
536.288	5432.94
536.653	5420.73
537.019	5426.16
537.384	5484.46
537.749	5481.52
538.114	5495.76
538.479	5485.59
538.845	5563.1
539.21	5518.36
539.575	5543.22
539.94	5615.08
540.305	5652.37
540.67	5643.78
541.034	5658.69
541.399	5705.02
541.764	5694.4
542.129	5745.7
542.494	5720.16
542.858	5799.48
543.223	5787.96
543.587	5804.9
543.952	5842.87
544.316	5895.52
544.681	5861.63
545.045	5895.07
545.41	5989.08
545.774	5957.67
546.138	5961.06
546.503	5974.84
546.867	6004.22
547.231	6093.48
547.595	6076.08
547.959	6109.3
548.324	6155.63
548.688	6129.87
549.052	6147.95
549.416	6218.9
549.779	6175.29
550.143	6199.47
550.507	6224.78
550.871	6293.93
551.235	6317.88
551.599	6298.45
551.962	6295.51
552.326	6356.08
552.689	6379.35
553.053	6306.59
553.417	6370.54
553.78	6468.39
554.143	6446.02
554.507	6461.16
554.87	6515.17
555.234	6509.74
555.597	6511.55
555.96	6535.73
556.323	6575.96
556.686	6571.21
557.05	6644.66
557.413	6649.4
557.776	6636.52
558.139	6726.24
558.502	6683.75
558.865	6682.17
559.228	6747.93
559.59	6753.81
559.953	6740.92
560.316	6770.75
560.679	6806.69
561.041	6826.35
561.404	6874.93
561.767	6917.42
562.129	6897.3
562.492	6937.08
562.854	6928.94
563.217	6956.29
563.579	6976.4
563.941	7015.27
564.304	7014.82
564.666	7080.58
565.028	7071.99
565.39	7071.31
565.753	7153.57
566.115	7133.68
566.477	7175.49
566.839	7201.25
567.201	7279.89
567.563	7235.6
567.925	7358.08
568.287	7318.99
568.648	7332.77
569.01	7385.65
569.372	7413
569.734	7436.27
570.095	7457.97
570.457	7501.58
570.819	7531.41
571.18	7603.73
571.542	7631.52
571.903	7636.95
572.265	7716.72
572.626	7781.35
572.987	7781.8
573.349	7822.7
573.71	7872.19
574.071	7913.77
574.432	7938.18
574.794	8046.65
575.155	8064.28
575.516	8058.63
575.877	8111.51
576.238	8144.73
576.599	8242.13
576.96	8238.96
577.32	8307.66
577.681	8429.24
578.042	8512.4
578.403	8569.35
578.763	8650.03
579.124	8713.3
579.485	8849.34
579.845	8867.87
580.206	9081.88
580.566	9082.11
580.927	9159.39
581.287	9347.86
581.648	9459.72
582.008	9572.71
582.368	9733.84
582.728	9849.77
583.089	9928.86
583.449	10131.57
583.809	10348.97
584.169	10403.88
584.529	10582.41
584.889	10792.12
585.249	10842.06
585.609	11083.18
585.969	11258.09
586.329	11430.29
586.688	11642.04
587.048	11931.75
587.408	11964.74
587.768	12195.02
588.127	12545.07
588.487	12630.26
588.846	13063.7
589.206	13228.44
589.565	13370.35
589.925	13572.38
590.284	13860.06
590.643	14115.42
591.003	14414.62
591.362	14685.8
591.721	14882.18
592.08	15146.81
592.44	15351.32
592.799	15729.61
593.158	15942.94
593.517	16196.72
593.876	16533.89
594.235	16624.96
594.593	17006.42
594.952	17306.52
595.311	17502.68
595.67	17749.9
596.029	18083.68
596.387	18431.01
596.746	18760.72
597.104	18934.28
597.463	19162.29
597.822	19455.62
598.18	19731.32
598.538	19992.1
598.897	20394.35
599.255	20511.18
599.613	21135.57
599.972	21123.15
600.33	21583.02
600.688	21668.67
601.046	22022.78
601.404	22258.26
601.762	22648.3
602.12	22924.68
602.478	23155.86
602.836	23409.41
603.194	23549.75
603.552	23907.7
603.91	24010.53
604.268	24432.44
604.625	24581.36
604.983	24963.95
605.341	25039.88
605.698	25405.29
606.056	25609.58
606.413	25911.27
606.771	26031.49
607.128	26289.34
607.485	26402.1
607.843	26686.61
608.2	26952.82
608.557	27297.22
608.914	27388.07
609.272	27750.32
609.629	28069.63
609.986	28137.42
610.343	28176.97
610.7	28681.82
611.057	28858.53
611.414	28888.14
611.771	29144.18
612.127	29409.48
612.484	29500.1
612.841	29717.5
613.198	29812.18
613.554	29939.64
613.911	30270.25
614.267	30421.88
614.624	30496.68
614.98	30628.43
615.337	31012.15
615.693	30925.6
616.05	31078.14
616.406	31528.52
616.762	31436.09
617.118	31608.07
617.475	31673.83
617.831	31967.61
618.187	32029.07
618.543	32161.72
618.899	32460.02
619.255	32551.77
619.611	32632
619.967	32876.51
620.323	32961.03
620.678	32997.86
621.034	32972.33
621.39	33145.2
621.746	33119.21
622.101	33778.18
622.457	33565.53
622.812	33712.87
623.168	33831.51
623.523	33842.81
623.879	34009.13
624.234	33902.24
624.589	34144.95
624.945	34088.91
625.3	34175.68
625.655	34264.49
626.01	34361.89
626.365	34480.31
626.72	34567.09
627.075	34523.7
627.43	34631.72
627.785	34641.21
628.14	34603.69
628.495	34824.25
628.85	34787.42
629.205	34776.35
629.559	35017.7
629.914	34913.07
630.269	35092.5
630.623	34901.09
630.978	34888.66
631.332	35151.93
631.687	35111.25
632.041	35091.82
632.396	35305.15
632.75	35167.75
633.104	35269.21
633.459	35080.52
633.813	35178.37
634.167	35292.72
634.521	35165.94
634.875	35371.81
635.229	35205.49
635.583	35050.46
635.937	35148.54
636.291	35126.39
636.645	35335.88
636.999	35104.25
637.352	35288.2
637.706	35059.95
638.06	35472.37
638.413	35079.39
638.767	35189.67
639.121	35266.73
639.474	35007.98
639.828	35085.04
640.181	35190.57
640.534	35185.15
640.888	35138.82
641.241	35093.85
641.594	34967.07
641.947	35155.77
642.301	35080.29
642.654	35127.75
643.007	35166.17
643.36	35004.59
643.713	35117.81
644.066	35184.24
644.419	34982.89
644.771	34744.93
645.124	34502.68
645.477	34315.79
645.83	34233.99
646.182	34107.21
646.535	34044.84
646.888	34148.34
647.24	34021.34
647.593	34021.11
647.945	34014.33
648.298	33872.19
648.65	33876.71
649.002	33851.85
649.355	34030.15
649.707	33872.87
650.059	34152.41
650.411	34415.68
650.763	34599.85
651.115	34905.61
651.467	34663.13
651.819	34745.39
652.171	34786.51
652.523	34608.89
652.875	34670.36
653.227	34459.29
653.578	34715.33
653.93	34661.32
654.282	34608.67
654.633	34519.63
654.985	34590.36
655.337	34698.61
655.688	34513.3
656.039	34591.27
656.391	34325.74
656.742	34429.24
657.094	34477.14
657.445	34618.16
657.796	34509.01
658.147	34466.98
658.498	34478.95
658.849	34581.1
659.2	34427.88
659.551	34400.08
659.902	34497.48
660.253	34370.71
660.604	34347.2
660.955	34280.77
661.306	34460.42
661.656	34356.7
662.007	34277.83
662.358	34366.19
662.708	34269.47
663.059	34175.01
663.409	34034.9
663.76	34382.91
664.11	34269.92
664.461	34421.33
664.811	34245.29
665.161	34267.21
665.511	34233.53
665.862	34198.28
666.212	34435.34
666.562	34370.48
666.912	34254.78
667.262	34319.86
667.612	34255.91
667.962	34269.24
668.312	34231.5
668.662	34404.38
669.011	34322.57
669.361	34189.02
669.711	34187.43
670.06	34106.53
670.41	34203.03
670.76	34099.3
671.109	34234.66
671.459	34152.41
671.808	34077.83
672.157	34151.05
672.507	34069.92
672.856	34008.68
673.205	34017.5
673.554	34125.29
673.904	33952.64
674.253	34135.68
674.602	33958.97
674.951	33586.32
675.3	33474.68
675.649	33929.14
675.998	33944.73
676.346	33985.86
676.695	33991.51
677.044	33774.56
677.393	33850.95
677.741	33873.54
678.09	33775.47
678.438	33711.74
678.787	33851.17
679.135	33850.04
679.484	33642.36
679.832	33637.17
680.181	33527.11
680.529	33654.79
680.877	33603.49
681.225	33409.15
681.573	33558.52
681.922	33515.81
682.27	33408.47
682.618	33441.69
682.966	33297.97
683.314	33282.37
683.661	33322.6
684.009	33075.37
684.357	32950.63
684.705	33058.88
685.053	33126.67
685.4	33056.84
685.748	32853.46
686.095	32723.74
686.443	32756.96
686.79	32541.15
687.138	32746.12
687.485	32776.85
687.832	32535.95
688.18	32637.64
688.527	32438.33
688.874	32617.08
689.221	32340.48
689.568	32320.14
689.915	32252.57
690.262	32328.05
690.609	32218.9
690.956	31981.62
691.303	32038.79
691.65	31842.64
691.997	31878.12
692.344	31639.25
692.69	31571.91
693.037	31733.49
693.383	31509.99
693.73	31540.72
694.077	31282.65
694.423	31383.67
694.769	31270
695.116	31150.45
695.462	31103.67
695.808	31151.36
696.155	31063.22
696.501	30790.01
696.847	30808.54
697.193	30625.49
697.539	30682.44
697.885	30525.61
698.231	30389.34
698.577	30604.25
698.923	30332.39
699.269	30363.35
699.614	30194.09
699.96	30119.07
700.306	30093.3
700.651	30058.5
700.997	29941.44
701.342	29842.46
701.688	29831.84
702.033	29764.5
702.379	29748.91
702.724	29587.33
703.069	29725.18
703.415	29361.8
703.76	29356.15
704.105	29236.83
704.45	29212.2
704.795	29121.8
705.14	28920.91
705.485	28877.52
705.83	28854.24
706.175	28946.22
706.52	28886.78
706.865	28604.3
707.209	28709.61
707.554	28610.86
707.899	28679.78
708.243	28479.79
708.588	28453.12
708.932	28148.5
709.277	28205.22
709.621	28285.22
709.966	28086.58
710.31	28167.48
710.654	27899.46
710.998	27960.25
711.342	28052.45
711.687	27866.24
712.031	27747.6
712.375	27604.56
712.719	27672.58
713.063	27649.75
713.407	27701.05
713.75	27520.72
714.094	27484.79
714.438	27399.14
714.782	27524.56
715.125	27288.18
715.469	27374.73
715.812	27134.96
716.156	27064.68
716.499	27034.18
716.843	27088.86
717.186	27060.84
717.53	27018.58
717.873	27114.17
718.216	26793.73
718.559	26842.99
718.902	26635.09
719.246	26726.39
719.589	26618.82
719.932	26539.95
720.275	26538.37
720.617	26461.54
720.96	26471.93
721.303	26422.44
721.646	26519.61
721.989	26292.27
722.331	26457.47
722.674	26330.69
723.016	26255.67
723.359	26253.41
723.701	26231.49
724.044	26015.9
724.386	25892.29
724.729	26015.45
725.071	25971.15
725.413	25983.13
725.755	25949.68
726.097	25854.09
726.439	25655.46
726.782	25622.91
727.124	25753.53
727.465	25633.08
727.807	25694.32
728.149	25546.53
728.491	25522.8
728.833	25670.14
729.175	25318.52
729.516	25410.26
729.858	25383.6
730.199	25399.64
730.541	25342.7
730.882	25260.66
731.224	25350.6
731.565	25132.31
731.906	25206.65
732.248	25269.93
732.589	25052.08
732.93	24906.55
733.271	24927.56
733.612	24978.41
733.953	24999.2
734.294	24897.06
734.635	24793.78
734.976	24888.24
735.317	24694.12
735.658	24783.16
735.999	24714.92
736.339	24662.71
736.68	24740.45
737.021	24694.58
737.361	24481.25
737.702	24683.05
738.042	24616.16
738.383	24597.4
738.723	24596.73
739.063	24459.33
739.404	24521.7
739.744	24360.8
740.084	24344.53
740.424	24416.62
740.764	24258.66
741.104	24305.89
741.444	24187.92
741.784	24068.38
742.124	24325.55
742.464	24049.4
742.804	24027.93
743.143	24114.48
743.483	24031.77
743.823	23992.45
744.162	23919.23
744.502	24010.75
744.841	23864.99
745.181	23990.87
745.52	23746.58
745.86	23813.7
746.199	23857.08
746.538	23752.68
746.877	23812.57
747.216	23819.12
747.556	23793.36
747.895	23653.47
748.234	23547.94
748.573	23496.19
748.911	23506.81
749.25	23522.63
749.589	23488.96
749.928	23425.68
750.267	23403.54
750.605	23316.99
750.944	23262.75
751.283	23279.7
751.621	23271.79
751.96	23129.65
752.298	23122.19
752.636	23201.06
752.975	22967.39
753.313	22826.83
753.651	23001.51
753.989	22916.77
754.327	22775.31
754.666	22788.19
755.004	22782.76
755.342	22728.53
755.679	22774.18
756.017	22492.83
756.355	22571.92
756.693	22571.69
757.031	22457.8
757.368	22383.45
757.706	22403.79
758.044	22276.34
758.381	22274.98
758.719	22342.55
759.056	22205.6
759.394	22152.5
759.731	22041.31
760.068	22087.41
760.405	21937.59
760.743	21888.1
761.08	21967.19
761.417	21754.09
761.754	21736.46
762.091	21742.79
762.428	21677.48
762.765	21533.76
763.102	21529.46
763.438	21489.46
763.775	21390.03
764.112	21370.82
764.449	21302.8
764.785	21190.49
765.122	21091.73
765.458	21020.32
765.795	20967.22
766.131	20912.76
766.467	20921.34
766.804	20762.93
767.14	20636.6
767.476	20680.44
767.812	20597.28
768.148	20628.69
768.485	20482.26
768.821	20354.8
769.157	20313.45
769.492	20289.04
769.828	20295.37
770.164	20041.37
770.5	20135.15
770.836	20040.24
771.171	19862.16
771.507	19900.58
771.842	19794.37
772.178	19714.14
772.513	19693.8
772.849	19594.15
773.184	19588.27
773.519	19473.92
773.855	19407.48
774.19	19293.59
774.525	19289.07
774.86	19240.26
775.195	19176.3
775.53	19139.24
775.865	18978.34
776.2	18876.65
776.535	18780.83
776.87	18694.96
777.205	18674.17
777.539	18519.37
777.874	18558.92
778.209	18362.77
778.543	18443.67
778.878	18360.73
779.212	18307.4
779.547	18234.86
779.881	18297.68
780.215	18070.57
780.55	18115.54
780.884	17951.48
781.218	17969.33
781.552	17914.19
781.886	17727.98
782.22	17684.14
782.554	17697.02
782.888	17513.52
783.222	17446.18
783.556	17359.18
783.889	17365.5
784.223	17267.43
784.557	17283.25
784.89	17247.31
785.224	17166.19
785.557	17018.85
785.891	17019.52
786.224	16945.4
786.558	16929.13
786.891	16799.19
787.224	16725.75
787.557	16649.59
787.891	16575.02
788.224	16625.18
788.557	16548.35
788.89	16549.48
789.223	16534.11
789.556	16335.93
789.888	16284.63
790.221	16276.49
790.554	16193.78
790.887	16130.96
791.219	16112.43
791.552	16089.38
791.884	16042.6
792.217	15962.83
792.549	15786.79
792.882	15858.65
793.214	15686.9
793.546	15803.29
793.879	15608.94
794.211	15581.82
794.543	15566.23
794.875	15541.15
795.207	15615.95
795.539	15449.85
795.871	15418.44
796.203	15330.98
796.535	15227.93
796.867	15192.45
797.198	15128.73
797.53	15192
797.862	15059.35
798.193	15116.07
798.525	14902.29
798.856	15050.54
799.188	14951.33
799.519	14774.39
799.85	14643.09
800.182	14772.58
800.513	14774.61
800.844	14530.1
801.175	14653.94
801.506	14580.27
801.837	14498.46
802.168	14540.27
802.499	14476.31
802.83	14288.75
803.161	14314.51
803.491	14283.33
803.822	14234.74
804.153	14216.66
804.483	14128.75
804.814	14053.27
805.145	14143.67
805.475	14072.94
805.805	13997.46
806.136	14008.08
806.466	14028.87
806.796	13912.04
807.126	13754.53
807.457	13749.55
807.787	13809.67
808.117	13688.31
808.447	13670.46
808.777	13578.03
809.107	13585.72
809.436	13586.39
809.766	13557.24
810.096	13483.57
810.426	13498.26
810.755	13447.41
811.085	13439.05
811.414	13384.82
811.744	13325.38
812.073	13258.72
812.403	13223.01
812.732	13227.53
813.061	13217.14
813.39	13138.27
813.719	13035.45
814.049	13156.8
814.378	13046.07
814.707	12982.34
815.036	13020.99
815.365	12964.04
815.693	12804.72
816.022	12874.1
816.351	12801.56
816.68	12770.82
817.008	12800.65
817.337	12632.07
817.665	12684.95
817.994	12646.53
818.322	12588.45
818.651	12578.29
818.979	12527.21
819.307	12591.84
819.636	12461.68
819.964	12512.98
820.292	12489.7
820.62	12451.96
820.948	12531.73
821.276	12468.68
821.604	12362.25
821.932	12505.29
822.259	12448.35
822.587	12450.15
822.915	12343.71
823.243	12395.69
823.57	12286.54
823.898	12412.87
824.225	12373.77
824.553	12294.45
824.88	12361.34
825.207	12370.38
825.535	12260.78
825.862	12345.52
826.189	12303.04
826.516	12387.33
826.843	12419.65
827.17	12445.63
827.497	12419.19
827.824	12386.88
828.151	12332.19
828.478	12319.99
828.805	12365.64
829.131	12268.46
829.458	12352.3
829.785	12228.24
830.111	12329.48
830.438	12334
830.764	12288.58
831.09	12344.17
831.417	12310.5
831.743	12274.34
832.069	12247.45
832.395	12222.36
832.722	12277.05
833.048	12249.25
833.374	12260.1
833.7	12213.1
834.026	12223.49
834.351	12254.9
834.677	12141.46
835.003	12237.73
835.329	12184.17
835.654	12180.78
835.98	12068.47
836.306	12150.27
836.631	12014.91
836.956	12096.94
837.282	12119.54
837.607	11998.64
837.932	12053.78
838.258	11969.26
838.583	11966.32
838.908	11989.15
839.233	11931.52
839.558	11912.54
839.883	11880
840.208	11846.1
840.533	11848.59
840.858	11856.72
841.182	11847.46
841.507	11833.67
841.832	11697.18
842.156	11703.96
842.481	11713.9
842.805	11703.73
843.13	11605.43
843.454	11642.72
843.778	11590.74
844.103	11500.8
844.427	11527.47
844.751	11494.92
845.075	11524.08
845.399	11543.96
845.723	11420.58
846.047	11469.61
846.371	11388.03
846.695	11339.45
847.019	11240.69
847.343	11187.59
847.666	11114.59
847.99	11082.51
848.313	11027.14
848.637	11035.27
848.96	10979.68
849.284	10955.5
849.607	10906.92
849.931	10810.87
850.254	10801.16
850.577	10748.95
850.9	10661.05
851.223	10678
851.546	10554.84
851.869	10520.94
852.192	10624.21
852.515	10459.7
852.838	10435.74
853.161	10474.16
853.483	10335.18
853.806	10313.26
854.129	10361.62
854.451	10253.6
854.774	10205.69
855.096	10177.9
855.419	10160.27
855.741	10163.21
856.063	10178.57
856.385	10080.05
856.708	10084.34
857.03	10008.18
857.352	10064.68
857.674	9999.14
857.996	9957.11
858.318	9906.49
858.64	9892.93
858.961	9884.57
859.283	9843.44
859.605	9711.69
859.926	9827.85
860.248	9762.09
860.57	9750.11
860.891	9704.24
861.212	9673.5
861.534	9661.53
861.855	9676.67
862.176	9626.72
862.498	9663.33
862.819	9636.44
863.14	9541.75
863.461	9583.34
863.782	9467.63
864.103	9527.52
864.424	9480.06
864.745	9464.02
865.065	9419.05
865.386	9407.75
865.707	9425.83
866.027	9398.48
866.348	9367.3
866.668	9351.7
866.989	9373.62
867.309	9257.24
867.63	9344.47
867.95	9269.22
868.27	9235.1
868.59	9218.83
868.91	9271.71
869.23	9224.93
869.55	9177.7
869.87	9210.24
870.19	9209.79
870.51	9185.38
870.83	9154.42
871.15	9191.48
871.469	9059.51
871.789	9158.71
872.109	9104.03
872.428	9041.65
872.748	9101.54
873.067	9062.22
873.386	9088.89
873.706	9055.67
874.025	8990.13
874.344	8945.16
874.663	9011.83
874.982	8904.26
875.301	8958.95
875.62	8931.38
875.939	8876.91
876.258	8947.87
876.577	8845.5
876.896	8881.21
877.214	8856.12
877.533	8817.93
877.852	8879.17
878.17	8834.43
878.489	8797.37
878.807	8834.88
879.125	8806.86
879.444	8792.4
879.762	8715.56
880.08	8779.29
880.398	8702
880.716	8691.61
881.034	8617.94
881.352	8671.95
881.67	8621.33
881.988	8682.79
882.306	8620.2
882.624	8591.5
882.941	8482.35
883.259	8524.38
883.577	8519.18
883.894	8440.31
884.212	8528.22
884.529	8494.32
884.846	8463.37
885.164	8465.85
885.481	8426.3
885.798	8418.85
886.115	8297.72
886.432	8365.51
886.75	8346.98
887.067	8357.83
887.383	8319.41
887.7	8289.58
888.017	8244.84
888.334	8242.35
888.651	8222.02
888.967	8205.74
889.284	8139.76
889.6	8076.71
889.917	8055.69
890.233	8112.41
890.55	8086.65
890.866	8099.76
891.182	8027.22
891.498	8088.01
891.815	8004.39
892.131	7965.53
892.447	7935.02
892.763	7866.77
893.079	7870.16
893.395	7872.19
893.71	7853.89
894.026	7843.95
894.342	7780.22
894.657	7714.68
894.973	7684.85
895.289	7694.57
895.604	7692.76
895.92	7723.95
896.235	7591.3
896.55	7636.72
896.865	7591.3
897.181	7556.72
897.496	7564.18
897.811	7529.6
898.126	7457.29
898.441	7417.29
898.756	7410.06
899.071	7360.57
899.386	7423.84
899.7	7262.04
900.015	7340
900.33	7330.06
900.644	7263.4
900.959	7198.09
901.273	7206
901.588	7154.25
901.902	7191.76
902.216	7114.25
902.531	7133.68
902.845	7046
903.159	7031.54
903.473	6989.73
903.787	7060.01
904.101	6918.55
904.415	6981.82
904.729	6909.51
905.042	6876.74
905.356	6920.13
905.67	6854.37
905.984	6819.34
906.297	6860.24
906.611	6785.22
906.924	6804.65
907.237	6688.04
907.551	6719.91
907.864	6660.7
908.177	6713.35
908.491	6650.53
908.804	6666.58
909.117	6579.35
909.43	6543.42
909.743	6511.33
910.056	6541.38
910.368	6482.4
910.681	6470.42
910.994	6414.38
911.307	6393.81
911.619	6356.53
911.932	6353.14
912.244	6311.11
912.557	6327.15
912.869	6264.78
913.181	6246.47
913.494	6256.19
913.806	6220.71
914.118	6163.09
914.43	6164.22
914.742	6104.56
915.054	6106.59
915.366	6080.6
915.678	6092.58
915.99	6018.68
916.302	5994.96
916.613	5939.59
916.925	5912.7
917.236	5956.99
917.548	5895.75
917.859	5927.16
918.171	5871.57
918.482	5858.91
918.794	5837.45
919.105	5772.59
919.416	5769.88
919.727	5736.66
920.038	5750.44
920.349	5724.68
920.66	5663.44
920.971	5695.53
921.282	5687.84
921.593	5621.18
921.903	5552.48
922.214	5591.8
922.525	5546.38
922.835	5511.13
923.146	5522.88
923.456	5486.72
923.767	5444.69
924.077	5425.03
924.387	5403.33
924.697	5405.14
925.008	5374.86
925.318	5346.16
925.628	5361.07
925.938	5331.02
926.248	5264.58
926.558	5220.74
926.867	5251.47
927.177	5184.13
927.487	5180.97
927.796	5151.36
928.106	5151.36
928.416	5116.11
928.725	5131.02
929.034	5090.35
929.344	5093.96
929.653	5048.31
929.962	4969.67
930.271	4970.8
930.581	4964.02
930.89	4897.81
931.199	4928.99
931.508	4851.26
931.817	4882.22
932.125	4867.08
932.434	4867.98
932.743	4815.78
933.051	4829.56
933.36	4797.92
933.669	4740.75
933.977	4705.5
934.286	4738.94
934.594	4704.82
934.902	4647.42
935.21	4613.97
935.519	4618.27
935.827	4631.38
936.135	4601.09
936.443	4587.99
936.751	4563.58
937.059	4547.99
937.367	4492.85
937.674	4519.74
937.982	4520.42
938.29	4461.66
938.597	4457.14
938.905	4406.3
939.213	4399.07
939.52	4334.43
939.827	4394.55
940.135	4366.52
940.442	4342.12
940.749	4347.77
941.056	4342.8
941.363	4247.88
941.67	4282.23
941.977	4252.4
942.284	4219.41
942.591	4195.45
942.898	4184.16
943.205	4191.16
943.511	4192.52
943.818	4163.82
944.125	4087.89
944.431	4078.17
944.738	4101.22
945.044	4035.23
945.35	4077.94
945.657	4050.83
945.963	4027.78
946.269	4010.15
946.575	3997.72
946.881	3916.37
947.187	3955.69
947.493	3895.8
947.799	3924.73
948.105	3928.34
948.41	3886.99
948.716	3839.53
949.022	3844.5
949.327	3811.06
949.633	3789.36
949.938	3804.96
950.244	3824.39
950.549	3770.83
950.854	3754.79
951.16	3734.22
951.465	3718.63
951.77	3691.97
952.075	3696.03
952.38	3682.47
952.685	3677.5
952.99	3648.8
953.294	3635.02
953.599	3621.46
953.904	3582.59
954.209	3559.09
954.513	3587.56
954.818	3565.41
955.122	3508.02
955.426	3503.5
955.731	3530.16
956.035	3499.2
956.339	3504.63
956.643	3465.98
956.948	3472.76
957.252	3460.33
957.556	3439.54
957.86	3401.35
958.163	3395.02
958.467	3385.31
958.771	3344.86
959.075	3347.34
959.378	3328.36
959.682	3321.81
959.985	3285.87
960.289	3261.02
960.592	3262.6
960.896	3250.17
961.199	3243.84
961.502	3244.29
961.805	3188.25
962.108	3171.07
962.411	3172.88
962.714	3145.99
963.017	3168.59
963.32	3147.12
963.623	3085.43
963.926	3112.77
964.228	3103.05
964.531	3094.24
964.833	3067.35
965.136	3057.18
965.438	3029.16
965.741	3016.73
966.043	3028.25
966.345	3005.2
966.648	3009.27
966.95	2977.63
967.252	2948.71
967.554	2969.05
967.856	2942.83
968.158	2945.32
968.46	2955.49
968.761	2925.66
969.063	2863.29
969.365	2890.63
969.666	2872.1
969.968	2835.26
970.269	2857.86
970.571	2813.34
970.872	2803.4
971.174	2832.78
971.475	2814.25
971.776	2817.41
972.077	2795.94
972.378	2779.67
972.679	2781.48
972.98	2733.57
973.281	2742.84
973.582	2713.69
973.883	2702.84
974.183	2659
974.484	2687.02
974.785	2663.29
975.085	2660.35
975.386	2660.81
975.686	2622.61
975.986	2615.38
976.287	2654.7
976.587	2602.05
976.887	2599.56
977.187	2627.81
977.487	2590.53
977.787	2569.28
978.087	2550.98
978.387	2548.27
978.687	2556.18
978.987	2544.88
979.286	2527.7
979.586	2482.73
979.885	2473.92
980.185	2466.46
980.484	2479.12
980.784	2450.42
981.083	2407.25
981.382	2445.44
981.682	2402.28
981.981	2414.48
982.28	2389.63
982.579	2395.28
982.878	2374.49
983.177	2386.69
983.475	2350.31
983.774	2363.19
984.073	2350.98
984.372	2310.53
984.67	2329.97
984.969	2349.18
985.267	2318.22
985.566	2282.28
985.864	2305.79
986.162	2271.89
986.461	2254.49
986.759	2212.68
987.057	2249.52
987.355	2231.89
987.653	2247.71
987.951	2212.68
988.249	2199.57
988.547	2222.85
988.844	2179.24
989.142	2201.83
989.44	2181.95
989.737	2129.97
990.035	2156.64
990.332	2161.84
990.63	2123.87
990.927	2122.51
991.224	2093.82
991.521	2119.8
991.819	2079.58
992.116	2050.88
992.413	2047.04
992.71	2055.4
993.006	2046.36
993.303	2073.7
993.6	2021.05
993.897	2007.26
994.193	2027.38
994.49	2004.78
994.787	1973.14
995.083	2002.29
995.379	1972.01
995.676	1971.56
995.972	1956.87
996.268	1912.8
996.565	1942.63
996.861	1950.09
997.157	1949.19
997.453	1922.52
997.749	1905.8
998.044	1878.91
998.34	1894.72
998.636	1884.78
998.932	1898.79
999.227	1852.01
999.523	1870.77
999.818	1859.47
1000.114	1873.48
1000.409	1815.86
1000.704	1846.59
1001	1766.37
1001.295	1819.02
1001.59	1785.12
1001.885	1794.16
1002.18	1746.25
1002.475	1765.24
1002.77	1760.04
1003.065	1721.62
1003.359	1736.08
1003.654	1711.9
1003.949	1710.1
1004.243	1682.75
1004.538	1700.15
1004.832	1704.67
1005.127	1654.96
1005.421	1670.55
1005.715	1638.23
1006.009	1672.36
1006.304	1658.35
1006.598	1623.32
1006.892	1611.12
1007.186	1597.1
1007.48	1586.03
1007.773	1599.59
1008.067	1580.16
1008.361	1584.45
1008.655	1581.96
1008.948	1577.9
1009.242	1533.38
1009.535	1542.42
1009.829	1574.51
1010.122	1518.01
1010.415	1518.46
1010.708	1526.37
1011.001	1488.41
1011.295	1469.88
1011.588	1487.28
1011.881	1485.47
1012.173	1457.67
1012.466	1452.02
1012.759	1466.26
1013.052	1436.88
1013.344	1427.17
1013.637	1407.73
1013.93	1403.21
1014.222	1408.18
1014.514	1403.66
1014.807	1392.82
1015.099	1379.94
1015.391	1388.07
1015.683	1381.29
1015.976	1366.6
1016.268	1341.29
1016.56	1359.6
1016.851	1343.33
1017.143	1338.13
1017.435	1330.45
1017.727	1310.56
1018.018	1299.26
1018.31	1298.36
1018.602	1278.7
1018.893	1270.56
1019.185	1273.5
1019.476	1259.26
1019.767	1266.49
1020.058	1261.75
1020.35	1246.38
1020.641	1209.54
1020.932	1226.72
1021.223	1213.16
1021.514	1214.29
1021.804	1199.38
1022.095	1197.12
1022.386	1188.53
1022.677	1203.44
1022.967	1173.84
1023.258	1185.82
1023.548	1190.11
1023.839	1163.67
1024.129	1152.82
1024.419	1145.37
1024.709	1133.16
1025	1141.07
1025.29	1104.46
1025.58	1105.14
1025.87	1123.22
1026.16	1115.08
1026.449	1095.2
1026.739	1085.03
1027.029	1077.57
1027.319	1075.54
1027.608	1058.81
1027.898	1058.81
1028.187	1071.92
1028.477	1057.01
1028.766	1062.2
1029.055	1041.41
1029.344	1052.94
1029.634	1045.48
1029.923	1000.06
1030.212	1014.07
1030.501	1012.94
1030.79	986.73
1031.078	983.79
1031.367	971.81
1031.656	1018.14
1031.945	970.45
1032.233	949.89
1032.522	964.81
1032.81	973.62
1033.099	951.25
1033.387	957.8
1033.675	939.5
1033.963	948.31
1034.251	921.42
1034.54	918.48
1034.828	923.45
1035.116	908.76
1035.403	941.75
1035.691	915.31
1035.979	931.13
1036.267	909.67
1036.554	887.29
1036.842	889.1
1037.129	892.49
1037.417	865.15
1037.704	850.23
1037.992	860.4
1038.279	854.07
1038.566	854.07
1038.853	854.07
1039.14	854.07
