Data from hue_230_FLMS001491_00042.txt Node
Date: Tue Feb 07 16:37:16 GMT 2017
User: dcchb
Spectrometer: FLMS00149
Trigger mode: 0
Integration Time (sec): 2.000000E-2
Scans to average: 10
Electric dark correction enabled: true
Nonlinearity correction enabled: false
Boxcar width: 0
XAxis mode: Wavelengths
Number of Pixels in Spectrum: 2048
>>>>>Begin Spectral Data<<<<<
341.393	10.54
341.776	10.54
342.16	10.54
342.543	-63.59
342.927	-54.77
343.31	-80.76
343.693	-96.81
344.077	-68.78
344.46	-51.61
344.843	-44.38
345.226	-18.39
345.61	-25.39
345.993	-21.1
346.376	-16.81
346.759	17.99
347.142	28.39
347.525	52.34
347.908	50.31
348.291	80.14
348.674	96.64
349.057	98.22
349.44	115.84
349.823	128.5
350.206	146.58
350.588	173.02
350.971	211.89
351.354	216.86
351.737	221.38
352.119	241.94
352.502	241.72
352.884	253.24
353.267	294.14
353.65	273.13
354.032	274.26
354.414	310.19
354.797	301.15
355.179	317.65
355.562	298.44
355.944	308.61
356.326	334.6
356.709	317.42
357.091	336.63
357.473	333.47
357.855	352.9
358.238	345.89
358.62	340.25
359.002	322.84
359.384	315.16
359.766	367.14
360.148	343.86
360.53	330.08
360.912	335.27
361.294	313.35
361.676	332.34
362.057	336.4
362.439	317.87
362.821	310.19
363.203	331.21
363.584	337.99
363.966	317.2
364.348	314.71
364.729	329.17
365.111	315.39
365.493	319.45
365.874	316.97
366.256	317.87
366.637	336.4
367.019	325.78
367.4	323.75
367.781	315.39
368.163	294.37
368.544	312.9
368.925	303.18
369.306	295.73
369.688	310.19
370.069	329.4
370.45	321.04
370.831	323.97
371.212	304.09
371.593	315.16
371.974	303.86
372.355	327.82
372.736	297.99
373.117	314.71
373.498	305.9
373.879	312
374.26	317.65
374.641	309.29
375.021	302.51
375.402	313.35
375.783	315.39
376.163	309.29
376.544	320.58
376.925	318.55
377.305	327.59
377.686	321.71
378.066	323.97
378.447	321.26
378.827	330.75
379.208	310.64
379.588	313.13
379.968	316.29
380.349	324.2
380.729	328.27
381.109	328.95
381.489	350.19
381.87	353.13
382.25	319.91
382.63	326.46
383.01	323.3
383.39	341.15
383.77	357.19
384.15	320.58
384.53	332.11
384.91	329.4
385.29	330.75
385.67	348.15
386.049	333.69
386.429	347.48
386.809	364.2
387.189	343.41
387.568	341.38
387.948	341.15
388.328	351.09
388.707	344.76
389.087	354.93
389.466	356.97
389.846	339.57
390.225	362.39
390.605	364.2
390.984	352.22
391.363	375.5
391.743	356.52
392.122	352.9
392.501	354.71
392.881	384.99
393.26	379.79
393.639	377.08
394.018	369.85
394.397	363.97
394.776	365.56
395.155	370.75
395.534	371.2
395.913	382.5
396.292	391.77
396.671	391.77
397.05	377.53
397.429	395.61
397.808	380.02
398.186	381.6
398.565	392
398.944	406.68
399.323	396.29
399.701	390.41
400.08	389.96
400.458	385.67
400.837	416.18
401.215	391.77
401.594	400.58
401.972	411.88
402.351	404.2
402.729	408.04
403.107	407.36
403.486	408.04
403.864	388.15
404.242	434.03
404.62	399.23
404.999	421.83
405.377	430.19
405.755	425.44
406.133	441.49
406.511	446.01
406.889	456.85
407.267	480.81
407.645	458.89
408.023	438.1
408.401	462.73
408.779	452.11
409.156	458.21
409.534	455.04
409.912	473.58
410.29	493.69
410.667	495.95
411.045	489.17
411.422	519.22
411.8	502.27
412.178	514.7
412.555	536.85
412.933	542.05
413.31	538.43
413.687	551.99
414.065	550.41
414.442	554.25
414.819	534.14
415.197	566.91
415.574	583.85
415.951	593.57
416.328	561.93
416.705	591.09
417.082	604.19
417.46	595.83
417.837	606.9
418.214	593.57
418.591	611.2
418.967	620.69
419.344	634.25
419.721	633.8
420.098	639.9
420.475	650.97
420.852	649.84
421.228	665.66
421.605	683.51
421.982	690.74
422.358	695.72
422.735	709.95
423.111	712.44
423.488	728.71
423.864	738.65
424.241	742.72
424.617	743.85
424.994	784.98
425.37	771.65
425.746	771.87
426.123	772.32
426.499	777.07
426.875	812.55
427.251	824.98
427.627	820.68
428.003	821.59
428.379	886.45
428.756	873.11
429.132	872.43
429.507	874.92
429.883	883.06
430.259	892.32
430.635	893.23
431.011	898.65
431.387	919.21
431.763	914.69
432.138	952.43
432.514	954.01
432.89	970.96
433.265	988.14
433.641	1002.83
434.016	1015.48
434.392	1029.49
434.767	1064.29
435.143	1035.37
435.518	1079.89
435.894	1081.69
436.269	1097.74
436.644	1139.77
437.02	1133.44
437.395	1141.35
437.77	1198.3
438.145	1191.3
438.52	1205.76
438.895	1208.7
439.271	1226.78
439.646	1257.06
440.021	1250.28
440.395	1285.76
440.77	1284.85
441.145	1286.44
441.52	1316.49
441.895	1305.19
442.27	1361.46
442.645	1341.12
443.019	1332.31
443.394	1361.69
443.769	1415.25
444.143	1402.59
444.518	1422.25
444.892	1421.12
445.267	1422.93
445.641	1462.25
446.016	1457.28
446.39	1480.55
446.764	1450.5
447.139	1450.27
447.513	1499.31
447.887	1488.01
448.262	1502.25
448.636	1502.93
449.01	1530.5
449.384	1538.86
449.758	1551.51
450.132	1590.83
450.506	1549.71
450.88	1575.24
451.254	1600.33
451.628	1606.88
452.002	1630.15
452.376	1593.32
452.75	1641.91
453.123	1652.3
453.497	1671.28
453.871	1699.98
454.244	1734.56
454.618	1759.19
454.992	1784.73
455.365	1745.63
455.739	1794.9
456.112	1798.74
456.486	1818.62
456.859	1810.94
457.232	1885.52
457.606	1876.02
457.979	1884.84
458.352	1925.97
458.725	1954.21
459.099	1965.29
459.472	1968.68
459.845	1957.6
460.218	2005.06
460.591	2010.48
460.964	1995.12
461.337	2107.43
461.71	2106.3
462.083	2121.22
462.456	2116.02
462.829	2140.2
463.201	2189.91
463.574	2186.3
463.947	2177.03
464.32	2252.51
464.692	2264.04
465.065	2272.17
465.438	2305.39
465.81	2345.62
466.183	2361.21
466.555	2395.56
466.928	2433.3
467.3	2426.97
467.672	2436.69
468.045	2531.6
468.417	2496.12
468.789	2556.01
469.161	2593.75
469.534	2590.36
469.906	2635.78
470.278	2662.9
470.65	2690.01
471.022	2722.56
471.394	2753.74
471.766	2777.47
472.138	2806.4
472.51	2898.14
472.882	2868.09
473.253	2894.08
473.625	2956.22
473.997	3011.14
474.369	3023.56
474.74	3061.76
475.112	3096.78
475.484	3131.36
475.855	3194.41
476.227	3229.89
476.598	3290.68
476.97	3321.41
477.341	3375.87
477.713	3379.94
478.084	3421.97
478.455	3469.2
478.827	3551.69
479.198	3640.95
479.569	3627.84
479.94	3712.59
480.311	3712.13
480.682	3770.89
481.053	3840.04
481.424	3913.94
481.795	3936.31
482.166	4004.1
482.537	4021.73
482.908	4116.64
483.279	4148.73
483.65	4190.31
484.021	4264.44
484.391	4332.68
484.762	4330.87
485.133	4351.44
485.503	4435.05
485.874	4473.24
486.244	4532.9
486.615	4611.09
486.985	4628.04
487.356	4743.07
487.726	4755.95
488.097	4800.69
488.467	4844.76
488.837	4937.41
489.207	4951.2
489.578	4992.55
489.948	5091.76
490.318	5132.44
490.688	5138.54
491.058	5225.54
491.428	5235.94
491.798	5333.56
492.168	5432.09
492.538	5387.34
492.908	5416.72
493.278	5493.33
493.648	5463.95
494.017	5597.06
494.387	5615.36
494.757	5645.64
495.126	5726.09
495.496	5724.06
495.866	5734.23
496.235	5734.91
496.605	5790.05
496.974	5812.87
497.344	5884.51
497.713	5912.98
498.082	5919.99
498.452	5942.36
498.821	6012.41
499.19	5983.03
499.559	6107.78
499.928	6092.64
500.298	6084.28
500.667	6126.31
501.036	6154.78
501.405	6132.86
501.774	6164.05
502.143	6218.96
502.512	6237.49
502.88	6257.83
503.249	6305.96
503.618	6291.5
503.987	6309.35
504.356	6390.03
504.724	6380.31
505.093	6370.82
505.462	6392.06
505.83	6425.06
506.199	6453.98
506.567	6541.66
506.936	6504.15
507.304	6561.32
507.672	6536.24
508.041	6564.94
508.409	6597.26
508.777	6595
509.145	6696.46
509.514	6682
509.882	6667.08
510.25	6690.81
510.618	6736.69
510.986	6710.93
511.354	6751.15
511.722	6797.25
512.09	6785.73
512.458	6794.76
512.826	6832.5
513.193	6913.18
513.561	6831.6
513.929	6861.66
514.297	6884.25
514.664	6907.76
515.032	6863.46
515.4	6926.06
515.767	6906.4
516.135	6958.15
516.502	6918.38
516.869	7018.04
517.237	7037.47
517.604	6947.3
517.972	7056.68
518.339	7046.74
518.706	7032.05
519.073	7010.35
519.44	7081.99
519.808	7098.49
520.175	6986.62
520.542	7109.56
520.909	7120.18
521.276	7079.05
521.643	7118.15
522.009	7209.9
522.376	7224.58
522.743	7171.93
523.11	7198.37
523.477	7202.21
523.843	7248.54
524.21	7226.17
524.577	7339.84
524.943	7266.62
525.31	7337.8
525.676	7341.19
526.043	7360.85
526.409	7331.02
526.776	7392.04
527.142	7397.91
527.508	7367.41
527.874	7412.15
528.241	7408.31
528.607	7410.79
528.973	7425.71
529.339	7338.25
529.705	7432.94
530.071	7443.11
530.437	7429.32
530.803	7403.56
531.169	7437.23
531.535	7430.45
531.901	7400.17
532.267	7444.92
532.632	7379.83
532.998	7407.63
533.364	7462.77
533.73	7439.72
534.095	7525.82
534.461	7444.24
534.826	7485.59
535.192	7396.78
535.557	7415.99
535.923	7375.77
536.288	7390.46
536.653	7329.89
537.019	7334.41
537.384	7365.6
537.749	7299.61
538.114	7284.02
538.479	7321.98
538.845	7290.12
539.21	7320.4
539.575	7272.27
539.94	7344.58
540.305	7278.37
540.67	7311.81
541.034	7254.64
541.399	7263.23
541.764	7225.71
542.129	7218.93
542.494	7231.36
542.858	7204.47
543.223	7205.38
543.587	7215.32
543.952	7167.64
544.316	7158.6
544.681	7111.37
545.045	7152.5
545.41	7147.75
545.774	7183.91
546.138	7051.71
546.503	7101.42
546.867	7076.79
547.231	7137.58
547.595	7082.21
547.959	6976.68
548.324	7018.04
548.688	7022.78
549.052	7048.32
549.416	7039.05
549.779	7002.44
550.143	6971.94
550.507	6997.47
550.871	6913.63
551.235	6935.33
551.599	6948.21
551.962	6914.31
552.326	7000.64
552.689	6917.7
553.053	6899.39
553.417	6882.45
553.78	6952.73
554.143	6910.02
554.507	6926.51
554.87	6898.26
555.234	6884.71
555.597	6796.8
555.96	6886.29
556.323	6874.54
556.686	6883.12
557.05	6832.05
557.413	6855.1
557.776	6853.07
558.139	6863.46
558.502	6876.57
558.865	6837.93
559.228	6886.97
559.59	6919.06
559.953	6900.75
560.316	6930.13
560.679	6882.22
561.041	6928.09
561.404	6879.51
561.767	6895.78
562.129	6936.46
562.492	6953.18
562.854	6931.94
563.217	6929.45
563.579	6949.79
563.941	6971.71
564.304	7005.61
564.666	7071.37
565.028	6986.4
565.39	7009.45
565.753	7013.29
566.115	7020.07
566.477	7030.46
566.839	7067.07
567.201	7030.69
567.563	7074.08
567.925	7089.9
568.287	7095.55
568.648	7126.28
569.01	7141.65
569.372	7135.09
569.734	7090.8
570.095	7225.26
570.457	7235.43
570.819	7217.35
571.18	7247.41
571.542	7213.51
571.903	7248.09
572.265	7205.38
572.626	7247.18
572.987	7295.77
573.349	7319.27
573.71	7299.84
574.071	7343.68
574.432	7324.24
574.794	7406.73
575.155	7339.61
575.516	7341.42
575.877	7384.35
576.238	7369.44
576.599	7431.36
576.96	7447.63
577.32	7408.31
577.681	7462.54
578.042	7485.82
578.403	7542.77
578.763	7532.37
579.124	7487.63
579.485	7566.5
579.845	7575.76
580.206	7579.38
580.566	7614.4
580.927	7626.16
581.287	7621.41
581.648	7602.65
582.008	7648.53
582.368	7678.36
582.728	7613.95
583.089	7721.75
583.449	7604.24
583.809	7703.89
584.169	7679.26
584.529	7696.44
584.889	7747.96
585.249	7749.32
585.609	7711.8
585.969	7759.49
586.329	7749.99
586.688	7786.6
587.048	7749.32
587.408	7787.51
587.768	7752.93
588.127	7797.22
588.487	7799.94
588.846	7865.7
589.206	7844.23
589.565	7822.53
589.925	7890.56
590.284	7869.99
590.643	7900.72
591.003	7961.29
591.362	7915.19
591.721	7912.48
592.08	7921.97
592.44	7914.74
592.799	7973.26
593.158	7907.05
593.517	7957.22
593.876	7971.01
594.235	7946.15
594.593	7949.31
594.952	8013.49
595.311	7985.69
595.67	8007.61
596.029	8007.39
596.387	8004.45
596.746	8041.51
597.104	8034.51
597.463	7953.15
597.822	8041.74
598.18	8073.38
598.538	7990.21
598.897	8051
599.255	8015.98
599.613	8042.64
599.972	8034.05
600.33	8119.93
600.688	8018.91
601.046	8099.59
601.404	8162.86
601.762	8139.81
602.12	8187.5
602.478	8211.45
602.836	8124.45
603.194	8173.49
603.552	8137.55
603.91	8091.23
604.268	8102.53
604.625	8129.42
604.983	8132.13
605.341	8168.97
605.698	8198.34
606.056	8185.91
606.413	8141.62
606.771	8215.07
607.128	8208.51
607.485	8195.86
607.843	8147.27
608.2	8188.63
608.557	8229.08
608.914	8237.89
609.272	8276.76
609.629	8284.67
609.986	8292.35
610.343	8225.01
610.7	8340.03
611.057	8294.39
611.414	8292.35
611.771	8283.31
612.127	8319.7
612.484	8323.76
612.841	8339.81
613.198	8345.01
613.554	8340.71
613.911	8345.46
614.267	8363.76
614.624	8298.91
614.98	8393.37
615.337	8510.43
615.693	8394.27
616.05	8394.72
616.406	8422.97
616.762	8435.63
617.118	8404.21
617.475	8416.42
617.831	8444.21
618.187	8425.68
618.543	8471.33
618.899	8512.91
619.255	8484.21
619.611	8473.59
619.967	8495.51
620.323	8515.62
620.678	8474.72
621.034	8413.25
621.39	8498.45
621.746	8491.22
622.101	8549.52
622.457	8490.77
622.812	8449.41
623.168	8510.2
623.523	8472.46
623.879	8524.44
624.234	8456.42
624.589	8512.91
624.945	8499.58
625.3	8485.34
625.655	8480.6
626.01	8526.92
626.365	8490.77
626.72	8492.35
627.075	8483.53
627.43	8511.33
627.785	8465.46
628.14	8462.29
628.495	8572.57
628.85	8469.3
629.205	8503.19
629.559	8437.89
629.914	8439.69
630.269	8522.63
630.623	8491.22
630.978	8426.36
631.332	8401.73
631.687	8481.05
632.041	8358.11
632.396	8512.46
632.75	8404.67
633.104	8391.11
633.459	8397.66
633.813	8366.02
634.167	8342.29
634.521	8354.5
634.875	8396.53
635.229	8328.51
635.583	8346.59
635.937	8284.44
636.291	8273.37
636.645	8286.48
636.999	8269.3
637.352	8256.42
637.706	8166.71
638.06	8257.33
638.413	8233.37
638.767	8290.09
639.121	8211.45
639.474	8211
639.828	8202.19
640.181	8142.53
640.534	8220.26
640.888	8239.25
641.241	8157.89
641.594	8160.38
641.947	8091.91
642.301	8158.12
642.654	8086.26
643.007	8149.08
643.36	8057.33
643.713	8092.36
644.066	8084.67
644.419	8040.38
644.771	8036.09
645.124	7970.1
645.477	7948.63
645.83	7971.01
646.182	7874.96
646.535	7885.81
646.888	7922.19
647.24	7768.07
647.593	7882.42
647.945	7903.21
648.298	7876.54
648.65	7766.49
649.002	7776.89
649.355	7818.69
649.707	7827.96
650.059	7928.52
650.411	7910.67
650.763	7945.7
651.115	8067.5
651.467	8088.97
651.819	8008.97
652.171	8014.85
652.523	7979.59
652.875	7960.61
653.227	7951.34
653.578	8045.81
653.93	7935.75
654.282	7937.33
654.633	7926.49
654.985	8036.54
655.337	8008.97
655.688	7981.17
656.039	8003.77
656.391	7924.45
656.742	7976.88
657.094	8004.22
657.445	8001.51
657.796	7947.95
658.147	7993.6
658.498	7958.35
658.849	7955.64
659.2	8059.14
659.551	7909.31
659.902	7976.43
660.253	7992.93
660.604	8031.79
660.955	8001.29
661.306	7985.47
661.656	7996.54
662.007	7996.09
662.358	8010.55
662.708	7970.78
663.059	8034.28
663.409	7907.96
663.76	7956.99
664.11	8035.86
664.461	8068.18
664.811	8000.61
665.161	7989.54
665.511	7959.93
665.862	7972.36
666.212	7954.28
666.562	7966.71
666.912	7997.9
667.262	7950.21
667.612	7961.74
667.962	8027.05
668.312	7994.73
668.662	8009.2
669.011	8056.43
669.361	7982.98
669.711	7935.3
670.06	7959.25
670.41	7992.02
670.76	7972.81
671.109	7945.92
671.459	7946.6
671.808	8009.87
672.157	7986.82
672.507	7847.17
672.856	7901.85
673.205	7930.78
673.554	7961.51
673.904	7862.76
674.253	7950.44
674.602	7869.31
674.951	7848.75
675.3	7766.94
675.649	7916.77
675.998	7871.12
676.346	7896.66
676.695	7869.99
677.044	7812.59
677.393	7863.89
677.741	7931.91
678.09	7809.43
678.438	7833.38
678.787	7834.51
679.135	7788.86
679.484	7770.11
679.832	7798.35
680.181	7714.51
680.529	7751.58
680.877	7686.94
681.225	7752.03
681.573	7729.66
681.922	7656.44
682.27	7713.16
682.618	7617.79
682.966	7695.53
683.314	7613.27
683.661	7663.67
684.009	7638.13
684.357	7622.54
684.705	7608.98
685.053	7616.66
685.4	7540.51
685.748	7518.36
686.095	7481.98
686.443	7528.53
686.79	7481.98
687.138	7502.09
687.485	7399.49
687.832	7454.41
688.18	7440.62
688.527	7394.3
688.874	7386.84
689.221	7351.36
689.568	7311.14
689.915	7344.35
690.262	7338.25
690.609	7302.55
690.956	7306.84
691.303	7251.02
691.65	7280.18
691.997	7196.79
692.344	7126.51
692.69	7162.89
693.037	7096.9
693.383	7062.1
693.73	7151.37
694.077	7060.75
694.423	7018.26
694.769	7020.97
695.116	7043.57
695.462	7006.28
695.808	6955.21
696.155	6988.43
696.501	6897.59
696.847	6882.22
697.193	6859.4
697.539	6926.29
697.885	6884.25
698.231	6839.96
698.577	6755.44
698.923	6828.21
699.269	6766.97
699.614	6692.39
699.96	6679.74
700.306	6648.1
700.651	6630.25
700.997	6630.02
701.342	6550.48
701.688	6611.72
702.033	6594.09
702.379	6555.9
702.724	6529.46
703.069	6524.72
703.415	6463.7
703.76	6466.64
704.105	6466.86
704.45	6441.1
704.795	6414.44
705.14	6371.95
705.485	6328.56
705.83	6326.98
706.175	6362.69
706.52	6404.72
706.865	6250.37
707.209	6274.33
707.554	6220.09
707.899	6287.66
708.243	6250.37
708.588	6279.98
708.932	6189.13
709.277	6179.19
709.621	6178.51
709.966	6133.54
710.31	6131.73
710.654	6084.95
710.998	6132.64
711.342	6124.5
711.687	6091.51
712.031	6092.41
712.375	6060.55
712.719	6035.91
713.063	5996.59
713.407	6053.77
713.75	5964.73
714.094	5963.37
714.438	5982.36
714.782	5974.67
715.125	5938.97
715.469	5924.05
715.812	5933.32
716.156	5863.49
716.499	5892.19
716.843	5941.23
717.186	5870.27
717.53	5843.38
717.873	5905.75
718.216	5908.91
718.559	5853.32
718.902	5804.96
719.246	5843.15
719.589	5761.57
719.932	5837.73
720.275	5814.9
720.617	5867.33
720.96	5798.18
721.303	5782.59
721.646	5771.74
721.989	5745.75
722.331	5761.57
722.674	5738.52
723.016	5754.79
723.359	5745.53
723.701	5786.88
724.044	5702.14
724.386	5679.99
724.729	5748.46
725.071	5717.73
725.413	5714.34
725.755	5708.92
726.097	5631.86
726.439	5665.75
726.782	5670.5
727.124	5738.97
727.465	5694.91
727.807	5677.28
728.149	5681.12
728.491	5647
728.833	5687.68
729.175	5638.41
729.516	5713.66
729.858	5665.98
730.199	5641.12
730.541	5667.11
730.882	5631.63
731.224	5660.33
731.565	5629.37
731.906	5637.73
732.248	5650.84
732.589	5617.62
732.93	5599.32
733.271	5618.98
733.612	5643.16
733.953	5632.08
734.294	5630.95
734.635	5625.98
734.976	5620.33
735.317	5668.01
735.658	5649.94
735.999	5626.43
736.339	5631.41
736.68	5662.37
737.021	5656.04
737.361	5614.68
737.702	5700.1
738.042	5603.38
738.383	5641.8
738.723	5668.24
739.063	5693.1
739.404	5739.2
739.744	5652.2
740.084	5677.96
740.424	5705.53
740.764	5678.64
741.104	5730.61
741.444	5702.59
741.784	5733.32
742.124	5743.04
742.464	5750.72
742.804	5739.43
743.143	5740.78
743.483	5783.94
743.823	5762.48
744.162	5778.97
744.502	5803.83
744.841	5853.32
745.181	5916.82
745.52	5924.51
745.86	5928.35
746.199	5905.52
746.538	5973.32
746.877	6007.21
747.216	6042.92
747.556	6033.43
747.895	6085.86
748.234	6091.73
748.573	6204.27
748.911	6162.69
749.25	6201.33
749.589	6238.62
749.928	6283.82
750.267	6374.21
750.605	6418.28
750.944	6454.66
751.283	6474.32
751.621	6604.26
751.96	6661.89
752.298	6670.02
752.636	6835.44
752.975	6832.73
753.313	6853.97
753.651	6978.26
753.989	7046.51
754.327	7099.62
754.666	7121.54
755.004	7221.87
755.342	7348.42
755.679	7456.89
756.017	7534.18
756.355	7688.3
756.693	7750.9
757.031	7822.99
757.368	7862.31
757.706	8093.04
758.044	8074.51
758.381	8255.97
758.719	8352.46
759.056	8404.89
759.394	8486.7
759.731	8622.51
760.068	8736.63
760.405	8872.9
760.743	9047.36
761.08	9115.16
761.417	9225.89
761.754	9312.44
762.091	9469.04
762.428	9570.29
762.765	9596.73
763.102	9831.97
763.438	9933.67
763.775	10024.51
764.112	10213.66
764.449	10330.49
764.785	10378.85
765.122	10481.45
765.458	10593.76
765.795	10657.26
766.131	10785.62
766.467	10852.51
766.804	10927.31
767.14	10960.76
767.476	11154.88
767.812	11185.38
768.148	11356.45
768.485	11422.67
768.821	11473.06
769.157	11527.97
769.492	11647.52
769.828	11752.37
770.164	11751.02
770.5	11884.8
770.836	11919.6
771.171	11933.39
771.507	12040.05
771.842	12082.76
772.178	12114.4
772.513	12233.94
772.849	12281.4
773.184	12322.3
773.519	12408.18
773.855	12421.96
774.19	12488.4
774.525	12454.95
774.86	12611.56
775.195	12650.88
775.53	12669.64
775.865	12563.43
776.2	12598.23
776.535	12648.4
776.87	12676.87
777.205	12668.51
777.539	12734.27
777.874	12795.96
778.209	12768.85
778.543	12835.06
778.878	12807.04
779.212	12876.86
779.547	12862.63
779.881	12879.12
780.215	12850.42
780.55	12899.46
780.884	12830.99
781.218	12822.18
781.552	12957.54
781.886	12853.59
782.22	12760.03
782.554	12854.04
782.888	12749.41
783.222	12777.21
783.556	12729.75
783.889	12749.86
784.223	12719.13
784.557	12726.13
784.89	12755.74
785.224	12672.8
785.557	12707.38
785.891	12739.47
786.224	12664.22
786.558	12711.45
786.891	12551.9
787.224	12570.21
787.557	12593.26
787.891	12553.48
788.224	12506.48
788.557	12541.28
788.89	12561.62
789.223	12499.02
789.556	12501.51
789.888	12466.48
790.221	12440.49
790.554	12431.23
790.887	12411.34
791.219	12338.57
791.552	12404.33
791.884	12285.69
792.217	12328.18
792.549	12227.62
792.882	12241.63
793.214	12184
793.546	12210.22
793.879	12151.01
794.211	12099.03
794.543	12188.97
794.875	12131.8
795.207	12168.41
795.539	12111.24
795.871	12126.15
796.203	11983.78
796.535	11962.76
796.867	12007.28
797.198	11915.31
797.53	11967.74
797.862	11750.34
798.193	11942.65
798.525	11841.64
798.856	11816.78
799.188	11712.6
799.519	11690.91
799.85	11628.54
800.182	11676.22
800.513	11651.59
800.844	11578.59
801.175	11597.58
801.506	11640.29
801.837	11593.73
802.168	11499.5
802.499	11518.48
802.83	11405.27
803.161	11410.01
803.491	11429.45
803.822	11384.25
804.153	11386.28
804.483	11361.65
804.814	11247.98
805.145	11320.52
805.475	11218.83
805.805	11271.94
806.136	11172.05
806.466	11230.81
806.796	11154.2
807.126	11071.04
807.457	11066.52
807.787	11092.05
808.117	11010.93
808.447	11018.83
808.777	11013.86
809.107	10979.74
809.436	10952.4
809.766	10891.61
810.096	10941.55
810.426	10846.18
810.755	10856.13
811.085	10906.07
811.414	10859.97
811.744	10722.35
812.073	10789.91
812.403	10751.95
812.732	10706.98
813.061	10647.32
813.39	10660.65
813.719	10615.46
814.049	10717.15
814.378	10593.76
814.707	10556.25
815.036	10600.99
815.365	10566.87
815.693	10488
816.022	10559.19
816.351	10444.39
816.68	10423.14
817.008	10485.74
817.337	10339.3
817.665	10396.93
817.994	10338.85
818.322	10443.71
818.651	10356.03
818.979	10243.26
819.307	10345.41
819.636	10311.51
819.964	10244.17
820.292	10386.76
820.62	10284.39
820.948	10272.87
821.276	10254.79
821.604	10240.55
821.932	10242.36
822.259	10302.47
822.587	10190.16
822.915	10161
823.243	10221.34
823.57	10208.01
823.898	10238.06
824.225	10156.71
824.553	10217.27
824.88	10163.72
825.207	10217.95
825.535	10222.47
825.862	10270.61
826.189	10177.5
826.516	10288.23
826.843	10301.79
827.17	10233.32
827.497	10249.36
827.824	10253.2
828.151	10254.79
828.478	10233.32
828.805	10252.75
829.131	10229.93
829.458	10255.24
829.785	10120.55
830.111	10170.04
830.438	10265.63
830.764	10221.79
831.09	10230.83
831.417	10140.21
831.743	10196.03
832.069	10211.4
832.395	10240.78
832.722	10238.97
833.048	10122.36
833.374	10271.06
833.7	10119.65
834.026	10184.05
834.351	10209.59
834.677	10114.45
835.003	10184.28
835.329	10126.43
835.654	10182.47
835.98	10075.13
836.306	10130.27
836.631	10083.04
836.956	10051.85
837.282	10069.48
837.607	10050.27
837.932	10035.36
838.258	9989.03
838.583	9979.09
838.908	9954
839.233	9963.5
839.558	9965.98
839.883	9892.99
840.208	9920.11
840.533	9849.6
840.858	9885.31
841.182	9881.01
841.507	9867.23
841.832	9887.79
842.156	9838.98
842.481	9798.98
842.805	9731.86
843.13	9742.26
843.454	9694.8
843.778	9694.58
844.103	9705.65
844.427	9635.59
844.751	9740.9
845.075	9665.88
845.399	9580.68
845.723	9540.23
846.047	9616.39
846.371	9469.72
846.695	9490.29
847.019	9423.85
847.343	9460.91
847.666	9389.27
847.99	9308.6
848.313	9306.11
848.637	9291.42
848.96	9149.28
849.284	9186.11
849.607	9144.53
849.931	9135.04
850.254	9047.81
850.577	9032.22
850.9	8939.12
851.223	8961.94
851.546	8943.86
851.869	8816.18
852.192	8881.49
852.515	8822.06
852.838	8792.9
853.161	8776.41
853.483	8757.43
853.806	8662.96
854.129	8715.17
854.451	8636.75
854.774	8619.12
855.096	8672.23
855.419	8541.39
855.741	8593.81
856.063	8595.17
856.385	8521.5
856.708	8490.54
857.03	8494.83
857.352	8429.52
857.674	8443.31
857.996	8353.82
858.318	8299.81
858.64	8364.67
858.961	8301.17
859.283	8250.09
859.605	8254.84
859.926	8254.84
860.248	8257.55
860.57	8219.81
860.891	8200.15
861.212	8193.37
861.534	8116.76
861.855	8087.84
862.176	8061.62
862.498	8124
862.819	8068.86
863.14	8069.99
863.461	8118.12
863.782	8031.12
864.103	8023.66
864.424	8008.97
864.745	8088.97
865.065	7971.68
865.386	7948.18
865.707	7939.14
866.027	8002.19
866.348	7921.51
866.668	7902.08
866.989	7905.02
867.309	7839.94
867.63	7899.14
867.95	7872.7
868.27	7817.56
868.59	7874.06
868.91	7826.83
869.23	7812.82
869.55	7759.71
869.87	7806.26
870.19	7811.01
870.51	7763.78
870.83	7811.46
871.15	7740.95
871.469	7735.98
871.789	7712.25
872.109	7707.74
872.428	7656.44
872.748	7685.36
873.067	7683.1
873.386	7675.65
873.706	7670.67
874.025	7601.07
874.344	7575.54
874.663	7597.68
874.982	7642.43
875.301	7569.21
875.62	7554.74
875.939	7493.73
876.258	7567.4
876.577	7535.99
876.896	7524.46
877.214	7459.15
877.533	7456.89
877.852	7520.4
878.17	7456.89
878.489	7439.49
878.807	7446.27
879.125	7445.37
879.444	7424.35
879.762	7405.14
880.08	7434.07
880.398	7386.61
880.716	7430.45
881.034	7370.79
881.352	7352.26
881.67	7372.6
881.988	7298.93
882.306	7248.54
882.624	7289.67
882.941	7208.31
883.259	7235.43
883.577	7249.67
883.894	7262.55
884.212	7185.49
884.529	7175.77
884.846	7113.4
885.164	7172.16
885.481	7117.24
885.798	7121.54
886.115	7089.22
886.432	7091.03
886.75	7045.15
887.067	7081.76
887.383	7032.72
887.7	7107.07
888.017	6976.91
888.334	7032.05
888.651	6963.35
888.967	6978.71
889.284	6964.48
889.6	6942.78
889.917	6872.73
890.233	6843.58
890.55	6839.28
890.866	6851.26
891.182	6796.35
891.498	6808.55
891.815	6822.33
892.131	6758.83
892.447	6735.33
892.763	6693.52
893.079	6727.2
893.395	6701.66
893.71	6689.91
894.026	6696.01
894.342	6678.61
894.657	6589.12
894.973	6577.37
895.289	6632.74
895.604	6600.42
895.92	6513.19
896.235	6497.15
896.55	6525.62
896.865	6463.25
897.181	6453.3
897.496	6488.78
897.811	6408.11
898.126	6352.97
898.441	6365.4
898.756	6327.88
899.071	6286.3
899.386	6339.18
899.7	6243.82
900.015	6244.27
900.33	6175.8
900.644	6156.59
900.959	6212.63
901.273	6160.66
901.588	6121.79
901.902	6075.46
902.216	6083.6
902.531	6045.86
902.845	6043.15
903.159	6017.84
903.473	6030.27
903.787	5945.3
904.101	5948.69
904.415	5868.46
904.729	5917.5
905.042	5921.12
905.356	5857.39
905.67	5887.44
905.984	5818.75
906.297	5853.32
906.611	5815.36
906.924	5797.73
907.237	5747.79
907.551	5679.31
907.864	5700.1
908.177	5705.3
908.491	5668.47
908.804	5620.78
909.117	5618.07
909.43	5562.25
909.743	5572.88
910.056	5528.13
910.368	5584.18
910.681	5500.56
910.994	5499.43
911.307	5488.13
911.619	5409.26
911.932	5453.33
912.244	5374.92
912.557	5449.49
912.869	5344.18
913.181	5336.27
913.494	5275.03
913.806	5270.06
914.118	5255.14
914.43	5231.42
914.742	5263.51
915.054	5197.52
915.366	5169.5
915.678	5195.94
915.99	5152.77
916.302	5143.73
916.613	5099.89
916.925	5055.6
917.236	5082.95
917.548	5041.14
917.859	5073.45
918.171	5013.34
918.482	4967.47
918.794	4993.23
919.105	4974.47
919.416	4955.27
919.727	4974.02
920.038	4916.62
920.349	4849.51
920.66	4865.32
920.971	4854.25
921.282	4832.1
921.593	4805.89
921.903	4807.25
922.214	4828.26
922.525	4788.26
922.835	4708.04
923.146	4707.59
923.456	4701.94
923.767	4653.35
924.077	4691.54
924.387	4665.56
924.697	4620.13
925.008	4585.56
925.318	4585.56
925.628	4545.11
925.938	4517.31
926.248	4519.12
926.558	4491.77
926.867	4442.28
927.177	4459.46
927.487	4465.11
927.796	4402.06
928.106	4378.33
928.416	4409.52
928.725	4347.37
929.034	4333.59
929.344	4355.96
929.653	4360.25
929.962	4300.82
930.271	4265.57
930.581	4293.14
930.89	4254.94
931.199	4208.39
931.508	4223.31
931.817	4194.83
932.125	4189.64
932.434	4172.46
932.743	4142.18
933.051	4097.43
933.36	4116.42
933.669	4090.66
933.977	4092.46
934.286	4114.16
934.594	4078
934.902	4072.35
935.21	3981.28
935.519	4027.83
935.827	3974.5
936.135	3991.9
936.443	3959.81
936.751	3925.01
937.059	3939.25
937.367	3911.9
937.674	3923.2
937.982	3913.71
938.29	3891.11
938.597	3854.73
938.905	3813.37
939.213	3805.24
939.52	3814.73
939.827	3840.27
940.135	3736.77
940.442	3766.6
940.749	3769.31
941.056	3734.51
941.363	3674.39
941.67	3666.94
941.977	3677.11
942.284	3685.24
942.591	3631.23
942.898	3582.87
943.205	3672.81
943.511	3651.57
943.818	3609.99
944.125	3590.78
944.431	3501.29
944.738	3531.35
945.044	3625.13
945.35	3497.45
945.657	3460.62
945.963	3493.61
946.269	3489.32
946.575	3469.43
946.881	3417
947.187	3430.56
947.493	3410.45
947.799	3405.48
948.105	3404.12
948.41	3339.71
948.716	3377.91
949.022	3335.42
949.327	3297.46
949.633	3343.33
949.938	3304.01
950.244	3304.24
950.549	3273.05
950.854	3263.33
951.16	3228.98
951.465	3213.84
951.77	3219.27
952.075	3192.37
952.38	3227.18
952.685	3193.05
952.99	3169.55
953.294	3149.44
953.599	3172.94
953.904	3133.84
954.209	3116.9
954.513	3084.81
954.818	3056.78
955.122	3073.51
955.426	3056.11
955.731	3050.23
956.035	3018.37
956.339	3010.68
956.643	3028.31
956.948	3007.29
957.252	2992.6
957.556	2948.54
957.86	2968.65
958.163	2946.73
958.467	2920.29
958.771	2931.82
959.075	2903.57
959.378	2942.21
959.682	2881.42
959.985	2910.12
960.289	2842.1
960.592	2821.54
960.896	2889.78
961.199	2877.58
961.502	2809.56
961.805	2806.17
962.108	2818.6
962.411	2794.64
962.714	2786.28
963.017	2727.3
963.32	2731.82
963.623	2718.26
963.926	2723.91
964.228	2690.24
964.531	2720.07
964.833	2730.46
965.136	2691.14
965.438	2662.67
965.741	2653.18
966.043	2649.11
966.345	2645.95
966.648	2633.74
966.95	2626.06
967.252	2612.95
967.554	2630.81
967.856	2595.33
968.158	2586.29
968.46	2594.2
968.761	2534.76
969.063	2534.09
969.365	2545.84
969.666	2497.02
969.968	2522.33
970.269	2540.19
970.571	2505.39
970.872	2462.22
971.174	2494.31
971.475	2451.6
971.776	2466.74
972.077	2433.75
972.378	2435.56
972.679	2452.28
972.98	2431.04
973.281	2383.13
973.582	2406.63
973.883	2374.99
974.183	2393.3
974.484	2368.21
974.785	2345.62
975.085	2352.4
975.386	2365.95
975.686	2333.19
975.986	2338.38
976.287	2291.61
976.587	2263.36
976.887	2307.43
977.187	2295.22
977.487	2272.4
977.787	2253.19
978.087	2194.66
978.387	2222.23
978.687	2209.12
978.987	2206.64
979.286	2194.66
979.586	2198.28
979.885	2177.94
980.185	2193.3
980.484	2168.9
980.784	2151.5
981.083	2143.59
981.382	2156.24
981.682	2137.03
981.981	2142.68
982.28	2140.2
982.579	2069.47
982.878	2124.83
983.177	2084.15
983.475	2065.62
983.774	2083.93
984.073	2047.32
984.372	2061.78
984.67	2045.74
984.969	2026.53
985.267	2033.08
985.566	2046.19
985.864	2011.16
986.162	2012.07
986.461	1982.46
986.759	1998.51
987.057	1960.54
987.355	1950.82
987.653	1954.67
987.951	1946.53
988.249	1925.29
988.547	1931.62
988.844	1922.35
989.142	1934.55
989.44	1909.24
989.737	1910.83
990.035	1902.01
990.332	1892.07
990.63	1867.21
990.927	1857.72
991.224	1876.7
991.521	1865.18
991.819	1859.53
992.116	1852.07
992.413	1873.76
992.71	1849.58
993.006	1782.47
993.303	1843.93
993.6	1819.53
993.897	1786.53
994.193	1774.78
994.49	1759.87
994.787	1774.11
995.083	1740.43
995.379	1747.89
995.676	1784.95
995.972	1750.6
996.268	1698.18
996.565	1686.2
996.861	1703.37
997.157	1706.76
997.453	1686.65
997.749	1662.7
998.044	1664.73
998.34	1692.07
998.636	1689.14
998.932	1657.27
999.227	1649.59
999.523	1654.56
999.818	1643.71
1000.114	1596.94
1000.409	1606.2
1000.704	1602.58
1001	1620.21
1001.295	1601
1001.59	1588.57
1001.885	1586.09
1002.18	1558.29
1002.475	1544.96
1002.77	1534.34
1003.065	1538.63
1003.359	1541.8
1003.654	1514.45
1003.949	1509.48
1004.243	1509.93
1004.538	1535.69
1004.832	1480.55
1005.127	1504.73
1005.421	1504.28
1005.715	1487.33
1006.009	1484.4
1006.304	1442.59
1006.598	1458.63
1006.892	1461.57
1007.186	1458.86
1007.48	1423.83
1007.773	1422.48
1008.067	1407.79
1008.361	1389.48
1008.655	1407.11
1008.948	1391.29
1009.242	1401.69
1009.535	1403.95
1009.829	1344.96
1010.122	1362.14
1010.415	1342.03
1010.708	1331.63
1011.001	1344.06
1011.295	1342.7
1011.588	1356.04
1011.881	1339.32
1012.173	1315.59
1012.466	1315.59
1012.759	1305.42
1013.052	1271.52
1013.344	1290.5
1013.637	1269.49
1013.93	1279.88
1014.222	1267
1014.514	1246.89
1014.807	1251.41
1015.099	1231.07
1015.391	1259.32
1015.683	1235.14
1015.976	1238.3
1016.268	1208.25
1016.56	1217.74
1016.851	1186.32
1017.143	1192.88
1017.435	1193.1
1017.727	1176.16
1018.018	1182.26
1018.31	1186.55
1018.602	1189.49
1018.893	1149.94
1019.185	1146.55
1019.476	1108.81
1019.767	1146.33
1020.058	1117.85
1020.35	1115.14
1020.641	1105.87
1020.932	1102.71
1021.223	1104.07
1021.514	1082.15
1021.804	1109.72
1022.095	1085.99
1022.386	1100.9
1022.677	1078.3
1022.967	1058.64
1023.258	1040.79
1023.548	1054.35
1023.839	1048.25
1024.129	1054.58
1024.419	1020.23
1024.709	1023.39
1025	1029.72
1025.29	1027.91
1025.58	986.33
1025.87	994.92
1026.16	990.62
1026.449	986.78
1026.739	985.65
1027.029	985.43
1027.319	981.36
1027.608	943.39
1027.898	984.97
1028.187	946.11
1028.477	958.99
1028.766	958.76
1029.055	948.36
1029.344	966.9
1029.634	931.87
1029.923	930.96
1030.212	924.18
1030.501	922.6
1030.79	920.34
1031.078	933.22
1031.367	886.22
1031.656	908.37
1031.945	879.89
1032.233	894.81
1032.522	884.64
1032.81	861.36
1033.099	865.66
1033.387	876.5
1033.675	850.97
1033.963	852.55
1034.251	865.43
1034.54	835.6
1034.828	831.76
1035.116	847.35
1035.403	855.49
1035.691	810.97
1035.979	831.76
1036.267	822.27
1036.554	819.1
1036.842	802.38
1037.129	809.61
1037.417	832.44
1037.704	798.76
1037.992	788.82
1038.279	785.88
1038.566	795.37
1038.853	795.37
1039.14	795.37
