Data from hue_22_FLMS001491_00045.txt Node
Date: Tue Feb 07 17:10:10 GMT 2017
User: dcchb
Spectrometer: FLMS00149
Trigger mode: 0
Integration Time (sec): 2.000000E-2
Scans to average: 10
Electric dark correction enabled: true
Nonlinearity correction enabled: false
Boxcar width: 0
XAxis mode: Wavelengths
Number of Pixels in Spectrum: 2048
>>>>>Begin Spectral Data<<<<<
341.393	-7.53
341.776	-7.53
342.16	-7.53
342.543	-69
342.927	-63.8
343.31	-70.35
343.693	-57.02
344.077	-49.33
344.46	-58.83
344.843	-41.65
345.226	-54.31
345.61	-45.27
345.993	-19.51
346.376	-7.53
346.759	-6.85
347.142	26.37
347.525	52.58
347.908	47.61
348.291	82.64
348.674	89.19
349.057	112.24
349.44	146.37
349.823	146.14
350.206	181.85
350.588	196.99
350.971	183.65
351.354	209.64
351.737	246.25
352.119	272.01
352.502	251.45
352.884	271.56
353.267	279.47
353.65	289.41
354.032	307.49
354.414	335.97
354.797	322.18
355.179	302.97
355.562	335.74
355.944	327.83
356.326	324.89
356.709	341.62
357.091	335.97
357.473	340.03
357.855	339.13
358.238	342.75
358.62	358.56
359.002	343.65
359.384	345.46
359.766	342.97
360.148	323.76
360.53	337.1
360.912	326.7
361.294	342.29
361.676	323.08
362.057	329.19
362.439	338.9
362.821	327.83
363.203	302.75
363.584	319.24
363.966	329.41
364.348	325.34
364.729	341.62
365.111	304.78
365.493	302.97
365.874	341.62
366.256	319.92
366.637	307.94
367.019	330.99
367.4	328.28
367.781	312.01
368.163	298.68
368.544	320.15
368.925	316.76
369.306	317.89
369.688	314.27
370.069	307.04
370.45	320.37
370.831	326.25
371.212	321.28
371.593	309.07
371.974	314.05
372.355	314.95
372.736	324.21
373.117	310.43
373.498	328.51
373.879	301.84
374.26	333.71
374.641	312.69
375.021	334.16
375.402	333.03
375.783	325.34
376.163	313.82
376.544	328.06
376.925	316.98
377.305	326.25
377.686	327.6
378.066	342.75
378.447	310.43
378.827	333.03
379.208	331.67
379.588	322.18
379.968	345.01
380.349	344.55
380.729	318.34
381.109	331.67
381.489	331.45
381.87	322.86
382.25	342.97
382.63	330.32
383.01	351.33
383.39	337.55
383.77	319.47
384.15	336.87
384.53	329.64
384.91	339.58
385.29	335.74
385.67	331.67
386.049	373.93
386.429	361.73
386.809	348.62
387.189	353.59
387.568	352.91
387.948	360.82
388.328	364.67
388.707	354.27
389.087	370.09
389.466	356.98
389.846	371.22
390.225	362.63
390.605	370.32
390.984	355.63
391.363	348.62
391.743	368.96
392.122	350.43
392.501	370.32
392.881	378.22
393.26	376.87
393.639	373.7
394.018	372.35
394.397	386.59
394.776	382.29
395.155	388.17
395.534	379.35
395.913	368.73
396.292	381.61
396.671	393.14
397.05	375.74
397.429	390.88
397.808	392.01
398.186	390.88
398.565	386.36
398.944	388.17
399.323	393.14
399.701	384.78
400.08	387.94
400.458	401.73
400.837	380.26
401.215	387.26
401.594	399.92
401.972	403.53
402.351	418.22
402.729	416.19
403.107	401.5
403.486	397.89
403.864	421.39
404.242	430.43
404.62	413.03
404.999	403.08
405.377	435.62
405.755	417.09
406.133	426.58
406.511	399.92
406.889	420.03
407.267	451.89
407.645	427.26
408.023	432.01
408.401	438.79
408.779	443.08
409.156	425.45
409.534	432.46
409.912	462.06
410.29	462.74
410.667	453.7
411.045	434.95
411.422	452.35
411.8	448.05
412.178	459.58
412.555	436.75
412.933	468.62
413.31	471.33
413.687	473.59
414.065	456.19
414.442	464.78
414.819	471.56
415.197	472.23
415.574	477.88
415.951	481.72
416.328	480.82
416.705	501.84
417.082	491.44
417.46	500.26
417.837	508.16
418.214	497.32
418.591	506.13
418.967	528.05
419.344	512.23
419.721	511.33
420.098	505.68
420.475	501.61
420.852	526.02
421.228	515.17
421.605	514.94
421.982	526.47
422.358	504.32
422.735	521.5
423.111	517.88
423.488	519.24
423.864	525.34
424.241	559.91
424.617	558.33
424.994	565.56
425.37	546.81
425.746	544.77
426.123	530.31
426.499	566.02
426.875	546.58
427.251	570.08
427.627	547.94
428.003	568.5
428.379	594.72
428.756	596.52
429.132	582.51
429.507	579.58
429.883	606.47
430.259	586.81
430.635	600.82
431.011	608.73
431.387	630.2
431.763	613.47
432.138	622.29
432.514	644.21
432.89	641.72
433.265	641.49
433.641	645.11
434.016	653.25
434.392	656.86
434.767	683.3
435.143	677.65
435.518	672.68
435.894	673.58
436.269	672.45
436.644	702.74
437.02	691.44
437.395	710.65
437.77	691.44
438.145	717.42
438.52	717.65
438.895	709.74
439.271	730.53
439.646	741.83
440.021	714.26
440.395	745.9
440.77	720.59
441.145	721.27
441.52	756.07
441.895	743.64
442.27	750.19
442.645	749.97
443.019	753.81
443.394	765.33
443.769	759.91
444.143	763.3
444.518	775.05
444.892	783.19
445.267	762.4
445.641	791.77
446.016	802.85
446.39	801.26
446.764	807.14
447.139	780.02
447.513	804.2
447.887	813.47
448.262	806.91
448.636	817.31
449.01	821.83
449.384	828.83
449.758	826.57
450.132	840.81
450.506	861.15
450.88	869.96
451.254	853.69
451.628	877.19
452.002	875.61
452.376	865.67
452.75	900.7
453.123	883.97
453.497	900.02
453.871	924.42
454.244	921.49
454.618	922.17
454.992	904.09
455.365	939.57
455.739	935.05
456.112	954.25
456.486	957.19
456.859	951.09
457.232	1005.55
457.606	987.47
457.979	999.23
458.352	1011.2
458.725	1027.25
459.099	1039.68
459.472	1041.26
459.845	1040.81
460.218	1047.59
460.591	1042.61
460.964	1045.55
461.337	1076.06
461.71	1093.91
462.083	1109.5
462.456	1112.89
462.829	1108.83
463.201	1132.78
463.574	1146.34
463.947	1168.71
464.32	1163.97
464.692	1213.23
465.065	1208.94
465.438	1236.96
465.81	1215.04
466.183	1220.69
466.555	1277.18
466.928	1272.89
467.3	1264.53
467.672	1299.78
468.045	1312.66
468.417	1320.57
468.789	1321.7
469.161	1369.84
469.534	1372.32
469.906	1397.86
470.278	1396.5
470.65	1435.37
471.022	1420.23
471.394	1466.11
471.766	1456.84
472.138	1489.61
472.51	1498.87
472.882	1527.35
473.253	1559.44
473.625	1592.2
473.997	1579.32
474.369	1642.15
474.74	1661.13
475.112	1711.3
475.484	1705.87
475.855	1744.29
476.227	1794.91
476.598	1843.72
476.97	1832.65
477.341	1842.59
477.713	1884.17
478.084	1914
478.455	1962.59
478.827	2017.05
479.198	2033.77
479.569	2014.57
479.94	2097.5
480.311	2120.1
480.682	2176.6
481.053	2212.98
481.424	2276.48
481.795	2309.47
482.166	2325.52
482.537	2350.38
482.908	2422.46
483.279	2434.89
483.65	2509.47
484.021	2505.4
484.391	2563.7
484.762	2601.22
485.133	2652.06
485.503	2679.18
485.874	2746.98
486.244	2791.95
486.615	2834.66
486.985	2862.45
487.356	2932.06
487.726	2926.63
488.097	3041.88
488.467	3047.76
488.837	3085.5
489.207	3140.19
489.578	3207.75
489.948	3227.64
490.318	3251.14
490.688	3319.62
491.058	3352.38
491.428	3383.57
491.798	3449.1
492.168	3491.81
492.538	3521.87
492.908	3586.95
493.278	3616.11
493.648	3605.71
494.017	3709.21
494.387	3773.39
494.757	3784.01
495.126	3841.18
495.496	3844.12
495.866	3832.6
496.235	3904.23
496.605	3946.27
496.974	4006.6
497.344	4021.07
497.713	4026.26
498.082	4084.79
498.452	4140.39
498.821	4159.37
499.19	4172.25
499.559	4220.61
499.928	4272.81
500.298	4283.21
500.667	4287.5
501.036	4327.73
501.405	4334.96
501.774	4330.21
502.143	4417.89
502.512	4420.83
502.88	4438.23
503.249	4478.23
503.618	4517.32
503.987	4501.05
504.356	4586.93
504.724	4582.18
505.093	4575.4
505.462	4653.37
505.83	4657.66
506.199	4694.27
506.567	4767.04
506.936	4741.05
507.304	4827.37
507.672	4806.13
508.041	4853.81
508.409	4824.66
508.777	4887.26
509.145	4857.2
509.514	4910.99
509.882	4948.5
510.25	4973.36
510.618	4977.2
510.986	4942.85
511.354	5055.16
511.722	5078.21
512.09	5113.69
512.458	5093.58
512.826	5101.26
513.193	5133.81
513.561	5144.43
513.929	5181.04
514.297	5221.26
514.664	5230.07
515.032	5282.05
515.4	5299.68
515.767	5303.74
516.135	5325.44
516.502	5292.67
516.869	5410.41
517.237	5375.16
517.604	5413.8
517.972	5438.43
518.339	5419.22
518.706	5459.67
519.073	5512.1
519.44	5541.7
519.808	5575.38
520.175	5553
520.542	5636.17
520.909	5666
521.276	5627.35
521.643	5641.81
522.009	5676.16
522.376	5749.83
522.743	5776.95
523.11	5820.34
523.477	5896.27
523.843	5901.02
524.21	5904.18
524.577	5970.85
524.943	5954.8
525.31	6028.02
525.676	6099.88
526.043	6110.73
526.409	6106.44
526.776	6205.87
527.142	6174.91
527.508	6202.93
527.874	6227.34
528.241	6259.65
528.607	6277.96
528.973	6347.79
529.339	6307.11
529.705	6401.12
530.071	6425.52
530.437	6424.39
530.803	6475.92
531.169	6549.14
531.535	6528.8
531.901	6548.91
532.267	6646.99
532.632	6672.07
532.998	6635.01
533.364	6744.38
533.73	6723.37
534.095	6726.31
534.461	6775.34
534.826	6833.2
535.192	6834.33
535.557	6873.42
535.923	6857.6
536.288	6910.03
536.653	6894.44
537.019	6950.71
537.384	6980.31
537.749	6993.64
538.114	7020.54
538.479	7045.17
538.845	7091.27
539.21	7110.25
539.575	7147.09
539.94	7106.64
540.305	7190.7
540.67	7194.09
541.034	7226.86
541.399	7242.68
541.764	7337.14
542.129	7310.7
542.494	7411.71
542.858	7372.62
543.223	7388.89
543.587	7477.92
543.952	7446.74
544.316	7513.86
544.681	7505.72
545.045	7503.69
545.41	7609.22
545.774	7598.83
546.138	7592.5
546.503	7657.13
546.867	7600.86
547.231	7728.54
547.595	7696.9
547.959	7797.46
548.324	7744.58
548.688	7757.69
549.052	7833.17
549.416	7933.05
549.779	7844.24
550.143	7963.56
550.507	7983.67
550.871	7950.45
551.235	7931.25
551.599	8003.33
551.962	8115.65
552.326	8058.93
552.689	8182.31
553.053	8081.75
553.417	8175.76
553.78	8227.28
554.143	8186.83
554.507	8247.17
554.87	8274.97
555.234	8382.76
555.597	8291.01
555.96	8352.03
556.323	8363.55
556.686	8349.09
557.05	8445.13
557.413	8406.71
557.776	8473.83
558.139	8496.43
558.502	8544.11
558.865	8550.44
559.228	8697.1
559.59	8652.36
559.953	8659.14
560.316	8719.7
560.679	8729.87
561.041	8779.13
561.404	8823.65
561.767	8892.8
562.129	8812.81
562.492	8916.98
562.854	8843.09
563.217	8888.74
563.579	8940.49
563.941	8959.24
564.304	9092.57
564.666	9062.29
565.028	9172.34
565.39	9153.59
565.753	9196.75
566.115	9174.83
566.477	9239.23
566.839	9296.86
567.201	9347.71
567.563	9327.59
567.925	9363.75
568.287	9402.39
568.648	9393.58
569.01	9433.35
569.372	9527.14
569.734	9472.67
570.095	9579.34
570.457	9630.41
570.819	9661.82
571.18	9647.81
571.542	9723.74
571.903	9818.2
572.265	9801.93
572.626	9884.42
572.987	9922.38
573.349	9994.92
573.71	9952.66
574.071	10134.8
574.432	10110.4
574.794	10152.43
575.155	10195.37
575.516	10216.16
575.877	10331.18
576.238	10433.78
576.599	10455.02
576.96	10521.91
577.32	10621.35
577.681	10657.95
578.042	10751.06
578.403	10815.01
578.763	10896.82
579.124	10996.7
579.485	11117.83
579.845	11180.88
580.206	11340.42
580.566	11396.69
580.927	11530.93
581.287	11742.22
581.648	11741.77
582.008	11926.17
582.368	12005.04
582.728	12043.23
583.089	12290.45
583.449	12433.73
583.809	12560.96
584.169	12784.23
584.529	12877.78
584.889	13111.22
585.249	13348.05
585.609	13423.08
585.969	13751.21
586.329	13864.42
586.688	14028.04
587.048	14210.63
587.408	14385.31
587.768	14785.98
588.127	14812.2
588.487	15112.53
588.846	15471.16
589.206	15550.48
589.565	15794.77
589.925	16124.7
590.284	16407.63
590.643	16649.66
591.003	16894.17
591.362	17252.81
591.721	17529.86
592.08	17764.43
592.44	18050.08
592.799	18364.19
593.158	18688.25
593.517	19044.4
593.876	19245.3
594.235	19518.51
594.593	19834.44
594.952	20177.93
595.311	20373.63
595.67	20753.96
596.029	21150.33
596.387	21465.35
596.746	21822.41
597.104	22001.16
597.463	22340.58
597.822	22621.03
598.18	22836.39
598.538	23277.06
598.897	23739.42
599.255	23762.24
599.613	24458.95
599.972	24503.24
600.33	24993.4
600.688	25096.9
601.046	25566.94
601.404	25931.22
601.762	26200.37
602.12	26570.76
602.478	26853.69
602.836	27034.25
603.194	27199.89
603.552	27613.67
603.91	27765.53
604.268	28187.66
604.625	28401.67
604.983	28777.93
605.341	28851.6
605.698	29325.94
606.056	29495.88
606.413	29784.68
606.771	30174.5
607.128	30432.12
607.485	30448.62
607.843	30948.04
608.2	31202.05
608.557	31534.02
608.914	31705.31
609.272	32016.94
609.629	32320.44
609.986	32616.25
610.343	32591.84
610.7	33010.81
611.057	33083.58
611.414	33361.31
611.771	33648.08
612.127	33848.08
612.484	34002.65
612.841	34474.28
613.198	34364
613.554	34697.55
613.911	34963.08
614.267	35222.51
614.624	35123.98
614.98	35455.27
615.337	35808.03
615.693	36109.26
616.05	35879.66
616.406	36454.56
616.762	36451.4
617.118	36565.07
617.475	36631.96
617.831	36930.03
618.187	37149.46
618.543	37315.56
618.899	37440.07
619.255	37508.55
619.611	37561.2
619.967	37948.31
620.323	38104.46
620.678	38150.11
621.034	38074.41
621.39	38360.5
621.746	38576.54
622.101	38896.99
622.457	38746.48
622.812	38803.2
623.168	39016.3
623.523	39126.81
623.879	39473.47
624.234	39218.79
624.589	39487.93
624.945	39547.82
625.3	39641.82
625.655	39765.89
626.01	39807.47
626.365	39811.76
626.72	39986.22
627.075	39819
627.43	40019.22
627.785	40006.56
628.14	40151.19
628.495	40127.46
628.85	40321.81
629.205	40261.02
629.559	40474.35
629.914	40442.48
630.269	40452.43
630.623	40612.19
630.978	40399.55
631.332	40656.49
631.687	40666.66
632.041	40653.1
632.396	40731.29
632.75	40679.99
633.104	40842.47
633.459	40661.23
633.813	40564.29
634.167	40768.8
634.521	40726.99
634.875	40732.42
635.229	40736.71
635.583	40602.93
635.937	40715.02
636.291	40756.82
636.645	40763.6
636.999	40683.83
637.352	40859.42
637.706	40604.29
638.06	40858.97
638.413	40713.21
638.767	40633.66
639.121	40763.6
639.474	40681.8
639.828	40660.33
640.181	40765.86
640.534	40689.93
640.888	40735.36
641.241	40582.14
641.594	40593.44
641.947	40640.44
642.301	40686.32
642.654	40786.88
643.007	40679.76
643.36	40786.65
643.713	40597.73
644.066	40881.11
644.419	40486.1
644.771	40296.5
645.124	40040.23
645.477	39960.91
645.83	39702.39
646.182	39508.04
646.535	39514.6
646.888	39699.9
647.24	39404.54
647.593	39738.77
647.945	39507.37
648.298	39458.1
648.65	39397.54
649.002	39219.24
649.355	39494.94
649.707	39467.14
650.059	39611.54
650.411	39995.04
650.763	40036.62
651.115	40437.51
651.467	40298.08
651.819	40438.19
652.171	40340.79
652.523	40177.4
652.875	40245.2
653.227	39987.8
653.578	40372.2
653.93	40251.53
654.282	40087.91
654.633	40111.87
654.985	40232.77
655.337	40086.78
655.688	40142.83
656.039	40350.51
656.391	39891.08
656.742	40072.1
657.094	40004.3
657.445	40246.78
657.796	39997.3
658.147	39927.92
658.498	39782.16
658.849	40168.36
659.2	39913.91
659.551	39812.67
659.902	39977.41
660.253	40032.1
660.604	39962.04
660.955	39803.4
661.306	40065.99
661.656	39958.43
662.007	39964.53
662.358	40001.82
662.708	39946.45
663.059	39985.77
663.409	39742.16
663.76	39903.06
664.11	39982.38
664.461	39936.51
664.811	39846.34
665.161	39818.77
665.511	39712.78
665.862	39758.66
666.212	39904.19
666.562	39950.52
666.912	39816.06
667.262	39849.28
667.612	39739.45
667.962	39855.15
668.312	39790.07
668.662	39980.12
669.011	39935.83
669.361	39641.6
669.711	39870.07
670.06	39827.36
670.41	39626.91
670.76	39557.53
671.109	39696.06
671.459	39722.05
671.808	39571.32
672.157	39713.01
672.507	39552.79
672.856	39671.43
673.205	39630.3
673.554	39722.95
673.904	39565.67
674.253	39744.65
674.602	39559.34
674.951	39065.57
675.3	38861.05
675.649	39398.67
675.998	39459.91
676.346	39404.54
676.695	39489.06
677.044	39248.61
677.393	39386.01
677.741	39552.11
678.09	39411.77
678.438	39266.24
678.787	39287.94
679.135	39250.87
679.484	39117.09
679.832	39153.7
680.181	38978.34
680.529	39180.37
680.877	39004.78
681.225	38903.77
681.573	39193.25
681.922	38960.49
682.27	38825.35
682.618	38803.43
682.966	38791.9
683.314	38898.34
683.661	38697.22
684.009	38543.55
684.357	38493.61
684.705	38478.47
685.053	38446.6
685.4	38486.6
685.748	38270.79
686.095	38219.72
686.443	37944.24
686.79	38033.51
687.138	38206.16
687.485	38095.88
687.832	37951.7
688.18	37972.49
688.527	37722.78
688.874	37710.8
689.221	37674.42
689.568	37652.5
689.915	37599.84
690.262	37504.48
690.609	37576.57
690.956	37143.81
691.303	37240.31
691.65	37207.99
691.997	37047.99
692.344	36862.91
692.69	36930.48
693.037	36866.76
693.383	36625.86
693.73	36755.35
694.077	36450.27
694.423	36543.83
694.769	36443.49
695.116	36345.19
695.462	36309.26
695.808	36184.97
696.155	36239.43
696.501	35926.89
696.847	35965.09
697.193	35747.24
697.539	35870.62
697.885	35617.75
698.231	35604.19
698.577	35504.76
698.923	35412.33
699.269	35273.58
699.614	35065
699.96	35045.11
700.306	35065
700.651	34952.46
700.997	34826.13
701.342	34815.74
701.688	34813.48
702.033	34552.24
702.379	34571.45
702.724	34450.55
703.069	34404.22
703.415	34175.98
703.76	34259.14
704.105	34211.69
704.45	34025.7
704.795	33855.08
705.14	33833.62
705.485	33786.16
705.83	33790.23
706.175	33660.51
706.52	33676.33
706.865	33416
707.209	33372.39
707.554	33432.27
707.899	33294.87
708.243	33129.68
708.588	33091.04
708.932	33020.53
709.277	32958.16
709.621	32975.56
709.966	32744.83
710.31	32818.28
710.654	32526.98
710.998	32623.48
711.342	32535.57
711.687	32556.59
712.031	32433.88
712.375	32313.43
712.719	32335.35
713.063	32280.44
713.407	32373.32
713.75	32163.83
714.094	32100.1
714.438	31994.34
714.782	32056.94
715.125	31967.22
715.469	32010.61
715.812	31692.88
716.156	31712.32
716.499	31643.62
716.843	31664.63
717.186	31450.4
717.53	31568.14
717.873	31557.07
718.216	31488.37
718.559	31327.02
718.902	31149.39
719.246	31266.9
719.589	31052.67
719.932	30907.59
720.275	31046.8
720.617	31045.44
720.96	30849.74
721.303	31016.51
721.646	30930.87
721.989	30653.13
722.331	30916.18
722.674	30711.21
723.016	30804.32
723.359	30635.96
723.701	30719.35
724.044	30527.26
724.386	30205.24
724.729	30393.71
725.071	30385.35
725.413	30313.93
725.755	30400.26
726.097	30263.54
726.439	30028.29
726.782	29942.87
727.124	30151.68
727.465	30021.51
727.807	30003.89
728.149	29827.17
728.491	29867.39
728.833	29889.99
729.175	29838.69
729.516	29670.34
729.858	29655.87
730.199	29831.24
730.541	29659.71
730.882	29573.16
731.224	29659.49
731.565	29461.08
731.906	29524.8
732.248	29471.7
732.589	29268.54
732.93	29283.68
733.271	29338.82
733.612	29352.38
733.953	29255.43
734.294	29193.51
734.635	29028.32
734.976	29190.8
735.317	28912.39
735.658	28962.56
735.999	28921.88
736.339	28929.11
736.68	28996.23
737.021	28954.42
737.361	28712.17
737.702	28925.27
738.042	28791.94
738.383	28848.66
738.723	28808.89
739.063	28701.55
739.404	28723.47
739.744	28628.33
740.084	28493.87
740.424	28480.54
740.764	28421.1
741.104	28441.22
741.444	28532.96
741.784	28312.86
742.124	28350.14
742.464	28360.54
742.804	28259.75
743.143	28176.82
743.483	28226.76
743.823	28022.47
744.162	28067.44
744.502	27970.95
744.841	28014.79
745.181	28026.54
745.52	27906.54
745.86	27955.13
746.199	27936.82
746.538	27913.55
746.877	27961
747.216	27929.59
747.556	27750.16
747.895	27846.88
748.234	27705.42
748.573	27654.8
748.911	27612.08
749.25	27739.76
749.589	27458.64
749.928	27602.37
750.267	27638.98
750.605	27520.11
750.944	27407.8
751.283	27340
751.621	27366.22
751.96	27334.58
752.298	27104.53
752.636	27206.45
752.975	27031.08
753.313	26960.8
753.651	27113.79
753.989	26931.65
754.327	26993.8
754.666	26867.25
755.004	26825.89
755.342	26779.34
755.679	26761.03
756.017	26672.45
756.355	26674.48
756.693	26622.28
757.031	26609.63
757.368	26489.18
757.706	26430.19
758.044	26298.67
758.381	26396.98
758.719	26199.92
759.056	26375.28
759.394	26338.9
759.731	26104.78
760.068	26028.17
760.405	25841.51
760.743	25812.81
761.08	25943.88
761.417	25768.52
761.754	25865.69
762.091	25669.76
762.428	25528.07
762.765	25346.61
763.102	25515.42
763.438	25310.45
763.775	25285.37
764.112	25268.19
764.449	25269.55
764.785	25152.94
765.122	25082.43
765.458	24908.43
765.795	24802.67
766.131	24853.06
766.467	24746.4
766.804	24658.72
767.14	24623.01
767.476	24548.66
767.812	24422.79
768.148	24425.73
768.485	24261.89
768.821	24170.14
769.157	24166.3
769.492	24113.19
769.828	23974.67
770.164	23847.44
770.5	23829.36
770.836	23795.91
771.171	23572.19
771.507	23526.32
771.842	23437.51
772.178	23502.36
772.513	23309.82
772.849	23300.33
773.184	23141.69
773.519	23165.87
773.855	23027.12
774.19	23004.52
774.525	22996.61
774.86	22918.65
775.195	22751.65
775.53	22655.15
775.865	22679.11
776.2	22442.05
776.535	22318.21
776.87	22403.63
777.205	22231.66
777.539	22100.14
777.874	22181.72
778.209	22000.71
778.543	21938.56
778.878	21822.63
779.212	21808.85
779.547	21634.61
779.881	21809.75
780.215	21598.91
780.55	21685.46
780.884	21447.95
781.218	21405.02
781.552	21401.85
781.886	21241.86
782.22	21228.52
782.554	21098.58
782.888	20873.96
783.222	20838.48
783.556	20670.8
783.889	20663.79
784.223	20502.89
784.557	20510.58
784.89	20524.59
785.224	20466.06
785.557	20294.31
785.891	20250.7
786.224	20134.54
786.558	20195.1
786.891	19982.23
787.224	19883.25
787.557	19848.9
787.891	19803.25
788.224	19759.86
788.557	19726.19
788.89	19645.97
789.223	19671.05
789.556	19469.7
789.888	19440.55
790.221	19383.15
790.554	19324.39
790.887	19182.7
791.219	19094.79
791.552	19145.19
791.884	19032.65
792.217	19055.47
792.549	18925.53
792.882	18784.97
793.214	18825.88
793.546	18873.56
793.879	18621.36
794.211	18510.4
794.543	18561.93
794.875	18576.84
795.207	18598.54
795.539	18453
795.871	18401.71
796.203	18322.39
796.535	18185.21
796.867	18131.88
797.198	18079.45
797.53	18068.38
797.862	17939.8
798.193	18039.68
798.525	17854.15
798.856	17869.74
799.188	17592.01
799.519	17562.18
799.85	17472.69
800.182	17556.76
800.513	17614.16
800.844	17248.06
801.175	17414.39
801.506	17259.36
801.837	17336.42
802.168	17204.45
802.499	17113.38
802.83	17161.74
803.161	17055.75
803.491	17034.74
803.822	17009.2
804.153	16921.29
804.483	16864.57
804.814	16690.11
805.145	16815.08
805.475	16751.81
805.805	16604.46
806.136	16629.32
806.466	16561.75
806.796	16664.12
807.126	16484.47
807.457	16411.48
807.787	16368.54
808.117	16368.54
808.447	16245.15
808.777	16289.9
809.107	16197.92
809.436	16075.44
809.766	16113.18
810.096	16079.51
810.426	16026.85
810.755	16011.49
811.085	15981.43
811.414	15901.88
811.744	15858.04
812.073	15789.57
812.403	15845.61
812.732	15617.6
813.061	15679.97
813.39	15613.76
813.719	15550.25
814.049	15663.02
814.378	15529.92
814.707	15491.05
815.036	15396.81
815.365	15408.34
815.693	15282.01
816.022	15383.71
816.351	15265.06
816.68	15132.19
817.008	15169.93
817.337	15036.6
817.665	15042.25
817.994	15044.28
818.322	15018.97
818.651	14952.3
818.979	14862.36
819.307	14958.63
819.636	14963.15
819.964	14826.88
820.292	14922.93
820.62	14914.57
820.948	14802.48
821.276	14872.76
821.604	14746.21
821.932	14797.05
822.259	14848.58
822.587	14763.61
822.915	14660.79
823.243	14736.04
823.57	14793.89
823.898	14718.19
824.225	14702.14
824.553	14645.42
824.88	14661.92
825.207	14763.16
825.535	14643.39
825.862	14731.97
826.189	14668.47
826.516	14710.05
826.843	14812.87
827.17	14742.59
827.497	14735.14
827.824	14710.5
828.151	14792.53
828.478	14685.42
828.805	14771.52
829.131	14678.19
829.458	14634.12
829.785	14620.11
830.111	14661.24
830.438	14731.97
830.764	14743.27
831.09	14725.64
831.417	14517.29
831.743	14591.64
832.069	14612.43
832.395	14563.84
832.722	14598.87
833.048	14520
833.374	14584.86
833.7	14590.28
834.026	14482.49
834.351	14585.08
834.677	14524.29
835.003	14554.57
835.329	14461.02
835.654	14402.49
835.98	14369.95
836.306	14448.59
836.631	14329.95
836.956	14441.36
837.282	14436.16
837.607	14343.51
837.932	14362.94
838.258	14321.36
838.583	14321.13
838.908	14206.11
839.233	14207.92
839.558	14256.05
839.883	14129.5
840.208	14088.15
840.533	14119.33
840.858	14108.26
841.182	14071.65
841.507	14012.22
841.832	13993.91
842.156	13930.86
842.481	13989.62
842.805	13942.16
843.13	13873.91
843.454	13846.34
843.778	13838.21
844.103	13834.82
844.427	13723.86
844.751	13731.77
845.075	13597.76
845.399	13688.83
845.723	13533.13
846.047	13610.19
846.371	13479.12
846.695	13413.59
847.019	13404.32
847.343	13263.99
847.666	13244.33
847.99	13239.13
848.313	13178.79
848.637	13059.7
848.96	13049.3
849.284	12989.42
849.607	12943.54
849.931	12954.17
850.254	12911
850.577	12774.06
850.9	12709.88
851.223	12734.96
851.546	12649.31
851.869	12641.4
852.192	12648.18
852.515	12437.57
852.838	12417.68
853.161	12466.95
853.483	12354.18
853.806	12348.08
854.129	12313.28
854.451	12248.42
854.774	12218.37
855.096	12100.4
855.419	12103.11
855.741	12118.93
856.063	12018.82
856.385	11970.46
856.708	11962.78
857.03	11872.16
857.352	11899.28
857.674	11838.94
857.996	11831.48
858.318	11724.82
858.64	11761.2
858.961	11705.84
859.283	11676.23
859.605	11651.6
859.926	11644.59
860.248	11665.39
860.57	11588.33
860.891	11568.21
861.212	11526.18
861.534	11427.2
861.855	11474.2
862.176	11427.2
862.498	11450.48
862.819	11423.58
863.14	11389.91
863.461	11377.26
863.782	11262.91
864.103	11269.24
864.424	11295.9
864.745	11267.2
865.065	11269.92
865.386	11170.48
865.707	11174.1
866.027	11099.98
866.348	11201.89
866.668	11210.48
866.989	11077.6
867.309	11036.25
867.63	11142.01
867.95	11020.43
868.27	10957.61
868.59	11026.98
868.91	10957.61
869.23	10959.42
869.55	10954.22
869.87	10877.61
870.19	10909.93
870.51	10927.33
870.83	10915.8
871.15	10839.64
871.469	10858.63
871.789	10875.58
872.109	10891.39
872.428	10750.38
872.748	10828.35
873.067	10703.6
873.386	10764.39
873.706	10714.68
874.025	10592.65
874.344	10599.42
874.663	10667.22
874.982	10585.41
875.301	10617.28
875.62	10616.15
875.939	10580.67
876.258	10530.05
876.577	10558.07
876.896	10548.58
877.214	10474.68
877.533	10429.94
877.852	10505.42
878.17	10398.75
878.489	10459.99
878.807	10422.93
879.125	10380.67
879.444	10377.96
879.762	10354.46
880.08	10424.06
880.398	10300.9
880.716	10329.15
881.034	10300.68
881.352	10323.05
881.67	10254.35
881.988	10300.45
882.306	10264.07
882.624	10237.63
882.941	10166.89
883.259	10107.01
883.577	10148.36
883.894	10126.44
884.212	10065.65
884.529	10106.33
884.846	10108.14
885.164	10016.16
885.481	9999.67
885.798	9919.67
886.115	9953.79
886.432	9930.52
886.75	9955.83
887.067	9902.72
887.383	9827.47
887.7	9858.43
888.017	9841.25
888.334	9853.46
888.651	9773.23
888.967	9686.45
889.284	9676.06
889.6	9628.38
889.917	9624.08
890.233	9629.05
890.55	9589.28
890.866	9611.43
891.182	9609.17
891.498	9530.75
891.815	9463.18
892.131	9427.03
892.447	9414.15
892.763	9360.36
893.079	9376.18
893.395	9360.81
893.71	9325.11
894.026	9302.96
894.342	9265
894.657	9217.31
894.973	9181.38
895.289	9136.41
895.604	9192.91
895.92	9151.33
896.235	8995.85
896.55	9088.5
896.865	9058
897.181	8952.24
897.496	8958.79
897.811	8992.46
898.126	8912.01
898.441	8820.04
898.756	8875.4
899.071	8784.56
899.386	8761.96
899.7	8725.12
900.015	8734.61
900.33	8609.19
900.644	8642.19
900.959	8653.04
901.273	8603.77
901.588	8576.88
901.902	8485.81
902.216	8415.98
902.531	8497.56
902.845	8432.7
903.159	8347.51
903.473	8439.26
903.787	8278.13
904.101	8283.1
904.415	8260.28
904.729	8222.31
905.042	8226.83
905.356	8197.45
905.67	8128.3
905.984	8192.93
906.297	8115.42
906.611	8064.8
906.924	8066.61
907.237	8037.46
907.551	7965.82
907.864	7933.73
908.177	7911.36
908.491	7932.38
908.804	7883.79
909.117	7848.31
909.43	7786.84
909.743	7724.92
910.056	7700.52
910.368	7693.06
910.681	7590.92
910.994	7681.99
911.307	7629.33
911.619	7544.59
911.932	7550.92
912.244	7462.11
912.557	7494.65
912.869	7427.76
913.181	7415.78
913.494	7429.34
913.806	7365.61
914.118	7322.22
914.43	7322
914.742	7284.48
915.054	7192.28
915.366	7267.76
915.678	7208.78
915.99	7163.58
916.302	7128.1
916.613	7023.47
916.925	7041.78
917.236	6997.71
917.548	6967.43
917.859	6968.11
918.171	6955
918.482	6880.65
918.794	6796.36
919.105	6862.8
919.416	6835.46
919.727	6771.73
920.038	6744.61
920.349	6730.6
920.66	6732.41
920.971	6703.26
921.282	6731.05
921.593	6566.99
921.903	6576.48
922.214	6516.14
922.525	6521.34
922.835	6508.23
923.146	6486.31
923.456	6477.73
923.767	6397.05
924.077	6491.51
924.387	6350.27
924.697	6324.06
925.008	6286.32
925.318	6336.26
925.628	6232.31
925.938	6256.71
926.248	6156.83
926.558	6211.29
926.867	6157.96
927.177	6157.73
927.487	6081.35
927.796	6091.52
928.106	6076.38
928.416	6085.42
928.725	6053.56
929.034	5988.47
929.344	5965.2
929.653	5925.88
929.962	5926.78
930.271	5908.93
930.581	5859.44
930.89	5832.54
931.199	5869.38
931.508	5789.61
931.817	5814.69
932.125	5774.01
932.434	5721.13
932.743	5678.42
933.051	5644.75
933.36	5681.59
933.669	5654.02
933.977	5570.63
934.286	5541.03
934.594	5577.86
934.902	5550.74
935.21	5520.46
935.519	5475.72
935.827	5474.59
936.135	5439.56
936.443	5379.67
936.751	5369.28
937.059	5360.24
937.367	5318.43
937.674	5317.76
937.982	5347.13
938.29	5235.95
938.597	5268.49
938.905	5165.22
939.213	5180.81
939.52	5192.11
939.827	5140.81
940.135	5187.59
940.442	5106.46
940.749	5136.29
941.056	5090.19
941.363	5042.96
941.67	5063.07
941.977	4963.87
942.284	4944.66
942.591	4944.88
942.898	4937.43
943.205	4943.53
943.511	4889.07
943.818	4871.67
944.125	4818.33
944.431	4855.62
944.738	4759.8
945.044	4787.15
945.35	4771.56
945.657	4762.29
945.963	4696.98
946.269	4686.13
946.575	4749.86
946.881	4686.59
947.187	4667.83
947.493	4619.24
947.799	4651.11
948.105	4611.33
948.41	4561.39
948.716	4598.68
949.022	4546.7
949.327	4532.24
949.633	4487.04
949.938	4454.05
950.244	4506.03
950.549	4419.25
950.854	4401.85
951.16	4363.43
951.465	4365.46
951.77	4344.9
952.075	4358.91
952.38	4321.17
952.685	4350.55
952.99	4279.82
953.294	4243.89
953.599	4248.18
953.904	4235.3
954.209	4193.94
954.513	4249.76
954.818	4170.89
955.122	4122.98
955.426	4137.9
955.731	4102.19
956.035	4078.01
956.339	4094.06
956.643	4102.65
956.948	4046.15
957.252	4023.55
957.556	4010.22
957.86	3984.01
958.163	3965.25
958.467	3955.31
958.771	3891.58
959.075	3921.86
959.378	3918.47
959.682	3905.14
959.985	3861.75
960.289	3861.97
960.592	3827.63
960.896	3830.79
961.199	3804.12
961.502	3804.58
961.805	3766.84
962.108	3743.56
962.411	3738.81
962.714	3762.99
963.017	3708.53
963.32	3689.1
963.623	3642.77
963.926	3676.89
964.228	3654.97
964.531	3619.72
964.833	3636.67
965.136	3574.52
965.438	3581.3
965.741	3514.64
966.043	3531.14
966.345	3516
966.648	3501.53
966.95	3492.04
967.252	3483.23
967.554	3422.21
967.856	3465.37
968.158	3424.25
968.46	3435.32
968.761	3410.24
969.063	3377.47
969.365	3381.54
969.666	3410.46
969.968	3295.44
970.269	3331.14
970.571	3312.61
970.872	3335.89
971.174	3261.99
971.475	3295.44
971.776	3299.5
972.077	3259.73
972.378	3217.25
972.679	3216.79
972.98	3184.03
973.281	3203.69
973.582	3175.89
973.883	3118.94
974.183	3153.74
974.484	3153.52
974.785	3096.35
975.085	3141.32
975.386	3144.93
975.686	3093.63
975.986	3050.92
976.287	3089.57
976.587	3030.36
976.887	3057.02
977.187	3032.17
977.487	3001.43
977.787	3006.63
978.087	3008.89
978.387	2960.3
978.687	2943.35
978.987	2950.59
979.286	2885.96
979.586	2948.1
979.885	2918.5
980.185	2893.41
980.484	2865.16
980.784	2892.06
981.083	2839.63
981.382	2852.51
981.682	2813.41
981.981	2816.8
982.28	2751.72
982.579	2789.69
982.878	2791.72
983.177	2788.33
983.475	2712.63
983.774	2732.74
984.073	2761.66
984.372	2697.71
984.67	2735.68
984.969	2695.23
985.267	2705.62
985.566	2660.88
985.864	2674.66
986.162	2646.64
986.461	2614.78
986.759	2611.39
987.057	2574.32
987.355	2564.83
987.653	2646.41
987.951	2561.44
988.249	2574.1
988.547	2552.63
988.844	2556.92
989.142	2537.72
989.44	2489.81
989.737	2509.02
990.035	2489.81
990.332	2475.8
990.63	2474.21
990.927	2492.29
991.224	2461.33
991.521	2478.28
991.819	2392.18
992.116	2429.7
992.413	2446.42
992.71	2402.13
993.006	2366.65
993.303	2401
993.6	2394.22
993.897	2338.85
994.193	2330.26
994.49	2317.61
994.787	2298.17
995.083	2295.46
995.379	2290.72
995.676	2304.5
995.972	2245.97
996.268	2258.63
996.565	2267.67
996.861	2217.5
997.157	2209.36
997.453	2227.67
997.749	2227.44
998.044	2189.02
998.34	2201
998.636	2171.85
998.932	2162.13
999.227	2172.3
999.523	2170.27
999.818	2147.67
1000.114	2116.03
1000.409	2119.65
1000.704	2113.77
1001	2071.74
1001.295	2034.9
1001.59	2073.77
1001.885	2064.06
1002.18	2035.36
1002.475	2031.51
1002.77	2051.17
1003.065	2026.99
1003.359	1987.45
1003.654	1995.58
1003.949	1971.85
1004.243	1951.74
1004.538	1952.65
1004.832	1933.66
1005.127	1926.43
1005.421	1899.54
1005.715	1913.55
1006.009	1917.62
1006.304	1881.69
1006.598	1868.81
1006.892	1903.83
1007.186	1887.56
1007.48	1845.53
1007.773	1819.99
1008.067	1809.6
1008.361	1810.28
1008.655	1807.57
1008.948	1802.82
1009.242	1773.44
1009.535	1817.73
1009.829	1763.95
1010.122	1765.08
1010.415	1754.23
1010.708	1751.97
1011.001	1735.7
1011.295	1716.04
1011.588	1712.2
1011.881	1686.66
1012.173	1716.95
1012.466	1678.53
1012.759	1667.23
1013.052	1657.06
1013.344	1640.11
1013.637	1658.42
1013.93	1639.66
1014.222	1653.67
1014.514	1583.16
1014.807	1615.03
1015.099	1597.18
1015.391	1573.45
1015.683	1555.59
1015.976	1587.23
1016.268	1548.59
1016.56	1534.35
1016.851	1505.43
1017.143	1530.74
1017.435	1497.52
1017.727	1498.65
1018.018	1483.96
1018.31	1490.06
1018.602	1477.18
1018.893	1468.37
1019.185	1482.15
1019.476	1442.15
1019.767	1452.77
1020.058	1435.82
1020.35	1459.33
1020.641	1388.14
1020.932	1388.37
1021.223	1395.15
1021.514	1418.88
1021.804	1376.62
1022.095	1373
1022.386	1355.15
1022.677	1356.05
1022.967	1368.71
1023.258	1349.27
1023.548	1334.58
1023.839	1313.34
1024.129	1293.68
1024.419	1276.28
1024.709	1295.26
1025	1320.57
1025.29	1294.81
1025.58	1261.37
1025.87	1268.14
1026.16	1260.01
1026.449	1250.97
1026.739	1227.24
1027.029	1238.99
1027.319	1232.67
1027.608	1184.31
1027.898	1184.76
1028.187	1179.79
1028.477	1193.8
1028.766	1197.41
1029.055	1155.61
1029.344	1176.4
1029.634	1179.79
1029.923	1145.21
1030.212	1143.85
1030.501	1172.1
1030.79	1133.68
1031.078	1116.06
1031.367	1118.09
1031.656	1100.24
1031.945	1094.36
1032.233	1099.34
1032.522	1077.64
1032.81	1086.68
1033.099	1095.95
1033.387	1081.03
1033.675	1071.99
1033.963	1045.1
1034.251	1027.92
1034.54	1037.42
1034.828	1041.03
1035.116	1016.63
1035.403	1015.95
1035.691	1005.55
1035.979	1016.63
1036.267	1005.78
1036.554	1007.13
1036.842	980.92
1037.129	1004.2
1037.417	962.62
1037.704	966.23
1037.992	967.81
1038.279	955.61
1038.566	934.14
1038.853	934.14
1039.14	934.14
