Data from hue_70_FLMS001491_90.txt Node
Date: Mon Feb 06 15:21:34 GMT 2017
User: dcchb
Spectrometer: FLMS00149
Trigger mode: 0
Integration Time (sec): 2.000000E-2
Scans to average: 10
Electric dark correction enabled: true
Nonlinearity correction enabled: false
Boxcar width: 0
XAxis mode: Wavelengths
Number of Pixels in Spectrum: 2048
>>>>>Begin Spectral Data<<<<<
341.393	-17.77
341.776	-17.77
342.16	-17.77
342.543	-67.71
342.927	-66.81
343.31	-78.56
343.693	-65.9
344.077	-58.67
344.46	-54.15
344.843	-62.29
345.226	-35.17
345.61	-31.1
345.993	-17.54
346.376	5.96
346.759	-6.92
347.142	12.06
347.525	54.09
347.908	55.22
348.291	80.76
348.674	79.86
349.057	122.34
349.44	125.05
349.823	156.69
350.206	164.15
350.588	204.6
350.971	207.99
351.354	226.07
351.737	214.32
352.119	253.41
352.502	246.18
352.884	252.96
353.267	276.91
353.65	290.92
354.032	318.95
354.414	315.33
354.797	313.97
355.179	307.42
355.562	312.84
355.944	321.88
356.326	325.5
356.709	335.22
357.091	345.61
357.473	359.4
357.855	349.23
358.238	355.1
358.62	331.83
359.002	343.35
359.384	344.03
359.766	322.56
360.148	323.69
360.53	316.91
360.912	344.93
361.294	324.6
361.676	331.6
362.057	337.93
362.439	321.21
362.821	327.53
363.203	316.23
363.584	328.66
363.966	330.47
364.348	329.57
364.729	319.85
365.111	322.34
365.493	298.83
365.874	315.78
366.256	314.88
366.637	319.4
367.019	303.58
367.4	315.33
367.781	306.52
368.163	315.1
368.544	345.39
368.925	303.13
369.306	313.3
369.688	296.35
370.069	299.29
370.45	307.42
370.831	298.83
371.212	294.09
371.593	299.51
371.974	317.82
372.355	342.67
372.736	327.31
373.117	301.09
373.498	316.23
373.879	297.7
374.26	318.95
374.641	310.13
375.021	332.28
375.402	327.08
375.783	312.17
376.163	323.24
376.544	333.64
376.925	330.92
377.305	321.43
377.686	319.4
378.066	330.47
378.447	363.47
378.827	326.63
379.208	307.87
379.588	320.53
379.968	317.36
380.349	342.9
380.729	332.28
381.109	352.62
381.489	338.38
381.87	333.64
382.25	334.54
382.63	336.8
383.01	342.67
383.39	339.06
383.77	328.44
384.15	339.06
384.53	344.71
384.91	350.81
385.29	344.93
385.67	353.75
386.049	344.03
386.429	351.04
386.809	362.79
387.189	351.04
387.568	329.79
387.948	345.61
388.328	349.91
388.707	355.33
389.087	346.52
389.466	369.11
389.846	357.82
390.225	383.58
390.605	348.32
390.984	367.53
391.363	337.48
391.743	355.56
392.122	339.06
392.501	346.06
392.881	346.29
393.26	385.61
393.639	359.62
394.018	367.76
394.397	387.65
394.776	361.66
395.155	376.8
395.534	358.49
395.913	357.82
396.292	369.11
396.671	382.45
397.05	387.42
397.429	390.36
397.808	366.63
398.186	353.07
398.565	374.09
398.944	380.41
399.323	396.91
399.701	383.13
400.08	392.62
400.458	362.79
400.837	377.7
401.215	408.66
401.594	389
401.972	390.36
402.351	422.22
402.729	409.57
403.107	395.55
403.486	405.27
403.864	406.4
404.242	401.88
404.62	410.24
404.999	405.27
405.377	413.18
405.755	416.57
406.133	428.77
406.511	410.7
406.889	431.03
407.267	406.4
407.645	416.12
408.023	418.38
408.401	432.84
408.779	419.06
409.156	436.01
409.534	427.64
409.912	434.2
410.29	425.16
410.667	438.27
411.045	449.34
411.422	439.4
411.8	437.59
412.178	433.75
412.555	452.73
412.933	452.28
413.31	447.53
413.687	450.92
414.065	453.18
414.442	469
414.819	457.02
415.197	463.58
415.574	476
415.951	457.7
416.328	450.47
416.705	482.33
417.082	457.93
417.46	500.64
417.837	495.89
418.214	484.14
418.591	503.8
418.967	474.2
419.344	490.92
419.721	483.69
420.098	497.25
420.475	513.07
420.852	521.2
421.228	501.31
421.605	509
421.982	519.17
422.358	499.73
422.735	518.94
423.111	519.85
423.488	540.86
423.864	510.81
424.241	527.53
424.617	527.75
424.994	532.73
425.37	532.05
425.746	532.27
426.123	537.7
426.499	544.03
426.875	555.78
427.251	550.35
427.627	567.08
428.003	547.41
428.379	556.23
428.756	563.91
429.132	582.89
429.507	582.89
429.883	572.95
430.259	605.27
430.635	616.11
431.011	596
431.387	616.11
431.763	627.64
432.138	610.92
432.514	622.67
432.89	613.18
433.265	630.58
433.641	623.57
434.016	607.75
434.392	651.59
434.767	624.25
435.143	643.46
435.518	652.5
435.894	637.13
436.269	670.8
436.644	648.43
437.02	671.48
437.395	663.57
437.77	680.97
438.145	688.65
438.52	685.26
438.895	692.5
439.271	704.02
439.646	700.86
440.021	716.9
440.395	722.1
440.77	699.73
441.145	698.6
441.52	732.72
441.895	727.98
442.27	739.73
442.645	737.24
443.019	752.61
443.394	728.88
443.769	750.57
444.143	742.21
444.518	750.35
444.892	751.03
445.267	754.19
445.641	773.62
446.016	768.65
446.39	793.06
446.764	774.53
447.139	807.3
447.513	784.92
447.887	786.05
448.262	793.06
448.636	809.33
449.01	799.16
449.384	789.22
449.758	825.83
450.132	835.77
450.506	829.22
450.88	842.32
451.254	834.87
451.628	836.9
452.002	866.95
452.376	887.97
452.75	878.25
453.123	874.86
453.497	885.94
453.871	891.36
454.244	913.28
454.618	903.79
454.992	909.21
455.365	912.15
455.739	918.25
456.112	974.52
456.486	929.78
456.859	962.09
457.232	993.28
457.606	969.1
457.979	1012.49
458.352	1006.39
458.725	995.76
459.099	1007.06
459.472	1017.69
459.845	1028.98
460.218	1059.49
460.591	1053.62
460.964	1086.16
461.337	1097.91
461.71	1108.76
462.083	1136.1
462.456	1124.8
462.829	1138.59
463.201	1116.89
463.574	1172.94
463.947	1150.11
464.32	1188.75
464.692	1224.23
465.065	1235.08
465.438	1204.57
465.81	1248.64
466.183	1272.37
466.555	1281.18
466.928	1318.69
467.3	1316.89
467.672	1323.67
468.045	1373.16
468.417	1367.96
468.789	1393.04
469.161	1447.73
469.534	1445.24
469.906	1486.37
470.278	1515.98
470.65	1524.11
471.022	1554.62
471.394	1576.54
471.766	1647.5
472.138	1625.8
472.51	1704.67
472.882	1709.42
473.253	1757.55
473.625	1813.14
473.997	1818.57
474.369	1868.06
474.74	1870.77
475.112	1958.23
475.484	1980.6
475.855	2043.19
476.227	2069.63
476.598	2134.49
476.97	2176.3
477.341	2231.66
477.713	2311.66
478.084	2339.91
478.455	2426.91
478.827	2468.27
479.198	2580.58
479.569	2607.25
479.94	2717.53
480.311	2739
480.682	2823.06
481.053	2954.36
481.424	3016.05
481.795	3095.82
482.166	3206.33
482.537	3247.01
482.908	3392.09
483.279	3474.12
483.65	3584.85
484.021	3651.97
484.391	3837.72
484.762	3889.7
485.133	3971.51
485.503	4067.32
485.874	4227.54
486.244	4306.64
486.615	4435.9
486.985	4600.64
487.356	4704.14
487.726	4822.78
488.097	4953.63
488.467	5022.33
488.837	5244.24
489.207	5362.88
489.578	5512.93
489.948	5651.46
490.318	5756.32
490.688	5819.82
491.058	6012.58
491.428	6188.4
491.798	6328.96
492.168	6585.9
492.538	6574.83
492.908	6784.99
493.278	6932.11
493.648	7037.87
494.017	7176.39
494.387	7377.97
494.757	7530.73
495.126	7730.05
495.496	7811.86
495.866	7940.44
496.235	8134.33
496.605	8266.31
496.974	8387.66
497.344	8565.28
497.713	8670.14
498.082	8800.98
498.452	8971.15
498.821	9125.49
499.19	9211.82
499.559	9387.18
499.928	9560.96
500.298	9687.51
500.667	9820.62
501.036	9868.98
501.405	10044.79
501.774	10138.12
502.143	10301.06
502.512	10398.91
502.88	10634.83
503.249	10665.79
503.618	10842.96
503.987	10936.29
504.356	11083.18
504.724	11226.46
505.093	11249.05
505.462	11403.63
505.83	11565.88
506.199	11636.84
506.567	11874.35
506.936	11883.61
507.304	12034.8
507.672	12246.99
508.041	12377.61
508.409	12469.81
508.777	12529.7
509.145	12743.25
509.514	12797.94
509.882	12928.11
510.25	13012.85
510.618	13169.46
510.986	13154.32
511.354	13409.22
511.722	13446.96
512.09	13610.35
512.458	13684.24
512.826	13790
513.193	13882.88
513.561	13980.06
513.929	14218.69
514.297	14233.61
514.664	14410.55
515.032	14413.49
515.4	14619.36
515.767	14703.43
516.135	14756.08
516.502	14667.27
516.869	14994.49
517.237	15043.53
517.604	15072
517.972	15135.96
518.339	15305.45
518.706	15376.63
519.073	15429.74
519.44	15613.91
519.808	15769.39
520.175	15849.39
520.542	15935.03
520.909	16034.24
521.276	16014.35
521.643	16179.55
522.009	16331.41
522.376	16370.05
522.743	16451.63
523.11	16593.32
523.477	16765.29
523.843	16901.11
524.21	17034.89
524.577	17097.26
524.943	17171.84
525.31	17232.85
525.676	17460.87
526.043	17494.99
526.409	17605.95
526.776	17740.86
527.142	17786.06
527.508	17822.89
527.874	18055.43
528.241	18066.5
528.607	18135.65
528.973	18289.55
529.339	18241.64
529.705	18413.39
530.071	18508.98
530.437	18543.55
530.803	18587.84
531.169	18705.58
531.535	18529.77
531.901	18694.73
532.267	18729.76
532.632	18913.49
532.998	18945.8
533.364	19018.12
533.73	19023.31
534.095	19217.88
534.461	19220.82
534.826	19296.3
535.192	19338.56
535.557	19370.2
535.923	19348.5
536.288	19516.86
536.653	19475.05
537.019	19427.6
537.384	19430.99
537.749	19555.28
538.114	19609.96
538.479	19583.98
538.845	19661.71
539.21	19577.2
539.575	19649.74
539.94	19714.82
540.305	19809.28
540.67	19743.07
541.034	19812.45
541.399	19855.61
541.764	19857.87
542.129	19867.81
542.494	19877.08
542.858	19921.59
543.223	19907.13
543.587	19943.97
543.952	19994.14
544.316	19991.88
544.681	19929.28
545.045	20111.87
545.41	20120.01
545.774	20146.9
546.138	20108.48
546.503	20126.11
546.867	20165.88
547.231	20291.53
547.595	20296.5
547.959	20305.54
548.324	20263.96
548.688	20359.32
549.052	20371.3
549.416	20389.61
549.779	20342.37
550.143	20376.5
550.507	20453.33
550.871	20525.87
551.235	20471.18
551.599	20522.26
551.962	20541.01
552.326	20544.63
552.689	20635.47
553.053	20608.36
553.417	20540.11
553.78	20856.49
554.143	20670.73
554.507	20748.01
554.87	20812.42
555.234	21026.2
555.597	20910.5
555.96	20919.08
556.323	20988.23
556.686	20995.01
557.05	21161.56
557.413	21109.81
557.776	21181.45
558.139	21211.73
558.502	21128.34
558.865	21256.7
559.228	21414.66
559.59	21367.66
559.953	21360.43
560.316	21614.43
560.679	21565.62
561.041	21693.3
561.404	21729.91
561.767	21844.71
562.129	21715.45
562.492	22018.71
562.854	21750.93
563.217	21805.61
563.579	21983.24
563.941	22067.08
564.304	22122.21
564.666	22231.14
565.028	22267.97
565.39	22319.27
565.753	22370.57
566.115	22472.94
566.477	22529.89
566.839	22531.47
567.201	22795.19
567.563	22633.16
567.925	22811.69
568.287	22800.16
568.648	22805.59
569.01	23087.84
569.372	23084.68
569.734	23072.92
570.095	23102.08
570.457	23136.88
570.819	23203.99
571.18	23232.02
571.542	23405.12
571.903	23343.2
572.265	23456.19
572.626	23438.11
572.987	23480.6
573.349	23560.82
573.71	23589.52
574.071	23693.02
574.432	23789.52
574.794	23869.06
575.155	23888.04
575.516	23742.29
575.877	23828.84
576.238	23987.02
576.599	23964.65
576.96	23943.64
577.32	23923.98
577.681	24094.37
578.042	24102.05
578.403	24022.96
578.763	24164.65
579.124	24253.01
579.485	24207.81
579.845	24203.06
580.206	24195.38
580.566	24201.26
580.927	24161.48
581.287	24303.63
581.648	24185.44
582.008	24337.3
582.368	24239.22
582.728	24353.34
583.089	24274.7
583.449	24282.38
583.809	24322.84
584.169	24400.57
584.529	24152.9
584.889	24449.39
585.249	24295.94
585.609	24239.22
585.969	24394.92
586.329	24338.2
586.688	24331.2
587.048	24279.9
587.408	24200.8
587.768	24289.39
588.127	24346.11
588.487	24311.76
588.846	24379.78
589.206	24228.15
589.565	24335.94
589.925	24413.68
590.284	24373.68
590.643	24360.57
591.003	24267.47
591.362	24494.36
591.721	24358.77
592.08	24353.79
592.44	24455.03
592.799	24288.49
593.158	24231.31
593.517	24333.68
593.876	24587.01
594.235	24418.88
594.593	24466.33
594.952	24411.65
595.311	24371.65
595.67	24412.55
596.029	24568.93
596.387	24554.92
596.746	24580.46
597.104	24443.96
597.463	24450.97
597.822	24515.82
598.18	24386.11
598.538	24323.06
598.897	24548.14
599.255	24387.92
599.613	24741.81
599.972	24522.15
600.33	24518.99
600.688	24466.33
601.046	24634.69
601.404	24646.67
601.762	24680.57
602.12	24734.58
602.478	24668.81
602.836	24796.95
603.194	24693.67
603.552	24750.85
603.91	24661.36
604.268	24733.45
604.625	24558.99
604.983	24681.47
605.341	24631.98
605.698	24749.49
606.056	24926.66
606.413	24829.94
606.771	24815.7
607.128	24995.36
607.485	24779.55
607.843	24760.56
608.2	24979.54
608.557	25019.09
608.914	24937.06
609.272	25100.44
609.629	24994.91
609.986	25180.21
610.343	25077.17
610.7	25189.03
611.057	25203.49
611.414	25168.69
611.771	25166.65
612.127	25254.79
612.484	25295.24
612.841	25318.29
613.198	25362.13
613.554	25314.67
613.911	25517.61
614.267	25449.59
614.624	25444.39
614.98	25408.46
615.337	25631.5
615.693	25507.89
616.05	25562.12
616.406	25709.47
616.762	25683.03
617.118	25643.7
617.475	25687.09
617.831	25789.92
618.187	25793.3
618.543	25835.34
618.899	25907.65
619.255	25911.72
619.611	25945.17
619.967	25965.5
620.323	26023.13
620.678	25941.55
621.034	25810.48
621.39	26039.4
621.746	25887.54
622.101	26202.33
622.457	26044.82
622.812	25953.75
623.168	26121.88
623.523	26092.05
623.879	26174.54
624.234	25966.86
624.589	26172.96
624.945	26144.03
625.3	26227.19
625.655	26072.17
626.01	26133.86
626.365	26264.03
626.72	26156.23
627.075	26157.36
627.43	26169.11
627.785	26171.83
628.14	26121.43
628.495	26112.62
628.85	26135.22
629.205	26114.43
629.559	26285.04
629.914	26047.54
630.269	26201.66
630.623	26045.95
630.978	25994.2
631.332	26156.23
631.687	26081.66
632.041	26005.5
632.396	26040.76
632.75	25974.09
633.104	26051.6
633.459	26010.47
633.813	26000.76
634.167	25899.52
634.521	25837.37
634.875	25931.38
635.229	25850.03
635.583	25737.26
635.937	25710.14
636.291	25792.63
636.645	25704.49
636.999	25816.81
637.352	25834.89
637.706	25749.24
638.06	25750.14
638.413	25639.41
638.767	25616.81
639.121	25617.04
639.474	25450.94
639.828	25497.95
640.181	25582.69
640.534	25540.43
640.888	25513.76
641.241	25352.41
641.594	25465.86
641.947	25457.49
642.301	25348.34
642.654	25461.56
643.007	25424.05
643.36	25414.11
643.713	25279.87
644.066	25459.08
644.419	25278.06
644.771	25163.94
645.124	24854.12
645.477	24878.3
645.83	24592.43
646.182	24647.57
646.535	24522.15
646.888	24588.36
647.24	24471.53
647.593	24592.21
647.945	24562.38
648.298	24471.08
648.65	24386.11
649.002	24373.23
649.355	24526.22
649.707	24481.7
650.059	24493.68
650.411	24860.45
650.763	24780.68
651.115	24993.78
651.467	25116.94
651.819	25012.31
652.171	25032.42
652.523	24865.87
652.875	24847.34
653.227	24916.04
653.578	25040.33
653.93	24879.2
654.282	24744.52
654.633	24765.31
654.985	24823.39
655.337	24997.62
655.688	24836.49
656.039	25047.79
656.391	24801.01
656.742	24823.84
657.094	24819.55
657.445	24947.23
657.796	24832.88
658.147	24820.22
658.498	24923.72
658.849	24831.52
659.2	24868.58
659.551	24826.1
659.902	24903.38
660.253	24834.23
660.604	24803.73
660.955	24720.34
661.306	24902.25
661.656	24758.76
662.007	24834.69
662.358	24877.62
662.708	24779.55
663.059	24836.27
663.409	24658.42
663.76	24916.49
664.11	24858.41
664.461	24878.75
664.811	25005.75
665.161	24970.28
665.511	24741.81
665.862	24962.59
666.212	24952.42
666.562	24868.81
666.912	24834.91
667.262	24911.75
667.612	24765.31
667.962	24871.97
668.312	24860.9
668.662	24947.45
669.011	24830.17
669.361	24811.64
669.711	24740
670.06	24680.11
670.41	24770.73
670.76	24822.03
671.109	24745.42
671.459	24697.51
671.808	24748.13
672.157	24721.69
672.507	24577.52
672.856	24588.36
673.205	24662.26
673.554	24696.84
673.904	24633.56
674.253	24689.83
674.602	24662.04
674.951	24292.1
675.3	24193.57
675.649	24537.52
675.998	24617.74
676.346	24599.44
676.695	24502.94
677.044	24440.8
677.393	24575.48
677.741	24471.98
678.09	24419.78
678.438	24389.95
678.787	24353.79
679.135	24383.4
679.484	24180.24
679.832	24398.09
680.181	24157.64
680.529	24220.01
680.877	24175.72
681.225	24123.97
681.573	24281.25
681.922	24030.87
682.27	24010.53
682.618	24040.58
682.966	23888.95
683.314	23863.41
683.661	23921.26
684.009	23852.34
684.357	23740.03
684.705	23706.58
685.053	23695.05
685.4	23719.24
685.748	23632.91
686.095	23587.26
686.443	23505.91
686.79	23420.94
687.138	23604.21
687.485	23554.95
687.832	23416.87
688.18	23396.31
688.527	23203.77
688.874	23265.01
689.221	23261.85
689.568	23098.23
689.915	23040.61
690.262	23018.24
690.609	22931.69
690.956	22929.65
691.303	22912.7
691.65	22749.54
691.997	22686.27
692.344	22630.22
692.69	22581.86
693.037	22600.39
693.383	22391.59
693.73	22440.62
694.077	22299.39
694.423	22346.84
694.769	22253.96
695.116	22221.87
695.462	22077.47
695.808	22056.23
696.155	22145.27
696.501	21840.19
696.847	21852.62
697.193	21764.48
697.539	21800.19
697.885	21627.31
698.231	21533.98
698.577	21611.72
698.923	21564.72
699.269	21463.25
699.614	21303.93
699.96	21185.74
700.306	21249.92
700.651	21075.46
700.997	20979.65
701.342	21007.44
701.688	21031.17
702.033	20750.05
702.379	20785.3
702.724	20816.71
703.069	20760.89
703.415	20495.82
703.76	20710.95
704.105	20571.07
704.45	20474.12
704.795	20392.32
705.14	20404.97
705.485	20297.4
705.83	20340.57
706.175	20304.86
706.52	20220.12
706.865	20015.83
707.209	20041.82
707.554	20010.86
707.899	19966.79
708.243	19818.77
708.588	19915.72
708.932	19752.79
709.277	19672.56
709.621	19721.37
709.966	19474.83
710.31	19627.14
710.654	19425.34
710.998	19412
711.342	19413.59
711.687	19406.35
712.031	19403.64
712.375	19166.36
712.719	19249.3
713.063	19240.03
713.407	19247.49
713.75	19174.27
714.094	19084.1
714.438	19082.07
714.782	19084.1
715.125	18896.09
715.469	19029.64
715.812	18884.56
716.156	18820.38
716.499	18760.27
716.843	18775.18
717.186	18670.1
717.53	18744.22
717.873	18768.4
718.216	18728.86
718.559	18628.07
718.902	18525.7
719.246	18659.71
719.589	18562.31
719.932	18542.2
720.275	18426.72
720.617	18485.25
720.96	18374.29
721.303	18409.32
721.646	18444.12
721.989	18205.48
722.331	18351.69
722.674	18239.83
723.016	18286.84
723.359	18208.87
723.701	18227.4
724.044	18142.66
724.386	18025.15
724.729	18100.85
725.071	18082.32
725.413	18086.16
725.755	18056.79
726.097	18045.49
726.439	17964.58
726.782	17990.35
727.124	17986.96
727.465	17897.92
727.807	17917.81
728.149	17897.02
728.491	17820.18
728.833	17899.28
729.175	17793.29
729.516	17752.39
729.858	17731.6
730.199	17732.73
730.541	17769.34
730.882	17796
731.224	17801.2
731.565	17700.18
731.906	17674.65
732.248	17684.37
732.589	17593.29
732.93	17667.64
733.271	17586.06
733.612	17611.37
733.953	17568.66
734.294	17532.51
734.635	17574.76
734.976	17589.68
735.317	17538.61
735.658	17569.11
735.999	17568.21
736.339	17516.23
736.68	17558.04
737.021	17450.25
737.361	17359.4
737.702	17551.94
738.042	17471.72
738.383	17485.27
738.723	17532.28
739.063	17542
739.404	17524.6
739.744	17456.8
740.084	17424.71
740.424	17440.08
740.764	17462.68
741.104	17446.63
741.444	17379.29
741.784	17405.73
742.124	17373.87
742.464	17465.39
742.804	17412.06
743.143	17401.66
743.483	17494.77
743.823	17397.14
744.162	17428.78
744.502	17445.73
744.841	17424.49
745.181	17530.02
745.52	17478.04
745.86	17557.14
746.199	17606.4
746.538	17543.13
746.877	17697.02
747.216	17763.01
747.556	17650.69
747.895	17758.49
748.234	17716.91
748.573	17766.4
748.911	17756.45
749.25	17851.59
749.589	17754.87
749.928	17872.16
750.267	17957.8
750.605	17947.64
750.944	18040.06
751.283	18017.92
751.621	18120.51
751.96	18055.2
752.298	18158.7
752.636	18244.8
752.975	18097.24
753.313	18257.23
753.651	18324.8
753.989	18365.93
754.327	18531.12
754.666	18466.94
755.004	18615.87
755.342	18665.58
755.679	18699.03
756.017	18658.35
756.355	18912.58
756.693	18845.46
757.031	18914.84
757.368	18938.12
757.706	19132.92
758.044	19030.54
758.381	19191.44
758.719	19185.34
759.056	19357.32
759.394	19300.82
759.731	19242.06
760.068	19414.49
760.405	19439.35
760.743	19529.74
761.08	19652.68
761.417	19633.47
761.754	19800.02
762.091	19776.29
762.428	19843.4
762.765	19671.43
763.102	19946.23
763.438	19819
763.775	19898.77
764.112	19924.76
764.449	20066.45
764.785	19998.2
765.122	19989.39
765.458	20077.97
765.795	20136.96
766.131	20091.53
766.467	20162.94
766.804	20134.47
767.14	20124.75
767.476	20150.52
767.812	20169.05
768.148	20084.53
768.485	20044.98
768.821	20094.02
769.157	20193.68
769.492	20177.63
769.828	20283.39
770.164	20166.79
770.5	20074.81
770.836	20156.62
771.171	20194.58
771.507	20029.84
771.842	19912.33
772.178	19964.08
772.513	19975.83
772.849	19972.89
773.184	19847.02
773.519	20031.42
773.855	19948.26
774.19	19847.25
774.525	19813.35
774.86	19824.2
775.195	19817.87
775.53	19809.96
775.865	19633.01
776.2	19606.57
776.535	19496.97
776.87	19514.6
777.205	19494.49
777.539	19347.37
777.874	19388.95
778.209	19217.66
778.543	19308.5
778.878	19222.18
779.212	19195.06
779.547	19069.19
779.881	19178.79
780.215	19073.26
780.55	19195.74
780.884	18982.41
781.218	19002.07
781.552	18985.8
781.886	18858.8
782.22	18799.14
782.554	18707.62
782.888	18560.05
783.222	18530.9
783.556	18532.03
783.889	18430.79
784.223	18346.5
784.557	18334.29
784.89	18374.97
785.224	18249.32
785.557	18241.41
785.891	18090.68
786.224	18143.56
786.558	18026.96
786.891	17945.38
787.224	17917.58
787.557	17760.52
787.891	17873.29
788.224	17779.96
788.557	17772.27
788.89	17714.42
789.223	17739.73
789.556	17482.79
789.888	17581.54
790.221	17557.36
790.554	17376.35
790.887	17469.46
791.219	17332.28
791.552	17346.75
791.884	17203.25
792.217	17180.2
792.549	17131.61
792.882	16994.44
793.214	16852.3
793.546	16969.81
793.879	16887.32
794.211	16812.3
794.543	16879.87
794.875	16761.68
795.207	16849.81
795.539	16749.02
795.871	16677.39
796.203	16517.62
796.535	16486.66
796.867	16407.79
797.198	16376.83
797.53	16337.73
797.862	16269.04
798.193	16330.73
798.525	16113.33
798.856	16102.71
799.188	16066.33
799.519	16042.15
799.85	15897.29
800.182	15975.48
800.513	15999.66
800.844	15815.04
801.175	15821.82
801.506	15826.56
801.837	15715.6
802.168	15729.61
802.499	15608.04
802.83	15603.29
803.161	15507.93
803.491	15528.94
803.822	15501.6
804.153	15421.15
804.483	15365.1
804.814	15335.73
805.145	15284.88
805.475	15338.21
805.805	15197.88
806.136	15226.13
806.466	15162.85
806.796	15091.67
807.126	15059.12
807.457	14985.23
807.787	14992.01
808.117	14909.3
808.447	14879.47
808.777	14910.65
809.107	14825.23
809.436	14736.65
809.766	14764.89
810.096	14618.91
810.426	14639.7
810.755	14672.02
811.085	14681.51
811.414	14504.79
811.744	14470.21
812.073	14418.01
812.403	14470.66
812.732	14383.44
813.061	14305.02
813.39	14300.5
813.719	14219.15
814.049	14336.66
814.378	14205.36
814.707	14201.97
815.036	14179.6
815.365	13997.91
815.693	13971.92
816.022	14054.63
816.351	13885.6
816.68	13940.28
817.008	13954.07
817.337	13821.64
817.665	13820.74
817.994	13720.85
818.322	13781.42
818.651	13662.55
818.979	13693.28
819.307	13646.96
819.636	13706.39
819.964	13635.21
820.292	13576
820.62	13635.43
820.948	13585.72
821.276	13672.72
821.604	13577.13
821.932	13631.14
822.259	13613.74
822.587	13544.81
822.915	13442.22
823.243	13596.11
823.57	13496.68
823.898	13512.27
824.225	13409
824.553	13451.93
824.88	13457.81
825.207	13596.34
825.535	13502.33
825.862	13557.02
826.189	13408.32
826.516	13457.36
826.843	13570.12
827.17	13510.24
827.497	13491.03
827.824	13462.56
828.151	13491.26
828.478	13447.19
828.805	13523.12
829.131	13374.2
829.458	13449.22
829.785	13457.36
830.111	13399.28
830.438	13497.81
830.764	13415.33
831.09	13434.99
831.417	13399.73
831.743	13502.33
832.069	13435.66
832.395	13409
832.722	13423.91
833.048	13291.94
833.374	13349.11
833.7	13339.85
834.026	13339.17
834.351	13338.94
834.677	13332.16
835.003	13359.96
835.329	13308.89
835.654	13337.81
835.98	13300.3
836.306	13216.69
836.631	13213.75
836.956	13283.35
837.282	13179.4
837.607	13150.47
837.932	13132.17
838.258	13124.49
838.583	13099.18
838.908	13041.1
839.233	13072.28
839.558	13034.77
839.883	12986.86
840.208	12996.13
840.533	12905.96
840.858	12996.13
841.182	12933.08
841.507	12909.58
841.832	12820.76
842.156	12916.13
842.481	12819.18
842.805	12849.92
843.13	12776.02
843.454	12705.51
843.778	12748.22
844.103	12684.05
844.427	12648.79
844.751	12668.9
845.075	12579.64
845.399	12524.5
845.723	12504.16
846.047	12505.52
846.371	12345.07
846.695	12340.55
847.019	12229.14
847.343	12276.37
847.666	12250.84
847.99	12045.87
848.313	12106.89
848.637	12042.03
848.96	12051.07
849.284	12006.55
849.607	11926.32
849.931	11855.59
850.254	11745.09
850.577	11714.58
850.9	11613.56
851.223	11649.5
851.546	11667.12
851.869	11584.41
852.192	11545.32
852.515	11472.1
852.838	11403.63
853.161	11358.2
853.483	11449.95
853.806	11303.06
854.129	11324.08
854.451	11201.82
854.774	11213.8
855.096	11174.03
855.419	11228.94
855.741	11143.52
856.063	11048.38
856.385	11040.92
856.708	10967.71
857.03	10957.54
857.352	10981.04
857.674	10910.08
857.996	10936.75
858.318	10768.62
858.64	10875.96
858.961	10767.71
859.283	10760.48
859.605	10684.55
859.926	10706.92
860.248	10686.58
860.57	10673.02
860.891	10654.72
861.212	10640.26
861.534	10597.55
861.855	10572.46
862.176	10539.69
862.498	10560.94
862.819	10535.85
863.14	10419.02
863.461	10443.43
863.782	10365.69
864.103	10414.05
864.424	10293.6
864.745	10422.41
865.065	10297.44
865.386	10226.48
865.707	10311.23
866.027	10278.91
866.348	10277.55
866.668	10225.8
866.989	10208.63
867.309	10195.52
867.63	10202.75
867.95	10141.74
868.27	10073.49
868.59	10071.91
868.91	10103.1
869.23	10066.71
869.55	10018.13
869.87	10049.76
870.19	10036.21
870.51	10028.97
870.83	9997.11
871.15	9940.84
871.469	9942.87
871.789	10036.88
872.109	9901.07
872.428	9940.16
872.748	9963.44
873.067	9844.57
873.386	9859.03
873.706	9839.15
874.025	9847.96
874.344	9827.62
874.663	9769.09
874.982	9741.52
875.301	9854.97
875.62	9704.69
875.939	9724.57
876.258	9727.96
876.577	9666.05
876.896	9647.06
877.214	9686.16
877.533	9641.64
877.852	9665.37
878.17	9588.76
878.489	9618.36
878.807	9615.43
879.125	9576.56
879.444	9556.67
879.762	9560.06
880.08	9544.01
880.398	9508.99
880.716	9518.25
881.034	9475.99
881.352	9482.77
881.67	9441.87
881.988	9517.57
882.306	9418.14
882.624	9368.43
882.941	9298.37
883.259	9278.71
883.577	9356.67
883.894	9273.06
884.212	9252.27
884.529	9248.43
884.846	9278.03
885.164	9270.35
885.481	9223.8
885.798	9271.71
886.115	9155.32
886.432	9127.08
886.75	9114.42
887.067	9088.43
887.383	9076.91
887.7	9087.3
888.017	9052.05
888.334	9086.63
888.651	8991.71
888.967	8939.28
889.284	8927.08
889.6	8906.52
889.917	8822.23
890.233	8817.48
890.55	8800.53
890.866	8804.15
891.182	8725.28
891.498	8720.31
891.815	8683.92
892.131	8664.94
892.447	8674.21
892.763	8607.99
893.079	8585.62
893.395	8597.6
893.71	8521.22
894.026	8550.14
894.342	8528.45
894.657	8475.12
894.973	8464.95
895.289	8385.4
895.604	8393.99
895.92	8319.87
896.235	8289.81
896.55	8277.83
896.865	8298.4
897.181	8278.29
897.496	8266.53
897.811	8211.17
898.126	8223.82
898.441	8149.02
898.756	8134.79
899.071	8118.29
899.386	8137.95
899.7	8023.15
900.015	8026.54
900.33	7923.04
900.644	7944.51
900.959	7979.99
901.273	7901.12
901.588	7822.48
901.902	7807.34
902.216	7793.33
902.531	7748.58
902.845	7770.05
903.159	7711.52
903.473	7638.98
903.787	7671.3
904.101	7616.61
904.415	7607.34
904.729	7606.44
905.042	7539.77
905.356	7515.14
905.67	7520.11
905.984	7535.25
906.297	7430.85
906.611	7432.43
906.924	7386.33
907.237	7326.9
907.551	7307.69
907.864	7273.79
908.177	7241.93
908.491	7259.78
908.804	7264.75
909.117	7218.43
909.43	7152.89
909.743	7070.63
910.056	7069.96
910.368	7055.72
910.681	7034.48
910.994	7026.11
911.307	6974.59
911.619	6907.93
911.932	6904.08
912.244	6840.36
912.557	6849.85
912.869	6843.07
913.181	6770.53
913.494	6787.02
913.806	6724.43
914.118	6708.83
914.43	6676.75
914.742	6662.28
915.054	6576.41
915.366	6612.11
915.678	6614.83
915.99	6567.82
916.302	6530.53
916.613	6488.5
916.925	6432.01
917.236	6432.23
917.548	6446.24
917.859	6434.49
918.171	6359.24
918.482	6340.03
918.794	6306.13
919.105	6305.68
919.416	6259.36
919.727	6197.66
920.038	6212.35
920.349	6212.12
920.66	6166.7
920.971	6142.3
921.282	6142.97
921.593	6048.29
921.903	6112.24
922.214	6088.29
922.525	5981.62
922.835	6011
923.146	5939.82
923.456	5905.01
923.767	5954.73
924.077	5957.44
924.387	5898.69
924.697	5843.55
925.008	5831.8
925.318	5792.7
925.628	5806.26
925.938	5789.31
926.248	5742.76
926.558	5716.32
926.867	5644.23
927.177	5671.8
927.487	5630.22
927.796	5601.52
928.106	5587.51
928.416	5560.84
928.725	5541.18
929.034	5535.98
929.344	5547.96
929.653	5475.42
929.962	5481.97
930.271	5439.94
930.581	5397
930.89	5391.81
931.199	5309.55
931.508	5325.82
931.817	5305.93
932.125	5268.19
932.434	5274.52
932.743	5277.91
933.051	5200.4
933.36	5225.94
933.669	5149.1
933.977	5126.96
934.286	5095.09
934.594	5100.06
934.902	5068.88
935.21	5102.32
935.519	5035.88
935.827	5030.69
936.135	5037.24
936.443	4954.08
936.751	4972.16
937.059	4947.07
937.367	4907.07
937.674	4879.05
937.982	4883.57
938.29	4864.59
938.597	4825.95
938.905	4797.7
939.213	4798.6
939.52	4783.01
939.827	4725.61
940.135	4745.27
940.442	4719.73
940.749	4682
941.056	4709.57
941.363	4575.78
941.67	4684.26
941.977	4647.87
942.284	4588.66
942.591	4554.54
942.898	4534.43
943.205	4548.44
943.511	4492.62
943.818	4503.02
944.125	4429.12
944.431	4463.92
944.738	4419.86
945.044	4399.74
945.35	4372.4
945.657	4392.96
945.963	4317.94
946.269	4348.22
946.575	4371.04
946.881	4298.95
947.187	4275.9
947.493	4250.37
947.799	4267.77
948.105	4220.54
948.41	4215.79
948.716	4218.73
949.022	4160.88
949.327	4161.56
949.633	4147.55
949.938	4109.13
950.244	4116.81
950.549	4095.34
950.854	4073.88
951.16	4062.8
951.465	4033.65
951.77	3982.58
952.075	3984.16
952.38	4004.5
952.685	3960.43
952.99	3903.71
953.294	3974.67
953.599	3887.21
953.904	3908
954.209	3919.3
954.513	3891.73
954.818	3848.57
955.122	3785.75
955.426	3813.32
955.731	3809.48
956.035	3795.01
956.339	3776.71
956.643	3764.96
956.948	3705.07
957.252	3759.99
957.556	3690.61
957.86	3694.9
958.163	3717.5
958.467	3618.29
958.771	3641.34
959.075	3651.06
959.378	3592.98
959.682	3609.71
959.985	3597.5
960.289	3592.98
960.592	3514.57
960.896	3519.54
961.199	3494.91
961.502	3490.61
961.805	3483.38
962.108	3498.75
962.411	3454.01
962.714	3430.05
963.017	3419.88
963.32	3409.71
963.623	3394.57
963.926	3396.83
964.228	3360.45
964.531	3353.22
964.833	3324.97
965.136	3352.09
965.438	3300.79
965.741	3275.25
966.043	3290.62
966.345	3287.46
966.648	3248.36
966.95	3260.34
967.252	3224.86
967.554	3183.28
967.856	3210.62
968.158	3183.96
968.46	3141.92
968.761	3140.34
969.063	3109.83
969.365	3132.88
969.666	3106.9
969.968	3075.03
970.269	3089.72
970.571	3073.68
970.872	3005.43
971.174	3068.93
971.475	3025.77
971.776	2999.33
972.077	3004.07
972.378	3016.73
972.679	2957.52
972.98	2957.3
973.281	2978.99
973.582	2944.41
973.883	2936.05
974.183	2925.43
974.484	2926.79
974.785	2889.5
975.085	2881.36
975.386	2881.82
975.686	2837.3
975.986	2862.61
976.287	2852.21
976.587	2810.63
976.887	2814.93
977.187	2803.17
977.487	2802.5
977.787	2790.29
978.087	2737.87
978.387	2741.71
978.687	2752.55
978.987	2696.74
979.286	2669.85
979.586	2688.83
979.885	2667.13
980.185	2675.95
980.484	2666.91
980.784	2616.97
981.083	2643.41
981.382	2619
981.682	2615.16
981.981	2605.21
982.28	2583.97
982.579	2574.93
982.878	2589.85
983.177	2554.37
983.475	2558.66
983.774	2541.94
984.073	2511.88
984.372	2511.66
984.67	2510.75
984.969	2495.39
985.267	2495.84
985.566	2469.4
985.864	2470.3
986.162	2437.31
986.461	2456.52
986.759	2435.73
987.057	2423.98
987.355	2420.59
987.653	2419.23
987.951	2382.17
988.249	2360.93
988.547	2353.47
988.844	2357.08
989.142	2375.84
989.44	2377.2
989.737	2304.66
990.035	2288.16
990.332	2310.76
990.63	2287.26
990.927	2285
991.224	2258.33
991.521	2289.74
991.819	2240.25
992.116	2221.95
992.413	2223.76
992.71	2203.87
993.006	2230.53
993.303	2197.99
993.6	2183.53
993.897	2238.67
994.193	2195.28
994.49	2147.37
994.787	2145.34
995.083	2130.65
995.379	2095.4
995.676	2090.2
995.972	2094.04
996.268	2131.33
996.565	2080.71
996.861	2074.38
997.157	2045.68
997.453	2062.18
997.749	2032.8
998.044	2044.32
998.34	1996.64
998.636	2011.78
998.932	1988.06
999.227	1993.25
999.523	2014.27
999.818	1995.74
1000.114	1992.12
1000.409	1927.49
1000.704	1915.74
1001	1936.98
1001.295	1911.45
1001.59	1918
1001.885	1922.97
1002.18	1882.75
1002.475	1908.96
1002.77	1854.5
1003.065	1838.45
1003.359	1834.61
1003.654	1848.17
1003.949	1863.76
1004.243	1843.43
1004.538	1786.48
1004.832	1823.99
1005.127	1772.69
1005.421	1797.55
1005.715	1762.75
1006.009	1774.95
1006.304	1769.76
1006.598	1739.7
1006.892	1729.98
1007.186	1715.52
1007.48	1725.92
1007.773	1711.68
1008.067	1692.02
1008.361	1703.32
1008.655	1682.75
1008.948	1698.8
1009.242	1669.19
1009.535	1637.78
1009.829	1671.91
1010.122	1623.77
1010.415	1617.44
1010.708	1605.47
1011.001	1610.89
1011.295	1598.46
1011.588	1613.6
1011.881	1598.23
1012.173	1567.5
1012.466	1583.09
1012.759	1549.42
1013.052	1553.72
1013.344	1515.98
1013.637	1527.95
1013.93	1515.07
1014.222	1512.36
1014.514	1533.38
1014.807	1495.41
1015.099	1493.15
1015.391	1450.22
1015.683	1460.84
1015.976	1451.8
1016.268	1434.62
1016.56	1440.5
1016.851	1452.48
1017.143	1441.63
1017.435	1412.48
1017.727	1413.61
1018.018	1397.34
1018.31	1396.88
1018.602	1374.96
1018.893	1393.04
1019.185	1365.25
1019.476	1379.94
1019.767	1358.69
1020.058	1358.69
1020.35	1335.19
1020.641	1334.06
1020.932	1321.86
1021.223	1328.86
1021.514	1293.61
1021.804	1297.45
1022.095	1295.87
1022.386	1267.85
1022.677	1266.94
1022.967	1260.39
1023.258	1233.5
1023.548	1261.07
1023.839	1231.92
1024.129	1238.7
1024.419	1258.13
1024.709	1214.52
1025	1172.03
1025.29	1199.15
1025.58	1170
1025.87	1186.72
1026.16	1170.45
1026.449	1185.59
1026.739	1158.25
1027.029	1145.37
1027.319	1152.6
1027.608	1141.07
1027.898	1119.6
1028.187	1145.59
1028.477	1117.12
1028.766	1109.89
1029.055	1087.06
1029.344	1123.67
1029.634	1066.95
1029.923	1102.2
1030.212	1081.41
1030.501	1060.4
1030.79	1058.14
1031.078	1052.71
1031.367	1009.78
1031.656	1042.77
1031.945	1055.88
1032.233	1040.06
1032.522	1030.11
1032.81	1018.82
1033.099	1000.51
1033.387	999.38
1033.675	999.61
1033.963	954.86
1034.251	975.65
1034.54	974.97
1034.828	959.83
1035.116	974.52
1035.403	968.19
1035.691	962.77
1035.979	950.34
1036.267	930.68
1036.554	932.49
1036.842	939.72
1037.129	931.13
1037.417	914.86
1037.704	927.29
1037.992	907.41
1038.279	915.54
1038.566	914.64
1038.853	914.64
1039.14	914.64
