Data from hue_150_FLMS001491_00024.txt Node
Date: Tue Feb 07 16:53:49 GMT 2017
User: dcchb
Spectrometer: FLMS00149
Trigger mode: 0
Integration Time (sec): 2.000000E-2
Scans to average: 10
Electric dark correction enabled: true
Nonlinearity correction enabled: false
Boxcar width: 0
XAxis mode: Wavelengths
Number of Pixels in Spectrum: 2048
>>>>>Begin Spectral Data<<<<<
341.393	-29.49
341.776	-29.49
342.16	-29.49
342.543	-64.52
342.927	-47.8
343.31	-90.05
343.693	-59.09
344.077	-75.14
344.46	-72.43
344.843	-50.06
345.226	-42.6
345.61	-36.72
345.993	-16.61
346.376	1.92
346.759	2.6
347.142	20.68
347.525	55.03
347.908	73.11
348.291	90.96
348.674	88.7
349.057	109.71
349.44	104.74
349.823	142.26
350.206	166.66
350.588	174.8
350.971	212.99
351.354	232.2
351.737	237.62
352.119	247.56
352.502	247.79
352.884	277.85
353.267	279.65
353.65	272.42
354.032	288.69
354.414	304.51
354.797	302.03
355.179	318.07
355.562	315.13
355.944	321.46
356.326	315.36
356.709	335.47
357.091	329.6
357.473	337.96
357.855	345.41
358.238	341.8
358.62	363.27
359.002	343.83
359.384	335.02
359.766	312.2
360.148	336.15
360.53	344.51
360.912	303.83
361.294	351.52
361.676	349.71
362.057	331.86
362.439	337.05
362.821	339.31
363.203	313.33
363.584	335.7
363.966	318.3
364.348	340.22
364.729	318.97
365.111	316.26
365.493	299.54
365.874	310.39
366.256	335.25
366.637	325.75
367.019	330.73
367.4	343.61
367.781	313.55
368.163	336.15
368.544	320.33
368.925	303.61
369.306	312.42
369.688	319.88
370.069	310.16
370.45	316.26
370.831	304.51
371.212	320.78
371.593	321.23
371.974	317.17
372.355	323.27
372.736	317.39
373.117	290.05
373.498	309.71
373.879	304.96
374.26	310.84
374.641	318.97
375.021	319.88
375.402	312.2
375.783	321.91
376.163	327.56
376.544	332.53
376.925	345.41
377.305	336.15
377.686	328.69
378.066	309.94
378.447	335.02
378.827	323.27
379.208	330.27
379.588	334.12
379.968	338.41
380.349	350.61
380.729	349.48
381.109	354.91
381.489	346.09
381.87	323.95
382.25	322.82
382.63	348.35
383.01	347.67
383.39	338.41
383.77	358.3
384.15	351.74
384.53	333.44
384.91	355.13
385.29	361.01
385.67	358.75
386.049	344.96
386.429	347.67
386.809	360.78
387.189	357.84
387.568	358.3
387.948	343.83
388.328	351.74
388.707	357.84
389.087	370.05
389.466	349.93
389.846	361.91
390.225	387
390.605	365.53
390.984	369.14
391.363	385.19
391.743	357.62
392.122	388.58
392.501	384.06
392.881	359.65
393.26	362.36
393.639	387
394.018	391.29
394.397	389.26
394.776	405.07
395.155	395.58
395.534	377.5
395.913	386.09
396.292	388.35
396.671	394.23
397.05	404.4
397.429	392.65
397.808	414.34
398.186	406.66
398.565	401.01
398.944	402.36
399.323	395.36
399.701	412.98
400.08	422.7
400.458	414.34
400.837	415.47
401.215	413.66
401.594	410.27
401.972	443.94
402.351	431.97
402.729	412.76
403.107	422.93
403.486	448.01
403.864	437.39
404.242	412.98
404.62	430.16
404.999	434.23
405.377	438.52
405.755	447.56
406.133	459.31
406.511	461.8
406.889	437.62
407.267	461.57
407.645	455.02
408.023	482.36
408.401	460.44
408.779	454.11
409.156	479.2
409.534	453.21
409.912	475.81
410.29	461.34
410.667	469.71
411.045	474.22
411.422	480.55
411.8	473.32
412.178	499.53
412.555	500.66
412.933	503.15
413.31	520.55
413.687	510.38
414.065	512.64
414.442	537.05
414.819	513.55
415.197	515.58
415.574	516.94
415.951	497.05
416.328	544.05
416.705	532.98
417.082	526.43
417.46	535.01
417.837	534.56
418.214	524.17
418.591	543.83
418.967	562.36
419.344	546.54
419.721	546.09
420.098	551.74
420.475	556.26
420.852	578.63
421.228	550.38
421.605	580.89
421.982	584.96
422.358	594.22
422.735	589.93
423.111	581.11
423.488	601.68
423.864	584.5
424.241	642.36
424.617	611.85
424.994	594
425.37	610.94
425.746	615.46
426.123	621.57
426.499	643.03
426.875	604.39
427.251	645.97
427.627	652.3
428.003	674.67
428.379	664.95
428.756	670.83
429.132	683.71
429.507	675.58
429.883	672.64
430.259	678.29
430.635	684.61
431.011	713.09
431.387	692.07
431.763	723.26
432.138	728.46
432.514	726.87
432.89	735.91
433.265	757.83
433.641	743.14
434.016	752.41
434.392	758.29
434.767	784.5
435.143	802.35
435.518	791.28
435.894	799.64
436.269	776.59
436.644	779.98
437.02	842.8
437.395	816.14
437.77	830.83
438.145	835.12
438.52	807.1
438.895	845.97
439.271	860.2
439.646	881.45
440.021	845.29
440.395	892.97
440.77	863.59
441.145	888.9
441.52	892.97
441.895	920.54
442.27	893.2
442.645	904.27
443.019	928
443.394	919.86
443.769	931.84
444.143	930.71
444.518	913.31
444.892	937.26
445.267	959.18
445.641	957.38
446.016	962.8
446.39	973.42
446.764	968
447.139	971.39
447.513	993.53
447.887	983.14
448.262	1015.23
448.636	1000.31
449.01	1011.16
449.384	1019.75
449.758	1025.85
450.132	1047.09
450.506	1057.71
450.88	1054.32
451.254	1051.38
451.628	1067.88
452.002	1071.5
452.376	1096.36
452.75	1097.49
453.123	1116.69
453.497	1148.33
453.871	1115.11
454.244	1159.86
454.618	1152.17
454.992	1174.77
455.365	1188.1
455.739	1189.69
456.112	1201.89
456.486	1191.72
456.859	1208.44
457.232	1254.54
457.606	1255.9
457.979	1276.46
458.352	1309.46
458.725	1312.39
459.099	1327.31
459.472	1335.67
459.845	1368.21
460.218	1382
460.591	1407.53
460.964	1381.77
461.337	1421.77
461.71	1425.39
462.083	1473.75
462.456	1479.4
462.829	1474.42
463.201	1527.53
463.574	1519.17
463.947	1534.76
464.32	1574.08
464.692	1605.72
465.065	1604.59
465.438	1619.96
465.81	1652.27
466.183	1692.27
466.555	1704.93
466.928	1722.78
467.3	1745.15
467.672	1772.04
468.045	1851.82
468.417	1815.43
468.789	1814.53
469.161	1871.48
469.534	1919.38
469.906	1919.16
470.278	1975.2
470.65	2000.96
471.022	2036.22
471.394	2073.5
471.766	2162.09
472.138	2170.45
472.51	2239.38
472.882	2222.43
473.253	2293.39
473.625	2325.93
473.997	2374.97
474.369	2429.2
474.74	2487.96
475.112	2527.28
475.484	2577.9
475.855	2652.25
476.227	2704.22
476.598	2778.8
476.97	2779.93
477.341	2862.86
477.713	2961.17
478.084	3023.31
478.455	3149.41
478.827	3186.02
479.198	3253.13
479.569	3293.59
479.94	3421.49
480.311	3438.44
480.682	3580.81
481.053	3684.54
481.424	3835.72
481.795	3863.06
482.166	3974.7
482.537	4054.7
482.908	4181.7
483.279	4275.48
483.65	4348.25
484.021	4522.93
484.391	4603.83
484.762	4666.2
485.133	4819.42
485.503	4938.51
485.874	5065.74
486.244	5185.06
486.615	5340.31
486.985	5457.6
487.356	5482.45
487.726	5659.85
488.097	5901.65
488.467	5968.09
488.837	6100.74
489.207	6190.91
489.578	6394.3
489.948	6469.1
490.318	6665.47
490.688	6702.76
491.058	6877.45
491.428	7031.34
491.798	7133.48
492.168	7358.34
492.538	7385.23
492.908	7530.76
493.278	7732.57
493.648	7814.14
494.017	7975.72
494.387	8108.6
494.757	8297.07
495.126	8345.43
495.496	8438.08
495.866	8555.59
496.235	8743.84
496.605	8876.72
496.974	8942.7
497.344	9046.88
497.713	9202.36
498.082	9305.41
498.452	9411.16
498.821	9512.63
499.19	9609.8
499.559	9752.17
499.928	9871.72
500.298	9919.63
500.667	10049.79
501.036	10032.17
501.405	10243.23
501.774	10274.87
502.143	10346.06
502.512	10432.16
502.88	10661.98
503.249	10578.14
503.618	10739.04
503.987	10828.53
504.356	10880.28
504.724	11017.68
505.093	11033.5
505.462	11085.92
505.83	11237.78
506.199	11342.19
506.567	11383.09
506.936	11378.34
507.304	11491.79
507.672	11603.42
508.041	11631.9
508.409	11683.42
508.777	11782.85
509.145	11947.14
509.514	11901.95
509.882	12052.9
510.25	12061.72
510.618	12097.2
510.986	12153.92
511.354	12319.34
511.722	12342.61
512.09	12400.24
512.458	12359.56
512.826	12550.74
513.193	12590.97
513.561	12535.6
513.929	12665.77
514.297	12744.41
514.664	12760
515.032	12785.09
515.4	12879.1
515.767	12926.78
516.135	12982.6
516.502	12844.3
516.869	13062.59
517.237	13069.15
517.604	13044.74
517.972	13166.77
518.339	13241.8
518.706	13174.23
519.073	13213.32
519.44	13279.99
519.808	13354.56
520.175	13331.06
520.542	13475.24
520.909	13485.41
521.276	13416.94
521.643	13498.97
522.009	13525.63
522.376	13573.99
522.743	13660.77
523.11	13684.5
523.477	13818.28
523.843	13887.88
524.21	13879.3
524.577	13960.2
524.943	13992.97
525.31	14007.43
525.676	14075.22
526.043	14067.09
526.409	14140.08
526.776	14247.42
527.142	14223.69
527.508	14251.94
527.874	14231.38
528.241	14232.96
528.607	14283.35
528.973	14277.7
529.339	14230.47
529.705	14300.75
530.071	14319.51
530.437	14352.28
530.803	14297.36
531.169	14418.26
531.535	14282.22
531.901	14336.91
532.267	14362.9
532.632	14323.58
532.998	14280.87
533.364	14361.32
533.73	14411.03
534.095	14437.47
534.461	14373.07
534.826	14448.77
535.192	14401.09
535.557	14443.58
535.923	14346.4
536.288	14350.02
536.653	14353.18
537.019	14215.33
537.384	14310.7
537.749	14255.56
538.114	14253.3
538.479	14237.48
538.845	14217.59
539.21	14147.99
539.575	14138.27
539.94	14157.93
540.305	14139.4
540.67	14044.94
541.034	14127.43
541.399	13954.1
541.764	14102.79
542.129	14005.62
542.494	14057.37
542.858	13998.84
543.223	14009.24
543.587	14027.09
543.952	13892.63
544.316	13855.79
544.681	13940.76
545.045	13903.25
545.41	13856.7
545.774	13809.24
546.138	13683.6
546.503	13726.08
546.867	13716.59
547.231	13732.86
547.595	13751.62
547.959	13757.72
548.324	13689.92
548.688	13588
549.052	13596.14
549.416	13568.8
549.779	13563.37
550.143	13548.68
550.507	13622.35
550.871	13416.03
551.235	13423.26
551.599	13449.93
551.962	13439.99
552.326	13454.22
552.689	13457.61
553.053	13388.69
553.417	13277.73
553.78	13482.47
554.143	13383.94
554.507	13313.44
554.87	13312.98
555.234	13362.7
555.597	13318.63
555.96	13269.14
556.323	13318.86
556.686	13226.66
557.05	13339.88
557.413	13320.21
557.776	13258.97
558.139	13256.04
558.502	13287
558.865	13279.09
559.228	13314.11
559.59	13334
559.953	13316.6
560.316	13376.94
560.679	13345.07
561.041	13375.13
561.404	13344.39
561.767	13426.43
562.129	13350.72
562.492	13406.09
562.854	13400.66
563.217	13405.64
563.579	13369.25
563.941	13453.54
564.304	13398.86
564.666	13482.24
565.028	13506.2
565.39	13461.23
565.753	13404.96
566.115	13572.64
566.477	13556.37
566.839	13601.11
567.201	13658.96
567.563	13640.66
567.925	13623.94
568.287	13636.14
568.648	13664.39
569.01	13646.31
569.372	13654.22
569.734	13697.15
570.095	13782.58
570.457	13743.03
570.819	13722.92
571.18	13772.86
571.542	13830.26
571.903	13886.53
572.265	13882.91
572.626	13787.55
572.987	13902.12
573.349	13828.22
573.71	14024.83
574.071	13889.69
574.432	13928.33
574.794	13964.27
575.155	13983.25
575.516	13931.5
575.877	13959.07
576.238	13960.42
576.599	14024.15
576.96	13954.1
577.32	13915.91
577.681	14040.87
578.042	14034.55
578.403	14024.6
578.763	14007.2
579.124	14051.72
579.485	14062.79
579.845	14051.49
580.206	14086.97
580.566	14078.39
580.927	14100.53
581.287	14119.29
581.648	14017.15
582.008	14190.02
582.368	14036.35
582.728	14093.98
583.089	14030.7
583.449	14119.74
583.809	14020.08
584.169	14168.33
584.529	14044.26
584.889	14102.57
585.249	14123.13
585.609	14028.44
585.969	14138.72
586.329	13960.88
586.688	14054.88
587.048	13935.34
587.408	13868.22
587.768	13934.89
588.127	13847.66
588.487	13780.99
588.846	14003.81
589.206	13819.86
589.565	13860.54
589.925	13984.15
590.284	13888.11
590.643	13926.75
591.003	13929.24
591.362	13951.38
591.721	13906.64
592.08	13962.68
592.44	13948.45
592.799	13891.73
593.158	13921.78
593.517	13910.48
593.876	13906.41
594.235	13811.5
594.593	13886.3
594.952	13946.19
595.311	13840.88
595.67	13874.55
596.029	13940.31
596.387	13902.35
596.746	13868.67
597.104	13923.36
597.463	13794.78
597.822	13848.34
598.18	13870.71
598.538	13765.17
598.897	13880.88
599.255	13723.82
599.613	13969.46
599.972	13769.02
600.33	13856.47
600.688	13735.57
601.046	13902.57
601.404	13884.72
601.762	13808.11
602.12	13929.46
602.478	13932.85
602.836	13818.73
603.194	13792.52
603.552	13904.61
603.91	13812.41
604.268	13805.17
604.625	13829.58
604.983	13917.49
605.341	13826.87
605.698	13809.69
606.056	13856.02
606.413	13799.98
606.771	13873.42
607.128	13976.47
607.485	13838.17
607.843	13877.71
608.2	13955.45
608.557	13982.57
608.914	13911.61
609.272	13945.96
609.629	13971.72
609.986	14060.76
610.343	13952.29
610.7	13987.09
611.057	14002.68
611.414	13936.92
611.771	14065.05
612.127	13993.64
612.484	14015.79
612.841	14113.64
613.198	14023.47
613.554	13963.36
613.911	14143.7
614.267	14090.59
614.624	14142.79
614.98	14119.06
615.337	14261.88
615.693	14164.71
616.05	14083.36
616.406	14288.1
616.762	14245.39
617.118	14148.22
617.475	14215.56
617.831	14225.95
618.187	14241.32
618.543	14220.98
618.899	14285.39
619.255	14356.57
619.611	14294.88
619.967	14380.07
620.323	14280.42
620.678	14346.85
621.034	14133.3
621.39	14299.62
621.746	14179.63
622.101	14469.79
622.457	14266.18
622.812	14328.32
623.168	14335.33
623.523	14265.95
623.879	14394.08
624.234	14267.99
624.589	14239.29
624.945	14287.65
625.3	14355.44
625.655	14236.35
626.01	14302.34
626.365	14334.43
626.72	14297.14
627.075	14281.09
627.43	14293.52
627.785	14230.25
628.14	14309.34
628.495	14334.43
628.85	14192.96
629.205	14228.89
629.559	14305.95
629.914	14173.3
630.269	14192.51
630.623	14112.06
630.978	14169.68
631.332	14179.18
631.687	14191.83
632.041	14062.34
632.396	14177.59
632.75	14046.75
633.104	14101.89
633.459	14050.82
633.813	14026.41
634.167	14087.43
634.521	14093.75
634.875	13966.07
635.229	13966.3
635.583	14013.98
635.937	14028.22
636.291	13858.28
636.645	13973.53
636.999	13900.09
637.352	13857.6
637.706	13819.86
638.06	13906.19
638.413	13910.03
638.767	13882.01
639.121	13909.8
639.474	13803.14
639.828	13804.04
640.181	13787.32
640.534	13830.48
640.888	13807.21
641.241	13693.31
641.594	13740.54
641.947	13760.88
642.301	13699.41
642.654	13749.36
643.007	13717.49
643.36	13685.18
643.713	13663.93
644.066	13684.5
644.419	13708.68
644.771	13495.35
645.124	13435.69
645.477	13368.58
645.83	13309.14
646.182	13162.48
646.535	13223.27
646.888	13289.93
647.24	13118.86
647.593	13277.5
647.945	13189.6
648.298	13135.59
648.65	13128.58
649.002	13121.35
649.355	13222.59
649.707	13159.09
650.059	13297.84
650.411	13390.04
650.763	13379.87
651.115	13508.91
651.467	13544.39
651.819	13487.89
652.171	13519.08
652.523	13416.94
652.875	13418.97
653.227	13334
653.578	13491.51
653.93	13461
654.282	13394.56
654.633	13414
654.985	13393.21
655.337	13449.93
655.688	13457.16
656.039	13507.33
656.391	13396.37
656.742	13421.91
657.094	13402.7
657.445	13438.4
657.796	13404.05
658.147	13439.31
658.498	13362.02
658.849	13462.13
659.2	13423.04
659.551	13401.57
659.902	13509.81
660.253	13406.09
660.604	13442.92
660.955	13372.87
661.306	13432.3
661.656	13446.77
662.007	13499.65
662.358	13400.44
662.708	13450.38
663.059	13473.66
663.409	13356.6
663.76	13458.74
664.11	13435.69
664.461	13469.82
664.811	13433.88
665.161	13524.96
665.511	13472.75
665.862	13431.4
666.212	13472.08
666.562	13507.1
666.912	13494.67
667.262	13415.35
667.612	13389.14
667.962	13482.7
668.312	13442.02
668.662	13498.29
669.011	13500.1
669.361	13402.25
669.711	13397.27
670.06	13483.6
670.41	13365.41
670.76	13373.77
671.109	13397.5
671.459	13378.29
671.808	13394.79
672.157	13358.41
672.507	13357.73
672.856	13342.59
673.205	13273.89
673.554	13308.69
673.904	13306.2
674.253	13423.71
674.602	13326.99
674.951	13126.1
675.3	13061.69
675.649	13305.07
675.998	13227.56
676.346	13248.13
676.695	13209.71
677.044	13136.72
677.393	13159.99
677.741	13173.1
678.09	13190.73
678.438	13093.78
678.787	13144.17
679.135	13152.76
679.484	12978.75
679.832	13103.5
680.181	12966.55
680.529	13042.48
680.877	13034.57
681.225	13000.9
681.573	13080.9
681.922	12921.81
682.27	12870.28
682.618	12935.82
682.966	12852.43
683.314	12883.84
683.661	12885.65
684.009	12757.74
684.357	12719.1
684.705	12748.48
685.053	12790.06
685.4	12727.24
685.748	12647.01
686.095	12676.84
686.443	12553.23
686.79	12607.92
687.138	12635.26
687.485	12594.81
687.832	12531.99
688.18	12563.62
688.527	12554.36
688.874	12530.63
689.221	12471.88
689.568	12381.26
689.915	12333.12
690.262	12426.68
690.609	12394.82
690.956	12312.33
691.303	12196.63
691.65	12187.36
691.997	12190.07
692.344	12068.04
692.69	12063.52
693.037	12111.21
693.383	12036.86
693.73	11893.59
694.077	11859.01
694.423	11883.64
694.769	11853.13
695.116	11763.65
695.462	11794.38
695.808	11666.7
696.155	11715.06
696.501	11571.11
696.847	11621.28
697.193	11515.06
697.539	11588.73
697.885	11455.41
698.231	11454.05
698.577	11470.77
698.923	11422.41
699.269	11306.71
699.614	11241.85
699.96	11268.52
700.306	11236.65
700.651	11144.23
700.997	11133.61
701.342	11071.23
701.688	11153.49
702.033	11019.71
702.379	11035.76
702.724	10934.29
703.069	10956.21
703.415	10852.26
703.76	10901.52
704.105	10876.89
704.45	10809.77
704.795	10791.69
705.14	10711.02
705.485	10760.28
705.83	10635.09
706.175	10673.05
706.52	10637.8
706.865	10597.57
707.209	10617.69
707.554	10514.19
707.899	10560.97
708.243	10503.11
708.588	10434.64
708.932	10398.26
709.277	10417.01
709.621	10386.96
709.966	10359.61
710.31	10405.94
710.654	10232.61
710.998	10283.91
711.342	10225.83
711.687	10223.12
712.031	10159.17
712.375	10162.78
712.719	10140.19
713.063	10168.43
713.407	10076.68
713.75	10076.46
714.094	10111.71
714.438	10009.57
714.782	10012.51
715.125	9947.42
715.469	10025.39
715.812	9929.8
716.156	9878.05
716.499	9858.16
716.843	9994.43
717.186	9861.55
717.53	9925.73
717.873	9879.63
718.216	9823.58
718.559	9821.78
718.902	9760.76
719.246	9823.81
719.589	9717.15
719.932	9723.7
720.275	9748.56
720.617	9646.86
720.96	9768.9
721.303	9714.43
721.646	9707.43
721.989	9663.14
722.331	9600.76
722.674	9640.09
723.016	9571.16
723.359	9638.5
723.701	9609.35
724.044	9637.6
724.386	9556.7
724.729	9583.14
725.071	9550.6
725.413	9569.35
725.755	9581.1
726.097	9527.77
726.439	9471.28
726.782	9451.16
727.124	9556.47
727.465	9488.9
727.807	9507.66
728.149	9483.25
728.491	9429.24
728.833	9467.43
729.175	9458.62
729.516	9396.7
729.858	9426.76
730.199	9502.46
730.541	9405.06
730.882	9433.54
731.224	9448.68
731.565	9377.72
731.906	9392.63
732.248	9403.48
732.589	9380.21
732.93	9312.64
733.271	9380.66
733.612	9368.45
733.953	9422.46
734.294	9372.52
734.635	9355.35
734.976	9397.61
735.317	9253.88
735.658	9388.11
735.999	9328
736.339	9320.32
736.68	9350.38
737.021	9350.6
737.361	9329.81
737.702	9388.57
738.042	9381.11
738.383	9375.91
738.723	9370.94
739.063	9311.96
739.404	9373.43
739.744	9421.56
740.084	9368.91
740.424	9471.73
740.764	9436.25
741.104	9457.72
741.444	9389.47
741.784	9362.35
742.124	9437.83
742.464	9417.04
742.804	9488.68
743.143	9448
743.483	9519.18
743.823	9500.2
744.162	9549.69
744.502	9573.87
744.841	9549.47
745.181	9665.4
745.52	9580.43
745.86	9661.55
746.199	9679.63
746.538	9689.58
746.877	9794.21
747.216	9796.24
747.556	9889.34
747.895	9879.18
748.234	9898.16
748.573	9907.2
748.911	9992.84
749.25	10055.89
749.589	10044.37
749.928	10204.82
750.267	10197.81
750.605	10267.41
750.944	10328.65
751.283	10318.03
751.621	10465.6
751.96	10517.12
752.298	10636.9
752.636	10778.36
752.975	10762.77
753.313	10890.45
753.651	10951.69
753.989	11072.36
754.327	11119.82
754.666	11175.64
755.004	11357.78
755.342	11532.69
755.679	11585.8
756.017	11674.83
756.355	11760.71
756.693	11901.95
757.031	12030.98
757.368	12147.36
757.706	12370.64
758.044	12453.12
758.381	12635.49
758.719	12694.24
759.056	12855.82
759.394	13005.65
759.731	13174.46
760.068	13323.83
760.405	13407.22
760.743	13576.93
761.08	13757.04
761.417	13816.02
761.754	14080.65
762.091	14145.73
762.428	14312.05
762.765	14414.65
763.102	14659.16
763.438	14724.7
763.775	14938.48
764.112	15110.68
764.449	15201.75
764.785	15379.14
765.122	15471.12
765.458	15518.58
765.795	15737.78
766.131	15941.61
766.467	16083.98
766.804	16145.45
767.14	16188.16
767.476	16409.17
767.812	16521.71
768.148	16704.31
768.485	16831.76
768.821	16809.61
769.157	16996.73
769.492	17088.7
769.828	17121.02
770.164	17192.2
770.5	17299.32
770.836	17457.06
771.171	17545.64
771.507	17625.64
771.842	17586.09
772.178	17716.48
772.513	17942.24
772.849	17912.18
773.184	17937.27
773.519	18057.72
773.855	18085.29
774.19	18102.91
774.525	18235.57
774.86	18349.46
775.195	18353.53
775.53	18447.76
775.865	18384.94
776.2	18412.51
776.535	18343.36
776.87	18457.48
777.205	18594.65
777.539	18627.42
777.874	18669.23
778.209	18663.13
778.543	18682.33
778.878	18684.14
779.212	18688.44
779.547	18726.17
779.881	18876
780.215	18703.8
780.55	18834.87
780.884	18773.4
781.218	18859.5
781.552	18783.8
781.886	18850.24
782.22	18667.19
782.554	18790.13
782.888	18582.22
783.222	18585.84
783.556	18675.33
783.889	18675.1
784.223	18545.61
784.557	18529.57
784.89	18621.09
785.224	18552.39
785.557	18568.66
785.891	18402.79
786.224	18619.51
786.558	18549.46
786.891	18442.79
787.224	18399.18
787.557	18393.53
787.891	18323.7
788.224	18420.19
788.557	18467.88
788.89	18426.52
789.223	18442.34
789.556	18310.59
789.888	18251.61
790.221	18246.64
790.554	18295.9
790.887	18139.52
791.219	18028.11
791.552	18022.46
791.884	18076.02
792.217	18035.34
792.549	18039.19
792.882	17961.22
793.214	17821.34
793.546	17962.13
793.879	17816.14
794.211	17769.14
794.543	17812.98
794.875	17667.67
795.207	17856.82
795.539	17651.63
795.871	17751.51
796.203	17593.77
796.535	17455.25
796.867	17386.1
797.198	17489.14
797.53	17504.51
797.862	17341.58
798.193	17414.57
798.525	17320.79
798.856	17320.11
799.188	17126.89
799.519	17124.86
799.85	17012.32
800.182	17044.86
800.513	17081.25
800.844	16973.68
801.175	17036.73
801.506	16977.29
801.837	16835.15
802.168	16903.62
802.499	16852.33
802.83	16753.34
803.161	16721.03
803.491	16728.49
803.822	16812.78
804.153	16651.43
804.483	16551.09
804.814	16431.09
805.145	16481.49
805.475	16505.22
805.805	16414.6
806.136	16403.75
806.466	16439.91
806.796	16300.7
807.126	16234.04
807.457	16230.19
807.787	16260.48
808.117	16145.23
808.447	16135.51
808.777	16171.21
809.107	16025.45
809.436	16007.38
809.766	15981.61
810.096	15942.52
810.426	15920.82
810.755	15932.58
811.085	15974.38
811.414	15856.65
811.744	15776.87
812.073	15738.46
812.403	15741.39
812.732	15633.6
813.061	15744.78
813.39	15585.01
813.719	15590.21
814.049	15670.89
814.378	15533.26
814.707	15603.09
815.036	15537.11
815.365	15447.39
815.693	15288.3
816.022	15372.82
816.351	15313.83
816.68	15256.66
817.008	15348.41
817.337	15208.3
817.665	15161.3
817.994	15228.19
818.322	15151.35
818.651	15045.37
818.979	15038.36
819.307	15091.02
819.636	15046.27
819.964	14989.78
820.292	14951.36
820.62	15038.14
820.948	15038.59
821.276	14994.97
821.604	14903.68
821.932	14987.74
822.259	14939.61
822.587	14911.13
822.915	14909.1
823.243	14931.7
823.57	14923.56
823.898	14912.49
824.225	14894.41
824.553	14867.52
824.88	14927.4
825.207	14913.85
825.535	14884.92
825.862	14962.88
826.189	14837.91
826.516	14924.47
826.843	14991.13
827.17	14978.25
827.497	14957.69
827.824	14924.24
828.151	15054.86
828.478	14990.45
828.805	15002.66
829.131	14956.1
829.458	14928.08
829.785	14883.34
830.111	14928.76
830.438	14958.82
830.764	14911.81
831.09	14926.73
831.417	14844.02
831.743	15013.28
832.069	14939.16
832.395	14855.09
832.722	14908.65
833.048	14880.63
833.374	14913.85
833.7	14807.41
834.026	14817.35
834.351	14851.25
834.677	14867.07
835.003	14849.21
835.329	14901.42
835.654	14802.89
835.98	14683.57
836.306	14863.9
836.631	14675.66
836.956	14752.49
837.282	14818.25
837.607	14781.42
837.932	14574.42
838.258	14627.98
838.583	14627.75
838.908	14576.9
839.233	14590.92
839.558	14510.01
839.883	14498.26
840.208	14453.07
840.533	14517.92
840.858	14463.69
841.182	14503.01
841.507	14494.65
841.832	14284.26
842.156	14342.33
842.481	14302.79
842.805	14262.56
843.13	14245.16
843.454	14198.84
843.778	14139.85
844.103	14122.68
844.427	14164.94
844.751	14105.28
845.075	14085.84
845.399	14043.36
845.723	13966.98
846.047	13992.06
846.371	13793.42
846.695	13856.47
847.019	13708
847.343	13607.66
847.666	13652.18
847.99	13545.97
848.313	13545.97
848.637	13386.88
848.96	13448.12
849.284	13402.7
849.607	13352.98
849.931	13284.96
850.254	13188.69
850.577	13107.34
850.9	13023.95
851.223	13079.32
851.546	12913.45
851.869	12907.8
852.192	12948.02
852.515	12837.52
852.838	12742.15
853.161	12762.26
853.483	12699.21
853.806	12656.05
854.129	12657.86
854.451	12584.87
854.774	12520.69
855.096	12493.34
855.419	12506.9
855.741	12456.96
856.063	12437.3
856.385	12353.01
856.708	12315.04
857.03	12254.03
857.352	12242.5
857.674	12211.32
857.996	12158.89
858.318	12078.67
858.64	12039.34
858.961	12080.93
859.283	12034.6
859.605	11979.23
859.926	11973.13
860.248	11950.31
860.57	11879.35
860.891	11917.99
861.212	11825.11
861.534	11824.66
861.855	11799.12
862.176	11766.81
862.498	11790.54
862.819	11729.3
863.14	11670.99
863.461	11663.54
863.782	11624.89
864.103	11650.43
864.424	11520.71
864.745	11547.83
865.065	11568.17
865.386	11487.72
865.707	11480.49
866.027	11536.08
866.348	11496.31
866.668	11450.43
866.989	11387.84
867.309	11446.14
867.63	11441.39
867.95	11406.59
868.27	11324.34
868.59	11306.71
868.91	11322.98
869.23	11360.94
869.55	11197.11
869.87	11325.92
870.19	11249.31
870.51	11316.2
870.83	11313.94
871.15	11185.36
871.469	11173.38
871.789	11226.03
872.109	11130.44
872.428	11075.3
872.748	11040.05
873.067	11086.6
873.386	11146.26
873.706	11056.55
874.025	10995.3
874.344	10927.06
874.663	10967.28
874.982	10948.53
875.301	10935.42
875.62	10961.41
875.939	10860.62
876.258	10903.56
876.577	10870.79
876.896	10826.04
877.214	10808.64
877.533	10818.81
877.852	10845.93
878.17	10826.49
878.489	10842.54
878.807	10807.96
879.125	10727.06
879.444	10833.5
879.762	10734.29
880.08	10673.96
880.398	10687.97
880.716	10626.73
881.034	10687.97
881.352	10645.48
881.67	10620.4
881.988	10618.14
882.306	10579.27
882.624	10483.23
882.941	10527.75
883.259	10429.67
883.577	10487.52
883.894	10355.09
884.212	10451.14
884.529	10402.78
884.846	10389.67
885.164	10325.72
885.481	10306.73
885.798	10283.01
886.115	10195.78
886.432	10230.58
886.75	10185.83
887.067	10240.3
887.383	10112.16
887.7	10198.94
888.017	10110.36
888.334	10080.98
888.651	10094.08
888.967	10043.69
889.284	10004.37
889.6	9979.51
889.917	9887.99
890.233	9940.87
890.55	9873.75
890.866	9841.89
891.182	9898.61
891.498	9790.14
891.815	9749.46
892.131	9717.37
892.447	9714.21
892.763	9609.58
893.079	9652.29
893.395	9576.36
893.71	9614.1
894.026	9543.36
894.342	9512.86
894.657	9464.04
894.973	9489.13
895.289	9403.93
895.604	9505.63
895.92	9306.53
896.235	9338.17
896.55	9343.6
896.865	9318.29
897.181	9275.35
897.496	9191.51
897.811	9174.34
898.126	9222.02
898.441	9143.15
898.756	9141.12
899.071	9012.53
899.386	9044.62
899.7	8958.07
900.015	8939.76
900.33	8844.4
900.644	8907.68
900.959	8861.12
901.273	8823.38
901.588	8815.47
901.902	8773.89
902.216	8762.59
902.531	8672.2
902.845	8612.54
903.159	8603.73
903.473	8577.97
903.787	8611.19
904.101	8532.54
904.415	8466.33
904.729	8441.02
905.042	8434.47
905.356	8415.94
905.67	8418.42
905.984	8317.18
906.297	8379.33
906.611	8261.82
906.924	8296.62
907.237	8290.29
907.551	8222.27
907.864	8198.09
908.177	8168.94
908.491	8090.97
908.804	8134.81
909.117	8031.09
909.43	7973.46
909.743	7944.99
910.056	7891.43
910.368	7898.66
910.681	7808.95
910.994	7853.01
911.307	7771.43
911.619	7749.51
911.932	7763.75
912.244	7678.1
912.557	7688.27
912.869	7628.84
913.181	7605.56
913.494	7570.08
913.806	7517.66
914.118	7488.96
914.43	7405.12
914.742	7414.38
915.054	7413.7
915.366	7345.46
915.678	7333.03
915.99	7314.04
916.302	7285.12
916.613	7243.54
916.925	7213.26
917.236	7210.32
917.548	7186.14
917.859	7082.19
918.171	7127.16
918.482	7065.69
918.794	7089.64
919.105	7025.92
919.416	6980.27
919.727	6928.29
920.038	6963.09
920.349	6917.45
920.66	6876.54
920.971	6902.3
921.282	6878.35
921.593	6778.69
921.903	6748.86
922.214	6741.4
922.525	6716.09
922.835	6693.72
923.146	6640.39
923.456	6618.02
923.767	6608.07
924.077	6608.75
924.387	6575.08
924.697	6464.8
925.008	6542.54
925.318	6473.16
925.628	6488.08
925.938	6437.23
926.248	6330.57
926.558	6359.49
926.867	6315.65
927.177	6287.63
927.487	6291.02
927.796	6228.2
928.106	6146.84
928.416	6218.25
928.725	6191.59
929.034	6148.88
929.344	6192.49
929.653	6139.39
929.962	6045.6
930.271	6026.4
930.581	6058.26
930.89	6000.63
931.199	5970.8
931.508	6001.54
931.817	5954.31
932.125	5932.16
932.434	5896.46
932.743	5840.64
933.051	5846.74
933.36	5827.3
933.669	5784.59
933.977	5748.89
934.286	5779.4
934.594	5758.15
934.902	5666.86
935.21	5635.45
935.519	5656.24
935.827	5674.09
936.135	5606.52
936.443	5579.63
936.751	5547.99
937.059	5583.24
937.367	5505.05
937.674	5544.37
937.982	5423.93
938.29	5423.7
938.597	5411.5
938.905	5334.21
939.213	5412.4
939.52	5331.95
939.827	5378.28
940.135	5264.83
940.442	5326.3
940.749	5256.92
941.056	5216.02
941.363	5170.15
941.67	5180.54
941.977	5144.38
942.284	5126.76
942.591	5142.35
942.898	5066.42
943.205	5087.44
943.511	5090.37
943.818	5018.29
944.125	4987.33
944.431	4948.01
944.738	4964.5
945.044	4962.02
945.35	4914.11
945.657	4901.23
945.963	4871.17
946.269	4843.6
946.575	4842.02
946.881	4832.53
947.187	4811.74
947.493	4771.06
947.799	4783.04
948.105	4690.61
948.41	4687.22
948.716	4727.22
949.022	4696.26
949.327	4668.92
949.633	4603.83
949.938	4635.7
950.244	4583.27
950.549	4625.08
950.854	4539.2
951.16	4543.5
951.465	4502.82
951.77	4468.92
952.075	4455.36
952.38	4463.05
952.685	4493.33
952.99	4462.14
953.294	4401.58
953.599	4396.38
953.904	4344.41
954.209	4320.68
954.513	4316.84
954.818	4307.12
955.122	4277.97
955.426	4271.64
955.731	4271.19
956.035	4258.98
956.339	4230.28
956.643	4244.75
956.948	4186.67
957.252	4149.38
957.556	4150.96
957.86	4138.08
958.163	4127.01
958.467	4103.51
958.771	4053.11
959.075	4042.27
959.378	4055.83
959.682	4055.83
959.985	4023.28
960.289	4001.36
960.592	3973.34
960.896	3995.26
961.199	3970.86
961.502	3903.74
961.805	3901.48
962.108	3871.42
962.411	3894.7
962.714	3857.41
963.017	3844.98
963.32	3843.18
963.623	3790.07
963.926	3795.95
964.228	3787.58
964.531	3771.77
964.833	3762.73
965.136	3720.47
965.438	3724.53
965.741	3742.39
966.043	3718.89
966.345	3620.13
966.648	3666.23
966.95	3617.64
967.252	3608.15
967.554	3625.55
967.856	3586.46
968.158	3546.91
968.46	3529.06
968.761	3560.02
969.063	3464.2
969.365	3553.92
969.666	3507.37
969.968	3465.56
970.269	3465.56
970.571	3443.64
970.872	3448.38
971.174	3418.78
971.475	3396.18
971.776	3392.11
972.077	3382.17
972.378	3395.96
972.679	3342.4
972.98	3315.05
973.281	3330.19
973.582	3290.2
973.883	3284.09
974.183	3240.03
974.484	3258.56
974.785	3233.93
975.085	3249.75
975.386	3220.37
975.686	3183.53
975.986	3169.97
976.287	3176.98
976.587	3117.55
976.887	3176.07
977.187	3151.44
977.487	3123.42
977.787	3127.26
978.087	3061.95
978.387	3094.27
978.687	3030.77
978.987	3059.47
979.286	3028.51
979.586	2997.55
979.885	3003.42
980.185	2982.63
980.484	2970.88
980.784	2982.63
981.083	2968.4
981.382	2959.36
981.682	2918.91
981.981	2869.64
982.28	2889.53
982.579	2865.57
982.878	2882.52
983.177	2840.49
983.475	2860.15
983.774	2837.55
984.073	2802.53
984.372	2765.01
984.67	2774.96
984.969	2741.74
985.267	2771.11
985.566	2757.55
985.864	2739.02
986.162	2717.78
986.461	2718.01
986.759	2732.24
987.057	2660.16
987.355	2651.12
987.653	2675.3
987.951	2668.97
988.249	2679.14
988.547	2610.21
988.844	2630.55
989.142	2645.69
989.44	2614.28
989.737	2584.45
990.035	2582.42
990.332	2605.24
990.63	2578.35
990.927	2566.37
991.224	2516.21
991.521	2544.68
991.819	2500.39
992.116	2526.15
992.413	2477.11
992.71	2478.47
993.006	2468.75
993.303	2463.55
993.6	2407.28
993.897	2442.31
994.193	2421.97
994.49	2435.3
994.787	2394.85
995.083	2380.84
995.379	2376.77
995.676	2315.31
995.972	2357.34
996.268	2353.27
996.565	2337
996.861	2287.74
997.157	2340.84
997.453	2331.8
997.749	2270.56
998.044	2268.08
998.34	2273.73
998.636	2237.57
998.932	2267.17
999.227	2239.15
999.523	2226.27
999.818	2207.29
1000.114	2199.83
1000.409	2181.3
1000.704	2168.87
1001	2162.54
1001.295	2119.61
1001.59	2115.99
1001.885	2109.44
1002.18	2105.14
1002.475	2112.83
1002.77	2076.22
1003.065	2059.04
1003.359	2045.48
1003.654	2058.82
1003.949	2067.4
1004.243	2009.33
1004.538	2020.17
1004.832	1982.89
1005.127	1999.38
1005.421	1991.25
1005.715	1943.11
1006.009	1955.99
1006.304	1934.07
1006.598	1951.02
1006.892	1915.54
1007.186	1914.41
1007.48	1865.83
1007.773	1915.09
1008.067	1908.99
1008.361	1889.78
1008.655	1861.53
1008.948	1869.22
1009.242	1861.76
1009.535	1831.7
1009.829	1828.09
1010.122	1797.58
1010.415	1785.83
1010.708	1804.13
1011.001	1783.12
1011.295	1744.93
1011.588	1772.5
1011.881	1761.65
1012.173	1753.97
1012.466	1726.85
1012.759	1722.55
1013.052	1716.23
1013.344	1703.12
1013.637	1648.88
1013.93	1687.75
1014.222	1644.14
1014.514	1655.89
1014.807	1647.75
1015.099	1632.61
1015.391	1620.18
1015.683	1613.86
1015.976	1623.35
1016.268	1584.48
1016.56	1569.56
1016.851	1582.44
1017.143	1550.13
1017.435	1574.08
1017.727	1549.9
1018.018	1520.3
1018.31	1514.2
1018.602	1501.32
1018.893	1524.37
1019.185	1516.46
1019.476	1464.48
1019.767	1462.67
1020.058	1477.36
1020.35	1470.13
1020.641	1461.32
1020.932	1484.82
1021.223	1424.26
1021.514	1405.73
1021.804	1409.57
1022.095	1395.56
1022.386	1378.16
1022.677	1398.27
1022.967	1394.65
1023.258	1371.83
1023.548	1344.48
1023.839	1388.33
1024.129	1347.2
1024.419	1326.86
1024.709	1356.46
1025	1325.73
1025.29	1300.64
1025.58	1312.85
1025.87	1287.31
1026.16	1264.26
1026.449	1269.23
1026.739	1257.93
1027.029	1261.77
1027.319	1251.15
1027.608	1259.29
1027.898	1257.71
1028.187	1223.13
1028.477	1247.09
1028.766	1215.67
1029.055	1180.42
1029.344	1192.17
1029.634	1195.79
1029.923	1173.19
1030.212	1181.32
1030.501	1163.92
1030.79	1157.82
1031.078	1161.21
1031.367	1138.16
1031.656	1147.88
1031.945	1138.16
1032.233	1128.9
1032.522	1097.94
1032.81	1107.43
1033.099	1090.48
1033.387	1108.78
1033.675	1086.41
1033.963	1091.38
1034.251	1093.64
1034.54	1066.98
1034.828	1039.41
1035.116	1079.63
1035.403	1077.6
1035.691	1031.5
1035.979	1027.66
1036.267	1026.3
1036.554	986.98
1036.842	1022.46
1037.129	1010.48
1037.417	999.41
1037.704	990.6
1037.992	976.58
1038.279	1008.22
1038.566	970.93
1038.853	970.93
1039.14	970.93
