Data from hue_210_FLMS001491_00058.txt Node
Date: Tue Feb 07 16:41:24 GMT 2017
User: dcchb
Spectrometer: FLMS00149
Trigger mode: 0
Integration Time (sec): 2.000000E-2
Scans to average: 10
Electric dark correction enabled: true
Nonlinearity correction enabled: false
Boxcar width: 0
XAxis mode: Wavelengths
Number of Pixels in Spectrum: 2048
>>>>>Begin Spectral Data<<<<<
341.393	7.44
341.776	7.44
342.16	7.44
342.543	-70.29
342.927	-73.01
343.31	-80.69
343.693	-68.71
344.077	-63.29
344.46	-65.1
344.843	-71.88
345.226	-41.37
345.61	-26
345.993	-19.67
346.376	-9.51
346.759	7.44
347.142	24.84
347.525	44.5
347.908	84.28
348.291	68.01
348.674	88.12
349.057	129.02
349.44	133.32
349.823	159.53
350.206	160.43
350.588	183.94
350.971	205.86
351.354	233.65
351.737	244.95
352.119	251.73
352.502	268.45
352.884	251.73
353.267	275.91
353.65	290.6
354.032	293.76
354.414	300.09
354.797	331.73
355.179	332.41
355.562	311.39
355.944	333.08
356.326	350.94
356.709	322.24
357.091	342.12
357.473	322.01
357.855	320.43
358.238	344.16
358.62	329.02
359.002	339.19
359.384	329.92
359.766	351.39
360.148	345.51
360.53	329.02
360.912	333.31
361.294	323.82
361.676	313.2
362.057	335.57
362.439	332.86
362.821	326.3
363.203	326.53
363.584	330.37
363.966	340.99
364.348	326.08
364.729	327.89
365.111	318.4
365.493	319.3
365.874	301.22
366.256	303.03
366.637	309.58
367.019	303.25
367.4	305.06
367.781	312.29
368.163	310.49
368.544	301.67
368.925	282.24
369.306	312.97
369.688	327.43
370.069	305.74
370.45	303.93
370.831	306.64
371.212	314.78
371.593	309.36
371.974	313.65
372.355	325.85
372.736	308.9
373.117	324.95
373.498	328.34
373.879	330.15
374.26	316.14
374.641	309.81
375.021	310.03
375.402	308.23
375.783	326.76
376.163	323.37
376.544	318.4
376.925	316.36
377.305	319.53
377.686	318.62
378.066	312.52
378.447	312.07
378.827	327.89
379.208	343.25
379.588	331.05
379.968	319.3
380.349	319.07
380.729	339.86
381.109	319.3
381.489	340.09
381.87	332.63
382.25	345.06
382.63	341.22
383.01	327.89
383.39	323.14
383.77	315.46
384.15	346.19
384.53	336.7
384.91	351.62
385.29	344.61
385.67	330.37
386.049	346.64
386.429	356.13
386.809	354.78
387.189	335.34
387.568	345.97
387.948	334.67
388.328	348.23
388.707	330.82
389.087	357.94
389.466	352.29
389.846	342.12
390.225	351.39
390.605	335.12
390.984	352.07
391.363	349.81
391.743	357.04
392.122	369.47
392.501	346.64
392.881	381.67
393.26	392.52
393.639	364.72
394.018	372.63
394.397	375.34
394.776	356.59
395.155	376.25
395.534	377.15
395.913	387.77
396.292	385.51
396.671	372.41
397.05	365.63
397.429	374.21
397.808	367.66
398.186	368.56
398.565	393.65
398.944	385.29
399.323	364.04
399.701	373.31
400.08	397.26
400.458	403.59
400.837	384.38
401.215	400.43
401.594	393.87
401.972	415.12
402.351	390.71
402.729	417.83
403.107	409.24
403.486	412.86
403.864	429.58
404.242	430.48
404.62	450.14
404.999	437.49
405.377	433.65
405.755	435.45
406.133	441.56
406.511	453.31
406.889	450.37
407.267	457.6
407.645	460.76
408.023	457.15
408.401	475
408.779	483.59
409.156	501.67
409.534	501.44
409.912	479.07
410.29	501.89
410.667	505.28
411.045	506.87
411.422	533.53
411.8	536.69
412.178	543.93
412.555	533.53
412.933	557.26
413.31	560.88
413.687	582.8
414.065	581.21
414.442	585.51
414.819	590.7
415.197	594.09
415.574	617.37
415.951	630.03
416.328	626.18
416.705	647.65
417.082	649.46
417.46	648.1
417.837	665.28
418.214	701.66
418.591	679.29
418.967	662.57
419.344	686.97
419.721	687.2
420.098	708.22
420.475	715.22
420.852	718.39
421.228	760.19
421.605	740.31
421.982	801.09
422.358	770.81
422.735	771.49
423.111	793.64
423.488	816.69
423.864	817.59
424.241	839.96
424.617	864.82
424.994	860.3
425.37	892.39
425.746	908.44
426.123	917.25
426.499	923.8
426.875	924.48
427.251	976.91
427.627	986.63
428.003	1011.48
428.379	966.97
428.756	1013.29
429.132	1021.65
429.507	1014.42
429.883	1032.73
430.259	1063.69
430.635	1049.45
431.011	1054.2
431.387	1104.14
431.763	1091.93
432.138	1111.6
432.514	1131.26
432.89	1134.87
433.265	1163.35
433.641	1164.02
434.016	1198.6
434.392	1240.86
434.767	1259.16
435.143	1270.46
435.518	1291.93
435.894	1300.06
436.269	1338.26
436.644	1345.71
437.02	1382.32
437.395	1384.36
437.77	1421.64
438.145	1460.06
438.52	1462.77
438.895	1492.83
439.271	1517.23
439.646	1521.75
440.021	1577.12
440.395	1574.86
440.77	1565.82
441.145	1619.15
441.52	1639.26
441.895	1651.47
442.27	1644.91
442.645	1666.38
443.019	1723.33
443.394	1704.12
443.769	1733.95
444.143	1740.96
444.518	1794.06
444.892	1776.44
445.267	1802.65
445.641	1792.26
446.016	1832.03
446.39	1876.77
446.764	1844.46
447.139	1809.66
447.513	1865.25
447.887	1895.08
448.262	1888.75
448.636	1902.76
449.01	1930.33
449.384	1956.32
449.758	1966.04
450.132	2025.24
450.506	1998.8
450.88	1971.69
451.254	2012.81
451.628	2040.38
452.002	2052.81
452.376	2087.39
452.75	2116.77
453.123	2104.56
453.497	2139.14
453.871	2143.43
454.244	2213.94
454.618	2201.74
454.992	2248.51
455.365	2248.51
455.739	2338.46
456.112	2320.6
456.486	2367.16
456.859	2361.73
457.232	2404.67
457.606	2406.7
457.979	2413.71
458.352	2497.32
458.725	2474.72
459.099	2495.74
459.472	2586.13
459.845	2549.3
460.218	2605.57
460.591	2654.15
460.964	2633.81
461.337	2684.66
461.71	2726.69
462.083	2762.17
462.456	2730.54
462.829	2803.98
463.201	2847.37
463.574	2817.99
463.947	2871.77
464.32	2920.14
464.692	2960.36
465.065	2953.58
465.438	2999.46
465.81	3039.45
466.183	3098.89
466.555	3110.19
466.928	3155.16
467.3	3137.08
467.672	3193.57
468.045	3282.39
468.417	3289.62
468.789	3292.1
469.161	3363.29
469.534	3348.37
469.906	3483.74
470.278	3428.82
470.65	3547.01
471.022	3550.85
471.394	3614.35
471.766	3662.71
472.138	3666.1
472.51	3795.37
472.882	3790.85
473.253	3846.44
473.625	3908.13
473.997	3973.44
474.369	3994.91
474.74	3991.07
475.112	4095.47
475.484	4127.79
475.855	4198.29
476.227	4244.39
476.598	4393.54
476.97	4344.05
477.341	4465.63
477.713	4521.22
478.084	4526.65
478.455	4638.73
478.827	4678.73
479.198	4784.04
479.569	4789.01
479.94	4904.04
480.311	4953.3
480.682	5046.18
481.053	5166.4
481.424	5181.54
481.795	5251.37
482.166	5320.3
482.537	5393.74
482.908	5465.6
483.279	5498.37
483.65	5656.56
484.021	5699.72
484.391	5799.16
484.762	5787.63
485.133	5865.14
485.503	5889.1
485.874	6002.09
486.244	6057
486.615	6188.98
486.985	6250.22
487.356	6318.92
487.726	6327.5
488.097	6442.75
488.467	6458.12
488.837	6592.13
489.207	6666.48
489.578	6750.77
489.948	6743.54
490.318	6871.22
490.688	6908.73
491.058	6986.69
491.428	7055.85
491.798	7074.15
492.168	7235.73
492.538	7207.93
492.908	7270.08
493.278	7339.23
493.648	7393.46
494.017	7419.45
494.387	7494.93
494.757	7531.09
495.126	7611.31
495.496	7603.85
495.866	7690.18
496.235	7746
496.605	7811.08
496.974	7850.63
497.344	7925.88
497.713	7935.6
498.082	7935.82
498.452	8052.88
498.821	8010.17
499.19	8063.73
499.559	8030.06
499.928	8137.85
500.298	8138.75
500.667	8222.59
501.036	8153.9
501.405	8225.08
501.774	8232.54
502.143	8287.23
502.512	8238.41
502.88	8382.59
503.249	8364.06
503.618	8403.15
503.987	8406.77
504.356	8405.87
504.724	8436.37
505.093	8509.37
505.462	8542.36
505.83	8528.58
506.199	8558.4
506.567	8652.64
506.936	8609.7
507.304	8730.83
507.672	8677.27
508.041	8718.85
508.409	8753.43
508.777	8801.34
509.145	8852.18
509.514	8763.82
509.882	8884.5
510.25	8770.6
510.618	8847.66
510.986	8842.01
511.354	8903.03
511.722	8966.98
512.09	8925.4
512.458	8923.14
512.826	8999.98
513.193	8943.71
513.561	8971.73
513.929	9047.66
514.297	9102.57
514.664	8976.25
515.032	9030.26
515.4	9083.14
515.767	9075.45
516.135	9126.07
516.502	9014.21
516.869	9156.36
517.237	9171.95
517.604	9036.81
517.972	9192.29
518.339	9131.5
518.706	9093.08
519.073	9124.49
519.44	9151.16
519.808	9237.94
520.175	9160.42
520.542	9215.11
520.909	9165.17
521.276	9178.95
521.643	9235.45
522.009	9261.21
522.376	9258.5
522.743	9293.53
523.11	9293.3
523.477	9298.5
523.843	9357.03
524.21	9367.2
524.577	9374.65
524.943	9310.7
525.31	9375.56
525.676	9373.52
526.043	9383.24
526.409	9352.96
526.776	9439.29
527.142	9393.41
527.508	9401.32
527.874	9357.03
528.241	9376.01
528.607	9376.46
528.973	9392.06
529.339	9327.88
529.705	9377.59
530.071	9394.99
530.437	9430.02
530.803	9413.07
531.169	9377.14
531.535	9335.33
531.901	9284.71
532.267	9290.14
532.632	9297.37
532.998	9298.27
533.364	9306.41
533.73	9252.17
534.095	9190.25
534.461	9162.91
534.826	9205.62
535.192	9140.08
535.557	9133.08
535.923	9083.81
536.288	9093.98
536.653	9120.88
537.019	9061.89
537.384	9049.69
537.749	8996.81
538.114	8970.15
538.479	8991.16
538.845	8953.42
539.21	8880.2
539.575	8857.15
539.94	8869.58
540.305	8796.59
540.67	8772.86
541.034	8823.93
541.399	8733.99
541.764	8751.17
542.129	8657.16
542.494	8600.89
542.858	8644.5
543.223	8597.95
543.587	8582.13
543.952	8475.7
544.316	8495.81
544.681	8416.26
545.045	8439.54
545.41	8404.06
545.774	8433.66
546.138	8324.06
546.503	8313.44
546.867	8247.23
547.231	8297.85
547.595	8269.6
547.959	8188.25
548.324	8178.98
548.688	8045.42
549.052	8141.47
549.416	8120.9
549.779	8083.16
550.143	8009.49
550.507	8072.54
550.871	7977.86
551.235	8011.3
551.599	7950.51
551.962	7912.55
552.326	7849.5
552.689	7837.29
553.053	7772.66
553.417	7811.08
553.78	7868.25
554.143	7772.44
554.507	7699.67
554.87	7720.01
555.234	7779.89
555.597	7675.94
555.96	7654.02
556.323	7674.13
556.686	7602.27
557.05	7610.63
557.413	7619.22
557.776	7492.67
558.139	7539
558.502	7586.91
558.865	7428.27
559.228	7536.74
559.59	7489.28
559.953	7444.76
560.316	7506.91
560.679	7467.36
561.041	7430.75
561.404	7424.65
561.767	7454.71
562.129	7469.17
562.492	7489.05
562.854	7415.61
563.217	7441.6
563.579	7393.69
563.941	7415.61
564.304	7402.96
564.666	7467.59
565.028	7370.87
565.39	7397.31
565.753	7409.51
566.115	7480.92
566.477	7458.77
566.839	7440.69
567.201	7420.58
567.563	7444.99
567.925	7434.82
568.287	7465.33
568.648	7458.77
569.01	7461.71
569.372	7402.96
569.734	7457.64
570.095	7486.57
570.457	7454.71
570.819	7503.07
571.18	7441.37
571.542	7491.54
571.903	7476.63
572.265	7483.18
572.626	7522.95
572.987	7438.66
573.349	7407.7
573.71	7501.26
574.071	7488.15
574.432	7548.04
574.794	7600.46
575.155	7540.13
575.516	7496.74
575.877	7537.19
576.238	7525.89
576.599	7549.17
576.96	7542.39
577.32	7593.68
577.681	7577.19
578.042	7577.41
578.403	7534.25
578.763	7614.25
579.124	7624.87
579.485	7642.27
579.845	7577.64
580.206	7597.07
580.566	7610.63
580.927	7634.81
581.287	7710.74
581.648	7597.75
582.008	7640.46
582.368	7690.18
582.728	7613.35
583.089	7608.6
583.449	7725.43
583.809	7638.43
584.169	7682.95
584.529	7687.69
584.889	7714.59
585.249	7675.94
585.609	7614.02
585.969	7684.3
586.329	7692.89
586.688	7770.4
587.048	7685.89
587.408	7719.33
587.768	7770.85
588.127	7649.5
588.487	7760.01
588.846	7825.77
589.206	7735.83
589.565	7725.43
589.925	7803.17
590.284	7728.6
590.643	7792.32
591.003	7760.69
591.362	7811.98
591.721	7801.81
592.08	7759.33
592.44	7843.85
592.799	7809.05
593.158	7794.13
593.517	7742.38
593.876	7863.96
594.235	7786.45
594.593	7845.43
594.952	7774.24
595.311	7765.21
595.67	7737.86
596.029	7866.9
596.387	7826.45
596.746	7837.97
597.104	7813.34
597.463	7786.9
597.822	7823.28
598.18	7821.02
598.538	7757.3
598.897	7782.15
599.255	7763.85
599.613	7905.09
599.972	7819.67
600.33	7833.45
600.688	7770.85
601.046	7769.5
601.404	7831.19
601.762	7794.58
602.12	7857.63
602.478	7817.41
602.836	7842.49
603.194	7896.05
603.552	7840.91
603.91	7798.88
604.268	7863.28
604.625	7843.4
604.983	7818.99
605.341	7788.26
605.698	7912.55
606.056	7843.17
606.413	7880.91
606.771	7911.42
607.128	7849.72
607.485	7866.22
607.843	7901.02
608.2	7912.77
608.557	7945.31
608.914	7891.98
609.272	7918.2
609.629	7952.32
609.986	7978.31
610.343	7884.98
610.7	7954.35
611.057	7956.16
611.414	7952.55
611.771	7893.11
612.127	7940.57
612.484	7976.73
612.841	7948.7
613.198	7901.47
613.554	7946.67
613.911	7995.26
614.267	8009.49
614.624	7946.9
614.98	7945.09
615.337	8087.91
615.693	7997.74
616.05	8038.64
616.406	8095.82
616.762	7981.47
617.118	8030.28
617.475	7992.09
617.831	8035.25
618.187	8089.72
618.543	8006.56
618.899	8104.41
619.255	8053.56
619.611	8039.55
619.967	8097.4
620.323	8117.29
620.678	8089.04
621.034	8053.11
621.39	8048.14
621.746	8075.48
622.101	8142.82
622.457	8045.88
622.812	8085.87
623.168	8068.93
623.523	8083.39
623.879	8145.08
624.234	8067.57
624.589	8100.34
624.945	8123.61
625.3	8119.09
625.655	8049.27
626.01	8121.35
626.365	8094.91
626.72	8073.22
627.075	8088.13
627.43	8067.8
627.785	8031.87
628.14	8072.32
628.495	8100.56
628.85	8024.41
629.205	8069.6
629.559	8042.49
629.914	8016.05
630.269	8054.24
630.623	8075.48
630.978	8009.27
631.332	8030.28
631.687	7986.89
632.041	8022.6
632.396	7995.26
632.75	8016.05
633.104	7979.21
633.459	7941.7
633.813	7904.64
634.167	7991.64
634.521	7921.81
634.875	7912.55
635.229	7842.27
635.583	7860.12
635.937	7927.69
636.291	7907.57
636.645	7903.05
636.999	7854.92
637.352	7886.78
637.706	7861.47
638.06	7881.13
638.413	7803.4
638.767	7829.16
639.121	7842.27
639.474	7803.85
639.828	7742.16
640.181	7795.94
640.534	7828.93
640.888	7755.94
641.241	7799.1
641.594	7780.57
641.947	7753
642.301	7773.11
642.654	7778.76
643.007	7786.9
643.36	7767.01
643.713	7741.7
644.066	7761.14
644.419	7719.78
644.771	7767.24
645.124	7595.49
645.477	7607.7
645.83	7563.4
646.182	7477.76
646.535	7474.14
646.888	7515.49
647.24	7435.5
647.593	7520.24
647.945	7498.09
648.298	7416.74
648.65	7508.49
649.002	7484.31
649.355	7546.23
649.707	7450.19
650.059	7455.16
650.411	7575.61
650.763	7632.1
651.115	7698.31
651.467	7626.23
651.819	7623.51
652.171	7621.93
652.523	7634.59
652.875	7681.14
653.227	7553.01
653.578	7650.63
653.93	7673.46
654.282	7595.27
654.633	7604.08
654.985	7676.17
655.337	7657.41
655.688	7622.84
656.039	7675.26
656.391	7625.32
656.742	7691.08
657.094	7729.05
657.445	7690.86
657.796	7655.38
658.147	7707.58
658.498	7609.73
658.849	7658.77
659.2	7634.81
659.551	7668.71
659.902	7672.78
660.253	7626.45
660.604	7660.35
660.955	7644.53
661.306	7656.28
661.656	7699.9
662.007	7681.59
662.358	7712.55
662.708	7750.97
663.059	7701.93
663.409	7607.02
663.76	7736.05
664.11	7719.78
664.461	7665.1
664.811	7692.21
665.161	7711.65
665.511	7709.39
665.862	7702.83
666.212	7736.73
666.562	7742.16
666.912	7710.29
667.262	7769.73
667.612	7746.9
667.962	7788.26
668.312	7744.42
668.662	7739.9
669.011	7733.34
669.361	7750.74
669.711	7713
670.06	7681.59
670.41	7778.99
670.76	7713
671.109	7682.95
671.459	7693.12
671.808	7695.6
672.157	7782.83
672.507	7649.73
672.856	7671.87
673.205	7628.94
673.554	7716.85
673.904	7657.64
674.253	7646.79
674.602	7663.97
674.951	7557.53
675.3	7548.26
675.649	7600.69
675.998	7618.99
676.346	7644.53
676.695	7604.76
677.044	7583.74
677.393	7633.23
677.741	7625.55
678.09	7550.52
678.438	7623.06
678.787	7494.7
679.135	7578.32
679.484	7465.55
679.832	7572.44
680.181	7485.66
680.529	7520.69
680.877	7513.46
681.225	7461.94
681.573	7538.77
681.922	7479.56
682.27	7419.68
682.618	7435.27
682.966	7420.13
683.314	7432.33
683.661	7428.72
684.009	7387.59
684.357	7396.63
684.705	7336.52
685.053	7354.59
685.4	7279.12
685.748	7243.19
686.095	7301.49
686.443	7270.76
686.79	7207.48
687.138	7262.62
687.485	7189.63
687.832	7221.26
688.18	7194.6
688.527	7175.84
688.874	7143.75
689.221	7117.76
689.568	7113.25
689.915	7048.84
690.262	7060.82
690.609	7048.84
690.956	7081.16
691.303	7024.89
691.65	6944.66
691.997	6974.04
692.344	6837.55
692.69	6916.19
693.037	6919.35
693.383	6845.46
693.73	6877.55
694.077	6785.8
694.423	6795.06
694.769	6773.82
695.116	6768.62
695.462	6736.98
695.808	6724.33
696.155	6665.57
696.501	6592.81
696.847	6636.87
697.193	6533.6
697.539	6668.06
697.885	6554.16
698.231	6547.16
698.577	6496.54
698.923	6495.63
699.269	6443.21
699.614	6417.67
699.96	6407.05
700.306	6450.66
700.651	6394.17
700.997	6318.01
701.342	6319.82
701.688	6270.56
702.033	6266.04
702.379	6202.76
702.724	6206.6
703.069	6228.52
703.415	6163.44
703.76	6148.3
704.105	6184
704.45	6068.07
704.795	6091.8
705.14	6088.41
705.485	6057
705.83	6051.13
706.175	6012.03
706.52	6026.04
706.865	6026.72
707.209	5983.56
707.554	6005.03
707.899	6000.73
708.243	5896.55
708.588	5868.98
708.932	5873.28
709.277	5843.45
709.621	5840.06
709.966	5834.18
710.31	5835.31
710.654	5784.01
710.998	5767.29
711.342	5750.57
711.687	5787.4
712.031	5736.11
712.375	5729.33
712.719	5754.86
713.063	5740.85
713.407	5736.11
713.75	5669.67
714.094	5671.25
714.438	5670.57
714.782	5675.54
715.125	5650.01
715.469	5620.63
715.812	5612.04
716.156	5568.43
716.499	5596.45
716.843	5642.78
717.186	5509.67
717.53	5606.62
717.873	5552.16
718.216	5549.9
718.559	5545.38
718.902	5480.07
719.246	5495.43
719.589	5530.46
719.932	5490.69
720.275	5509.22
720.617	5529.33
720.96	5486.17
721.303	5544.25
721.646	5474.42
721.989	5474.42
722.331	5476.68
722.674	5459.05
723.016	5468.77
723.359	5397.36
723.701	5401.88
724.044	5413.63
724.386	5419.28
724.729	5409.34
725.071	5432.61
725.413	5448.88
725.755	5422.89
726.097	5395.1
726.439	5383.35
726.782	5400.52
727.124	5457.24
727.465	5396.45
727.807	5389.67
728.149	5334.99
728.491	5374.53
728.833	5414.53
729.175	5373.4
729.516	5384.03
729.858	5400.52
730.199	5432.39
730.541	5415.44
730.882	5395.1
731.224	5432.61
731.565	5388.09
731.906	5451.14
732.248	5402.78
732.589	5397.13
732.93	5419.5
733.271	5375.89
733.612	5403.46
733.953	5363.23
734.294	5358.94
734.635	5431.71
734.976	5389.45
735.317	5382.67
735.658	5402.78
735.999	5415.44
736.339	5424.7
736.68	5476.23
737.021	5441.42
737.361	5392.16
737.702	5433.52
738.042	5414.98
738.383	5371.37
738.723	5491.82
739.063	5463.8
739.404	5492.95
739.744	5463.12
740.084	5486.62
740.424	5518.71
740.764	5561.42
741.104	5575.66
741.444	5532.95
741.784	5563.23
742.124	5574.53
742.464	5552.61
742.804	5549.67
743.143	5610.01
743.483	5634.64
743.823	5616.79
744.162	5686.16
744.502	5703.79
744.841	5749.67
745.181	5770.68
745.52	5746.73
745.86	5841.87
746.199	5805.71
746.538	5889.32
746.877	5949.89
747.216	5976.33
747.556	5977.23
747.895	6003.67
748.234	6074.4
748.573	6141.52
748.911	6196.43
749.25	6254.06
749.589	6264.23
749.928	6332.93
750.267	6403.21
750.605	6453.6
750.944	6537.67
751.283	6608.17
751.621	6706.25
751.96	6758.45
752.298	6901.27
752.636	6921.61
752.975	6997.54
753.313	7138.56
753.651	7223.75
753.989	7329.96
754.327	7468.04
754.666	7437.53
755.004	7727.69
755.342	7755.04
755.679	7882.04
756.017	7983.96
756.355	8169.71
756.693	8229.37
757.031	8374.45
757.368	8483.15
757.706	8676.14
758.044	8726.31
758.381	8982.12
758.719	9084.94
759.056	9315.22
759.394	9322.68
759.731	9492.17
760.068	9713.63
760.405	9816.45
760.743	9960.18
761.08	10205.82
761.417	10382.09
761.754	10407.62
762.091	10622.76
762.428	10785.92
762.765	10930.09
763.102	11168.05
763.438	11293.02
763.775	11456.86
764.112	11558.1
764.449	11851.2
764.785	11936.85
765.122	12071.98
765.458	12198.99
765.795	12398.98
766.131	12505.42
766.467	12722.14
766.804	12843.49
767.14	12939.98
767.476	13132.3
767.812	13256.13
768.148	13464.94
768.485	13532.51
768.821	13678.27
769.157	13736.35
769.492	13872.16
769.828	14040.29
770.164	14136.34
770.5	14225.15
770.836	14353.28
771.171	14397.35
771.507	14498.36
771.842	14544.46
772.178	14732.93
772.513	14756.43
772.849	14904
773.184	14941.51
773.519	15087.27
773.855	15129.08
774.19	15193.26
774.525	15314.39
774.86	15427.83
775.195	15522.52
775.53	15545.34
775.865	15556.64
776.2	15498.56
776.535	15532.68
776.87	15655.62
777.205	15687.03
777.539	15715.96
777.874	15807.71
778.209	15670.53
778.543	15821.94
778.878	15830.08
779.212	15895.84
779.547	15874.82
779.881	16039.56
780.215	15949.85
780.55	16065.1
780.884	16081.14
781.218	16071.2
781.552	16060.81
781.886	16087.7
782.22	16061.71
782.554	16082.27
782.888	15897.19
783.222	16019.23
783.556	15951.88
783.889	16006.12
784.223	15993.01
784.557	16034.59
784.89	16148.26
785.224	16020.81
785.557	15998.21
785.891	15988.72
786.224	15993.24
786.558	16088.15
786.891	15923.41
787.224	15939
787.557	15870.3
787.891	15916.63
788.224	15939.23
788.557	15893.81
788.89	15915.95
789.223	15968.38
789.556	15857.42
789.888	15912.34
790.221	15802.96
790.554	15722.74
790.887	15812.45
791.219	15752.57
791.552	15719.12
791.884	15672.57
792.217	15587.82
792.549	15700.82
792.882	15576.07
793.214	15574.04
793.546	15630.08
793.879	15489.97
794.211	15493.36
794.543	15592.57
794.875	15471.44
795.207	15478.22
795.539	15501.5
795.871	15514.83
796.203	15403.87
796.535	15263.31
796.867	15355.51
797.198	15265.35
797.53	15297.89
797.862	15202.52
798.193	15315.06
798.525	15149.42
798.856	15115.29
799.188	15057.22
799.519	15002.98
799.85	14901.29
800.182	14909.42
800.513	14984.9
800.844	14859.26
801.175	14949.65
801.506	14914.4
801.837	14855.41
802.168	14777.68
802.499	14765.25
802.83	14694.29
803.161	14713.95
803.491	14694.74
803.822	14659.26
804.153	14694.74
804.483	14526.16
804.814	14432.15
805.145	14540.62
805.475	14444.58
805.805	14447.97
806.136	14403.45
806.466	14400.51
806.796	14373.17
807.126	14236.9
807.457	14261.53
807.787	14324.35
808.117	14266.96
808.447	14140.86
808.777	14223.11
809.107	14132.04
809.436	14092.72
809.766	14142.21
810.096	14074.19
810.426	14030.58
810.755	13990.35
811.085	14011.37
811.414	13932.27
811.744	13894.99
812.073	13901.09
812.403	13879.17
812.732	13765.5
813.061	13818.61
813.39	13798.95
813.719	13766.86
814.049	13749.23
814.378	13819.74
814.707	13633.53
815.036	13676.24
815.365	13617.25
815.693	13537.03
816.022	13530.25
816.351	13526.41
816.68	13495.68
817.008	13572.74
817.337	13368.45
817.665	13361.89
817.994	13360.31
818.322	13399.63
818.651	13310.82
818.979	13296.13
819.307	13333.65
819.636	13225.85
819.964	13163.48
820.292	13218.17
820.62	13247.55
820.948	13158.74
821.276	13278.73
821.604	13119.41
821.932	13186.31
822.259	13161.22
822.587	13216.59
822.915	13152.63
823.243	13216.14
823.57	13168.68
823.898	13147.21
824.225	13198.06
824.553	13110.6
824.88	13170.94
825.207	13232.86
825.535	13177.72
825.862	13241.9
826.189	13151.05
826.516	13238.73
826.843	13247.77
827.17	13264.27
827.497	13209.58
827.824	13181.79
828.151	13274.21
828.478	13255.91
828.805	13282.35
829.131	13265.85
829.458	13278.96
829.785	13222.92
830.111	13191.05
830.438	13233.99
830.764	13305.17
831.09	13285.74
831.417	13226.08
831.743	13193.76
832.069	13235.34
832.395	13153.31
832.722	13196.93
833.048	13157.38
833.374	13245.97
833.7	13161
834.026	13140.21
834.351	13167.1
834.677	13157.15
835.003	13235.12
835.329	13119.41
835.654	13081.68
835.98	13005.75
836.306	13094.33
836.631	13023.15
836.956	13030.6
837.282	13092.97
837.607	12924.39
837.932	12940.44
838.258	13017.95
838.583	12939.76
838.908	12951.96
839.233	12942.47
839.558	12847.78
839.883	12801.68
840.208	12782.47
840.533	12811.17
840.858	12813.21
841.182	12826.09
841.507	12765.3
841.832	12653.66
842.156	12694.12
842.481	12751.29
842.805	12689.14
843.13	12672.2
843.454	12631.97
843.778	12561.01
844.103	12516.49
844.427	12516.94
844.751	12506.78
845.075	12423.61
845.399	12440.11
845.723	12359.66
846.047	12405.99
846.371	12275.14
846.695	12294.35
847.019	12153.34
847.343	12148.59
847.666	12095.26
847.99	11958.54
848.313	12022.27
848.637	11881.71
848.96	11879.22
849.284	11794.25
849.607	11841.26
849.931	11791.31
850.254	11657.98
850.577	11650.98
850.9	11607.82
851.223	11604.2
851.546	11501.15
851.869	11472
852.192	11570.76
852.515	11369.86
852.838	11349.29
853.161	11391.1
853.483	11264.55
853.806	11182.97
854.129	11249.63
854.451	11138.45
854.774	11160.37
855.096	11086.47
855.419	11034.27
855.741	10999.92
856.063	10987.27
856.385	10969.64
856.708	10979.13
857.03	10866.59
857.352	10907.27
857.674	10906.59
857.996	10791.34
858.318	10732.13
858.64	10760.83
858.961	10721.06
859.283	10606.94
859.605	10563.32
859.926	10720.16
860.248	10718.8
860.57	10534.17
860.891	10559.03
861.212	10492.14
861.534	10508.86
861.855	10408.98
862.176	10443.78
862.498	10437.68
862.819	10463.67
863.14	10450.33
863.461	10377.34
863.782	10366.04
864.103	10342.54
864.424	10311.81
864.745	10371.24
865.065	10298.92
865.386	10201.3
865.707	10209.89
866.027	10227.97
866.348	10167.18
866.668	10186.61
866.989	10195.65
867.309	10213.95
867.63	10188.64
867.95	10062.55
868.27	10075.2
868.59	10037.91
868.91	10054.18
869.23	10064.13
869.55	9956.33
869.87	10017.12
870.19	9983.45
870.51	9999.72
870.83	9965.15
871.15	9950.01
871.469	9971.02
871.789	9955.43
872.109	9963.11
872.428	9851.48
872.748	9860.29
873.067	9913.17
873.386	9842.89
873.706	9835.21
874.025	9823.46
874.344	9785.94
874.663	9807.64
874.982	9806.28
875.301	9699.84
875.62	9724.02
875.939	9761.54
876.258	9759.73
876.577	9714.98
876.896	9687.64
877.214	9680.18
877.533	9703.91
877.852	9615.33
878.17	9646.06
878.489	9655.33
878.807	9611.94
879.125	9558.83
879.444	9568.55
879.762	9523.8
880.08	9591.6
880.398	9483.35
880.716	9493.52
881.034	9463.69
881.352	9473.41
881.67	9500.98
881.988	9470.25
882.306	9448.33
882.624	9443.13
882.941	9357.71
883.259	9353.41
883.577	9291.72
883.894	9275.67
884.212	9294.88
884.529	9353.86
884.846	9224.38
885.164	9197.03
885.481	9135.56
885.798	9108.45
886.115	9176.47
886.432	9132.18
886.75	9010.14
887.067	9054.66
887.383	9040.65
887.7	9002.01
888.017	9030.93
888.334	8981.67
888.651	8990.94
888.967	8929.02
889.284	8876.14
889.6	8886.31
889.917	8804.05
890.233	8824.39
890.55	8757.04
890.866	8805.63
891.182	8748.68
891.498	8730.15
891.815	8665.97
892.131	8691.73
892.447	8704.16
892.763	8613.54
893.079	8628.01
893.395	8587.78
893.71	8502.81
894.026	8537.16
894.342	8488.35
894.657	8481.34
894.973	8445.87
895.289	8425.53
895.604	8396.6
895.92	8311.18
896.235	8318.41
896.55	8233.44
896.865	8331.07
897.181	8229.83
897.496	8208.36
897.811	8164.29
898.126	8175.59
898.441	8096.04
898.756	8092.65
899.071	8065.08
899.386	8072.99
899.7	7993.22
900.015	7965.65
900.33	7902.15
900.644	7932.66
900.959	7922.72
901.273	7914.58
901.588	7908.48
901.902	7823.28
902.216	7761.36
902.531	7770.18
902.845	7717.07
903.159	7656.51
903.473	7713.46
903.787	7620.8
904.101	7561.14
904.415	7632.78
904.729	7595.94
905.042	7467.13
905.356	7490.41
905.67	7463.74
905.984	7443.86
906.297	7469.39
906.611	7363.63
906.924	7285.9
907.237	7336.06
907.551	7371.77
907.864	7212.68
908.177	7257.65
908.491	7202.06
908.804	7196.86
909.117	7166.13
909.43	7085.68
909.743	7122.74
910.056	7051.78
910.368	7054.72
910.681	6958.67
910.994	7014.26
911.307	6956.19
911.619	6916.64
911.932	6937.88
912.244	6859.69
912.557	6853.14
912.869	6790.77
913.181	6769.07
913.494	6754.61
913.806	6725.68
914.118	6731.79
914.43	6652.24
914.742	6672.13
915.054	6660.15
915.366	6586.93
915.678	6579.02
915.99	6492.02
916.302	6497.89
916.613	6453.83
916.925	6477.33
917.236	6428.74
917.548	6400.04
917.859	6413.15
918.171	6371.57
918.482	6319.59
918.794	6354.85
919.105	6337.9
919.416	6286.83
919.727	6256.09
920.038	6250.67
920.349	6184.46
920.66	6190.33
920.971	6166.6
921.282	6134.97
921.593	6023.33
921.903	5998.47
922.214	6040.51
922.525	6071.46
922.835	5982.43
923.146	5948.98
923.456	5971.58
923.767	5937.91
924.077	5898.36
924.387	5863.56
924.697	5868.53
925.008	5815.43
925.318	5807.06
925.628	5814.75
925.938	5759.83
926.248	5750.8
926.558	5731.81
926.867	5723.9
927.177	5711.93
927.487	5636
927.796	5578.37
928.106	5623.79
928.416	5588.99
928.725	5532.72
929.034	5527.75
929.344	5497.24
929.653	5489.11
929.962	5415.89
930.271	5379.96
930.581	5395.1
930.89	5349.22
931.199	5354.2
931.508	5306.51
931.817	5299.73
932.125	5299.96
932.434	5290.92
932.743	5238.04
933.051	5221.54
933.36	5210.24
933.669	5178.61
933.977	5165.27
934.286	5150.36
934.594	5138.61
934.902	5115.56
935.21	5110.13
935.519	5054.09
935.827	5080.98
936.135	5015.67
936.443	5005.5
936.751	4989.23
937.059	4979.74
937.367	4958.27
937.674	4943.58
937.982	4927.99
938.29	4848.9
938.597	4913.3
938.905	4807.32
939.213	4792.18
939.52	4784.94
939.827	4818.39
940.135	4774.1
940.442	4756.02
940.749	4735.68
941.056	4737.49
941.363	4665.17
941.67	4650.49
941.977	4630.6
942.284	4618.4
942.591	4617.72
942.898	4578.62
943.205	4587.44
943.511	4529.81
943.818	4543.6
944.125	4499.75
944.431	4517.61
944.738	4496.14
945.044	4430.38
945.35	4427.21
945.657	4369.36
945.963	4367.33
946.269	4331.4
946.575	4357.84
946.881	4387.89
947.187	4304.28
947.493	4295.69
947.799	4305.18
948.105	4253.21
948.41	4245.75
948.716	4279.2
949.022	4223.6
949.327	4196.03
949.633	4173.21
949.938	4140.89
950.244	4169.82
950.549	4120.56
950.854	4055.25
951.16	4089.14
951.465	4061.12
951.77	4038.3
952.075	4031.74
952.38	4018.86
952.685	4001.24
952.99	3964.4
953.294	3973.67
953.599	3948.81
953.904	3886.66
954.209	3917.17
954.513	3906.55
954.818	3879.88
955.122	3897.28
955.426	3829.94
955.731	3846.66
956.035	3801.24
956.339	3802.37
956.643	3862.71
956.948	3776.38
957.252	3755.37
957.556	3729.15
957.86	3727.35
958.163	3688.93
958.467	3694.35
958.771	3661.13
959.075	3647.35
959.378	3610.06
959.682	3643.96
959.985	3628.59
960.289	3586.11
960.592	3544.98
960.896	3589.27
961.199	3587.24
961.502	3508.82
961.805	3536.39
962.108	3507.69
962.411	3493.23
962.714	3482.38
963.017	3456.84
963.32	3430.86
963.623	3423.4
963.926	3436.05
964.228	3403.29
964.531	3367.58
964.833	3361.93
965.136	3358.32
965.438	3362.61
965.741	3333.91
966.043	3268.6
966.345	3307.7
966.648	3311.09
966.95	3305.89
967.252	3232.67
967.554	3231.31
967.856	3232.44
968.158	3187.02
968.46	3226.34
968.761	3203.74
969.063	3161.48
969.365	3180.47
969.666	3154.25
969.968	3113.35
970.269	3123.97
970.571	3102.5
970.872	3088.04
971.174	3063.86
971.475	3086.68
971.776	3051.21
972.077	3052.33
972.378	3011.21
972.679	3011.43
972.98	3003.75
973.281	3005.1
973.582	3033.58
973.883	2991.32
974.183	2930.53
974.484	2926.01
974.785	2914.94
975.085	2928.5
975.386	2941.38
975.686	2907.48
975.986	2876.29
976.287	2875.84
976.587	2844.2
976.887	2836.3
977.187	2797.65
977.487	2823.19
977.787	2794.71
978.087	2795.17
978.387	2792.68
978.687	2798.56
978.987	2776.64
979.286	2754.94
979.586	2732.12
979.885	2731.21
980.185	2678.11
980.484	2713.13
980.784	2695.73
981.083	2688.95
981.382	2675.85
981.682	2648.96
981.981	2606.7
982.28	2634.04
982.579	2606.92
982.878	2606.7
983.177	2549.3
983.475	2572.12
983.774	2589.52
984.073	2566.7
984.372	2536.64
984.67	2521.5
984.969	2545
985.267	2519.24
985.566	2474.72
985.864	2476.76
986.162	2467.04
986.461	2439.7
986.759	2468.4
987.057	2427.72
987.355	2431.11
987.653	2405.57
987.951	2367.38
988.249	2396.76
988.547	2385.69
988.844	2380.04
989.142	2344.56
989.44	2367.16
989.737	2326.7
990.035	2334.61
990.332	2307.95
990.63	2312.24
990.927	2279.7
991.224	2299.13
991.521	2279.02
991.819	2276.54
992.116	2245.8
992.413	2226.59
992.71	2220.49
993.006	2251.23
993.303	2180.27
993.6	2196.31
993.897	2189.08
994.193	2181.85
994.49	2168.06
994.787	2190.89
995.083	2157.44
995.379	2135.75
995.676	2128.29
995.972	2105.47
996.268	2107.73
996.565	2088.74
996.861	2100.04
997.157	2088.29
997.453	2074.51
997.749	2088.97
998.044	2038.8
998.34	2047.62
998.636	2080.61
998.932	2032.25
999.227	2000.61
999.523	1971.69
999.818	2006.71
1000.114	1961.97
1000.409	1966.94
1000.704	1949.77
1001	1941.18
1001.295	1952.7
1001.59	1924.23
1001.885	1910.44
1002.18	1920.84
1002.475	1916.55
1002.77	1863.21
1003.065	1883.78
1003.359	1883.1
1003.654	1887.62
1003.949	1861.18
1004.243	1848.07
1004.538	1844.01
1004.832	1818.24
1005.127	1815.08
1005.421	1824.12
1005.715	1786.83
1006.009	1786.83
1006.304	1773.05
1006.598	1740.51
1006.892	1751.35
1007.186	1718.58
1007.48	1731.24
1007.773	1702.54
1008.067	1723.33
1008.361	1718.58
1008.655	1692.14
1008.948	1668.87
1009.242	1694.86
1009.535	1664.8
1009.829	1665.7
1010.122	1641.75
1010.415	1643.11
1010.708	1613.5
1011.001	1603.56
1011.295	1599.27
1011.588	1604.24
1011.881	1560.4
1012.173	1594.97
1012.466	1592.26
1012.759	1556.33
1013.052	1537.57
1013.344	1544.35
1013.637	1542.09
1013.93	1535.31
1014.222	1523.34
1014.514	1538.02
1014.807	1536.89
1015.099	1475.43
1015.391	1478.82
1015.683	1458.48
1015.976	1470.68
1016.268	1460.06
1016.56	1466.61
1016.851	1457.35
1017.143	1445.82
1017.435	1413.73
1017.727	1411.25
1018.018	1415.54
1018.31	1404.69
1018.602	1380.29
1018.893	1380.29
1019.185	1390.01
1019.476	1405.37
1019.767	1374.64
1020.058	1358.14
1020.35	1333.51
1020.641	1311.14
1020.932	1321.76
1021.223	1326.96
1021.514	1289.22
1021.804	1291.48
1022.095	1309.33
1022.386	1296.22
1022.677	1293.51
1022.967	1270.23
1023.258	1272.27
1023.548	1248.77
1023.839	1245.83
1024.129	1260.74
1024.419	1226.85
1024.709	1230.46
1025	1220.74
1025.29	1217.35
1025.58	1166.51
1025.87	1180.07
1026.16	1197.69
1026.449	1157.47
1026.739	1162.22
1027.029	1152.95
1027.319	1154.31
1027.608	1140.75
1027.898	1142.55
1028.187	1125.61
1028.477	1125.61
1028.766	1106.85
1029.055	1090.13
1029.344	1091.03
1029.634	1110.24
1029.923	1074.53
1030.212	1068.21
1030.501	1094.19
1030.79	1060.3
1031.078	1052.84
1031.367	1049
1031.656	1059.17
1031.945	1020.52
1032.233	1051.94
1032.522	1036.34
1032.81	1024.82
1033.099	1018.26
1033.387	1009
1033.675	998.6
1033.963	1011.03
1034.251	1006.29
1034.54	980.3
1034.828	981.65
1035.116	976.91
1035.403	952.28
1035.691	964.48
1035.979	948.21
1036.267	961.77
1036.554	933.29
1036.842	933.75
1037.129	940.53
1037.417	920.87
1037.704	907.31
1037.992	945.5
1038.279	906.18
1038.566	912.96
1038.853	912.96
1039.14	912.96
