Data from hue_190_FLMS001491_00028.txt Node
Date: Tue Feb 07 16:45:04 GMT 2017
User: dcchb
Spectrometer: FLMS00149
Trigger mode: 0
Integration Time (sec): 2.000000E-2
Scans to average: 10
Electric dark correction enabled: true
Nonlinearity correction enabled: false
Boxcar width: 0
XAxis mode: Wavelengths
Number of Pixels in Spectrum: 2048
>>>>>Begin Spectral Data<<<<<
341.393	-5.06
341.776	-5.06
342.16	-5.06
342.543	-75.56
342.927	-83.92
343.31	-70.82
343.693	-68.78
344.077	-66.52
344.46	-62.68
344.843	-53.64
345.226	-47.32
345.61	-19.75
345.993	-27.65
346.376	-2.8
346.759	-7.77
347.142	34.49
347.525	43.76
347.908	52.12
348.291	87.6
348.674	85.56
349.057	124.21
349.44	119.01
349.823	133.47
350.206	182.06
350.588	174.15
350.971	200.81
351.354	223.64
351.737	261.6
352.119	246.01
352.502	262.06
352.884	254.6
353.267	259.34
353.65	300.92
354.032	269.96
354.414	286.46
354.797	276.52
355.179	316.29
355.562	318.1
355.944	316.97
356.326	336.18
356.709	326.23
357.091	333.01
357.473	344.31
357.855	338.44
358.238	333.24
358.62	347.7
359.002	327.36
359.384	351.32
359.766	324.65
360.148	342.51
360.53	337.76
360.912	329.62
361.294	341.15
361.676	337.53
362.057	318.78
362.439	328.27
362.821	306.57
363.203	299.79
363.584	320.36
363.966	316.97
364.348	311.32
364.729	318.78
365.111	303.41
365.493	325.33
365.874	320.13
366.256	314.26
366.637	312.68
367.019	323.52
367.4	324.88
367.781	279.46
368.163	320.13
368.544	295.95
368.925	309.29
369.306	312
369.688	282.62
370.069	332.56
370.45	297.99
370.831	330.3
371.212	298.66
371.593	300.25
371.974	305.9
372.355	303.41
372.736	307.25
373.117	312.22
373.498	318.78
373.879	305.22
374.26	318.78
374.641	303.41
375.021	313.35
375.402	303.64
375.783	318.55
376.163	302.73
376.544	347.02
376.925	312.9
377.305	309.29
377.686	317.87
378.066	328.95
378.447	305.9
378.827	323.75
379.208	309.06
379.588	308.38
379.968	328.72
380.349	321.04
380.729	328.95
381.109	321.26
381.489	329.17
381.87	304.77
382.25	333.92
382.63	338.44
383.01	325.1
383.39	355.39
383.77	335.73
384.15	343.86
384.53	330.3
384.91	344.99
385.29	349.28
385.67	327.59
386.049	330.3
386.429	355.61
386.809	344.76
387.189	339.12
387.568	337.76
387.948	331.66
388.328	351.77
388.707	329.85
389.087	351.09
389.466	351.54
389.846	342.73
390.225	335.73
390.605	343.64
390.984	353.8
391.363	344.09
391.743	344.31
392.122	355.84
392.501	385.89
392.881	361.94
393.26	356.06
393.639	368.95
394.018	347.7
394.397	375.95
394.776	362.62
395.155	367.14
395.534	370.98
395.913	359.23
396.292	370.3
396.671	375.27
397.05	364.65
397.429	367.59
397.808	374.59
398.186	380.02
398.565	383.41
398.944	381.83
399.323	399.45
399.701	392.67
400.08	389.96
400.458	397.64
400.837	386.8
401.215	398.77
401.594	407.59
401.972	405.33
402.351	416.18
402.729	401.49
403.107	408.72
403.486	396.06
403.864	416.85
404.242	407.59
404.62	424.99
404.999	432.9
405.377	441.26
405.755	444.88
406.133	444.65
406.511	450.75
406.889	433.58
407.267	425.89
407.645	433.58
408.023	452.33
408.401	471.09
408.779	473.8
409.156	450.3
409.534	471.77
409.912	494.59
410.29	496.4
410.667	518.77
411.045	494.82
411.422	508.38
411.8	505.21
412.178	533.01
412.555	516.51
412.933	559.67
413.31	561.26
413.687	587.92
414.065	561.48
414.442	567.36
414.819	596.74
415.197	592.22
415.574	613.68
415.951	611.2
416.328	617.75
416.705	612.1
417.082	645.55
417.46	642.16
417.837	644.87
418.214	644.19
418.591	655.94
418.967	678.09
419.344	711.76
419.721	686.45
420.098	699.33
420.475	729.84
420.852	710.63
421.228	710.41
421.605	739.33
421.982	753.12
422.358	760.35
422.735	799.44
423.111	790.85
423.488	823.62
423.864	806.67
424.241	831.31
424.617	853.68
424.994	865.88
425.37	885.09
425.746	887.35
426.123	898.87
426.499	882.83
426.875	923.28
427.251	927.35
427.627	927.8
428.003	961.25
428.379	983.17
428.756	970.51
429.132	976.61
429.507	995.6
429.883	1027.01
430.259	1013
430.635	1050.28
431.011	1046.44
431.387	1074.24
431.763	1084.86
432.138	1092.09
432.514	1105.87
432.89	1138.87
433.265	1142.71
433.641	1177.51
434.016	1167.34
434.392	1214.12
434.767	1234.91
435.143	1247.34
435.518	1280.11
435.894	1297.96
436.269	1318.98
436.644	1330.5
437.02	1352.65
437.395	1394
437.77	1392.42
438.145	1428.8
438.52	1457.05
438.895	1478.52
439.271	1477.16
439.646	1500.89
440.021	1536.15
440.395	1579.31
440.77	1592.87
441.145	1588.12
441.52	1643.04
441.895	1626.09
442.27	1620.89
442.645	1662.02
443.019	1659.76
443.394	1681
443.769	1723.49
444.143	1723.71
444.518	1787.44
444.892	1725.07
445.267	1780.43
445.641	1779.08
446.016	1803.48
446.39	1823.6
446.764	1828.57
447.139	1812.3
447.513	1891.16
447.887	1857.27
448.262	1896.81
448.636	1887.1
449.01	1965.97
449.384	1983.37
449.758	1984.27
450.132	1979.52
450.506	1988.11
450.88	2033.99
451.254	2015.68
451.628	2044.83
452.002	2057.49
452.376	2089.8
452.75	2132.29
453.123	2130.93
453.497	2170.71
453.871	2172.06
454.244	2221.33
454.618	2230.37
454.992	2276.01
455.365	2305.84
455.739	2329.8
456.112	2331.61
456.486	2378.84
456.859	2370.7
457.232	2429.23
457.606	2431.49
457.979	2478.72
458.352	2537.02
458.725	2538.15
459.099	2575.44
459.472	2575.89
459.845	2645.72
460.218	2672.16
460.591	2685.72
460.964	2724.82
461.337	2731.14
461.71	2787.86
462.083	2826.28
462.456	2813.17
462.829	2847.07
463.201	2943.34
463.574	2939.27
463.947	2992.15
464.32	3048.2
464.692	3018.59
465.065	3085.48
465.438	3120.06
465.81	3147.4
466.183	3200.06
466.555	3245.03
466.928	3312.14
467.3	3312.6
467.672	3374.06
468.045	3447.73
468.417	3498.81
468.789	3480.28
469.161	3548.07
469.534	3606.6
469.906	3651.57
470.278	3713.72
470.65	3758.46
471.022	3779.02
471.394	3855.86
471.766	3906.48
472.138	3937.21
472.51	4039.36
472.882	4104.21
473.253	4145.34
473.625	4207.04
473.997	4305.56
474.369	4381.72
474.74	4360.93
475.112	4477.99
475.484	4560.02
475.855	4602.28
476.227	4666.69
476.598	4828.94
476.97	4834.82
477.341	4917.53
477.713	4980.58
478.084	5048.6
478.455	5207.01
478.827	5248.36
479.198	5404.74
479.569	5442.94
479.94	5574.01
480.311	5596.83
480.682	5716.15
481.053	5868.69
481.424	5939.19
481.795	5990.94
482.166	6133.09
482.537	6142.8
482.908	6330.6
483.279	6378.05
483.65	6492.4
484.021	6606.52
484.391	6645.62
484.762	6792.28
485.133	6891.03
485.503	6952.73
485.874	7076.34
486.244	7109.56
486.615	7245.37
486.985	7413.96
487.356	7458.02
487.726	7512.71
488.097	7661.63
488.467	7713.38
488.837	7892.14
489.207	7936.2
489.578	8048.07
489.948	8134.16
490.318	8223.65
490.688	8266.36
491.058	8385.23
491.428	8497.54
491.798	8571.89
492.168	8745
492.538	8768.27
492.908	8858.44
493.278	8931.66
493.648	9002.16
494.017	9123.29
494.387	9099.79
494.757	9238.09
495.126	9319.22
495.496	9362.15
495.866	9385.88
496.235	9419.55
496.605	9562.83
496.974	9569.83
497.344	9646.22
497.713	9676.95
498.082	9747.46
498.452	9815.48
498.821	9836.72
499.19	9877.62
499.559	9964.62
499.928	10021.12
500.298	10059.09
500.667	10074.45
501.036	10089.82
501.405	10172.98
501.774	10182.25
502.143	10261.11
502.512	10255.69
502.88	10304.96
503.249	10300.66
503.618	10382.47
503.987	10366.87
504.356	10371.85
504.724	10468.57
505.093	10497.49
505.462	10429.92
505.83	10557.83
506.199	10555.8
506.567	10748.56
506.936	10710.59
507.304	10760.54
507.672	10753.76
508.041	10767.32
508.409	10800.54
508.777	10889.35
509.145	10855.9
509.514	10821.55
509.882	10836.69
510.25	10844.15
510.618	10902.91
510.986	10880.08
511.354	11015.67
511.722	10996.24
512.09	11031.26
512.458	11060.87
512.826	11046.86
513.193	11104.03
513.561	11172.05
513.929	11098.38
514.297	11123.92
514.664	11155.1
515.032	11224.25
515.4	11151.49
515.767	11223.12
516.135	11144.03
516.502	11121.88
516.869	11232.39
517.237	11258.6
517.604	11130.47
517.972	11243.46
518.339	11265.38
518.706	11247.3
519.073	11163.69
519.44	11229.9
519.808	11276
520.175	11178.38
520.542	11226.06
520.909	11297.92
521.276	11198.49
521.643	11364.36
522.009	11283.46
522.376	11324.59
522.743	11297.25
523.11	11304.02
523.477	11354.87
523.843	11340.18
524.21	11386.73
524.577	11398.03
524.943	11357.81
525.31	11320.75
525.676	11452.04
526.043	11340.63
526.409	11403.23
526.776	11370.92
527.142	11292.27
527.508	11353.29
527.874	11402.55
528.241	11323.01
528.607	11310.8
528.973	11356
529.339	11271.48
529.705	11320.97
530.071	11255.89
530.437	11237.36
530.803	11205.04
531.169	11141.32
531.535	11129.79
531.901	11170.92
532.267	11055.22
532.632	11130.92
532.998	11010.47
533.364	10989.23
533.73	10927.09
534.095	11002.79
534.461	10991.26
534.826	10886.41
535.192	10856.35
535.557	10838.5
535.923	10762.34
536.288	10701.78
536.653	10640.77
537.019	10681.44
537.384	10580.65
537.749	10508.11
538.114	10518.96
538.479	10411.39
538.845	10424.05
539.21	10324.16
539.575	10365.52
539.94	10260.89
540.305	10213.88
540.67	10164.17
541.034	10130.5
541.399	10100.67
541.764	9979.54
542.129	10036.94
542.494	9923.72
542.858	9909.49
543.223	9829.04
543.587	9844.85
543.952	9656.61
544.316	9720.11
544.681	9619.55
545.045	9581.36
545.41	9531.19
545.774	9497.97
546.138	9447.35
546.503	9381.36
546.867	9285.77
547.231	9389.27
547.595	9221.82
547.959	9202.61
548.324	9175.49
548.688	9087.59
549.052	9086.23
549.416	8999.45
549.779	9027.93
550.143	8971.66
550.507	8884.65
550.871	8833.81
551.235	8832.45
551.599	8798.33
551.962	8792.9
552.326	8663.42
552.689	8716.07
553.053	8587.26
553.417	8530.99
553.78	8547.71
554.143	8414.61
554.507	8492.35
554.87	8400.15
555.234	8448.51
555.597	8321.73
555.96	8279.25
556.323	8269.75
556.686	8220.04
557.05	8229.3
557.413	8132.58
557.776	8142.75
558.139	8158.8
558.502	8041.51
558.865	7992.02
559.228	8035.18
559.59	8066.82
559.953	7931.91
560.316	8024.79
560.679	7943.89
561.041	8023.43
561.404	7941.18
561.767	7939.14
562.129	7846.26
562.492	7891.23
562.854	7852.82
563.217	7864.34
563.579	7859.6
563.941	7827.51
564.304	7814.85
564.666	7796.55
565.028	7786.83
565.39	7774.17
565.753	7757.23
566.115	7646.95
566.477	7751.58
566.839	7674.29
567.201	7731.69
567.563	7717.45
567.925	7673.61
568.287	7708.41
568.648	7702.99
569.01	7664.35
569.372	7643.33
569.734	7630.45
570.095	7657.79
570.457	7633.16
570.819	7697.11
571.18	7607.17
571.542	7634.74
571.903	7602.2
572.265	7639.94
572.626	7682.43
572.987	7574.63
573.349	7626.16
573.71	7586.38
574.071	7599.26
574.432	7592.26
574.794	7649.43
575.155	7553.61
575.516	7549.55
575.877	7610.56
576.238	7601.52
576.599	7498.25
576.96	7565.37
577.32	7607.62
577.681	7541.41
578.042	7528.3
578.403	7500.28
578.763	7508.87
579.124	7560.62
579.485	7569.89
579.845	7586.38
580.206	7507.97
580.566	7507.97
580.927	7491.47
581.287	7581.64
581.648	7488.53
582.008	7484.01
582.368	7472.49
582.728	7512.49
583.089	7466.16
583.449	7480.4
583.809	7415.99
584.169	7442.66
584.529	7467.29
584.889	7395.2
585.249	7361.53
585.609	7428.42
585.969	7344.58
586.329	7329.44
586.688	7370.34
587.048	7337.58
587.408	7360.4
587.768	7291.93
588.127	7286.96
588.487	7257.8
588.846	7387.07
589.206	7272.27
589.565	7300.74
589.925	7300.51
590.284	7237.24
590.643	7271.81
591.003	7274.75
591.362	7262.55
591.721	7261.19
592.08	7230.23
592.44	7274.53
592.799	7220.74
593.158	7215.54
593.517	7157.02
593.876	7236.56
594.235	7169.22
594.593	7170.35
594.952	7185.72
595.311	7106.17
595.67	7116.56
596.029	7128.99
596.387	7144.81
596.746	7164.02
597.104	7107.07
597.463	7089.67
597.822	7150.91
598.18	7034.31
598.538	7100.52
598.897	7110.01
599.255	7085.6
599.613	7098.94
599.972	7082.21
600.33	7070.92
600.688	7013.06
601.046	7071.82
601.404	7064.81
601.762	7077.47
602.12	7043.8
602.478	7074.08
602.836	7091.71
603.194	7061.42
603.552	6973.07
603.91	6954.76
604.268	7000.41
604.625	6996.57
604.983	7030.24
605.341	7040.86
605.698	7030.01
606.056	7022.33
606.413	7016.91
606.771	7034.31
607.128	6979.62
607.485	7004.93
607.843	6981.43
608.2	6959.73
608.557	7049.45
608.914	7067.53
609.272	6998.6
609.629	6985.49
609.986	7030.46
610.343	6979.62
610.7	7081.76
611.057	7065.27
611.414	6995.89
611.771	7030.01
612.127	7073.4
612.484	7004.7
612.841	7080.63
613.198	7093.06
613.554	7012.39
613.911	7110.24
614.267	7075.21
614.624	7049.67
614.98	7058.71
615.337	7150.91
615.693	7080.18
616.05	7099.62
616.406	7078.15
616.762	7071.37
617.118	7085.15
617.475	7111.14
617.831	7091.93
618.187	7106.85
618.543	7079.28
618.899	7156.56
619.255	7080.18
619.611	7097.13
619.967	7112.72
620.323	7092.16
620.678	7112.72
621.034	7141.87
621.39	7126.73
621.746	7055.1
622.101	7151.82
622.457	7127.86
622.812	7096
623.168	7131.93
623.523	7122.89
623.879	7145.49
624.234	7077.92
624.589	7076.79
624.945	7144.81
625.3	7056.23
625.655	7126.06
626.01	7117.69
626.365	7095.77
626.72	7086.06
627.075	7046.74
627.43	7074.98
627.785	7118.15
628.14	7113.85
628.495	7095.32
628.85	7077.24
629.205	7091.71
629.559	7097.13
629.914	7082.44
630.269	7071.37
630.623	7058.71
630.978	7068.88
631.332	7093.29
631.687	7047.41
632.041	7010.35
632.396	6983.91
632.75	6993.63
633.104	6990.69
633.459	6982.1
633.813	7034.08
634.167	6943.46
634.521	6915.44
634.875	6931.94
635.229	6970.35
635.583	6930.58
635.937	6942.11
636.291	6910.24
636.645	6947.08
636.999	6885.38
637.352	6876.34
637.706	6870.24
638.06	6886.74
638.413	6911.15
638.767	6891.26
639.121	6857.14
639.474	6783.69
639.828	6790.25
640.181	6818.04
640.534	6854.2
640.888	6772.62
641.241	6753.86
641.594	6794.76
641.947	6797.02
642.301	6759.96
642.654	6800.87
643.007	6785.73
643.36	6795.22
643.713	6797.48
644.066	6774.65
644.419	6789.79
644.771	6725.16
645.124	6627.76
645.477	6618.27
645.83	6555.45
646.182	6593.41
646.535	6575.11
646.888	6575.11
647.24	6485.85
647.593	6597.71
647.945	6632.06
648.298	6541.89
648.65	6542.34
649.002	6524.72
649.355	6546.18
649.707	6534.21
650.059	6582.79
650.411	6678.16
650.763	6680.19
651.115	6746.18
651.467	6732.85
651.819	6730.59
652.171	6743.92
652.523	6762.45
652.875	6672.51
653.227	6650.59
653.578	6694.88
653.93	6682.9
654.282	6713.86
654.633	6678.61
654.985	6672.96
655.337	6673.86
655.688	6707.76
656.039	6729
656.391	6752.28
656.742	6764.94
657.094	6727.87
657.445	6737.14
657.796	6784.82
658.147	6687.87
658.498	6755.67
658.849	6745.5
659.2	6721.77
659.551	6755.9
659.902	6785.5
660.253	6778.04
660.604	6809.68
660.955	6767.19
661.306	6806.06
661.656	6769.23
662.007	6781.88
662.358	6770.13
662.708	6748.44
663.059	6772.17
663.409	6726.52
663.76	6774.2
664.11	6759.06
664.461	6802.45
664.811	6799.74
665.161	6830.47
665.511	6767.87
665.862	6882.45
666.212	6826.18
666.562	6837.02
666.912	6860.07
667.262	6889.23
667.612	6807.42
667.962	6849
668.312	6835.22
668.662	6876.12
669.011	6801.77
669.361	6746.86
669.711	6838.15
670.06	6799.74
670.41	6804.03
670.76	6756.8
671.109	6798.83
671.459	6815.33
671.808	6834.76
672.157	6864.14
672.507	6810.58
672.856	6776.91
673.205	6786.63
673.554	6804.48
673.904	6781.21
674.253	6804.93
674.602	6785.27
674.951	6705.73
675.3	6605.39
675.649	6722
675.998	6746.86
676.346	6774.65
676.695	6726.07
677.044	6689
677.393	6715.44
677.741	6693.98
678.09	6687.65
678.438	6696.46
678.787	6708.67
679.135	6637.25
679.484	6633.87
679.832	6722
680.181	6644.71
680.529	6612.85
680.877	6599.97
681.225	6543.47
681.573	6590.48
681.922	6579.63
682.27	6563.81
682.618	6508.9
682.966	6528.56
683.314	6493.98
683.661	6536.01
684.009	6511.83
684.357	6489.91
684.705	6460.08
685.053	6458.28
685.4	6437.94
685.748	6368.34
686.095	6399.07
686.443	6387.09
686.79	6378.5
687.138	6392.06
687.485	6379.41
687.832	6387.54
688.18	6336.02
688.527	6305.06
688.874	6305.96
689.221	6215.35
689.568	6241.33
689.915	6262.58
690.262	6262.8
690.609	6225.51
690.956	6166.08
691.303	6145.97
691.65	6120.66
691.997	6106.65
692.344	6098.51
692.69	6055.35
693.037	6034.78
693.383	6010.38
693.73	6014.45
694.077	5988.46
694.423	5963.15
694.769	5926.99
695.116	5962.92
695.462	5922.7
695.808	5927.67
696.155	5882.7
696.501	5796.37
696.847	5806.99
697.193	5786.2
697.539	5774
697.885	5708.01
698.231	5717.05
698.577	5685.64
698.923	5662.59
699.269	5648.81
699.614	5632.31
699.96	5594.57
700.306	5581.69
700.651	5598.64
700.997	5581.92
701.342	5577.62
701.688	5487.68
702.033	5501.24
702.379	5517.06
702.724	5462.37
703.069	5434.35
703.415	5397.29
703.76	5403.61
704.105	5373.79
704.45	5337.85
704.795	5316.84
705.14	5291.98
705.485	5356.84
705.83	5243.85
706.175	5311.41
706.52	5263.96
706.865	5251.08
707.209	5282.71
707.554	5252.21
707.899	5175.37
708.243	5193.45
708.588	5147.58
708.932	5113.23
709.277	5126.56
709.621	5149.16
709.966	5129.95
710.31	5119.55
710.654	5032.33
710.998	5030.52
711.342	5033.23
711.687	5035.04
712.031	5050.63
712.375	5021.03
712.719	5012.89
713.063	5017.86
713.407	4988.26
713.75	4980.35
714.094	4966.11
714.438	4946
714.782	4970.18
715.125	4949.16
715.469	4893.8
715.812	4877.53
716.156	4878.43
716.499	4874.82
716.843	4904.87
717.186	4934.93
717.53	4905.77
717.873	4879.79
718.216	4847.25
718.559	4859.22
718.902	4887.7
719.246	4885.44
719.589	4795.27
719.932	4806.79
720.275	4842.05
720.617	4771.77
720.96	4776.29
721.303	4830.75
721.646	4807.47
721.989	4793.01
722.331	4779.45
722.674	4775.83
723.016	4728.38
723.359	4740.36
723.701	4814.7
724.044	4800.47
724.386	4763.63
724.729	4791.43
725.071	4769.96
725.413	4783.52
725.755	4806.34
726.097	4725.44
726.439	4686.8
726.782	4758.21
727.124	4755.5
727.465	4728.6
727.807	4776.06
728.149	4733.12
728.491	4732.45
728.833	4761.15
729.175	4744.42
729.516	4731.77
729.858	4760.02
730.199	4707.81
730.541	4748.49
730.882	4725.67
731.224	4755.72
731.565	4746.01
731.906	4746.46
732.248	4732.45
732.589	4733.35
732.93	4734.03
733.271	4781.94
733.612	4771.32
733.953	4755.27
734.294	4767.25
734.635	4755.95
734.976	4827.36
735.317	4751.43
735.658	4806.12
735.999	4769.96
736.339	4768.83
736.68	4801.82
737.021	4780.81
737.361	4827.36
737.702	4838.88
738.042	4802.73
738.383	4899.45
738.723	4870.07
739.063	4875.72
739.404	4849.28
739.744	4844.08
740.084	4891.76
740.424	4891.09
740.764	4881.14
741.104	4946.45
741.444	4938.32
741.784	4951.2
742.124	5026
742.464	4954.81
742.804	5012.44
743.143	4986.68
743.483	5091.53
743.823	5061.48
744.162	5116.16
744.502	5129.95
744.841	5163.17
745.181	5247.01
745.52	5203.85
745.86	5249.04
746.199	5264.18
746.538	5340.79
746.877	5383.5
747.216	5438.87
747.556	5462.82
747.895	5555.02
748.234	5570.16
748.573	5601.35
748.911	5704.62
749.25	5644.29
749.589	5751.4
749.928	5843.83
750.267	5912.53
750.605	5986.88
750.944	6009.25
751.283	6102.35
751.621	6214.89
751.96	6284.72
752.298	6345.29
752.636	6444.94
752.975	6542.12
753.313	6645.39
753.651	6726.74
753.989	6788.66
754.327	6955.21
754.666	7037.47
755.004	7185.94
755.342	7353.39
755.679	7440.62
756.017	7569.89
756.355	7783.44
756.693	7895.07
757.031	8004
757.368	8105.69
757.706	8327.83
758.044	8458.22
758.381	8645.34
758.719	8800.81
759.056	8899.57
759.394	9177.08
759.731	9228.15
760.068	9477.41
760.405	9565.31
760.743	9754.01
761.08	9913.33
761.417	10073.32
761.754	10274
762.091	10445.74
762.428	10648.45
762.765	10692.74
763.102	11009.57
763.438	11187.87
763.775	11269.22
764.112	11525.94
764.449	11695.88
764.785	11789.21
765.122	12004.12
765.458	12144.91
765.795	12383.09
766.131	12474.62
766.467	12689.3
766.804	12850.2
767.14	12911.21
767.476	13132.23
767.812	13256.29
768.148	13400.69
768.485	13540.35
768.821	13599.78
769.157	13799.33
769.492	14028.7
769.828	14176.27
770.164	14243.16
770.5	14230.05
770.836	14422.59
771.171	14523.38
771.507	14708.68
771.842	14861.67
772.178	14928.79
772.513	15047.43
772.849	15096.02
773.184	15102.57
773.519	15327.65
773.855	15336.91
774.19	15415.1
774.525	15545.04
774.86	15634.53
775.195	15631.59
775.53	15725.83
775.865	15738.94
776.2	15797.24
776.535	15851.48
776.87	15922.21
777.205	15999.04
777.539	16012.38
777.874	16160.39
778.209	16163.33
778.543	16146.61
778.878	16100.96
779.212	16254.86
779.547	16235.19
779.881	16277
780.215	16248.08
780.55	16457.79
780.884	16421.4
781.218	16425.92
781.552	16478.13
781.886	16402.42
782.22	16403.1
782.554	16485.13
782.888	16302.99
783.222	16440.39
783.556	16382.31
783.889	16415.08
784.223	16350.67
784.557	16474.06
784.89	16508.18
785.224	16394.29
785.557	16380.05
785.891	16301.63
786.224	16386.38
786.558	16447.39
786.891	16343.67
787.224	16325.81
787.557	16313.38
787.891	16351.12
788.224	16377.79
788.557	16399.48
788.89	16315.64
789.223	16393.83
789.556	16226.38
789.888	16296.89
790.221	16356.77
790.554	16134.63
790.887	16178.02
791.219	16045.82
791.552	16133.28
791.884	16061.19
792.217	16121.3
792.549	16089.44
792.882	16036.33
793.214	15958.59
793.546	15989.55
793.879	15905.71
794.211	15895.32
794.543	15860.06
794.875	15909.1
795.207	15999.95
795.539	15903.45
795.871	15967.41
796.203	15776.22
796.535	15677.24
796.867	15696
797.198	15711.59
797.53	15693.74
797.862	15602.89
798.193	15591.6
798.525	15499.39
798.856	15583.01
799.188	15361.32
799.519	15405.84
799.85	15239.06
800.182	15372.84
800.513	15369.68
800.844	15229.12
801.175	15302.79
801.506	15423.92
801.837	15241.55
802.168	15146.64
802.499	15181.89
802.83	15158.61
803.161	15111.16
803.491	15106.64
803.822	15135.34
804.153	14958.17
804.483	14940.31
804.814	14913.87
805.145	14775.8
805.475	14839.75
805.805	14783.03
806.136	14806.08
806.466	14730.83
806.796	14787.1
807.126	14586.88
807.457	14610.15
807.787	14577.84
808.117	14611.28
808.447	14494.68
808.777	14567.89
809.107	14550.49
809.436	14512.98
809.766	14468.69
810.096	14417.62
810.426	14328.58
810.755	14312.31
811.085	14347.56
811.414	14313.21
811.744	14221.69
812.073	14260.11
812.403	14187.56
812.732	14143.27
813.061	14188.02
813.39	14080.22
813.719	13995.71
814.049	14082.93
814.378	14048.59
814.707	14002.94
815.036	13997.97
815.365	13974.01
815.693	13863.05
816.022	13834.35
816.351	13856.73
816.68	13745.54
817.008	13766.78
817.337	13722.72
817.665	13691.08
817.994	13810.4
818.322	13718.2
818.651	13695.15
818.979	13629.84
819.307	13794.81
819.636	13716.84
819.964	13551.65
820.292	13646.11
820.62	13562.95
820.948	13535.38
821.276	13501.93
821.604	13667.58
821.932	13531.99
822.259	13556.39
822.587	13573.12
822.915	13543.51
823.243	13552.78
823.57	13594.59
823.898	13552.78
824.225	13457.19
824.553	13534.93
824.88	13541.71
825.207	13570.63
825.535	13619.67
825.862	13626
826.189	13536.73
826.516	13675.94
826.843	13599.33
827.17	13683.4
827.497	13649.05
827.824	13608.6
828.151	13671.19
828.478	13660.35
828.805	13634.81
829.131	13550.75
829.458	13633.46
829.785	13527.92
830.111	13627.58
830.438	13650.86
830.764	13616.28
831.09	13685.43
831.417	13577.86
831.743	13642.27
832.069	13535.38
832.395	13547.81
832.722	13620.8
833.048	13522.27
833.374	13608.37
833.7	13399.79
834.026	13550.07
834.351	13545.32
834.677	13560.69
835.003	13545.77
835.329	13474.59
835.654	13530.18
835.98	13407.7
836.306	13491.54
836.631	13455.83
836.956	13447.7
837.282	13443.86
837.607	13330.64
837.932	13324.76
838.258	13240.92
838.583	13342.84
838.908	13221.71
839.233	13241.37
839.558	13190.08
839.883	13234.82
840.208	13158.67
840.533	13158.21
840.858	13138.33
841.182	13112.79
841.507	13092
841.832	13054.26
842.156	13053.58
842.481	13153.47
842.805	12979.91
843.13	13016.07
843.454	12960.03
843.778	12915.28
844.103	12921.61
844.427	12814.95
844.751	12829.18
845.075	12794.83
845.399	12771.33
845.723	12771.33
846.047	12792.12
846.371	12657.89
846.695	12559.81
847.019	12465.35
847.343	12483.43
847.666	12399.14
847.99	12311.91
848.313	12333.15
848.637	12227.84
848.96	12241.63
849.284	12169.31
849.607	12180.16
849.931	12057.45
850.254	12021.52
850.577	12006.15
850.9	11906.72
851.223	11904.91
851.546	11865.59
851.869	11739.27
852.192	11792.15
852.515	11707.18
852.838	11607.52
853.161	11698.36
853.483	11622.89
853.806	11551.48
854.129	11486.39
854.451	11503.12
854.774	11452.27
855.096	11396.68
855.419	11361.42
855.741	11314.19
856.063	11319.84
856.385	11251.14
856.708	11206.4
857.03	11169.34
857.352	11198.49
857.674	11122.56
857.996	11114.65
858.318	11019.96
858.64	11068.78
858.961	10996.24
859.283	10927.09
859.605	10990.81
859.926	10969.12
860.248	10917.14
860.57	10879.18
860.891	10943.58
861.212	10819.74
861.534	10763.25
861.855	10739.52
862.176	10751.27
862.498	10777.03
862.819	10820.42
863.14	10670.6
863.461	10707.66
863.782	10570.48
864.103	10593.76
864.424	10642.8
864.745	10607.55
865.065	10561.67
865.386	10618.62
865.707	10550.82
866.027	10559.86
866.348	10447.1
866.668	10499.07
866.989	10453.65
867.309	10403.48
867.63	10441
867.95	10383.37
868.27	10388.79
868.59	10393.31
868.91	10405.97
869.23	10307.89
869.55	10284.39
869.87	10330.27
870.19	10211.62
870.51	10214.34
870.83	10325.29
871.15	10204.62
871.469	10231.96
871.789	10230.83
872.109	10302.24
872.428	10124.85
872.748	10193.55
873.067	10087.11
873.386	10154.22
873.706	10117.16
874.025	10051.4
874.344	10010.05
874.663	10042.59
874.982	10028.13
875.301	10022.7
875.62	10043.94
875.939	10004.85
876.258	10023.38
876.577	9940.22
876.896	9978.41
877.214	9863.84
877.533	9954.23
877.852	9928.02
878.17	9933.67
878.489	9912.65
878.807	9857.96
879.125	9805.08
879.444	9860.22
879.762	9754.24
880.08	9750.39
880.398	9739.55
880.716	9768.02
881.034	9799.66
881.352	9751.3
881.67	9669.94
881.988	9624.07
882.306	9707.91
882.624	9549.27
882.941	9567.57
883.259	9563.96
883.577	9567.57
883.894	9548.59
884.212	9563.73
884.529	9508.14
884.846	9453.23
885.164	9459.1
885.481	9466.11
885.798	9451.19
886.115	9370.06
886.432	9334.59
886.75	9327.13
887.067	9356.73
887.383	9303.4
887.7	9332.55
888.017	9208.94
888.334	9278.99
888.651	9217.53
888.967	9213.23
889.284	9157.87
889.6	9102.73
889.917	9076.06
890.233	9050.98
890.55	9033.35
890.866	9137.53
891.182	9013.01
891.498	8983.63
891.815	8956.29
892.131	8896.86
892.447	8839.68
892.763	8866.57
893.079	8849.63
893.395	8805.33
893.71	8787.48
894.026	8743.64
894.342	8769.63
894.657	8659.8
894.973	8613.7
895.289	8639.91
895.604	8651.44
895.92	8558.79
896.235	8556.3
896.55	8541.39
896.865	8536.19
897.181	8401.95
897.496	8502.74
897.811	8460.48
898.126	8478.11
898.441	8372.8
898.756	8318.57
899.071	8308.17
899.386	8305.23
899.7	8202.64
900.015	8198.12
900.33	8111.11
900.644	8077.22
900.959	8166.03
901.273	8083.54
901.588	8057.56
901.902	8035.86
902.216	7997.22
902.531	8010.1
902.845	8009.2
903.159	7909.99
903.473	7935.53
903.787	7892.36
904.101	7808.98
904.415	7799.03
904.729	7742.99
905.042	7680.17
905.356	7734.4
905.67	7646.95
905.984	7664.12
906.297	7705.02
906.611	7578.47
906.924	7549.1
907.237	7533.73
907.551	7538.7
907.864	7444.01
908.177	7404.69
908.491	7384.13
908.804	7354.07
909.117	7322.89
909.43	7224.36
909.743	7218.48
910.056	7265.49
910.368	7205.83
910.681	7234.53
910.994	7194.3
911.307	7138.94
911.619	7143.68
911.932	7133.96
912.244	7013.74
912.557	7031.59
912.869	6986.4
913.181	6900.3
913.494	6954.76
913.806	6891.49
914.118	6876.34
914.43	6808.55
914.742	6826.4
915.054	6791.15
915.366	6733.98
915.678	6735.33
915.99	6701.89
916.302	6655.11
916.613	6640.42
916.925	6630.02
917.236	6632.28
917.548	6563.81
917.859	6627.09
918.171	6523.36
918.482	6555.45
918.794	6461.21
919.105	6421.67
919.416	6427.54
919.727	6397.94
920.038	6341.67
920.349	6333.99
920.66	6319.07
920.971	6345.29
921.282	6253.76
921.593	6262.12
921.903	6196.81
922.214	6195.23
922.525	6157.95
922.835	6140.32
923.146	6130.83
923.456	6076.37
923.767	6076.82
924.077	6071.62
924.387	6063.94
924.697	5964.5
925.008	5975.13
925.318	5971.74
925.628	5910.04
925.938	5918.18
926.248	5831.4
926.558	5831.85
926.867	5835.02
927.177	5834.11
927.487	5757.5
927.796	5758.63
928.106	5735.81
928.416	5689.03
928.725	5710.95
929.034	5625.08
929.344	5683.38
929.653	5626.66
929.962	5547.34
930.271	5548.7
930.581	5592.54
930.89	5513.22
931.199	5445.2
931.508	5501.24
931.817	5478.64
932.125	5458.53
932.434	5418.53
932.743	5369.94
933.051	5404.52
933.36	5348.7
933.669	5320.23
933.977	5335.14
934.286	5299.21
934.594	5227.12
934.902	5223.28
935.21	5178.08
935.519	5236.84
935.827	5195.48
936.135	5126.11
936.443	5141.02
936.751	5070.29
937.059	5107.35
937.367	5123.4
937.674	5034.81
937.982	5063.96
938.29	5012.44
938.597	4974.25
938.905	4937.64
939.213	4925.66
939.52	4898.32
939.827	4938.99
940.135	4887.47
940.442	4864.19
940.749	4839.56
941.056	4844.08
941.363	4795.5
941.67	4799.79
941.977	4752.11
942.284	4751.43
942.591	4661.94
942.898	4712.33
943.205	4678.89
943.511	4614.71
943.818	4647.93
944.125	4583.52
944.431	4606.8
944.738	4591.66
945.044	4532.68
945.35	4553.69
945.657	4529.06
945.963	4489.51
946.269	4501.27
946.575	4469.63
946.881	4467.14
947.187	4440.93
947.493	4375.17
947.799	4387.82
948.105	4344.89
948.41	4363.87
948.716	4300.82
949.022	4312.57
949.327	4325.45
949.633	4286.13
949.938	4303.98
950.244	4264.66
950.549	4211.33
950.854	4198
951.16	4161.16
951.465	4175.62
951.77	4200.03
952.075	4103.76
952.38	4129.07
952.685	4129.52
952.99	4063.31
953.294	4053.14
953.599	4031.45
953.904	4033.71
954.209	3987.38
954.513	4025.57
954.818	3964.1
955.122	3971.56
955.426	3981.73
955.731	3910.77
956.035	3941.28
956.339	3903.09
956.643	3904.22
956.948	3880.04
957.252	3861.96
957.556	3857.89
957.86	3826.48
958.163	3826.03
958.467	3766.6
958.771	3785.8
959.075	3751
959.378	3724.34
959.682	3710.1
959.985	3684.56
960.289	3708.07
960.592	3675.75
960.896	3637.33
961.199	3663.32
961.502	3616.32
961.805	3637.11
962.108	3563.44
962.411	3591.01
962.714	3535.87
963.017	3536.32
963.32	3564.57
963.623	3485.93
963.926	3518.69
964.228	3469.2
964.531	3469.2
964.833	3475.98
965.136	3427.4
965.438	3446.83
965.741	3412.03
966.043	3459.26
966.345	3376.55
966.648	3374.52
966.95	3384.46
967.252	3374.97
967.554	3307.85
967.856	3284.12
968.158	3281.18
968.46	3273.95
968.761	3258.36
969.063	3248.42
969.365	3240.73
969.666	3231.24
969.968	3159.61
970.269	3214.29
970.571	3196.89
970.872	3163
971.174	3172.49
971.475	3146.05
971.776	3126.16
972.077	3105.82
972.378	3148.76
972.679	3096.33
972.98	3064.69
973.281	3078.03
973.582	3051.13
973.883	3080.96
974.183	3024.02
974.484	2998.48
974.785	3006.84
975.085	2962.78
975.386	3003
975.686	2954.87
975.986	2926.84
976.287	2988.99
976.587	2877.13
976.887	2897.92
977.187	2904.92
977.487	2850.91
977.787	2871.25
978.087	2842.33
978.387	2798.49
978.687	2834.64
978.987	2830.8
979.286	2818.15
979.586	2788.77
979.885	2786.73
980.185	2798.26
980.484	2759.39
980.784	2746.06
981.083	2732.5
981.382	2703.8
981.682	2684.59
981.981	2690.69
982.28	2655.44
982.579	2671.03
982.878	2659.96
983.177	2659.51
983.475	2636.91
983.774	2631.48
984.073	2617.02
984.372	2584.03
984.67	2590.13
984.969	2569.11
985.267	2565.5
985.566	2575.21
985.864	2544.93
986.162	2523.69
986.461	2524.14
986.759	2484.14
987.057	2493.63
987.355	2439.4
987.653	2461.32
987.951	2465.61
988.249	2462
988.547	2446.4
988.844	2451.6
989.142	2460.19
989.44	2407.31
989.737	2394.65
990.035	2403.47
990.332	2384.71
990.63	2363.47
990.927	2341.77
991.224	2337.03
991.521	2342.23
991.819	2345.39
992.116	2316.46
992.413	2326.18
992.71	2312.17
993.006	2264.94
993.303	2266.52
993.6	2233.53
993.897	2257.48
994.193	2228.11
994.49	2221.55
994.787	2229.24
995.083	2213.42
995.379	2182.68
995.676	2160.54
995.972	2186.07
996.268	2144.27
996.565	2142.23
996.861	2153.76
997.157	2141.1
997.453	2129.58
997.749	2120.99
998.044	2083.25
998.34	2109.46
998.636	2073.99
998.932	2073.08
999.227	1998.51
999.523	2039.86
999.818	2054.78
1000.114	2053.42
1000.409	2011.61
1000.704	1986.08
1001	2000.31
1001.295	1969.58
1001.59	1989.92
1001.885	1968.45
1002.18	1949.47
1002.475	1951.95
1002.77	1916.02
1003.065	1890.49
1003.359	1912.18
1003.654	1909.24
1003.949	1888.91
1004.243	1876.48
1004.538	1856.82
1004.832	1865.18
1005.127	1838.74
1005.421	1836.7
1005.715	1814.56
1006.009	1839.41
1006.304	1824.05
1006.598	1807.78
1006.892	1777.04
1007.186	1795.35
1007.48	1799.19
1007.773	1746.54
1008.067	1740.43
1008.361	1751.73
1008.655	1741.34
1008.948	1707.21
1009.242	1715.8
1009.535	1679.87
1009.829	1692.3
1010.122	1686.42
1010.415	1674
1010.708	1662.47
1011.001	1654.34
1011.295	1640.55
1011.588	1640.55
1011.881	1627.9
1012.173	1615.92
1012.466	1616.14
1012.759	1598.29
1013.052	1568.91
1013.344	1550.83
1013.637	1580.89
1013.93	1542.7
1014.222	1551.96
1014.514	1532.98
1014.807	1532.3
1015.099	1522.14
1015.391	1504.96
1015.683	1496.37
1015.976	1485.3
1016.268	1502.02
1016.56	1501.57
1016.851	1503.83
1017.143	1501.57
1017.435	1434.23
1017.727	1449.14
1018.018	1453.44
1018.31	1434.91
1018.602	1425.41
1018.893	1401.69
1019.185	1405.53
1019.476	1378.18
1019.767	1375.7
1020.058	1402.36
1020.35	1365.53
1020.641	1347.68
1020.932	1342.93
1021.223	1347
1021.514	1342.48
1021.804	1342.93
1022.095	1301.12
1022.386	1316.04
1022.677	1281.69
1022.967	1309.26
1023.258	1285.53
1023.548	1265.64
1023.839	1282.82
1024.129	1257.06
1024.419	1269.94
1024.709	1227
1025	1236.49
1025.29	1237.4
1025.58	1218.64
1025.87	1205.31
1026.16	1199.88
1026.449	1180.68
1026.739	1182.48
1027.029	1162.6
1027.319	1200.34
1027.608	1175.25
1027.898	1164.63
1028.187	1184.29
1028.477	1161.92
1028.766	1128.02
1029.055	1142.48
1029.344	1126.44
1029.634	1142.48
1029.923	1113.56
1030.212	1101.81
1030.501	1111.07
1030.79	1107.23
1031.078	1096.38
1031.367	1069.72
1031.656	1061.81
1031.945	1044.86
1032.233	1058.19
1032.522	1039.21
1032.81	1028.81
1033.099	1046.67
1033.387	1004.18
1033.675	1027.23
1033.963	1002.15
1034.251	982.04
1034.54	994.24
1034.828	989.72
1035.116	984.97
1035.403	994.69
1035.691	953.11
1035.979	953.34
1036.267	933.9
1036.554	935.94
1036.842	945.88
1037.129	935.71
1037.417	957.4
1037.704	930.96
1037.992	912.89
1038.279	935.71
1038.566	888.48
1038.853	888.48
1039.14	888.48
