Data from hue_290_FLMS001491_00068.txt Node
Date: Tue Feb 07 15:53:05 GMT 2017
User: dcchb
Spectrometer: FLMS00149
Trigger mode: 0
Integration Time (sec): 2.000000E-2
Scans to average: 10
Electric dark correction enabled: true
Nonlinearity correction enabled: false
Boxcar width: 0
XAxis mode: Wavelengths
Number of Pixels in Spectrum: 2048
>>>>>Begin Spectral Data<<<<<
341.393	-40.35
341.776	-40.35
342.16	-40.35
342.543	-72.22
342.927	-74.48
343.31	-87.81
343.693	-73.57
344.077	-59.56
344.46	-53.01
344.843	-45.32
345.226	-37.19
345.61	-21.14
345.993	-14.36
346.376	6.2
346.759	18.63
347.142	31.96
347.525	40.1
347.908	41.91
348.291	77.16
348.674	80.32
349.057	95.69
349.44	137.5
349.823	159.42
350.206	155.8
350.588	179.08
350.971	209.81
351.354	224.95
351.737	244.39
352.119	257.95
352.502	246.65
352.884	254.78
353.267	297.94
353.65	296.14
354.032	299.3
354.414	323.71
354.797	311.28
355.179	308.11
355.562	303.82
355.944	326.19
356.326	316.02
356.709	328.9
357.091	335.68
357.473	329.36
357.855	328.23
358.238	327.1
358.62	334.33
359.002	342.91
359.384	359.86
359.766	317.15
360.148	331.84
360.53	340.88
360.912	332.97
361.294	315.8
361.676	338.17
362.057	346.76
362.439	343.59
362.821	335.23
363.203	327.32
363.584	330.94
363.966	298.62
364.348	317.15
364.729	317.83
365.111	318.28
365.493	324.38
365.874	325.51
366.256	315.12
366.637	318.96
367.019	304.95
367.4	329.58
367.781	325.97
368.163	301.79
368.544	307.89
368.925	327.55
369.306	338.4
369.688	325.51
370.069	316.25
370.45	319.64
370.831	320.09
371.212	337.27
371.593	304.95
371.974	332.97
372.355	330.26
372.736	326.87
373.117	318.06
373.498	326.42
373.879	313.08
374.26	302.69
374.641	318.51
375.021	321.67
375.402	323.71
375.783	328
376.163	333.2
376.544	341.56
376.925	335.68
377.305	338.17
377.686	316.7
378.066	317.6
378.447	318.96
378.827	333.2
379.208	329.36
379.588	329.58
379.968	341.78
380.349	348.56
380.729	339.98
381.109	357.6
381.489	364.16
381.87	344.5
382.25	325.51
382.63	356.93
383.01	356.7
383.39	351.95
383.77	358.06
384.15	342.91
384.53	348.11
384.91	358.51
385.29	373.2
385.67	363.71
386.049	359.64
386.429	354.67
386.809	365.74
387.189	370.26
387.568	371.84
387.948	378.85
388.328	359.19
388.707	354.44
389.087	363.25
389.466	350.15
389.846	385.63
390.225	381.78
390.605	372.29
390.984	365.06
391.363	374.1
391.743	390.6
392.122	378.39
392.501	383.82
392.881	386.53
393.26	397.6
393.639	385.85
394.018	378.85
394.397	382.46
394.776	401.67
395.155	396.47
395.534	406.42
395.913	407.55
396.292	402.57
396.671	411.39
397.05	391.05
397.429	415.46
397.808	398.51
398.186	420.2
398.565	409.35
398.944	419.75
399.323	417.26
399.701	424.72
400.08	430.82
400.458	428.11
400.837	441.67
401.215	463.14
401.594	422.23
401.972	451.16
402.351	464.49
402.729	452.06
403.107	445.96
403.486	470.82
403.864	478.5
404.242	484.38
404.62	447.54
404.999	461.78
405.377	457.94
405.755	485.96
406.133	478.28
406.511	509.92
406.889	513.98
407.267	503.81
407.645	497.71
408.023	503.81
408.401	527.09
408.779	516.47
409.156	532.51
409.534	522.12
409.912	526.86
410.29	569.35
410.667	548.11
411.045	554.89
411.422	575.9
411.8	583.81
412.178	570.93
412.555	590.59
412.933	584.49
413.31	603.25
413.687	614.77
414.065	626.3
414.442	618.84
414.819	649.8
415.197	663.36
415.574	650.03
415.951	673.3
416.328	682.57
416.705	677.14
417.082	694.32
417.46	686.63
417.837	704.94
418.214	696.35
418.591	700.19
418.967	712.4
419.344	746.07
419.721	747.65
420.098	737.03
420.475	772.06
420.852	753.53
421.228	794.65
421.605	796.46
421.982	803.24
422.358	822.68
422.735	817.25
423.111	824.94
423.488	868.1
423.864	860.87
424.241	869.91
424.617	855.67
424.994	872.17
425.37	893.18
425.746	907.87
426.123	930.7
426.499	920.3
426.875	931.37
427.251	957.81
427.627	965.72
428.003	962.56
428.379	976.34
428.756	991.26
429.132	997.36
429.507	1011.15
429.883	1015.89
430.259	1023.57
430.635	1065.61
431.011	1090.92
431.387	1077.36
431.763	1091.14
432.138	1103.8
432.514	1125.04
432.89	1116.45
433.265	1150.58
433.641	1165.72
434.016	1174.31
434.392	1181.99
434.767	1203.01
435.143	1244.59
435.518	1262.66
435.894	1260.18
436.269	1245.49
436.644	1257.24
437.02	1271.03
437.395	1335.88
437.77	1325.49
438.145	1346.05
438.52	1358.48
438.895	1367.75
439.271	1356.22
439.646	1410.46
440.021	1420.17
440.395	1427.41
440.77	1413.85
441.145	1437.12
441.52	1436.9
441.895	1438.93
442.27	1459.72
442.645	1443.22
443.019	1473.96
443.394	1508.31
443.769	1478.48
444.143	1511.92
444.518	1537.46
444.892	1480.96
445.267	1532.94
445.641	1508.99
446.016	1558.25
446.39	1559.61
446.764	1573.16
447.139	1582.88
447.513	1605.48
447.887	1576.33
448.262	1575.88
448.636	1581.53
449.01	1616.33
449.384	1610
449.758	1621.53
450.132	1642.09
450.506	1656.78
450.88	1668.98
451.254	1647.97
451.628	1676.44
452.002	1696.1
452.376	1727.74
452.75	1722.54
453.123	1743.78
453.497	1760.5
453.871	1746.27
454.244	1777
454.618	1762.09
454.992	1816.32
455.365	1799.83
455.739	1862.2
456.112	1847.51
456.486	1851.35
456.859	1865.59
457.232	1873.5
457.606	1912.82
457.979	1887.96
458.352	1953.27
458.725	1967.05
459.099	1961.4
459.472	2026.94
459.845	1976.54
460.218	2014.28
460.591	2004.57
460.964	2031.46
461.337	2091.34
461.71	2135.64
462.083	2111.68
462.456	2110.33
462.829	2166.82
463.201	2153.49
463.574	2156.88
463.947	2183.54
464.32	2228.51
464.692	2261.96
465.065	2242.3
465.438	2273.94
465.81	2301.28
466.183	2306.03
466.555	2381.05
466.928	2371.34
467.3	2358.45
467.672	2389.41
468.045	2463.99
468.417	2454.5
468.789	2463.76
469.161	2503.08
469.534	2508.06
469.906	2550.31
470.278	2547.38
470.65	2589.18
471.022	2607.71
471.394	2700.14
471.766	2668.73
472.138	2692.23
472.51	2760.93
472.882	2782.85
473.253	2827.82
473.625	2844.77
473.997	2876.18
474.369	2905.11
474.74	2893.81
475.112	2936.74
475.484	3004.09
475.855	3030.08
476.227	3022.62
476.598	3134.48
476.97	3120.02
477.341	3185.1
477.713	3212.22
478.084	3259.22
478.455	3270.3
478.827	3315.27
479.198	3423.51
479.569	3370.18
479.94	3493.57
480.311	3496.73
480.682	3589.61
481.053	3624.86
481.424	3630.96
481.795	3713.45
482.166	3706.67
482.537	3757.97
482.908	3784.86
483.279	3833.9
483.65	3892.2
484.021	3932.2
484.391	3943.72
484.762	4028.02
485.133	4007.45
485.503	4073.66
485.874	4174.68
486.244	4171.06
486.615	4201.12
486.985	4287.67
487.356	4352.53
487.726	4362.7
488.097	4406.31
488.467	4421.45
488.837	4525.63
489.207	4499.42
489.578	4620.32
489.948	4641.56
490.318	4660.99
490.688	4700.31
491.058	4760.88
491.428	4777.83
491.798	4788.9
492.168	4900.08
492.538	4947.99
492.908	4931.04
493.278	4999.74
493.648	4967.2
494.017	5089.23
494.387	5114.77
494.757	5158.61
495.126	5168.55
495.496	5186.4
495.866	5227.98
496.235	5274.54
496.605	5306.63
496.974	5296.68
497.344	5401.31
497.713	5392.73
498.082	5417.36
498.452	5459.39
498.821	5531.48
499.19	5484.02
499.559	5583.68
499.928	5557.69
500.298	5594.3
500.667	5626.17
501.036	5610.8
501.405	5641.08
501.774	5671.81
502.143	5719.5
502.512	5707.07
502.88	5751.81
503.249	5720.63
503.618	5848.08
503.987	5810.12
504.356	5834.07
504.724	5826.61
505.093	5904.8
505.462	5901.41
505.83	5945.71
506.199	5947.29
506.567	5988.19
506.936	6026.83
507.304	6060.5
507.672	6095.53
508.041	6130.79
508.409	6150.67
508.777	6202.2
509.145	6166.26
509.514	6192.03
509.882	6184.57
510.25	6209.65
510.618	6288.07
510.986	6288.52
511.354	6307.73
511.722	6345.02
512.09	6353.15
512.458	6372.59
512.826	6433.83
513.193	6468.63
513.561	6470.66
513.929	6460.95
514.297	6532.13
514.664	6588.63
515.032	6544.11
515.4	6563.54
515.767	6602.41
516.135	6667.27
516.502	6603.32
516.869	6680.83
517.237	6670.66
517.604	6691.45
517.972	6712.92
518.339	6780.71
518.706	6759.7
519.073	6833.59
519.44	6821.84
519.808	6917.66
520.175	6880.6
520.542	6944.55
520.909	7047.6
521.276	6930.09
521.643	7037.43
522.009	7044.21
522.376	7086.01
522.743	7048.73
523.11	7172.11
523.477	7239.23
523.843	7149.29
524.21	7246.01
524.577	7353.8
524.943	7331.43
525.31	7335.5
525.676	7484.42
526.043	7431.99
526.409	7487.81
526.776	7517.87
527.142	7473.57
527.508	7583.4
527.874	7598.09
528.241	7647.13
528.607	7658.2
528.973	7750.4
529.339	7750.4
529.705	7802.38
530.071	7823.17
530.437	7851.87
530.803	7975.71
531.169	7891.64
531.535	7957.63
531.901	7950.62
532.267	8039.66
532.632	8053.67
532.998	8090.51
533.364	8103.16
533.73	8134.8
534.095	8093.9
534.461	8189.04
534.826	8208.92
535.192	8251.86
535.557	8266.55
535.923	8282.37
536.288	8304.74
536.653	8403.95
537.019	8263.61
537.384	8368.24
537.749	8335.92
538.114	8451.63
538.479	8424.28
538.845	8522.81
539.21	8461.35
539.575	8575.01
539.94	8504.28
540.305	8549.93
540.67	8572.08
541.034	8568.46
541.399	8622.7
541.764	8728
542.129	8728.46
542.494	8720.55
542.858	8755.35
543.223	8760.55
543.587	8820.21
543.952	8776.82
544.316	8848.45
544.681	8897.27
545.045	8864.95
545.41	8867.66
545.774	8917.83
546.138	8926.64
546.503	8960.54
546.867	8960.32
547.231	9036.25
547.595	9091.39
547.959	9109.69
548.324	9089.35
548.688	9133.42
549.052	9164.38
549.416	9213.64
549.779	9178.39
550.143	9197.82
550.507	9266.75
550.871	9308.33
551.235	9242.57
551.599	9266.3
551.962	9292.96
552.326	9335.45
552.689	9389.68
553.053	9383.58
553.417	9397.82
553.78	9420.42
554.143	9412.28
554.507	9545.61
554.87	9513.75
555.234	9525.27
555.597	9521.2
555.96	9598.49
556.323	9605.72
556.686	9564.37
557.05	9638.49
557.413	9657.02
557.776	9667.19
558.139	9770.01
558.502	9727.75
558.865	9781.99
559.228	9845.04
559.59	9812.95
559.953	9850.46
560.316	9950.57
560.679	9945.37
561.041	9897.69
561.404	10065.6
561.767	10075.99
562.129	9992.15
562.492	10174.97
562.854	10132.26
563.217	10126.16
563.579	10226.04
563.941	10228.98
564.304	10230.56
564.666	10278.25
565.028	10351.47
565.39	10308.53
565.753	10474.4
566.115	10397.79
566.477	10445.02
566.839	10496.77
567.201	10542.87
567.563	10526.38
567.925	10560.73
568.287	10633.49
568.648	10679.37
569.01	10787.16
569.372	10750.55
569.734	10786.93
570.095	10829.42
570.457	10918.91
570.819	10972.47
571.18	10940.38
571.542	11046.81
571.903	11016.53
572.265	11068.06
572.626	11001.39
572.987	11151.22
573.349	11172.23
573.71	11265.57
574.071	11290.65
574.432	11294.94
574.794	11414.94
575.155	11453.13
575.516	11439.57
575.877	11503.98
576.238	11578.1
576.599	11649.96
576.96	11642.05
577.32	11702.62
577.681	11772.67
578.042	11822.16
578.403	11986.68
578.763	11941.93
579.124	12083.4
579.485	12117.97
579.845	12239.33
580.206	12234.35
580.566	12384.86
580.927	12459.66
581.287	12482.03
581.648	12497.4
582.008	12727
582.368	12774
582.728	12862.13
583.089	12928.57
583.449	13043.15
583.809	13170.15
584.169	13265.29
584.529	13269.81
584.889	13480.87
585.249	13467.32
585.609	13506.18
585.969	13838.83
586.329	13896.23
586.688	13978.49
587.048	14052.38
587.408	14170.57
587.768	14377.35
588.127	14473.62
588.487	14596.78
588.846	14818.24
589.206	14860.05
589.565	15047.61
589.925	15175.75
590.284	15298.45
590.643	15453.48
591.003	15603.53
591.362	15824.77
591.721	15781.38
592.08	16077.19
592.44	16208.49
592.799	16314.7
593.158	16460.01
593.517	16551.3
593.876	16785.87
594.235	16865.87
594.593	16979.31
594.952	17180.66
595.311	17273.54
595.67	17443.71
596.029	17687.09
596.387	17852.51
596.746	18036.69
597.104	18030.13
597.463	18169.56
597.822	18395.32
598.18	18398.49
598.538	18444.13
598.897	18782.88
599.255	18765.71
599.613	19173.83
599.972	19127.51
600.33	19306.03
600.688	19368.4
601.046	19566.36
601.404	19658.79
601.762	19753.7
602.12	19885.9
602.478	20045
602.836	20165.9
603.194	20102.85
603.552	20336.74
603.91	20361.6
604.268	20562.04
604.625	20595.94
604.983	20733.34
605.341	20648.14
605.698	20835.71
606.056	21109.83
606.413	21087.45
606.771	21236.6
607.128	21287.67
607.485	21333.78
607.843	21435.02
608.2	21680.43
608.557	21758.17
608.914	21804.5
609.272	21965.62
609.629	22050.59
609.986	22076.58
610.343	22202.9
610.7	22239.29
611.057	22301.66
611.414	22458.72
611.771	22526.74
612.127	22581.43
612.484	22596.11
612.841	22698.26
613.198	22735.32
613.554	22864.13
613.911	23001.75
614.267	23020.74
614.624	23038.82
614.98	23216.66
615.337	23294.18
615.693	23316.77
616.05	23348.41
616.406	23435.64
616.762	23460.72
617.118	23459.14
617.475	23558.12
617.831	23594.73
618.187	23702.3
618.543	23697.1
618.899	24003.31
619.255	23885.35
619.611	23843.77
619.967	23974.38
620.323	24077.88
620.678	24028.85
621.034	24122.85
621.39	24048.05
621.746	24010.32
622.101	24283.3
622.457	24180.25
622.812	24202.85
623.168	24379.8
623.523	24387.48
623.879	24446.01
624.234	24307.03
624.589	24362.4
624.945	24475.16
625.3	24490.53
625.655	24451.89
626.01	24528.04
626.365	24580.7
626.72	24591.77
627.075	24424.99
627.43	24518.78
627.785	24621.6
628.14	24660.47
628.495	24659.79
628.85	24554.03
629.205	24586.35
629.559	24732.78
629.914	24579.57
630.269	24586.12
630.623	24580.92
630.978	24634.93
631.332	24724.42
631.687	24698.43
632.041	24669.05
632.396	24683.29
632.75	24526.01
633.104	24654.14
633.459	24577.76
633.813	24506.8
634.167	24502.05
634.521	24537.31
634.875	24679.45
635.229	24587.25
635.583	24543.86
635.937	24470.19
636.291	24556.97
636.645	24496.63
636.999	24481.94
637.352	24531.88
637.706	24361.04
638.06	24502.05
638.413	24436.74
638.767	24366.01
639.121	24427.25
639.474	24402.4
639.828	24280.14
640.181	24334.6
640.534	24426.58
640.888	24156.07
641.241	24239.46
641.594	24218.67
641.947	24271.1
642.301	24309.52
642.654	24206.69
643.007	24290.53
643.36	24254.83
643.713	24238.33
644.066	24273.13
644.419	24215.51
644.771	24006.02
645.124	23912.24
645.477	23761.51
645.83	23719.7
646.182	23506.37
646.535	23468.18
646.888	23586.82
647.24	23404.46
647.593	23548.18
647.945	23490.33
648.298	23401.52
648.65	23406.94
649.002	23231.58
649.355	23563.55
649.707	23503.21
650.059	23445.13
650.411	23869.3
650.763	23831.11
651.115	24090.54
651.467	24002.41
651.819	23976.42
652.171	23987.94
652.523	23919.24
652.875	23958.79
653.227	23875.63
653.578	24145.45
653.93	23896.65
654.282	23940.49
654.633	23922.86
654.985	23947.04
655.337	23880.83
655.688	24005.34
656.039	24060.03
656.391	23916.31
656.742	23991.78
657.094	23954.27
657.445	24070.65
657.796	24080.37
658.147	23974.16
658.498	24008.51
658.849	23970.32
659.2	23969.64
659.551	23881.05
659.902	24101.39
660.253	23987.04
660.604	24059.81
660.955	23989.52
661.306	24037.43
661.656	23985
662.007	24035.17
662.358	24168.95
662.708	24014.83
663.059	23948.62
663.409	23952.01
663.76	24161.5
664.11	24093.48
664.461	23966.7
664.811	23974.38
665.161	24215.51
665.511	24037.66
665.862	24033.14
666.212	24098.45
666.562	24175.28
666.912	24054.83
667.262	24023.2
667.612	24012.8
667.962	24074.95
668.312	24005.34
668.662	24192.46
669.011	24048.28
669.361	23973.25
669.711	24015.96
670.06	23935.06
670.41	23903.88
670.76	23926.7
671.109	23978.9
671.459	23895.06
671.808	23914.95
672.157	23908.62
672.507	23817.55
672.856	23686.93
673.205	23813.48
673.554	23900.26
673.904	23814.39
674.253	24012.12
674.602	23771
674.951	23496.43
675.3	23460.27
675.649	23823.65
675.998	23823.65
676.346	23803.77
676.695	23801.28
677.044	23666.14
677.393	23641.96
677.741	23667.27
678.09	23688.97
678.438	23499.59
678.787	23551.34
679.135	23633.83
679.484	23390.9
679.832	23541.63
680.181	23390.67
680.529	23439.93
680.877	23360.39
681.225	23452.82
681.573	23475.41
681.922	23330.56
682.27	23193.84
682.618	23225.7
682.966	23197.46
683.314	23124.91
683.661	23197.91
684.009	23002.66
684.357	22972.15
684.705	22986.61
685.053	22922.66
685.4	22985.26
685.748	22887.18
686.095	22837.69
686.443	22799.05
686.79	22780.74
687.138	22667.98
687.485	22753.85
687.832	22488.32
688.18	22665.27
688.527	22471.6
688.874	22474.99
689.221	22338.49
689.568	22232.96
689.915	22281.32
690.262	22305.5
690.609	22180.31
690.956	22104.83
691.303	22022.12
691.65	21982.57
691.997	21923.82
692.344	21872.52
692.69	21937.38
693.037	21840.2
693.383	21586.2
693.73	21645.86
694.077	21631.39
694.423	21491.06
694.769	21458.97
695.116	21251.74
695.462	21456.48
695.808	21271.63
696.155	21303.95
696.501	21081.58
696.847	21123.84
697.193	20962.94
697.539	21037.29
697.885	20854.01
698.231	20760.23
698.577	20691.98
698.923	20694.92
699.269	20542.84
699.614	20510.29
699.96	20401.6
700.306	20360.02
700.651	20284.99
700.997	20239.57
701.342	20242.5
701.688	20244.76
702.033	20174.48
702.379	20053.36
702.724	20027.82
703.069	20025.34
703.415	19719.81
703.76	19681.84
704.105	19711.22
704.45	19542.86
704.795	19513.26
705.14	19630.09
705.485	19485.91
705.83	19414.28
706.175	19486.82
706.52	19301.51
706.865	19261.74
707.209	19223.77
707.554	19201.63
707.899	19210.89
708.243	19071.24
708.588	19067.62
708.932	18918.7
709.277	18851.81
709.621	18858.13
709.966	18697.01
710.31	18864.46
710.654	18725.26
710.998	18583.79
711.342	18674.86
711.687	18558.03
712.031	18464.7
712.375	18476.68
712.719	18488.2
713.063	18552.15
713.407	18528.2
713.75	18351.03
714.094	18330.24
714.438	18230.58
714.782	18334.76
715.125	18149.45
715.469	18209.79
715.812	18102.22
716.156	18060.19
716.499	17999.17
716.843	18029
717.186	17879.4
717.53	17971.15
717.873	17980.42
718.216	17964.6
718.559	17837.82
718.902	17677.83
719.246	17769.35
719.589	17762.8
719.932	17667.43
720.275	17769.58
720.617	17767.77
720.96	17605.74
721.303	17680.99
721.646	17661.33
721.989	17622.23
722.331	17589.47
722.674	17624.72
723.016	17553.31
723.359	17557.15
723.701	17472.18
724.044	17368
724.386	17319.64
724.729	17368
725.071	17352.18
725.413	17327.1
725.755	17287.78
726.097	17284.39
726.439	17119.65
726.782	17220.66
727.124	17263.15
727.465	17200.32
727.807	17214.56
728.149	17100.44
728.491	17221.79
728.833	17191.74
729.175	17105.19
729.516	17024.74
729.858	17016.6
730.199	17152.42
730.541	17104.28
730.882	17065.86
731.224	17165.75
731.565	17039.88
731.906	17045.98
732.248	17112.42
732.589	17057.5
732.93	16937.51
733.271	16998.52
733.612	17053.89
733.953	16954.46
734.294	16929.82
734.635	16905.64
734.976	17075.36
735.317	16884.63
735.658	16878.07
735.999	16971.86
736.339	16928.92
736.68	16961.91
737.021	16924.17
737.361	16860.22
737.702	16983.61
738.042	16917.85
738.383	16933.21
738.723	16923.04
739.063	16905.42
739.404	16972.99
739.744	16877.62
740.084	16932.76
740.424	16926.89
740.764	16906.55
741.104	17005.98
741.444	17006.21
741.784	16835.14
742.124	17024.06
742.464	17070.38
742.804	17038.52
743.143	17032.19
743.483	17040.33
743.823	16959.43
744.162	17023.38
744.502	17050.05
744.841	17065.19
745.181	17154.22
745.52	17143.83
745.86	17149.03
746.199	17162.81
746.538	17202.81
746.877	17392.86
747.216	17374.11
747.556	17385.4
747.895	17475.12
748.234	17434.44
748.573	17613.42
748.911	17492.07
749.25	17636.47
749.589	17679.41
749.928	17766.64
750.267	17901.78
750.605	17828.56
750.944	18024.94
751.283	18024.26
751.621	18159.17
751.96	18132.05
752.298	18242.56
752.636	18343.57
752.975	18431.7
753.313	18426.73
753.651	18604.13
753.989	18678.03
754.327	18792.37
754.666	18781.98
755.004	18922.77
755.342	19076.43
755.679	19147.17
756.017	19090.22
756.355	19431.45
756.693	19407.72
757.031	19517.55
757.368	19627.15
757.706	19692.91
758.044	19837.09
758.381	19985.11
758.719	20003.41
759.056	20157.76
759.394	20222.62
759.731	20275.5
760.068	20438.21
760.405	20449.5
760.743	20616.96
761.08	20806.78
761.417	20779.89
761.754	20878.87
762.091	21017.85
762.428	21033.67
762.765	21119.54
763.102	21253.1
763.438	21293.55
763.775	21422.36
764.112	21379.88
764.449	21545.75
764.785	21575.35
765.122	21512.98
765.458	21738.06
765.795	21837.49
766.131	21879.07
766.467	21846.3
766.804	21813.31
767.14	21901.67
767.476	22015.79
767.812	22028.67
768.148	22016.24
768.485	22067.32
768.821	22074.32
769.157	22145.51
769.492	22143.02
769.828	22252.17
770.164	22089.01
770.5	22123.81
770.836	22232.06
771.171	22191.83
771.507	22148.67
771.842	22091.95
772.178	22165.84
772.513	22139.18
772.849	22168.1
773.184	22129.01
773.519	22135.34
773.855	22081.78
774.19	22082.23
774.525	22136.69
774.86	22104.6
775.195	22176.24
775.53	22093.08
775.865	21978.05
776.2	21885.85
776.535	21931.5
776.87	21901.44
777.205	21892.86
777.539	21851.5
777.874	21894.66
778.209	21772.18
778.543	21759.53
778.878	21618.29
779.212	21690.15
779.547	21680.88
779.881	21735.8
780.215	21505.07
780.55	21607.67
780.884	21454
781.218	21441.57
781.552	21436.82
781.886	21372.87
782.22	21239.31
782.554	21165.87
782.888	21087.45
783.222	21043.84
783.556	20982.6
783.889	20980.79
784.223	20912.09
784.557	20847.91
784.89	20772.21
785.224	20762.26
785.557	20786.67
785.891	20676.17
786.224	20596.62
786.558	20576.28
786.891	20418.32
787.224	20459.45
787.557	20359.79
787.891	20325.21
788.224	20313.24
788.557	20273.92
788.89	20162.96
789.223	20146.91
789.556	20019.01
789.888	20035.73
790.221	19889.29
790.554	19882.97
790.887	19804.78
791.219	19778.79
791.552	19714.38
791.884	19650.43
792.217	19549.87
792.549	19569.75
792.882	19494.73
793.214	19397.1
793.546	19336.09
793.879	19280.95
794.211	19229.88
794.543	19238.01
794.875	19225.13
795.207	19209.31
795.539	19049.99
795.871	19067.85
796.203	18936.32
796.535	18758.7
796.867	18738.82
797.198	18651.81
797.53	18725.26
797.862	18714.86
798.193	18688.2
798.525	18460.18
798.856	18493.85
799.188	18462.44
799.519	18424.02
799.85	18232.61
800.182	18251.82
800.513	18357.36
800.844	18120.53
801.175	18198.26
801.506	18219.51
801.837	18119.62
802.168	18008.21
802.499	18001.43
802.83	17914.43
803.161	17796.92
803.491	17927.09
803.822	17859.06
804.153	17800.53
804.483	17594.66
804.814	17564.16
805.145	17472.86
805.475	17439.64
805.805	17465.85
806.136	17521.67
806.466	17423.82
806.796	17395.57
807.126	17250.94
807.457	17227.89
807.787	17146.77
808.117	17087.33
808.447	17080.33
808.777	17089.14
809.107	16958.52
809.436	16975.02
809.766	17022.93
810.096	16947.22
810.426	16762.6
810.755	16825.42
811.085	16717.4
811.414	16646.21
811.744	16658.19
812.073	16560.57
812.403	16627.23
812.732	16506.11
813.061	16503.62
813.39	16394.02
813.719	16311.31
814.049	16530.29
814.378	16384.53
814.707	16260.91
815.036	16299.33
815.365	16203.29
815.693	16071.54
816.022	16116.29
816.351	16007.59
816.68	15994.93
817.008	16024.54
817.337	15857.99
817.665	15818.21
817.994	15858.44
818.322	15863.18
818.651	15814.82
818.979	15711.1
819.307	15923.52
819.636	15768.5
819.964	15741.15
820.292	15752.23
820.62	15673.59
820.948	15650.99
821.276	15671.33
821.604	15650.08
821.932	15644.89
822.259	15655.51
822.587	15566.92
822.915	15578.67
823.243	15639.69
823.57	15560.14
823.898	15613.7
824.225	15514.95
824.553	15625.22
824.88	15535.28
825.207	15525.11
825.535	15510.65
825.862	15572.57
826.189	15532.57
826.516	15559.92
826.843	15598.33
827.17	15564.44
827.497	15505
827.824	15592.23
828.151	15575.73
828.478	15552.91
828.805	15690.76
829.131	15591.1
829.458	15491.44
829.785	15473.36
830.111	15522.4
830.438	15594.04
830.764	15519.01
831.09	15549.52
831.417	15468.84
831.743	15516.3
832.069	15464.55
832.395	15375.51
832.722	15408.51
833.048	15474.04
833.374	15424.78
833.7	15414.16
834.026	15382.52
834.351	15328.96
834.677	15394.04
835.003	15413.48
835.329	15319.24
835.654	15261.39
835.98	15252.81
836.306	15331
836.631	15206.25
836.956	15314.27
837.282	15293.48
837.607	15155.18
837.932	15202.19
838.258	15212.58
838.583	15121.28
838.908	15087.84
839.233	15096.43
839.558	15108.4
839.883	15046.03
840.208	14893.94
840.533	14920.16
840.858	14972.36
841.182	14941.63
841.507	14933.27
841.832	14907.28
842.156	14783.89
842.481	14808.3
842.805	14721.52
843.13	14644.69
843.454	14704.57
843.778	14635.87
844.103	14541.86
844.427	14538.7
844.751	14537.34
845.075	14585.25
845.399	14509.77
845.723	14427.97
846.047	14420.28
846.371	14303.23
846.695	14251.48
847.019	14158.37
847.343	14164.47
847.666	14028.66
847.99	13931.26
848.313	14034.08
848.637	13980.52
848.96	13877.93
849.284	13788.89
849.607	13777.82
849.931	13683.58
850.254	13533.53
850.577	13538.73
850.9	13467.77
851.223	13493.08
851.546	13395.23
851.869	13256.93
852.192	13299.41
852.515	13219.41
852.838	13218.96
853.161	13181
853.483	13091.51
853.806	13061.45
854.129	13023.49
854.451	12991.17
854.774	12931.96
855.096	12900.1
855.419	12896.03
855.741	12842.7
856.063	12768.8
856.385	12757.73
856.708	12674.57
857.03	12692.87
857.352	12729.48
857.674	12571.29
857.996	12559.77
858.318	12506.44
858.64	12499.66
858.961	12390.73
859.283	12404.74
859.605	12287.91
859.926	12435.7
860.248	12305.09
860.57	12243.17
860.891	12239.33
861.212	12251.98
861.534	12143.28
861.855	12169.27
862.176	12135.15
862.498	12144.86
862.819	12138.54
863.14	12073.91
863.461	12101.7
863.782	12064.19
864.103	12047.92
864.424	11970.41
864.745	12029.61
865.065	11907.13
865.386	11867.36
865.707	11890.86
866.027	11952.1
866.348	11844.53
866.668	11868.71
866.989	11824.87
867.309	11758.43
867.63	11741.94
867.95	11734.93
868.27	11693.8
868.59	11623.07
868.91	11603.64
869.23	11578.55
869.55	11526.58
869.87	11646.12
870.19	11615.61
870.51	11594.82
870.83	11601.6
871.15	11572.22
871.469	11554.6
871.789	11555.5
872.109	11437.09
872.428	11412
872.748	11492.45
873.067	11428.95
873.386	11466.92
873.706	11462.62
874.025	11318.67
874.344	11365.68
874.663	11317.77
874.982	11265.11
875.301	11333.81
875.62	11210.88
875.939	11200.26
876.258	11256.53
876.577	11206.13
876.896	11220.82
877.214	11250.65
877.533	11148.05
877.852	11160.94
878.17	11183.76
878.489	11138.56
878.807	11102.86
879.125	11131.78
879.444	10996.42
879.762	11009.07
880.08	11047.27
880.398	10920.04
880.716	11008.85
881.034	10969.53
881.352	10948.29
881.67	10898.8
881.988	10938.57
882.306	10865.8
882.624	10837.78
882.941	10779.02
883.259	10822.64
883.577	10759.59
883.894	10685.92
884.212	10752.13
884.529	10661.97
884.846	10654.28
885.164	10617.45
885.481	10569.54
885.798	10574.74
886.115	10574.96
886.432	10483.44
886.75	10491.12
887.067	10509.43
887.383	10493.16
887.7	10408.86
888.017	10398.7
888.334	10384.91
888.651	10379.49
888.967	10322.54
889.284	10256.1
889.6	10237.34
889.917	10180.4
890.233	10224.01
890.55	10220.62
890.866	10171.36
891.182	10151.47
891.498	10043.45
891.815	10080.51
892.131	10058.37
892.447	9943.34
892.763	9953.51
893.079	9970.23
893.395	9897.24
893.71	9856.79
894.026	9881.65
894.342	9834.42
894.657	9737.47
894.973	9755.55
895.289	9709.22
895.604	9715.78
895.92	9585.38
896.235	9543.12
896.55	9614.76
896.865	9637.36
897.181	9601.43
897.496	9530.47
897.811	9477.59
898.126	9463.8
898.441	9382.68
898.756	9342.45
899.071	9295.45
899.386	9319.18
899.7	9236.24
900.015	9209.12
900.33	9174.77
900.644	9138.16
900.959	9167.99
901.273	9082.12
901.588	9084.83
901.902	9046.41
902.216	9038.28
902.531	8948.34
902.845	8923.25
903.159	8874.89
903.473	8887.55
903.787	8835.35
904.101	8743.15
904.415	8763.71
904.729	8760.55
905.042	8677.84
905.356	8653.66
905.67	8650.94
905.984	8580.21
906.297	8561.23
906.611	8501.8
906.924	8529.37
907.237	8434.68
907.551	8393.78
907.864	8352.65
908.177	8330.05
908.491	8385.64
908.804	8327.34
909.117	8251.86
909.43	8252.76
909.743	8101.13
910.056	8145.87
910.368	8196.95
910.681	8128.7
910.994	8101.13
911.307	7982.94
911.619	7980.91
911.932	7970.06
912.244	7988.59
912.557	7984.07
912.869	7894.35
913.181	7823.62
913.494	7850.51
913.806	7711.53
914.118	7772.78
914.43	7733
914.742	7733.91
915.054	7644.64
915.366	7573.46
915.678	7530.07
915.99	7591.09
916.302	7557.64
916.613	7495.95
916.925	7483.74
917.236	7449.39
917.548	7380.02
917.859	7345.22
918.171	7297.53
918.482	7324.88
918.794	7276.52
919.105	7321.04
919.416	7274.71
919.727	7196.29
920.038	7206.01
920.349	7133.92
920.66	7104.54
920.971	7105.9
921.282	7059.57
921.593	6989.29
921.903	6955.4
922.214	6904.1
922.525	6905.45
922.835	6865.46
923.146	6824.55
923.456	6813.93
923.767	6790.43
924.077	6770.99
924.387	6748.4
924.697	6668.4
925.008	6688.51
925.318	6613.03
925.628	6641.96
925.938	6568.74
926.248	6592.24
926.558	6531
926.867	6490.78
927.177	6506.59
927.487	6411.91
927.796	6423.43
928.106	6428.86
928.416	6391.12
928.725	6326.94
929.034	6281.74
929.344	6273.83
929.653	6291.68
929.962	6232.48
930.271	6221.86
930.581	6203.1
930.89	6164.91
931.199	6167.85
931.508	6102.76
931.817	6121.07
932.125	6053.27
932.434	6067.74
932.743	5962.65
933.051	5987.96
933.36	5972.37
933.669	5886.05
933.977	5892.83
934.286	5858.02
934.594	5885.82
934.902	5848.31
935.21	5823.9
935.519	5778.48
935.827	5742.32
936.135	5759.95
936.443	5690.12
936.751	5709.1
937.059	5651.25
937.367	5630.01
937.674	5622.55
937.982	5559.73
938.29	5536
938.597	5531.93
938.905	5512.72
939.213	5527.19
939.52	5441.76
939.827	5452.16
940.135	5439.73
940.442	5392.5
940.749	5396.12
941.056	5383.69
941.363	5327.87
941.67	5345.04
941.977	5261.43
942.284	5243.8
942.591	5247.87
942.898	5160.64
943.205	5166.97
943.511	5138.95
943.818	5163.35
944.125	5127.87
944.431	5082.9
944.738	5114.54
945.044	5047.42
945.35	5043.58
945.657	4983.24
945.963	4927.43
946.269	4928.33
946.575	4976.92
946.881	4934.66
947.187	4923.59
947.493	4887.88
947.799	4874.32
948.105	4844.49
948.41	4788
948.716	4803.14
949.022	4767.66
949.327	4773.08
949.633	4693.99
949.938	4740.54
950.244	4694.89
950.549	4643.82
950.854	4694.66
951.16	4676.81
951.465	4646.53
951.77	4589.58
952.075	4531.73
952.38	4550.94
952.685	4611.96
952.99	4510.49
953.294	4499.64
953.599	4464.39
953.904	4451.51
954.209	4433.65
954.513	4414.45
954.818	4437.72
955.122	4394.33
955.426	4347.1
955.731	4351.4
956.035	4327.44
956.339	4308.69
956.643	4300.78
956.948	4280.44
957.252	4222.59
957.556	4218.75
957.86	4206.77
958.163	4203.15
958.467	4181.23
958.771	4128.58
959.075	4157.28
959.378	4111.63
959.682	4124.51
959.985	4067.34
960.289	4067.79
960.592	4032.54
960.896	4025.08
961.199	4009.48
961.502	4012.65
961.805	3967.68
962.108	3976.72
962.411	3921.58
962.714	3922.93
963.017	3885.87
963.32	3901.24
963.623	3888.58
963.926	3874.8
964.228	3815.59
964.531	3839.32
964.833	3848.36
965.136	3794.12
965.438	3765.65
965.741	3751.86
966.043	3732.2
966.345	3710.51
966.648	3691.08
966.95	3702.83
967.252	3640.23
967.554	3659.21
967.856	3682.49
968.158	3620.12
968.46	3658.53
968.761	3585.54
969.063	3567.91
969.365	3587.12
969.666	3580.34
969.968	3555.03
970.269	3536.96
970.571	3465.77
970.872	3496.96
971.174	3446.56
971.475	3463.96
971.776	3461.7
972.077	3450.18
972.378	3377.64
972.679	3370.18
972.98	3357.98
973.281	3375.83
973.582	3309.62
973.883	3311.2
974.183	3344.64
974.484	3348.49
974.785	3256.06
975.085	3279.56
975.386	3279.11
975.686	3266
975.986	3205.21
976.287	3210.41
976.587	3204.53
976.887	3188.04
977.187	3184.65
977.487	3153.46
977.787	3140.58
978.087	3129.28
978.387	3122.05
978.687	3108.49
978.987	3110.75
979.286	3058.55
979.586	3075.95
979.885	3045.67
980.185	3028.95
980.484	3001.15
980.784	3008.16
981.083	2991.43
981.382	2991.43
981.682	2967.03
981.981	2956.86
982.28	2965.67
982.579	2941.49
982.878	2886.12
983.177	2898.78
983.475	2866.24
983.774	2855.39
984.073	2849.52
984.372	2868.95
984.67	2817.65
984.969	2832.11
985.267	2852.68
985.566	2849.06
985.864	2780.14
986.162	2755.96
986.461	2755.96
986.759	2764.77
987.057	2724.1
987.355	2731.55
987.653	2714.83
987.951	2722.74
988.249	2693.14
988.547	2692.46
988.844	2686.36
989.142	2651.78
989.44	2640.03
989.737	2595.51
990.035	2641.39
990.332	2586.92
990.63	2590.09
990.927	2576.53
991.224	2536.53
991.521	2575.85
991.819	2529.07
992.116	2534.27
992.413	2510.54
992.71	2505.12
993.006	2459.47
993.303	2509.19
993.6	2500.37
993.897	2445.46
994.193	2455.18
994.49	2428.28
994.787	2405.23
995.083	2407.72
995.379	2385.12
995.676	2342.64
995.972	2366.82
996.268	2378.57
996.565	2350.55
996.861	2357.55
997.157	2351.9
997.453	2327.27
997.749	2289.3
998.044	2292.92
998.34	2274.62
998.636	2256.08
998.932	2252.24
999.227	2253.37
999.523	2259.02
999.818	2217.67
1000.114	2221.96
1000.409	2203.2
1000.704	2185.8
1001	2181.28
1001.295	2163.88
1001.59	2162.98
1001.885	2139.25
1002.18	2109.87
1002.475	2131.12
1002.77	2125.69
1003.065	2102.64
1003.359	2071.46
1003.654	2064.45
1003.949	2058.8
1004.243	2030.1
1004.538	2011.35
1004.832	2021.29
1005.127	2014.96
1005.421	2020.61
1005.715	1989.43
1006.009	1984.23
1006.304	1961.18
1006.598	1937.22
1006.892	1950.78
1007.186	1922.31
1007.48	1926.6
1007.773	1888.64
1008.067	1899.26
1008.361	1898.13
1008.655	1909.65
1008.948	1870.33
1009.242	1827.62
1009.535	1861.52
1009.829	1846.15
1010.122	1817.9
1010.415	1810.9
1010.708	1805.7
1011.001	1779.49
1011.295	1782.88
1011.588	1792.59
1011.881	1776.78
1012.173	1735.65
1012.466	1755.31
1012.759	1753.73
1013.052	1747.85
1013.344	1711.92
1013.637	1702.88
1013.93	1680.51
1014.222	1714.4
1014.514	1673.95
1014.807	1647.29
1015.099	1622.2
1015.391	1656.78
1015.683	1640.06
1015.976	1645.25
1016.268	1625.82
1016.56	1605.03
1016.851	1605.71
1017.143	1591.92
1017.435	1570
1017.727	1564.13
1018.018	1547.4
1018.31	1539.72
1018.602	1520.06
1018.893	1514.18
1019.185	1519.38
1019.476	1513.51
1019.767	1488.2
1020.058	1493.39
1020.35	1452.49
1020.641	1490.23
1020.932	1444.35
1021.223	1453.17
1021.514	1427.18
1021.804	1418.59
1022.095	1426.28
1022.386	1395.99
1022.677	1410.68
1022.967	1387.63
1023.258	1403
1023.548	1375.66
1023.839	1362.32
1024.129	1347.18
1024.419	1339.72
1024.709	1325.94
1025	1343.79
1025.29	1299.05
1025.58	1288.43
1025.87	1301.76
1026.16	1286.39
1026.449	1257.01
1026.739	1264.92
1027.029	1292.72
1027.319	1303.12
1027.608	1281.42
1027.898	1261.99
1028.187	1244.59
1028.477	1232.16
1028.766	1199.39
1029.055	1208.65
1029.344	1201.42
1029.634	1210.46
1029.923	1186.06
1030.212	1173.18
1030.501	1143.57
1030.79	1167.07
1031.078	1140.41
1031.367	1136.34
1031.656	1144.25
1031.945	1123.01
1032.233	1124.82
1032.522	1117.58
1032.81	1107.87
1033.099	1079.39
1033.387	1094.53
1033.675	1109
1033.963	1093.86
1034.251	1106.28
1034.54	1086.62
1034.828	1066.96
1035.116	1062.67
1035.403	1057.25
1035.691	1046.63
1035.979	1053.63
1036.267	1028.55
1036.554	1018.38
1036.842	1017.7
1037.129	999.17
1037.417	1008.43
1037.704	990.13
1037.992	975.44
1038.279	976.34
1038.566	978.15
1038.853	978.15
1039.14	978.15
