Data from hue_36_FLMS001491_00065.txt Node
Date: Tue Feb 07 17:30:08 GMT 2017
User: dcchb
Spectrometer: FLMS00149
Trigger mode: 0
Integration Time (sec): 2.000000E-2
Scans to average: 10
Electric dark correction enabled: true
Nonlinearity correction enabled: false
Boxcar width: 0
XAxis mode: Wavelengths
Number of Pixels in Spectrum: 2048
>>>>>Begin Spectral Data<<<<<
341.393	-19.79
341.776	-19.79
342.16	-19.79
342.543	-48.26
342.927	-80.35
343.31	-76.96
343.693	-64.08
344.077	-70.18
344.46	-63.63
344.843	-63.18
345.226	-38.54
345.61	-25.66
345.993	-21.14
346.376	6.2
346.759	20.66
347.142	27.67
347.525	36.26
347.908	55.92
348.291	66.76
348.674	97.05
349.057	112.86
349.44	121.45
349.823	131.17
350.206	156.48
350.588	165.29
350.971	199.64
351.354	239.64
351.737	237.83
352.119	249.36
352.502	266.31
352.884	285.29
353.267	290.49
353.65	293.2
354.032	321.22
354.414	307.21
354.797	308.11
355.179	332.75
355.562	332.07
355.944	304.72
356.326	337.49
356.709	327.77
357.091	345.85
357.473	354.67
357.855	351.05
358.238	341.78
358.62	360.32
359.002	338.4
359.384	343.14
359.766	322.12
360.148	327.32
360.53	343.82
360.912	322.12
361.294	350.6
361.676	340.2
362.057	335.91
362.439	337.72
362.821	346.53
363.203	338.85
363.584	327.32
363.966	332.07
364.348	321.45
364.729	340.88
365.111	322.8
365.493	313.08
365.874	313.54
366.256	294.78
366.637	320.32
367.019	329.58
367.4	311.28
367.781	313.99
368.163	312.41
368.544	311.5
368.925	297.94
369.306	341.56
369.688	298.85
370.069	304.05
370.45	304.27
370.831	325.97
371.212	312.18
371.593	301.56
371.974	312.63
372.355	323.48
372.736	337.27
373.117	317.6
373.498	311.96
373.879	341.33
374.26	323.25
374.641	310.37
375.021	334.33
375.402	325.06
375.783	332.29
376.163	319.86
376.544	335.68
376.925	336.81
377.305	343.59
377.686	330.03
378.066	324.38
378.447	347.66
378.827	335.46
379.208	331.16
379.588	324.84
379.968	339.3
380.349	318.28
380.729	320.77
381.109	321.22
381.489	337.49
381.87	342.24
382.25	335.23
382.63	334.55
383.01	337.27
383.39	347.66
383.77	337.04
384.15	339.52
384.53	337.94
384.91	348.56
385.29	338.85
385.67	337.27
386.049	328.23
386.429	356.7
386.809	367.77
387.189	346.98
387.568	362.35
387.948	362.58
388.328	349.47
388.707	369.81
389.087	361.9
389.466	367.77
389.846	339.07
390.225	353.99
390.605	344.27
390.984	357.6
391.363	340.2
391.743	375.23
392.122	377.04
392.501	375.91
392.881	377.49
393.26	394.66
393.639	367.55
394.018	388.79
394.397	373.65
394.776	382.91
395.155	371.61
395.534	377.04
395.913	366.64
396.292	383.37
396.671	384.72
397.05	375.68
397.429	393.76
397.808	389.24
398.186	390.37
398.565	381.56
398.944	385.4
399.323	392.63
399.701	380.65
400.08	399.18
400.458	379.07
400.837	412.07
401.215	405.74
401.594	390.82
401.972	408.68
402.351	412.52
402.729	397.38
403.107	376.81
403.486	386.3
403.864	398.73
404.242	396.7
404.62	425.17
404.999	420.65
405.377	408.9
405.755	391.73
406.133	418.84
406.511	407.77
406.889	421.1
407.267	433.53
407.645	433.76
408.023	428.79
408.401	419.97
408.779	412.52
409.156	421.33
409.534	433.99
409.912	423.82
410.29	440.31
410.667	440.09
411.045	425.4
411.422	437.15
411.8	427.43
412.178	441.9
412.555	445.51
412.933	442.8
413.31	450.26
413.687	442.8
414.065	440.54
414.442	449.13
414.819	480.54
415.197	465.85
415.574	491.39
415.951	494.55
416.328	447.77
416.705	488
417.082	471.27
417.46	485.06
417.837	489.35
418.214	474.44
418.591	474.89
418.967	499.07
419.344	493.65
419.721	505.17
420.098	504.27
420.475	500.42
420.852	523.47
421.228	513.76
421.605	506.3
421.982	522.8
422.358	506.53
422.735	511.27
423.111	520.76
423.488	533.19
423.864	522.57
424.241	534.1
424.617	543.14
424.994	537.94
425.37	523.02
425.746	522.57
426.123	537.71
426.499	544.49
426.875	539.75
427.251	556.92
427.627	565.96
428.003	536.36
428.379	564.15
428.756	579.74
429.132	575.45
429.507	589.24
429.883	572.97
430.259	591.27
430.635	590.14
431.011	571.16
431.387	584.49
431.763	627.65
432.138	588.33
432.514	607.09
432.89	609.12
433.265	627.2
433.641	636.92
434.016	611.16
434.392	612.51
434.767	619.74
435.143	635.79
435.518	645.96
435.894	662.23
436.269	677.6
436.644	646.64
437.02	669.46
437.395	678.95
437.77	692.06
438.145	664.26
438.52	694.09
438.895	684.15
439.271	680.98
439.646	703.13
440.021	688.22
440.395	720.76
440.77	716.69
441.145	723.92
441.52	739.29
441.895	713.07
442.27	725.5
442.645	714.66
443.019	727.54
443.394	748.1
443.769	731.61
444.143	756.01
444.518	749.01
444.892	754.43
445.267	763.69
445.641	757.82
446.016	747.65
446.39	753.53
446.764	783.81
447.139	763.02
447.513	774.99
447.887	783.13
448.262	762.34
448.636	799.4
449.01	795.78
449.384	782.68
449.758	816.57
450.132	785.39
450.506	811.83
450.88	821.32
451.254	810.25
451.628	837.36
452.002	820.87
452.376	825.16
452.75	839.17
453.123	854.77
453.497	876.69
453.871	857.93
454.244	885.73
454.618	872.39
454.992	875.1
455.365	887.08
455.739	910.36
456.112	906.29
456.486	921.2
456.859	938.15
457.232	958.04
457.606	953.97
457.979	963.46
458.352	986.97
458.725	960.07
459.099	979.06
459.472	1005.04
459.845	1016.57
460.218	1012.28
460.591	991.94
460.964	1020.86
461.337	1039.85
461.71	1044.82
462.083	1074.87
462.456	1064.93
462.829	1069.45
463.201	1071.03
463.574	1102.67
463.947	1112.16
464.32	1132.5
464.692	1138.6
465.065	1145.83
465.438	1143.57
465.81	1137.24
466.183	1170.46
466.555	1233.74
466.928	1222.67
467.3	1233.06
467.672	1250.01
468.045	1259.5
468.417	1293.17
468.789	1281.2
469.161	1306.73
469.534	1318.26
469.906	1365.71
470.278	1379.5
470.65	1395.77
471.022	1401.64
471.394	1460.4
471.766	1469.44
472.138	1498.82
472.51	1543.79
472.882	1568.42
473.253	1571.13
473.625	1627.17
473.997	1646.38
474.369	1661.07
474.74	1685.03
475.112	1758.02
475.484	1755.98
475.855	1811.35
476.227	1820.16
476.598	1884.57
476.97	1925.7
477.341	1967.96
477.713	2023.55
478.084	2048.63
478.455	2092.93
478.827	2118.91
479.198	2237.33
479.569	2241.17
479.94	2325.24
480.311	2362.75
480.682	2441.62
481.053	2512.8
481.424	2544.44
481.795	2634.15
482.166	2665.79
482.537	2735.62
482.908	2813.36
483.279	2867.59
483.65	2977.87
484.021	3028.72
484.391	3110.07
484.762	3175.16
485.133	3262.16
485.503	3298.32
485.874	3377.19
486.244	3468.26
486.615	3609.04
486.985	3655.82
487.356	3733.33
487.726	3796.38
488.097	3928.58
488.467	3999.54
488.837	4069.14
489.207	4177.84
489.578	4300.32
489.948	4358.63
490.318	4476.37
490.688	4521.79
491.058	4669.81
491.428	4736.25
491.798	4844.49
492.168	4970.82
492.538	4987.54
492.908	5162.9
493.278	5226.63
493.648	5306.17
494.017	5416.23
494.387	5460.07
494.757	5572.38
495.126	5707.52
495.496	5738.71
495.866	5831.81
496.235	5900.51
496.605	6072.48
496.974	6061.41
497.344	6188.41
497.713	6259.37
498.082	6334.85
498.452	6429.31
498.821	6519.93
499.19	6578.46
499.559	6729.64
499.928	6689.41
500.298	6825.46
500.667	6914.95
501.036	6935.51
501.405	7029.74
501.774	7035.62
502.143	7158.33
502.512	7194.94
502.88	7326.69
503.249	7382.96
503.618	7475.61
503.987	7445.55
504.356	7544.53
504.724	7706.56
505.093	7679.22
505.462	7771.42
505.83	7884.64
506.199	7952.66
506.567	8042.15
506.936	8047.8
507.304	8165.53
507.672	8175.25
508.041	8318.75
508.409	8362.82
508.777	8447.56
509.145	8516.94
509.514	8556.48
509.882	8634.67
510.25	8659.98
510.618	8756.93
510.986	8742.24
511.354	8834.44
511.722	8952.86
512.09	9004.83
512.458	9022.23
512.826	9148.11
513.193	9197.82
513.561	9238.5
513.929	9258.39
514.297	9333.41
514.664	9404.37
515.032	9497.02
515.4	9511.49
515.767	9557.81
516.135	9624.25
516.502	9583.58
516.869	9735.89
517.237	9836.68
517.604	9819.05
517.972	9904.25
518.339	9947.41
518.706	9959.16
519.073	10009.1
519.44	10084.58
519.808	10225.82
520.175	10206.16
520.542	10321.18
520.909	10373.39
521.276	10345.82
521.643	10457.23
522.009	10515.3
522.376	10589.88
522.743	10665.36
523.11	10762.08
523.477	10805.92
523.843	10834.62
524.21	10974.27
524.577	11020.83
524.943	11140.37
525.31	11177.43
525.676	11284.1
526.043	11307.82
526.409	11404.77
526.776	11510.08
527.142	11465.33
527.508	11552.79
527.874	11674.59
528.241	11723.86
528.607	11752.11
528.973	11880.46
529.339	11875.72
529.705	11938.54
530.071	12132.89
530.437	12103.96
530.803	12144.41
531.169	12277.97
531.535	12262.15
531.901	12350.06
532.267	12340.11
532.632	12452.65
532.998	12571.97
533.364	12523.16
533.73	12595.93
534.095	12688.13
534.461	12696.49
534.826	12826.2
535.192	12861.23
535.557	12981.45
535.923	12941.91
536.288	12961.34
536.653	13089.25
537.019	13058.29
537.384	13115.91
537.749	13243.59
538.114	13280.65
538.479	13359.07
538.845	13361.1
539.21	13334.66
539.575	13362.23
539.94	13463.02
540.305	13598.39
540.67	13503.02
541.034	13610.81
541.399	13645.16
541.764	13673.64
542.129	13876.12
542.494	13793.63
542.858	13881.32
543.223	13881.09
543.587	14020.07
543.952	14026.17
544.316	14105.94
544.681	14110.91
545.045	14163.34
545.41	14291.93
545.774	14229.78
546.138	14308.2
546.503	14384.13
546.867	14398.14
547.231	14547.96
547.595	14515.2
547.959	14651.47
548.324	14572.37
548.688	14643.33
549.052	14783.21
549.416	14811.91
549.779	14832.7
550.143	14818.47
550.507	15097.1
550.871	15050.55
551.235	15053.04
551.599	15178.23
551.962	15128.29
552.326	15198.34
552.689	15292.58
553.053	15274.27
553.417	15233.14
553.78	15400.15
554.143	15419.81
554.507	15619.35
554.87	15583.87
555.234	15665.68
555.597	15652.34
555.96	15730.31
556.323	15815.05
556.686	15714.49
557.05	15840.59
557.413	15895.5
557.776	15974.14
558.139	16079
558.502	16060.47
558.865	16167.58
559.228	16327.13
559.59	16276.28
559.953	16324.87
560.316	16526.22
560.679	16523.73
561.041	16602.37
561.404	16652.54
561.767	16785.87
562.129	16686.89
562.492	16923.04
562.854	16863.84
563.217	16805.31
563.579	16954.46
563.941	17010.05
564.304	17144.05
564.666	17092.53
565.028	17255.01
565.39	17277.61
565.753	17314.45
566.115	17406.65
566.477	17523.03
566.839	17598.05
567.201	17637.83
567.563	17661.1
567.925	17777.03
568.287	17787.2
568.648	17811.61
569.01	18000.76
569.372	18111.26
569.734	18050.47
570.095	18233.07
570.457	18308.32
570.819	18318.71
571.18	18351.93
571.542	18420.86
571.903	18465.6
572.265	18546.05
572.626	18667.18
572.987	18689.55
573.349	18749.44
573.71	18931.8
574.071	18923.9
574.432	19102.2
574.794	19345.58
575.155	19313.49
575.516	19224.9
575.877	19406.82
576.238	19622.63
576.599	19670.77
576.96	19757.09
577.32	19818.11
577.681	19947.6
578.042	20090.64
578.403	20185.1
578.763	20362.95
579.124	20499.22
579.485	20627.13
579.845	20876.16
580.206	20814.01
580.566	20982.37
580.927	21034.12
581.287	21404.51
581.648	21390.72
582.008	21636.59
582.368	21749.58
582.728	21976.92
583.089	22027.32
583.449	22233.19
583.809	22432.05
584.169	22646.96
584.529	22740.29
584.889	23125.59
585.249	23139.38
585.609	23285.81
585.969	23535.98
586.329	23697.33
586.688	23977.55
587.048	24227.03
587.408	24361.72
587.768	24516.06
588.127	24663.86
588.487	24939.33
588.846	25293.45
589.206	25360.34
589.565	25631.97
589.925	25948.57
590.284	26085.29
590.643	26303.81
591.003	26641.21
591.362	26787.87
591.721	26918.94
592.08	27220.85
592.44	27471.69
592.799	27828.97
593.158	27855.64
593.517	28132.92
593.876	28414.04
594.235	28473.02
594.593	28858.1
594.952	28990.3
595.311	29139.9
595.67	29425.31
596.029	29816.72
596.387	29915.02
596.746	30226.87
597.104	30303.71
597.463	30512.74
597.822	30824.6
598.18	30926.52
598.538	31211.93
598.897	31497.58
599.255	31438.82
599.613	32046.94
599.972	32001.97
600.33	32331.23
600.688	32324.67
601.046	32575.97
601.404	32964.88
601.762	33104.77
602.12	33259.11
602.478	33532.32
602.836	33647.35
603.194	33637.63
603.552	33867.46
603.91	34029.03
604.268	34252.98
604.625	34284.85
604.983	34640.54
605.341	34647.32
605.698	34833.53
606.056	35114.43
606.413	35142.45
606.771	35525.72
607.128	35537.24
607.485	35597.81
607.843	35607.07
608.2	36026.27
608.557	36240.5
608.914	36262.42
609.272	36563.43
609.629	36776.76
609.986	36929.3
610.343	36847.49
610.7	37287.71
611.057	37225.79
611.414	37297.65
611.771	37475.72
612.127	37657.87
612.484	37733.8
612.841	37942.83
613.198	37959.33
613.554	38032.32
613.911	38269.38
614.267	38305.08
614.624	38442.93
614.98	38522.02
615.337	38727.67
615.693	38772.19
616.05	38788.46
616.406	39017.6
616.762	38970.6
617.118	39098.28
617.475	39139.86
617.831	39327.88
618.187	39532.17
618.543	39641.99
618.899	39807.64
619.255	39796.34
619.611	39845.6
619.967	40095.09
620.323	40022.78
620.678	40102.55
621.034	40104.58
621.39	40179.38
621.746	40265.71
622.101	40652.36
622.457	40289.66
622.812	40491.46
623.168	40611.23
623.523	40747.05
623.879	40781.4
624.234	40682.42
624.589	40808.29
624.945	40891.23
625.3	40971.22
625.655	40939.14
626.01	41048.29
626.365	40961.06
626.72	41016.87
627.075	41059.81
627.43	41231.11
627.785	40966.48
628.14	41122.41
628.495	41198.11
628.85	41287.37
629.205	41030.88
629.559	41424.32
629.914	41258
630.269	41181.61
630.623	41193.14
630.978	41179.81
631.332	41304.1
631.687	41334.61
632.041	41338.67
632.396	41346.36
632.75	41112.46
633.104	41352.46
633.459	41145.68
633.813	41206.7
634.167	41120.37
634.521	41383.19
634.875	41257.32
635.229	41268.17
635.583	41144.78
635.937	41192.24
636.291	41053.71
636.645	41179.36
636.999	41122.18
637.352	41165.57
637.706	40995.86
638.06	41142.52
638.413	41038.12
638.767	41041.05
639.121	40884.22
639.474	40853.94
639.828	40959.47
640.181	41120.37
640.534	41062.07
640.888	40860.49
641.241	40635.19
641.594	40845.58
641.947	40954.95
642.301	40802.19
642.654	40832.25
643.007	41012.58
643.36	40800.38
643.713	40913.6
644.066	40903.43
644.419	40686.03
644.771	40257.8
645.124	40008.99
645.477	40044.47
645.83	39891.71
646.182	39688.32
646.535	39654.42
646.888	39674.99
647.24	39340.53
647.593	39728.32
647.945	39627.53
648.298	39429.12
648.65	39300.08
649.002	39257.37
649.355	39614.65
649.707	39495.78
650.059	39706.63
650.411	39909.56
650.763	40017.58
651.115	40510.45
651.467	40331.92
651.819	40329.43
652.171	40274.52
652.523	40305.71
652.875	40044.02
653.227	39869.33
653.578	40215.76
653.93	40190.68
654.282	40110.46
654.633	39951.14
654.985	40046.96
655.337	40071.81
655.688	40053.51
656.039	40076.56
656.391	39863.46
656.742	39902.1
657.094	39863.91
657.445	39991.14
657.796	39998.37
658.147	39881.08
658.498	39894.19
658.849	39934.42
659.2	39913.63
659.551	39738.94
659.902	39871.82
660.253	39774.65
660.604	39902.78
660.955	39624.82
661.306	39833.4
661.656	39736
662.007	39776.68
662.358	39744.59
662.708	39776
663.059	39739.62
663.409	39472.51
663.76	39853.06
664.11	39743.91
664.461	39836.11
664.811	39794.76
665.161	39771.26
665.511	39560.87
665.862	39625.05
666.212	39620.3
666.562	39786.62
666.912	39766.96
667.262	39627.53
667.612	39602.22
667.962	39578.27
668.312	39619.4
668.662	39763.12
669.011	39707.3
669.361	39664.37
669.711	39696.91
670.06	39543.92
670.41	39458.04
670.76	39475.9
671.109	39604.26
671.459	39547.99
671.808	39373.98
672.157	39553.86
672.507	39369.69
672.856	39399.29
673.205	39426.18
673.554	39466.18
673.904	39391.83
674.253	39522.68
674.602	39416.24
674.951	38895.57
675.3	38748.23
675.649	39252.85
675.998	39285.17
676.346	39355.67
676.695	39422.34
677.044	39080.2
677.393	39213.98
677.741	39353.64
678.09	39219.41
678.438	39078.62
678.787	39223.02
679.135	39077.72
679.484	38856.03
679.832	39226.64
680.181	38791.85
680.529	38896.48
680.877	38825.29
681.225	38786.88
681.573	38967.66
681.922	38819.42
682.27	38588.91
682.618	38725.63
682.966	38480.44
683.314	38480.44
683.661	38489.71
684.009	38305.31
684.357	38298.53
684.705	38233.67
685.053	38244.52
685.4	38271.86
685.748	38140.34
686.095	38069.15
686.443	37789.16
686.79	37873.91
687.138	37952.1
687.485	37913.9
687.832	37890.18
688.18	37735.6
688.527	37523.41
688.874	37651.31
689.221	37515.04
689.568	37459.23
689.915	37330.87
690.262	37257.42
690.609	37267.59
690.956	37104.43
691.303	37095.85
691.65	36973.59
691.997	36973.59
692.344	36791.9
692.69	36739.47
693.037	36809.3
693.383	36369.76
693.73	36516.88
694.077	36395.3
694.423	36318.24
694.769	36254.74
695.116	36125.02
695.462	36066.27
695.808	36012.03
696.155	36090.68
696.501	35617.69
696.847	35830.34
697.193	35558.26
697.539	35644.13
697.885	35484.14
698.231	35383.35
698.577	35352.16
698.923	35348.32
699.269	35062.23
699.614	34914.89
699.96	34956.02
700.306	34972.06
700.651	34852.52
700.997	34776.81
701.342	34658.62
701.688	34466.76
702.033	34541.79
702.379	34473.54
702.724	34354.22
703.069	34323.26
703.415	34018.87
703.76	34079.88
704.105	34025.42
704.45	33973.22
704.795	33784.75
705.14	33695.94
705.485	33705.65
705.83	33556.96
706.175	33596.28
706.52	33536.39
706.865	33453.23
707.209	33337.08
707.554	33182.28
707.899	33255.27
708.243	33018.21
708.588	32999.46
708.932	32799.69
709.277	32773.47
709.621	32831.55
709.966	32642.4
710.31	32744.77
710.654	32521.73
710.998	32422.98
711.342	32557.66
711.687	32346.59
712.031	32309.98
712.375	32256.2
712.719	32276.99
713.063	32099.82
713.407	32179.82
713.75	32030.44
714.094	31989.31
714.438	31856.89
714.782	31957.68
715.125	31798.58
715.469	31840.39
715.812	31419.84
716.156	31455.54
716.499	31487.86
716.843	31512.04
717.186	31239.96
717.53	31459.84
717.873	31370.12
718.216	31245.83
718.559	31079.96
718.902	30882.22
719.246	31035.67
719.589	30869.12
719.932	30860.53
720.275	30797.26
720.617	30847.42
720.96	30678.84
721.303	30793.87
721.646	30747.76
721.989	30511.84
722.331	30580.31
722.674	30509.81
723.016	30585.96
723.359	30562.23
723.701	30481.78
724.044	30281.11
724.386	30126.54
724.729	30267.55
725.071	30220.55
725.413	30144.62
725.755	30206.99
726.097	30026.88
726.439	29894.45
726.782	29944.85
727.124	29937.84
727.465	29830.5
727.807	29847
728.149	29769.49
728.491	29763.61
728.833	29747.57
729.175	29718.64
729.516	29554.12
729.858	29534.69
730.199	29479.55
730.541	29408.82
730.882	29429.16
731.224	29497.4
731.565	29293.79
731.906	29351.42
732.248	29291.31
732.589	29093.35
732.93	29017.41
733.271	29091.09
733.612	29211.99
733.953	29118.43
734.294	28916.63
734.635	28882.28
734.976	28929.51
735.317	28840.92
735.658	28847.7
735.999	28768.83
736.339	28751.21
736.68	28786.23
737.021	28728.84
737.361	28617.88
737.702	28692
738.042	28595.05
738.383	28485.68
738.723	28600.93
739.063	28425.11
739.404	28514.83
739.744	28405.45
740.084	28280.49
740.424	28411.33
740.764	28263.54
741.104	28304.44
741.444	28151.22
741.784	28112.58
742.124	28203.65
742.464	28046.59
742.804	28015.63
743.143	28047.27
743.483	27995.75
743.823	27869.2
744.162	27846.82
744.502	27719.6
744.841	27734.74
745.181	27806.37
745.52	27737.45
745.86	27680.28
746.199	27677.11
746.538	27571.13
746.877	27614.74
747.216	27537
747.556	27455.42
747.895	27477.12
748.234	27159.84
748.573	27334.3
748.911	27284.81
749.25	27343.33
749.589	27090.23
749.928	27216.56
750.267	27230.12
750.605	27306.73
750.944	27063.34
751.283	26963.23
751.621	27039.39
751.96	26927.53
752.298	26856.34
752.636	26807.98
752.975	26675.1
753.313	26598.72
753.651	26716.91
753.989	26544.71
754.327	26644.6
754.666	26435.34
755.004	26547.42
755.342	26593.3
755.679	26542.68
756.017	26245.06
756.355	26417.94
756.693	26274.44
757.031	26253.19
757.368	26128.9
757.706	25884.62
758.044	25927.78
758.381	25974.33
758.719	25773.43
759.056	25788.35
759.394	25741.79
759.731	25524.4
760.068	25544.96
760.405	25612.53
760.743	25403.5
761.08	25491.41
761.417	25341.81
761.754	25236.5
762.091	25196.95
762.428	25139.55
762.765	24917.86
763.102	25091.42
763.438	24869.28
763.775	24765.78
764.112	24694.59
764.449	24739.56
764.785	24596.06
765.122	24560.36
765.458	24463.86
765.795	24412.34
766.131	24390.64
766.467	24253.92
766.804	24209.63
767.14	24181.38
767.476	24061.84
767.812	23963.54
768.148	23987.72
768.485	23790.66
768.821	23736.2
769.157	23635.64
769.492	23629.31
769.828	23551.57
770.164	23327.17
770.5	23317.9
770.836	23423.89
771.171	23127.17
771.507	23121.07
771.842	22961.08
772.178	23006.95
772.513	22852.15
772.849	22826.39
773.184	22686.96
773.519	22757.92
773.855	22697.36
774.19	22508.43
774.525	22427.31
774.86	22339.62
775.195	22313.64
775.53	22166.3
775.865	22175.11
776.2	21915.68
776.535	21805.85
776.87	21902.12
777.205	21815.57
777.539	21622.58
777.874	21657.16
778.209	21491.96
778.543	21447.22
778.878	21351.85
779.212	21344.85
779.547	21242.7
779.881	21183.04
780.215	20994.12
780.55	20955.25
780.884	20931.07
781.218	20913.45
781.552	20849.49
781.886	20740.8
782.22	20673.45
782.554	20623.51
782.888	20447.47
783.222	20288.15
783.556	20167.7
783.889	20193.92
784.223	20133.13
784.557	20020.36
784.89	20047.48
785.224	20007.03
785.557	19875.06
785.891	19919.35
786.224	19759.13
786.558	19792.12
786.891	19545.8
787.224	19519.59
787.557	19356.65
787.891	19300.61
788.224	19353.26
788.557	19329.76
788.89	19384.67
789.223	19298.35
789.556	19016.77
789.888	19064.68
790.221	19000.96
790.554	18811.36
790.887	18840.73
791.219	18756.44
791.552	18747.85
791.884	18663.34
792.217	18572.94
792.549	18489.78
792.882	18304.7
793.214	18227.87
793.546	18264.03
793.879	18239.17
794.211	18169.11
794.543	18241.65
794.875	18068.32
795.207	18119.85
795.539	17949.23
795.871	18113.07
796.203	17764.83
796.535	17756.92
796.867	17737.94
797.198	17714.21
797.53	17568.68
797.862	17593.76
798.193	17581.56
798.525	17396.03
798.856	17368.68
799.188	17283.26
799.519	17149.7
799.85	17095.02
800.182	17144.96
800.513	17145.41
800.844	16962.36
801.175	17046.2
801.506	16994.68
801.837	16913.55
802.168	16845.98
802.499	16852.31
802.83	16721.69
803.161	16691.41
803.491	16722.37
803.822	16618.87
804.153	16516.05
804.483	16423.4
804.814	16343.17
805.145	16427.92
805.475	16331.87
805.805	16252.55
806.136	16232.21
806.466	16242.61
806.796	16242.61
807.126	16095.04
807.457	16031.09
807.787	16014.59
808.117	16010.98
808.447	15857.76
808.777	15943.63
809.107	15840.36
809.436	15693.92
809.766	15799.23
810.096	15709.97
810.426	15657.31
810.755	15638.56
811.085	15620.03
811.414	15570.99
811.744	15402.18
812.073	15440.37
812.403	15471.56
812.732	15382.75
813.061	15420.71
813.39	15247.38
813.719	15227.72
814.049	15388.39
814.378	15241.73
814.707	15184.56
815.036	15122.41
815.365	14968.07
815.693	14881.97
816.022	14912.48
816.351	14914.06
816.68	14785.25
817.008	14933.94
817.337	14690.79
817.665	14684.68
817.994	14707.96
818.322	14692.82
818.651	14658.92
818.979	14507.06
819.307	14560.62
819.636	14601.07
819.964	14445.59
820.292	14510.45
820.62	14546.38
820.948	14426.16
821.276	14557.91
821.604	14475.65
821.932	14430.45
822.259	14440.85
822.587	14389.78
822.915	14320.17
823.243	14434.52
823.57	14374.41
823.898	14373.73
824.225	14313.39
824.553	14338.03
824.88	14307.97
825.207	14359.27
825.535	14296.22
825.862	14328.54
826.189	14293.96
826.516	14345.03
826.843	14383.22
827.17	14337.12
827.497	14491.24
827.824	14430.23
828.151	14461.87
828.478	14359.72
828.805	14437.69
829.131	14427.29
829.458	14328.99
829.785	14304.58
830.111	14265.71
830.438	14359.27
830.764	14276.11
831.09	14319.72
831.417	14285.15
831.743	14274.53
832.069	14350
832.395	14205.38
832.722	14208.09
833.048	14272.27
833.374	14238.82
833.7	14182.1
834.026	14137.35
834.351	14131.7
834.677	14185.94
835.003	14195.21
835.329	14197.01
835.654	14178.48
835.98	14052.16
836.306	14084.25
836.631	14016.68
836.956	14051.71
837.282	14068.43
837.607	13997.7
837.932	14007.64
838.258	13904.82
838.583	13954.31
838.908	13810.36
839.233	13918.15
839.558	13853.75
839.883	13799.28
840.208	13729.68
840.533	13809.68
840.858	13702.79
841.182	13704.15
841.507	13776.23
841.832	13643.58
842.156	13611.27
842.481	13607.88
842.805	13657.14
843.13	13554.54
843.454	13505.73
843.778	13501.89
844.103	13432.29
844.427	13462.57
844.751	13479.74
845.075	13422.57
845.399	13304.83
845.723	13203.59
846.047	13174.44
846.371	13166.31
846.695	13181.22
847.019	13115.69
847.343	12917.95
847.666	12911.85
847.99	12836.82
848.313	12892.87
848.637	12830.72
848.96	12747.11
849.284	12753.21
849.607	12628.47
849.931	12600.67
850.254	12459.88
850.577	12473.22
850.9	12419.21
851.223	12418.3
851.546	12287.23
851.869	12185.77
852.192	12343.73
852.515	12184.41
852.838	12103.96
853.161	12186.22
853.483	12071.65
853.806	12042.27
854.129	12017.64
854.451	11884.53
854.774	11892.89
855.096	11886.11
855.419	11809.51
855.741	11780.13
856.063	11683.41
856.385	11652
856.708	11656.29
857.03	11611.77
857.352	11665.1
857.674	11521.6
857.996	11509.4
858.318	11458.1
858.64	11386.47
858.961	11452
859.283	11299.46
859.605	11263.08
859.926	11291.78
860.248	11293.81
860.57	11264.89
860.891	11286.58
861.212	11158
861.534	11155.74
861.855	11150.54
862.176	11256.98
862.498	11169.75
862.819	11071.9
863.14	11050.2
863.461	11033.93
863.782	11012.92
864.103	11035.74
864.424	10974.5
864.745	11014.72
865.065	10899.25
865.386	10913.48
865.707	10971.34
866.027	10879.59
866.348	10907.61
866.668	10871.9
866.989	10773.6
867.309	10790.78
867.63	10787.84
867.95	10870.32
868.27	10732.47
868.59	10744.68
868.91	10678.46
869.23	10784.22
869.55	10669.42
869.87	10748.52
870.19	10724.79
870.51	10618.58
870.83	10625.36
871.15	10547.84
871.469	10607.28
871.789	10572.7
872.109	10597.56
872.428	10475.98
872.748	10537.9
873.067	10518.69
873.386	10554.17
873.706	10463.33
874.025	10480.73
874.344	10347.4
874.663	10387.4
874.982	10446.15
875.301	10367.96
875.62	10390.79
875.939	10315.31
876.258	10341.97
876.577	10365.02
876.896	10276.21
877.214	10253.84
877.533	10281.86
877.852	10210.45
878.17	10247.97
878.489	10212.94
878.807	10194.63
879.125	10161.87
879.444	10176.1
879.762	10151.47
880.08	10041.42
880.398	9995.54
880.716	10082.77
881.034	10040.74
881.352	10052.72
881.67	9995.99
881.988	10022.89
882.306	10002.55
882.624	9882.32
882.941	9885.49
883.259	9899.95
883.577	9860.86
883.894	9849.78
884.212	9799.39
884.529	9795.77
884.846	9753.97
885.164	9717.13
885.481	9715.55
885.798	9713.97
886.115	9645.95
886.432	9657.25
886.75	9654.53
887.067	9654.08
887.383	9648.66
887.7	9611.37
888.017	9534.76
888.334	9516.23
888.651	9474.88
888.967	9488.66
889.284	9419.29
889.6	9454.31
889.917	9338.84
890.233	9313.53
890.55	9316.92
890.866	9367.76
891.182	9317.37
891.498	9271.04
891.815	9261.55
892.131	9185.17
892.447	9203.92
892.763	9186.75
893.079	9135.68
893.395	9179.74
893.71	9046.19
894.026	9003.48
894.342	9086.19
894.657	9032.18
894.973	8966.87
895.289	8974.1
895.604	8961.9
895.92	8863.82
896.235	8853.65
896.55	8780.88
896.865	8838.74
897.181	8735.01
897.496	8729.13
897.811	8695.24
898.126	8730.72
898.441	8617.27
898.756	8660.89
899.071	8617.73
899.386	8625.41
899.7	8466.77
900.015	8487.56
900.33	8487.11
900.644	8404.62
900.959	8411.63
901.273	8377.51
901.588	8400.1
901.902	8266.77
902.216	8251.41
902.531	8258.41
902.845	8205.31
903.159	8193.78
903.473	8142.26
903.787	8116.5
904.101	8069.04
904.415	8050.06
904.729	8107.91
905.042	7989.04
905.356	7985.88
905.67	7992.43
905.984	7988.82
906.297	7891.19
906.611	7885.54
906.924	7843.28
907.237	7851.87
907.551	7848.03
907.864	7727.58
908.177	7746.34
908.491	7731.2
908.804	7700.69
909.117	7632.67
909.43	7577.3
909.743	7580.24
910.056	7523.06
910.368	7510.64
910.681	7401.03
910.994	7474.48
911.307	7424.31
911.619	7368.27
911.932	7378.21
912.244	7306.35
912.557	7343.63
912.869	7188.61
913.181	7227.03
913.494	7213.92
913.806	7152.68
914.118	7206.92
914.43	7083.53
914.742	7111.55
915.054	7073.81
915.366	6990.65
915.678	7018.67
915.99	6983.42
916.302	6928.28
916.613	6876.75
916.925	6932.35
917.236	6898
917.548	6827.49
917.859	6881.27
918.171	6785.23
918.482	6741.16
918.794	6698.91
919.105	6718.34
919.416	6600.6
919.727	6615.97
920.038	6594.73
920.349	6585.46
920.66	6602.41
920.971	6530.55
921.282	6417.56
921.593	6458.91
921.903	6411.68
922.214	6342.08
922.525	6369.65
922.835	6352.25
923.146	6302.08
923.456	6295.75
923.767	6259.14
924.077	6320.16
924.387	6255.53
924.697	6211.69
925.008	6163.1
925.318	6165.13
925.628	6117.9
925.938	6153.84
926.248	6030
926.558	6041.97
926.867	6048.3
927.177	6005.82
927.487	6031.35
927.796	5925.14
928.106	5949.77
928.416	5928.53
928.725	5878.59
929.034	5836.1
929.344	5853.05
929.653	5756.33
929.962	5722.89
930.271	5738.71
930.581	5705.03
930.89	5688.31
931.199	5695.99
931.508	5611.93
931.817	5646.96
932.125	5638.59
932.434	5599.95
932.743	5526.28
933.051	5539.16
933.36	5493.97
933.669	5463.01
933.977	5459.39
934.286	5476.57
934.594	5455.77
934.902	5395.44
935.21	5359.51
935.519	5383.23
935.827	5385.27
936.135	5285.16
936.443	5248.32
936.751	5244.71
937.059	5181.21
937.367	5227.98
937.674	5212.62
937.982	5171.49
938.29	5139.62
938.597	5133.07
938.905	5056.01
939.213	5072.06
939.52	5039.29
939.827	5042.45
940.135	4979.85
940.442	4971.49
940.749	4961.78
941.056	4965.39
941.363	4908.67
941.67	4879.97
941.977	4894.66
942.284	4815.34
942.591	4878.16
942.898	4816.24
943.205	4842.01
943.511	4778.5
943.818	4776.7
944.125	4727.88
944.431	4725.62
944.738	4696.02
945.044	4677.94
945.35	4633.88
945.657	4619.64
945.963	4622.8
946.269	4567.66
946.575	4557.95
946.881	4582.8
947.187	4522.24
947.493	4507.55
947.799	4495.57
948.105	4464.84
948.41	4425.07
948.716	4428.01
949.022	4411.28
949.327	4426.42
949.633	4363.83
949.938	4342.81
950.244	4349.36
950.549	4335.35
950.854	4298.74
951.16	4300.78
951.465	4287.44
951.77	4200.21
952.075	4246.54
952.38	4238.86
952.685	4219.42
952.99	4155.02
953.294	4156.83
953.599	4145.07
953.904	4138.3
954.209	4124.28
954.513	4072.08
954.818	4144.85
955.122	4032.08
955.426	3995.47
955.731	4040.67
956.035	3975.81
956.339	4014.23
956.643	3963.84
956.948	3943.05
957.252	3913.44
957.556	3893.78
957.86	3905.53
958.163	3873.22
958.467	3834.8
958.771	3871.41
959.075	3815.59
959.378	3825.08
959.682	3842.26
959.985	3764.97
960.289	3760.45
960.592	3766.1
960.896	3743.05
961.199	3720.23
961.502	3707.57
961.805	3714.58
962.108	3628.48
962.411	3652.88
962.714	3663.28
963.017	3624.41
963.32	3585.32
963.623	3574.24
963.926	3543.73
964.228	3538.31
964.531	3537.86
964.833	3537.86
965.136	3488.82
965.438	3510.52
965.741	3469.84
966.043	3429.16
966.345	3445.43
966.648	3411.31
966.95	3449.73
967.252	3416.05
967.554	3423.29
967.856	3405.43
968.158	3340.12
968.46	3380.57
968.761	3362.04
969.063	3350.75
969.365	3343.74
969.666	3285.21
969.968	3248.83
970.269	3222.39
970.571	3234.82
970.872	3229.62
971.174	3173.8
971.475	3232.78
971.776	3197.75
972.077	3174.7
972.378	3181.48
972.679	3143.75
972.98	3163.63
973.281	3124.08
973.582	3160.24
973.883	3078.21
974.183	3098.32
974.484	3078.21
974.785	3066.01
975.085	3022.84
975.386	3021.26
975.686	3023.3
975.986	3044.54
976.287	3013.13
976.587	2997.08
976.887	2940.13
977.187	2955.05
977.487	2953.24
977.787	2928.38
978.087	2917.54
978.387	2933.36
978.687	2907.82
978.987	2868.72
979.286	2866.92
979.586	2850.19
979.885	2822.85
980.185	2793.25
980.484	2821.04
980.784	2824.21
981.083	2797.31
981.382	2790.76
981.682	2795.73
981.981	2761.38
982.28	2731.33
982.579	2697.66
982.878	2726.13
983.177	2725.22
983.475	2737.43
983.774	2681.16
984.073	2662.85
984.372	2664.21
984.67	2624.89
984.969	2638.9
985.267	2626.92
985.566	2583.76
985.864	2602.29
986.162	2553.25
986.461	2597.54
986.759	2552.12
987.057	2540.15
987.355	2550.31
987.653	2544.44
987.951	2503.76
988.249	2496.53
988.547	2529.3
988.844	2487.72
989.142	2447.27
989.44	2448.17
989.737	2431.67
990.035	2439.13
990.332	2401.39
990.63	2386.25
990.927	2398
991.224	2414.5
991.521	2398.91
991.819	2370.66
992.116	2369.08
992.413	2353.71
992.71	2328.4
993.006	2336.31
993.303	2321.62
993.6	2292.24
993.897	2295.18
994.193	2252.02
994.49	2295.63
994.787	2244.79
995.083	2256.31
995.379	2256.31
995.676	2249.76
995.972	2210.66
996.268	2178.8
996.565	2181.96
996.861	2178.57
997.157	2188.52
997.453	2155.3
997.749	2157.56
998.044	2139.03
998.34	2116.65
998.636	2122.53
998.932	2126.82
999.227	2104
999.523	2085.92
999.818	2081.63
1000.114	2054.06
1000.409	2054.51
1000.704	2054.51
1001	2040.27
1001.295	2029.88
1001.59	2026.26
1001.885	2013.38
1002.18	2001.18
1002.475	1998.46
1002.77	1988.75
1003.065	1972.25
1003.359	1970.89
1003.654	1943.1
1003.949	1948.75
1004.243	1897.45
1004.538	1906.49
1004.832	1893.38
1005.127	1879.37
1005.421	1885.47
1005.715	1873.27
1006.009	1861.52
1006.304	1867.85
1006.598	1845.93
1006.892	1849.99
1007.186	1833.95
1007.48	1841.86
1007.773	1803.89
1008.067	1767.28
1008.361	1777.68
1008.655	1778.58
1008.948	1749.66
1009.242	1739.26
1009.535	1745.82
1009.829	1724.12
1010.122	1739.49
1010.415	1716.89
1010.708	1718.92
1011.001	1691.13
1011.295	1686.83
1011.588	1696.1
1011.881	1661.07
1012.173	1654.29
1012.466	1649.32
1012.759	1640.51
1013.052	1617.23
1013.344	1632.15
1013.637	1593.96
1013.93	1594.86
1014.222	1585.82
1014.514	1574.29
1014.807	1572.26
1015.099	1542.43
1015.391	1570.91
1015.683	1542.43
1015.976	1521.87
1016.268	1501.53
1016.56	1529.55
1016.851	1499.49
1017.143	1488.42
1017.435	1488.2
1017.727	1483.9
1018.018	1480.29
1018.31	1462.21
1018.602	1450.23
1018.893	1429.21
1019.185	1432.38
1019.476	1425.37
1019.767	1436.67
1020.058	1414.52
1020.35	1435.54
1020.641	1402.1
1020.932	1383.11
1021.223	1367.07
1021.514	1354.87
1021.804	1368.2
1022.095	1343.57
1022.386	1325.71
1022.677	1324.81
1022.967	1327.97
1023.258	1318.03
1023.548	1318.26
1023.839	1327.52
1024.129	1277.35
1024.419	1273.06
1024.709	1245.72
1025	1268.77
1025.29	1240.52
1025.58	1240.97
1025.87	1225.6
1026.16	1219.5
1026.449	1240.74
1026.739	1209.56
1027.029	1202.33
1027.319	1214.08
1027.608	1233.06
1027.898	1188.77
1028.187	1174.53
1028.477	1174.53
1028.766	1162.55
1029.055	1178.6
1029.344	1159.39
1029.634	1127.98
1029.923	1160.75
1030.212	1141.99
1030.501	1109.9
1030.79	1118.49
1031.078	1099.05
1031.367	1081.88
1031.656	1099.96
1031.945	1072.16
1032.233	1075.78
1032.522	1068.09
1032.81	1056.79
1033.099	1064.93
1033.387	1052.05
1033.675	1038.49
1033.963	1033.97
1034.251	1024.03
1034.54	1033.74
1034.828	1020.64
1035.116	985.16
1035.403	1009.56
1035.691	960.07
1035.979	999.85
1036.267	993.52
1036.554	996.23
1036.842	978.38
1037.129	979.51
1037.417	959.85
1037.704	963.92
1037.992	927.31
1038.279	915.33
1038.566	937.93
1038.853	937.93
1039.14	937.93
