Data from hue_10_FLMS001491_67.txt Node
Date: Mon Feb 06 15:32:20 GMT 2017
User: dcchb
Spectrometer: FLMS00149
Trigger mode: 0
Integration Time (sec): 2.000000E-2
Scans to average: 10
Electric dark correction enabled: true
Nonlinearity correction enabled: false
Boxcar width: 0
XAxis mode: Wavelengths
Number of Pixels in Spectrum: 2048
>>>>>Begin Spectral Data<<<<<
341.393	-15.95
341.776	-15.95
342.16	-15.95
342.543	-58.2
342.927	-59.79
343.31	-69.73
343.693	-80.8
344.077	-73.12
344.46	-68.6
344.843	-52.78
345.226	-47.81
345.61	-32.67
345.993	-21.14
346.376	-13.23
346.759	12.08
347.142	10.27
347.525	55.24
347.908	74.22
348.291	106.54
348.674	85.97
349.057	115.58
349.44	115.35
349.823	149.25
350.206	131.85
350.588	177.5
350.971	207.55
351.354	233.09
351.737	229.47
352.119	250.71
352.502	250.49
352.884	255.91
353.267	285.97
353.65	284.61
354.032	291.16
354.414	314.89
354.797	333.65
355.179	300.43
355.562	305.63
355.944	334.1
356.326	341.33
356.709	328
357.091	343.82
357.473	357.15
357.855	324.61
358.238	330.71
358.62	313.54
359.002	342.24
359.384	332.97
359.766	340.2
360.148	316.7
360.53	344.95
360.912	328.23
361.294	344.95
361.676	322.12
362.057	324.61
362.439	312.63
362.821	335.68
363.203	330.94
363.584	330.94
363.966	330.03
364.348	313.54
364.729	325.06
365.111	292.07
365.493	330.03
365.874	317.6
366.256	325.97
366.637	288.68
367.019	314.21
367.4	310.37
367.781	313.54
368.163	294.1
368.544	311.05
368.925	312.86
369.306	307.44
369.688	311.96
370.069	304.27
370.45	306.31
370.831	297.49
371.212	310.83
371.593	314.44
371.974	299.75
372.355	306.98
372.736	312.41
373.117	299.53
373.498	305.85
373.879	323.25
374.26	290.26
374.641	305.4
375.021	306.08
375.402	320.54
375.783	318.28
376.163	313.99
376.544	302.92
376.925	317.83
377.305	311.96
377.686	306.53
378.066	318.51
378.447	338.4
378.827	309.24
379.208	313.08
379.588	323.71
379.968	334.33
380.349	326.64
380.729	342.24
381.109	345.4
381.489	313.31
381.87	343.59
382.25	332.07
382.63	317.38
383.01	330.26
383.39	332.97
383.77	337.94
384.15	345.85
384.53	338.62
384.91	327.55
385.29	329.36
385.67	339.52
386.049	335.23
386.429	356.25
386.809	357.15
387.189	348.79
387.568	332.97
387.948	327.77
388.328	328.68
388.707	339.75
389.087	333.42
389.466	351.73
389.846	339.52
390.225	342.01
390.605	363.48
390.984	356.02
391.363	369.35
391.743	347.43
392.122	348.56
392.501	355.34
392.881	332.29
393.26	360.09
393.639	371.61
394.018	375.46
394.397	365.96
394.776	354.89
395.155	362.8
395.534	351.95
395.913	340.88
396.292	344.27
396.671	363.93
397.05	365.96
397.429	366.64
397.808	367.77
398.186	368.45
398.565	375
398.944	365.96
399.323	389.24
399.701	370.71
400.08	381.11
400.458	387.89
400.837	369.13
401.215	368.9
401.594	388.79
401.972	409.35
402.351	367.55
402.729	384.04
403.107	378.62
403.486	389.47
403.864	379.07
404.242	397.6
404.62	383.59
404.999	383.37
405.377	409.13
405.755	397.83
406.133	409.13
406.511	412.29
406.889	397.38
407.267	425.62
407.645	417.04
408.023	394.21
408.401	376.59
408.779	420.2
409.156	394.21
409.534	431.05
409.912	415.68
410.29	420.65
410.667	423.82
411.045	428.56
411.422	422.01
411.8	430.82
412.178	431.05
412.555	430.6
412.933	425.17
413.31	431.27
413.687	445.28
414.065	446.64
414.442	447.77
414.819	454.55
415.197	460.43
415.574	460.65
415.951	441.67
416.328	432.86
416.705	442.57
417.082	462.69
417.46	457.26
417.837	476.47
418.214	478.96
418.591	453.87
418.967	456.81
419.344	453.87
419.721	471.27
420.098	460.65
420.475	468.34
420.852	473.08
421.228	481.44
421.605	481.44
421.982	485.51
422.358	490.03
422.735	496.81
423.111	504.04
423.488	519.41
423.864	489.58
424.241	514.89
424.617	501.55
424.994	490.71
425.37	513.08
425.746	505.17
426.123	514.21
426.499	530.93
426.875	537.94
427.251	523.47
427.627	535.68
428.003	523.02
428.379	552.4
428.756	515.11
429.132	539.07
429.507	538.16
429.883	546.75
430.259	552.4
430.635	549.46
431.011	549.01
431.387	559.86
431.763	582.46
432.138	567.09
432.514	567.09
432.89	581.33
433.265	586.75
433.641	572.97
434.016	583.36
434.392	581.55
434.767	605.28
435.143	609.8
435.518	608.9
435.894	607.99
436.269	614.09
436.644	629.91
437.02	632.85
437.395	622.46
437.77	631.49
438.145	625.85
438.52	667.65
438.895	638.5
439.271	638.95
439.646	639.63
440.021	660.19
440.395	669.23
440.77	642.57
441.145	664.04
441.52	666.3
441.895	653.87
442.27	657.26
442.645	685.28
443.019	674.88
443.394	680.76
443.769	705.62
444.143	687.76
444.518	680.76
444.892	705.62
445.267	717.59
445.641	713.75
446.016	696.13
446.39	724.6
446.764	726.63
447.139	701.55
447.513	720.31
447.887	734.77
448.262	768.67
448.636	733.41
449.01	715.56
449.384	725.5
449.758	734.09
450.132	728.89
450.506	756.92
450.88	742.9
451.254	760.76
451.628	757.37
452.002	764.15
452.376	771.6
452.75	777.71
453.123	800.76
453.497	800.3
453.871	809.34
454.244	828.33
454.618	823.58
454.992	805.95
455.365	848.66
455.739	860.64
456.112	855.44
456.486	857.48
456.859	856.8
457.232	846.18
457.606	843.47
457.979	880.98
458.352	903.13
458.725	890.02
459.099	867.87
459.472	910.81
459.845	925.95
460.218	914.65
460.591	925.95
460.964	922.33
461.337	934.09
461.71	965.5
462.083	932.73
462.456	958.49
462.829	946.97
463.201	975.44
463.574	983.35
463.947	968.43
464.32	1000.75
464.692	1036
465.065	1021.54
465.438	1049.56
465.81	1075.1
466.183	1070.35
466.555	1074.65
466.928	1100.41
467.3	1090.01
467.672	1086.4
468.045	1120.97
468.417	1126.4
468.789	1156.23
469.161	1167.75
469.534	1158.26
469.906	1188.32
470.278	1179.95
470.65	1201.65
471.022	1251.37
471.394	1255.21
471.766	1271.25
472.138	1290.91
472.51	1306.05
472.882	1325.26
473.253	1333.4
473.625	1353.51
473.997	1401.64
474.369	1392.83
474.74	1420.63
475.112	1439.38
475.484	1433.28
475.855	1491.81
476.227	1508.31
476.598	1521.87
476.97	1548.08
477.341	1577.91
477.713	1588.31
478.084	1634.18
478.455	1644.58
478.827	1661.75
479.198	1705.82
479.569	1722.54
479.94	1765.7
480.311	1792.14
480.682	1816.1
481.053	1907.85
481.424	1902.2
481.795	1922.99
482.166	1957.34
482.537	1987.39
482.908	2015.87
483.279	2030.33
483.65	2099.03
484.021	2127.95
484.391	2156.88
484.762	2164.34
485.133	2218.35
485.503	2298.12
485.874	2316.65
486.244	2322.75
486.615	2383.31
486.985	2426.7
487.356	2440.71
487.726	2470.54
488.097	2524.1
488.467	2533.14
488.837	2606.81
489.207	2646.36
489.578	2673.47
489.948	2714.6
490.318	2762.96
490.688	2776.52
491.058	2805.9
491.428	2839.8
491.798	2892
492.168	2948.04
492.538	2964.31
492.908	2997.53
493.278	3051.09
493.648	3081.6
494.017	3089.06
494.387	3144.2
494.757	3168.83
495.126	3173.35
495.496	3224.65
495.866	3229.62
496.235	3293.12
496.605	3290.86
496.974	3334.25
497.344	3351.88
497.713	3380.8
498.082	3385.77
498.452	3484.53
498.821	3469.61
499.19	3489.5
499.559	3529.27
499.928	3555.26
500.298	3563.85
500.667	3601.81
501.036	3608.14
501.405	3646.33
501.774	3675.48
502.143	3659.66
502.512	3700.11
502.88	3716.84
503.249	3751.86
503.618	3804.07
503.987	3774.91
504.356	3769.27
504.724	3820.56
505.093	3859.88
505.462	3890.39
505.83	3889.04
506.199	3896.72
506.567	3923.16
506.936	3957.06
507.304	3992.76
507.672	3946.44
508.041	4011.29
508.409	4009.94
508.777	4057.85
509.145	4071.18
509.514	4096.71
509.882	4135.81
510.25	4122.7
510.618	4153.44
510.986	4169.48
511.354	4194.56
511.722	4186.43
512.09	4253.55
512.458	4214.68
512.826	4236.82
513.193	4261.91
513.561	4251.06
513.929	4330.38
514.297	4340.32
514.664	4385.97
515.032	4398.63
515.4	4399.98
515.767	4445.18
516.135	4444.5
516.502	4411.51
516.869	4482.69
517.237	4478.17
517.604	4482.47
517.972	4508.45
518.339	4517.72
518.706	4538.28
519.073	4562.69
519.44	4572.41
519.808	4613.08
520.175	4571.05
520.542	4619.19
520.909	4644.04
521.276	4665.29
521.643	4688.79
522.009	4691.73
522.376	4733.99
522.743	4706.87
523.11	4764.95
523.477	4823.25
523.843	4802.46
524.21	4834.77
524.577	4849.69
524.943	4929.91
525.31	4887.2
525.676	4913.19
526.043	4992.28
526.409	4979.4
526.776	5033.19
527.142	5039.29
527.508	5095.78
527.874	5119.06
528.241	5124.48
528.607	5147.99
528.973	5168.32
529.339	5162.9
529.705	5189.79
530.071	5246.51
530.437	5295.55
530.803	5321.31
531.169	5352.95
531.535	5288.1
531.901	5338.72
532.267	5369
532.632	5414.19
532.998	5420.75
533.364	5485.38
533.73	5459.84
534.095	5497.58
534.461	5528.77
534.826	5556.11
535.192	5499.84
535.557	5633.4
535.923	5583
536.288	5632.95
536.653	5662.32
537.019	5677.01
537.384	5668.88
537.749	5681.76
538.114	5755.2
538.479	5722.89
538.845	5812.15
539.21	5768.99
539.575	5838.59
539.94	5853.05
540.305	5875.65
540.67	5908.87
541.034	5900.06
541.399	5920.85
541.764	5969.43
542.129	5979.83
542.494	6029.54
542.858	6021.41
543.223	6031.8
543.587	6098.92
543.952	6057.79
544.316	6116.1
544.681	6078.36
545.045	6144.34
545.41	6207.39
545.774	6225.7
546.138	6226.6
546.503	6289.2
546.867	6313.61
547.231	6310.89
547.595	6345.02
547.959	6352.02
548.324	6365.36
548.688	6355.64
549.052	6448.52
549.416	6448.97
549.779	6472.02
550.143	6464.11
550.507	6544.56
550.871	6507.27
551.235	6513.15
551.599	6568.06
551.962	6651.22
552.326	6612.35
552.689	6651.68
553.053	6631.79
553.417	6653.26
553.78	6752.24
554.143	6698.45
554.507	6787.04
554.87	6700.49
555.234	6775.97
555.597	6780.03
555.96	6804.21
556.323	6860.48
556.686	6893.02
557.05	6888.96
557.413	6881.05
557.776	6917.43
558.139	6992.46
558.502	6959.92
558.865	6991.78
559.228	6999.69
559.59	7043.76
559.953	7018.22
560.316	7085.56
560.679	7126.01
561.041	7147.71
561.404	7111.78
561.767	7191.32
562.129	7123.98
562.492	7246.24
562.854	7249.63
563.217	7219.8
563.579	7279
563.941	7345.44
564.304	7360.58
564.666	7388.15
565.028	7375.27
565.39	7409.62
565.753	7448.72
566.115	7494.37
566.477	7516.29
566.839	7509.05
567.201	7557.19
567.563	7565.1
567.925	7645.55
568.287	7690.07
568.648	7658.43
569.01	7780.23
569.372	7771.87
569.734	7764.41
570.095	7815.49
570.457	7927.12
570.819	7817.97
571.18	7906.11
571.542	7953.79
571.903	7956.27
572.265	8035.59
572.626	8086.67
572.987	8110.39
573.349	8121.02
573.71	8209.83
574.071	8175.25
574.432	8215.7
574.794	8325.3
575.155	8333.21
575.516	8373.89
575.877	8448.46
576.238	8495.47
576.599	8579.31
576.96	8544.73
577.32	8588.57
577.681	8756.03
578.042	8841.67
578.403	8836.93
578.763	8951.73
579.124	8984.27
579.485	9144.94
579.845	9244.83
580.206	9373.86
580.566	9345.16
580.927	9520.53
581.287	9635.78
581.648	9628.32
582.008	9832.16
582.368	9942.44
582.728	10073.05
583.089	10224.46
583.449	10339.94
583.809	10525.92
584.169	10733.15
584.529	10820.61
584.889	11028.28
585.249	11095.63
585.609	11264.21
585.969	11506.01
586.329	11609.74
586.688	11910.52
587.048	12079.33
587.408	12175.15
587.768	12406.1
588.127	12586.66
588.487	12760.22
588.846	13061.68
589.206	13188.9
589.565	13458.28
589.925	13788.66
590.284	13918.38
590.643	14133.29
591.003	14502.54
591.362	14698.47
591.721	14916.09
592.08	15156.76
592.44	15500.26
592.799	15633.59
593.158	15971.43
593.517	16245.1
593.876	16488.93
594.235	16683.05
594.593	17034.91
594.952	17361
595.311	17579.98
595.67	17920.08
596.029	18315.55
596.387	18491.36
596.746	18871.47
597.104	19007.51
597.463	19318.91
597.822	19600.49
598.18	19755.74
598.538	20047.48
598.897	20557.3
599.255	20527.24
599.613	21174.91
599.972	21263.27
600.33	21536.93
600.688	21856.25
601.046	22216.01
601.404	22468.89
601.762	22612.39
602.12	23037.23
602.478	23298.92
602.836	23485.13
603.194	23712.02
603.552	24076.75
603.91	24159.24
604.268	24553.58
604.625	24749.5
604.983	25106.11
605.341	25260.23
605.698	25597.39
606.056	25917.16
606.413	25930.49
606.771	26363.93
607.128	26530.25
607.485	26824.7
607.843	26868.77
608.2	27326.16
608.557	27530.22
608.914	27684.12
609.272	27977.89
609.629	28334.95
609.986	28503.98
610.343	28548.05
610.7	28942.39
611.057	29053.57
611.414	29229.84
611.771	29460.57
612.127	29683.61
612.484	29925.64
612.841	30096.26
613.198	30195.01
613.554	30334.89
613.911	30800.19
614.267	30881.32
614.624	30905.27
614.98	31111.15
615.337	31415.77
615.693	31545.71
616.05	31662.32
616.406	31906.83
616.762	32110.22
617.118	32079.03
617.475	32261.85
617.831	32484.44
618.187	32725.57
618.543	32741.61
618.899	32860.48
619.255	33233.12
619.611	33230.41
619.967	33407.81
620.323	33611.42
620.678	33592.44
621.034	33686.44
621.39	33718.99
621.746	33868.59
622.101	34323.26
622.457	34113.78
622.812	34287.78
623.168	34528
623.523	34460.44
623.879	34654.1
624.234	34470.6
624.589	34763.7
624.945	34917.82
625.3	34916.69
625.655	35014.55
626.01	34998.05
626.365	35178.38
626.72	35052.96
627.075	35309.68
627.43	35293.63
627.785	35367.08
628.14	35425.83
628.495	35530.24
628.85	35457.25
629.205	35513.52
629.559	35753.96
629.914	35582.67
630.269	35694.98
630.623	35777.24
630.978	35629.22
631.332	35896.78
631.687	35911.92
632.041	35912.15
632.396	35866.5
632.75	35798.48
633.104	35942.88
633.459	35774.3
633.813	35886.16
634.167	35924.35
634.521	35954.63
634.875	36088.19
635.229	35890.91
635.583	35801.87
635.937	35934.3
636.291	35936.33
636.645	36034.86
636.999	35954.18
637.352	36065.82
637.706	35971.13
638.06	36282.08
638.413	35954.41
638.767	36047.74
639.121	35972.03
639.474	35783.34
639.828	35889.55
640.181	35762.55
640.534	35866.5
640.888	35829.44
641.241	35762.1
641.594	35918.93
641.947	35976.78
642.301	35933.39
642.654	35994.86
643.007	35992.6
643.36	35853.85
643.713	35770.46
644.066	36213.84
644.419	35815.2
644.771	35511.71
645.124	35201.43
645.477	35155.11
645.83	35043.25
646.182	35143.13
646.535	34789.24
646.888	35029.01
647.24	34710.6
647.593	34974.77
647.945	34913.08
648.298	34639.41
648.65	34689.13
649.002	34596.48
649.355	34589.7
649.707	34749.24
650.059	34687.32
650.411	35220.64
650.763	35307.42
651.115	35653.17
651.467	35543.12
651.819	35573.4
652.171	35462.67
652.523	35416.12
652.875	35467.41
653.227	35363.24
653.578	35614.08
653.93	35378.38
654.282	35385.84
654.633	35374.99
654.985	35254.09
655.337	35434.2
655.688	35379.96
656.039	35495.66
656.391	35142
656.742	35234.43
657.094	35214.77
657.445	35356.68
657.796	35188.1
658.147	35205.73
658.498	35275.78
658.849	35292.5
659.2	35315.33
659.551	35151.27
659.902	35258.83
660.253	35137.93
660.604	35241.21
660.955	35017.71
661.306	35170.02
661.656	35141.1
662.007	35198.04
662.358	35152.85
662.708	35261.77
663.059	35208.89
663.409	34840.54
663.76	35229.46
664.11	35232.17
664.461	35234.65
664.811	35175.67
665.161	35070.14
665.511	35129.57
665.862	35043.47
666.212	35202.11
666.562	35137.93
666.912	35156.24
667.262	35145.39
667.612	34924.38
667.962	35172.06
668.312	34976.58
668.662	35153.98
669.011	35112.17
669.361	34951.95
669.711	35052.51
670.06	34930.48
670.41	34896.13
670.76	34905.17
671.109	35016.35
671.459	34985.85
671.808	34860.65
672.157	34840.09
672.507	34751.95
672.856	34774.78
673.205	34900.88
673.554	34888.67
673.904	34724.84
674.253	34984.49
674.602	34814.1
674.951	34417.72
675.3	34296.15
675.649	34685.97
675.998	34789.24
676.346	34680.54
676.695	34934.77
677.044	34449.81
677.393	34589.47
677.741	34764.61
678.09	34588.12
678.438	34446.42
678.787	34575.69
679.135	34651.39
679.484	34207.11
679.832	34445.07
680.181	34370.27
680.529	34381.34
680.877	34359.87
681.225	34362.59
681.573	34403.26
681.922	34082.59
682.27	33988.58
682.618	34123.04
682.966	34037.85
683.314	34092.31
683.661	33980.9
684.009	33791.3
684.357	33859.1
684.705	33695.71
685.053	33819.32
685.4	33671.98
685.748	33586.33
686.095	33716.27
686.443	33443.06
686.79	33416.85
687.138	33451.87
687.485	33440.35
687.832	33314.25
688.18	33333.91
688.527	33205.1
688.874	33210.3
689.221	33076.29
689.568	32910.42
689.915	32940.7
690.262	32966.69
690.609	32869.97
690.956	32730.09
691.303	32641.05
691.65	32503.65
691.997	32632.69
692.344	32460.94
692.69	32385.91
693.037	32380.04
693.383	32170.78
693.73	32304.56
694.077	32059.82
694.423	32046.94
694.769	31984.12
695.116	31888.3
695.462	31839.49
695.808	31763.56
696.155	31840.62
696.501	31420.06
696.847	31613.96
697.193	31314.76
697.539	31329.44
697.885	31227.3
698.231	30986.4
698.577	31135.78
698.923	31081.77
699.269	30924.94
699.614	30781.21
699.96	30683.59
700.306	30752.28
700.651	30590.25
700.997	30469.58
701.342	30608.79
701.688	30436.36
702.033	30317.72
702.379	30286.53
702.724	30179.19
703.069	30257.61
703.415	29857.62
703.76	30030.5
704.105	29979.2
704.45	29941.23
704.795	29647.68
705.14	29715.93
705.485	29733.1
705.83	29505.31
706.175	29475.48
706.52	29449.04
706.865	29415.14
707.209	29330.4
707.554	29208.14
707.899	29261.02
708.243	29219.67
708.588	29069.62
708.932	28867.14
709.277	28893.8
709.621	28915.72
709.966	28628.72
710.31	28700.59
710.654	28602.06
710.998	28581.72
711.342	28516.19
711.687	28538.33
712.031	28413.59
712.375	28339.47
712.719	28262.86
713.063	28224.89
713.407	28326.81
713.75	28109.87
714.094	28148.96
714.438	27964.56
714.782	28121.62
715.125	27969.31
715.469	27948.97
715.812	27819.71
716.156	27689.31
716.499	27695.19
716.843	27781.29
717.186	27511.69
717.53	27678.02
717.873	27641.86
718.216	27564.8
718.559	27379.49
718.902	27229.89
719.246	27309.89
719.589	27213.62
719.932	27165.71
720.275	27155.54
720.617	26997.81
720.96	27020.18
721.303	27080.97
721.646	27135.88
721.989	26910.58
722.331	26890.92
722.674	26775.89
723.016	27011.37
723.359	26814.08
723.701	26850.47
724.044	26598.72
724.386	26530.25
724.729	26655.44
725.071	26602.56
725.413	26534.54
725.755	26587.42
726.097	26434.66
726.439	26331.16
726.782	26328.22
727.124	26429.01
727.465	26287.09
727.807	26171.61
728.149	26207.32
728.491	26284.38
728.833	26161.44
729.175	25979.53
729.516	25939.76
729.858	25864.73
730.199	25942.47
730.541	25900.21
730.882	25845.07
731.224	25915.58
731.565	25879.87
731.906	25711.74
732.248	25795.13
732.589	25643.27
732.93	25540.22
733.271	25595.81
733.612	25617.5
733.953	25598.75
734.294	25532.53
734.635	25390.62
734.976	25402.37
735.317	25224.29
735.658	25303.84
735.999	25342.03
736.339	25194.92
736.68	25308.13
737.021	25269.49
737.361	25121.7
737.702	25262.03
738.042	25153.34
738.383	25076.05
738.723	25104.52
739.063	25079.44
739.404	25081.7
739.744	24955.83
740.084	24935.94
740.424	24952.66
740.764	24890.52
741.104	24941.59
741.444	24742.05
741.784	24668.15
742.124	24783.4
742.464	24728.04
742.804	24728.71
743.143	24600.81
743.483	24674.25
743.823	24558.78
744.162	24521.94
744.502	24506.57
744.841	24432.22
745.181	24545.22
745.52	24363.53
745.86	24365.79
746.199	24395.39
746.538	24316.3
746.877	24392.68
747.216	24315.17
747.556	24215.51
747.895	24286.01
748.234	24211.89
748.573	24159.92
748.911	24021.39
749.25	24068.39
749.589	24049.41
749.928	23934.61
750.267	23957.21
750.605	23834.73
750.944	23897.55
751.283	23790.43
751.621	23893.26
751.96	23606.03
752.298	23714.96
752.636	23727.84
752.975	23483.78
753.313	23432.03
753.651	23548.41
753.989	23566.03
754.327	23478.35
754.666	23405.59
755.004	23349.32
755.342	23460.95
755.679	23359.03
756.017	23148.64
756.355	23310.67
756.693	23173.27
757.031	23141.19
757.368	23011.25
757.706	23041.53
758.044	22881.98
758.381	22975.09
758.719	22811.48
759.056	22900.74
759.394	22836.79
759.731	22678.15
760.068	22676.79
760.405	22528.77
760.743	22457.59
761.08	22600.41
761.417	22289.91
761.754	22396.35
762.091	22423.69
762.428	22145.96
762.765	22113.42
763.102	22115.9
763.438	22104.6
763.775	21976.92
764.112	21913.42
764.449	21949.35
764.785	21842.69
765.122	21708.45
765.458	21629.81
765.795	21622.81
766.131	21672.07
766.467	21535.8
766.804	21408.12
767.14	21294.68
767.476	21309.82
767.812	21177.4
768.148	21213.78
768.485	20985.99
768.821	20941.02
769.157	20970.85
769.492	20887.91
769.828	20814.47
770.164	20639.78
770.5	20606.79
770.836	20583.06
771.171	20441.37
771.507	20398.43
771.842	20273.01
772.178	20255.61
772.513	20287.48
772.849	20151.66
773.184	20136.07
773.519	20093.13
773.855	20067.59
774.19	19804.1
774.525	19907.6
774.86	19743.08
775.195	19746.47
775.53	19723.65
775.865	19607.27
776.2	19437.55
776.535	19347.39
776.87	19343.55
777.205	19316.88
777.539	19194.17
777.874	19231.01
778.209	19116.21
778.543	19058.81
778.878	18915.53
779.212	18905.14
779.547	18773.16
779.881	18754.41
780.215	18634.64
780.55	18697.01
780.884	18595.09
781.218	18587.41
781.552	18537.01
781.886	18423.57
782.22	18277.81
782.554	18168.66
782.888	18032.85
783.222	18030.36
783.556	17970.7
783.889	17832.85
784.223	17797.6
784.557	17790.59
784.89	17727.32
785.224	17663.59
785.557	17592.63
785.891	17464.05
786.224	17535.68
786.558	17566.42
786.891	17349.02
787.224	17262.47
787.557	17219.53
787.891	17149.93
788.224	17188.35
788.557	17142.25
788.89	17046.66
789.223	16981.35
789.556	16929.6
789.888	16955.36
790.221	16918.07
790.554	16700.22
790.887	16630.85
791.219	16638.31
791.552	16489.38
791.884	16555.6
792.217	16475.6
792.549	16303.4
792.882	16253.46
793.214	16223.4
793.546	16273.8
793.879	16145.44
794.211	16076.51
794.543	16135.72
794.875	16117.19
795.207	16001.94
795.539	15876.07
795.871	15910.41
796.203	15651.66
796.535	15770.31
796.867	15650.76
797.198	15668.16
797.53	15618.9
797.862	15528.28
798.193	15531.22
798.525	15334.16
798.856	15440.14
799.188	15340.71
799.519	15298.45
799.85	15162.19
800.182	15122.41
800.513	15201.28
800.844	14992.25
801.175	15067.95
801.506	15015.52
801.837	14983.21
802.168	14941.17
802.499	14899.82
802.83	14793.38
803.161	14787.96
803.491	14680.62
803.822	14703.67
804.153	14681.29
804.483	14472.94
804.814	14507.51
805.145	14456.89
805.475	14501.19
805.805	14333.06
806.136	14370.57
806.466	14358.14
806.796	14337.12
807.126	14179.39
807.457	14156.79
807.787	14206.96
808.117	14129.22
808.447	14077.92
808.777	14135.55
809.107	14045.61
809.436	14073.4
809.766	13897.81
810.096	13856.23
810.426	13848.1
810.755	13929
811.085	13905.72
811.414	13826.4
811.744	13709.57
812.073	13601.32
812.403	13598.39
812.732	13531.95
813.061	13609.91
813.39	13489.24
813.719	13481.33
814.049	13521.33
814.378	13467.99
814.707	13431.16
815.036	13335.57
815.365	13296.25
815.693	13236.36
816.022	13298.05
816.351	13145.74
816.68	13119.08
817.008	13185.97
817.337	13044.95
817.665	13021.23
817.994	13073.43
818.322	13029.36
818.651	12966.76
818.979	12904.17
819.307	12982.81
819.636	12907.78
819.964	12844.73
820.292	12862.81
820.62	12841.34
820.948	12738.52
821.276	12814.45
821.604	12834.79
821.932	12818.97
822.259	12777.84
822.587	12801.8
822.915	12797.28
823.243	12776.94
823.57	12715.02
823.898	12691.29
824.225	12715.92
824.553	12736.26
824.88	12705.75
825.207	12729.03
825.535	12665.98
825.862	12780.78
826.189	12707.11
826.516	12734.91
826.843	12763.61
827.17	12767.22
827.497	12805.19
827.824	12696.49
828.151	12766.54
828.478	12764.73
828.805	12760.44
829.131	12674.79
829.458	12561.35
829.785	12597.06
830.111	12599.77
830.438	12771.51
830.764	12686.09
831.09	12700.33
831.417	12592.08
831.743	12697.39
832.069	12671.18
832.395	12623.27
832.722	12685.42
833.048	12619.2
833.374	12585.53
833.7	12567.9
834.026	12582.59
834.351	12555.02
834.677	12570.62
835.003	12538.07
835.329	12575.59
835.654	12552.99
835.98	12395.25
836.306	12556.38
836.631	12471.41
836.956	12493.78
837.282	12419.89
837.607	12412.2
837.932	12357.51
838.258	12357.74
838.583	12349.38
838.908	12250.85
839.233	12368.14
839.558	12346.67
839.883	12243.39
840.208	12195.71
840.533	12146.22
840.858	12202.04
841.182	12194.81
841.507	12153
841.832	12034.81
842.156	12054.47
842.481	12074.36
842.805	11995.49
843.13	12053.34
843.454	12052.21
843.778	11927.47
844.103	11863.52
844.427	11945.77
844.751	11827.81
845.075	11825.78
845.399	11773.8
845.723	11784.87
846.047	11762.73
846.371	11656.06
846.695	11622.62
847.019	11540.13
847.343	11552.79
847.666	11438.44
847.99	11412.23
848.313	11441.83
848.637	11342.85
848.96	11320.25
849.284	11234.15
849.607	11183.76
849.931	11128.62
850.254	11100.37
850.577	11036.42
850.9	10997.32
851.223	10931.11
851.546	10900.15
851.869	10838.68
852.192	10981.05
852.515	10798.46
852.838	10735.86
853.161	10799.36
853.483	10714.85
853.806	10649.08
854.129	10652.02
854.451	10587.39
854.774	10578.8
855.096	10575.87
855.419	10472.59
855.741	10415.64
856.063	10466.26
856.385	10295.42
856.708	10361.18
857.03	10309.66
857.352	10370.22
857.674	10266.72
857.996	10232.15
858.318	10168.87
858.64	10218.59
858.961	10203.9
859.283	10147.18
859.605	10089.55
859.926	10163.9
860.248	10052.94
860.57	9986.05
860.891	10012.26
861.212	9926.39
861.534	9943.57
861.855	9945.6
862.176	9979.5
862.498	9871.7
862.819	9948.99
863.14	9845.26
863.461	9831.03
863.782	9806.85
864.103	9853.85
864.424	9794.64
864.745	9770.46
865.065	9706.06
865.386	9689.79
865.707	9626.96
866.027	9628.77
866.348	9690.92
866.668	9659.51
866.989	9621.99
867.309	9611.15
867.63	9523.69
867.95	9583.58
868.27	9491.15
868.59	9494.76
868.91	9560.98
869.23	9486.4
869.55	9478.95
869.87	9487.76
870.19	9422
870.51	9450.02
870.83	9424.48
871.15	9390.36
871.469	9422.68
871.789	9452.05
872.109	9319.85
872.428	9329.8
872.748	9363.47
873.067	9364.15
873.386	9353.98
873.706	9274.21
874.025	9269.69
874.344	9242.34
874.663	9282.11
874.982	9219.07
875.301	9241.89
875.62	9186.52
875.939	9145.4
876.258	9055.23
876.577	9102.46
876.896	9115.57
877.214	9053.42
877.533	9104.72
877.852	9087.54
878.17	9055.91
878.489	9087.32
878.807	9109.24
879.125	9046.41
879.444	9062.46
879.762	8957.83
880.08	8993.08
880.398	8979.3
880.716	8960.77
881.034	8869.7
881.352	8923.03
881.67	8892.07
881.988	8944.27
882.306	8877.83
882.624	8841.45
882.941	8793.77
883.259	8735.46
883.577	8790.6
883.894	8782.01
884.212	8766.65
884.529	8723.26
884.846	8697.05
885.164	8636.26
885.481	8654.33
885.798	8664.5
886.115	8637.39
886.432	8573.66
886.75	8550.16
887.067	8645.97
887.383	8527.56
887.7	8539.99
888.017	8511.29
888.334	8518.74
888.651	8385.64
888.967	8384.29
889.284	8345.87
889.6	8375.25
889.917	8341.35
890.233	8297.96
890.55	8317.17
890.866	8262.71
891.182	8301.58
891.498	8226.55
891.815	8138.87
892.131	8168.47
892.447	8176.16
892.763	8145.65
893.079	8070.85
893.395	8015.26
893.71	8084.63
894.026	8039.44
894.342	8042.15
894.657	7967.8
894.973	7949.95
895.289	7980.45
895.604	7938.42
895.92	7917.4
896.235	7850.74
896.55	7922.83
896.865	7833.34
897.181	7860.46
897.496	7831.31
897.811	7772.32
898.126	7774.58
898.441	7728.26
898.756	7724.87
899.071	7633.8
899.386	7579.11
899.7	7517.42
900.015	7528.71
900.33	7445.1
900.644	7471.77
900.959	7419.11
901.273	7383.86
901.588	7411.88
901.902	7370.07
902.216	7333.69
902.531	7368.72
902.845	7305.44
903.159	7301.38
903.473	7225.22
903.787	7144.54
904.101	7136.63
904.415	7190.87
904.729	7103.87
905.042	7085.34
905.356	7082.17
905.67	7074.94
905.984	7069.29
906.297	7053.7
906.611	6970.99
906.924	6967.15
907.237	6943.19
907.551	6901.39
907.864	6898
908.177	6885.34
908.491	6850.54
908.804	6840.15
909.117	6778.45
909.43	6718.57
909.743	6700.26
910.056	6707.72
910.368	6625.01
910.681	6621.62
910.994	6643.09
911.307	6632.47
911.619	6546.59
911.932	6507.5
912.244	6459.59
912.557	6479.7
912.869	6458.23
913.181	6452.13
913.494	6458.46
913.806	6358.58
914.118	6378.69
914.43	6316.54
914.742	6356.32
915.054	6301.18
915.366	6291.46
915.678	6207.62
915.99	6221.86
916.302	6156.1
916.613	6150.45
916.925	6118.36
917.236	6134.4
917.548	6088.3
917.859	6067.06
918.171	6027.51
918.482	5986.16
918.794	6034.06
919.105	5984.12
919.416	5937.8
919.727	5920.17
920.038	5886.95
920.349	5868.65
920.66	5820.06
920.971	5799.72
921.282	5796.33
921.593	5762.43
921.903	5726.05
922.214	5723.34
922.525	5666.62
922.835	5659.16
923.146	5633.85
923.456	5582.78
923.767	5617.8
924.077	5622.78
924.387	5572.38
924.697	5523.12
925.008	5479.73
925.318	5480.86
925.628	5487.19
925.938	5449.22
926.248	5423.91
926.558	5386.85
926.867	5351.6
927.177	5381.88
927.487	5348.66
927.796	5229.57
928.106	5227.76
928.416	5270.47
928.725	5199.74
929.034	5174.65
929.344	5178.95
929.653	5112.51
929.962	5136.46
930.271	5137.14
930.581	5098.72
930.89	5059.4
931.199	5052.4
931.508	5048.1
931.817	5015.56
932.125	5040.42
932.434	5014.2
932.743	4933.3
933.051	4926.75
933.36	4866.64
933.669	4856.69
933.977	4880.65
934.286	4893.08
934.594	4823.7
934.902	4825.51
935.21	4797.94
935.519	4789.8
935.827	4757.94
936.135	4721.33
936.443	4660.99
936.751	4654.89
937.059	4673.87
937.367	4643.59
937.674	4669.35
937.982	4602.46
938.29	4590.03
938.597	4592.75
938.905	4531.05
939.213	4515.91
939.52	4493.31
939.827	4488.57
940.135	4494.44
940.442	4496.25
940.749	4435.46
941.056	4446.08
941.363	4400.66
941.67	4399.76
941.977	4331.28
942.284	4355.01
942.591	4336.26
942.898	4337.61
943.205	4259.65
943.511	4240.67
943.818	4281.79
944.125	4243.15
944.431	4230.72
944.738	4203.6
945.044	4172.64
945.35	4192.08
945.657	4134.91
945.963	4102.82
946.269	4109.14
946.575	4128.13
946.881	4048.81
947.187	4049.71
947.493	4073.66
947.799	4006.1
948.105	4038.86
948.41	4018.3
948.716	4001.12
949.022	3921.58
949.327	3922.26
949.633	3915.7
949.938	3868.7
950.244	3908.7
950.549	3865.31
950.854	3872.99
951.16	3850.17
951.465	3825.76
951.77	3793.22
952.075	3733.79
952.38	3778.3
952.685	3746.44
952.99	3749.15
953.294	3723.62
953.599	3698.08
953.904	3690.85
954.209	3695.37
954.513	3623.05
954.818	3659.89
955.122	3638.87
955.426	3623.73
955.731	3612.66
956.035	3560.23
956.339	3563.62
956.643	3541.93
956.948	3555.49
957.252	3532.21
957.556	3533.11
957.86	3529.95
958.163	3497.41
958.467	3478.88
958.771	3440.91
959.075	3446.11
959.378	3409.73
959.682	3410.4
959.985	3357.07
960.289	3392.33
960.592	3378.32
960.896	3329.73
961.199	3335.83
961.502	3305.77
961.805	3327.69
962.108	3270.52
962.411	3256.96
962.714	3289.28
963.017	3245.89
963.32	3261.48
963.623	3204.08
963.926	3176.96
964.228	3214.03
964.531	3166.57
964.833	3184.87
965.136	3092.67
965.438	3154.14
965.741	3090.19
966.043	3131.09
966.345	3092.45
966.648	3080.92
966.95	3096.97
967.252	3050.64
967.554	3041.83
967.856	3029.4
968.158	3030.98
968.46	3014.26
968.761	2983.98
969.063	2983.3
969.365	2990.53
969.666	2935.61
969.968	2909.17
970.269	2941.94
970.571	2926.58
970.872	2873.92
971.174	2919.12
971.475	2864.66
971.776	2909.4
972.077	2859.23
972.378	2858.33
972.679	2821.49
972.98	2823.53
973.281	2818.1
973.582	2805.45
973.883	2808.61
974.183	2772.91
974.484	2760.7
974.785	2744.89
975.085	2738.33
975.386	2732.68
975.686	2689.29
975.986	2708.28
976.287	2715.73
976.587	2660.14
976.887	2645.91
977.187	2685
977.487	2666.92
977.787	2623.76
978.087	2602.29
978.387	2618.79
978.687	2593.03
978.987	2577.43
979.286	2591.67
979.586	2557.55
979.885	2525.91
980.185	2550.99
980.484	2527.72
980.784	2548.05
981.083	2518.68
981.382	2525
981.682	2509.41
981.981	2449.07
982.28	2435.97
982.579	2448.85
982.878	2439.36
983.177	2433.48
983.475	2454.05
983.774	2413.82
984.073	2374.5
984.372	2376.31
984.67	2423.76
984.969	2350.77
985.267	2342.86
985.566	2336.08
985.864	2341.51
986.162	2346.25
986.461	2299.47
986.759	2322.98
987.057	2288.17
987.355	2310.77
987.653	2308.29
987.951	2287.27
988.249	2243.2
988.547	2237.1
988.844	2239.81
989.142	2207.72
989.44	2223.32
989.737	2209.31
990.035	2183.09
990.332	2198.91
990.63	2183.09
990.927	2190.55
991.224	2149.87
991.521	2159.59
991.819	2167.05
992.116	2153.04
992.413	2113.49
992.71	2099.03
993.006	2114.17
993.303	2089.31
993.6	2086.82
993.897	2061.29
994.193	2081.85
994.49	2072.59
994.787	2027.16
995.083	2036.66
995.379	2016.99
995.676	2026.26
995.972	2001.4
996.268	2003.21
996.565	1973.38
996.861	1969.54
997.157	1962.31
997.453	1982.42
997.749	1960.27
998.044	1953.27
998.34	1955.08
998.636	1946.04
998.932	1906.26
999.227	1919.14
999.523	1887.28
999.818	1880.28
1000.114	1866.94
1000.409	1881.86
1000.704	1830.11
1001	1841.41
1001.295	1837.79
1001.59	1811.8
1001.885	1822.65
1002.18	1804.12
1002.475	1797.79
1002.77	1781.75
1003.065	1782.42
1003.359	1763.22
1003.654	1774.52
1003.949	1751.69
1004.243	1762.76
1004.538	1729.54
1004.832	1725.7
1005.127	1714.86
1005.421	1723.22
1005.715	1704.91
1006.009	1686.61
1006.304	1692.26
1006.598	1699.49
1006.892	1676.21
1007.186	1635.08
1007.48	1646.16
1007.773	1643.45
1008.067	1622.2
1008.361	1652.48
1008.655	1614.97
1008.948	1591.24
1009.242	1578.36
1009.535	1573.16
1009.829	1574.29
1010.122	1565.48
1010.415	1551.02
1010.708	1565.03
1011.001	1579.27
1011.295	1545.37
1011.588	1506.27
1011.881	1496.33
1012.173	1476.44
1012.466	1477.57
1012.759	1493.39
1013.052	1478.7
1013.344	1461.08
1013.637	1464.92
1013.93	1447.97
1014.222	1440.51
1014.514	1432.83
1014.807	1432.6
1015.099	1418.59
1015.391	1421.98
1015.683	1403.23
1015.976	1401.64
1016.268	1403.45
1016.56	1379.95
1016.851	1391.02
1017.143	1348.76
1017.435	1370.91
1017.727	1338.37
1018.018	1326.39
1018.31	1326.17
1018.602	1330.23
1018.893	1301.76
1019.185	1308.09
1019.476	1272.16
1019.767	1305.83
1020.058	1297.47
1020.35	1292.04
1020.641	1280.07
1020.932	1268.09
1021.223	1262.21
1021.514	1242.55
1021.804	1223.34
1022.095	1224.25
1022.386	1234.42
1022.677	1205.72
1022.967	1209.11
1023.258	1201.88
1023.548	1196.68
1023.839	1191.71
1024.129	1158.49
1024.419	1162.1
1024.709	1160.07
1025	1160.97
1025.29	1153.97
1025.58	1121.65
1025.87	1117.36
1026.16	1119.84
1026.449	1142.67
1026.739	1121.65
1027.029	1107.19
1027.319	1108.54
1027.608	1107.64
1027.898	1101.31
1028.187	1095.44
1028.477	1075.55
1028.766	1074.19
1029.055	1034.87
1029.344	1048.66
1029.634	1036.23
1029.923	1042.56
1030.212	1034.2
1030.501	1024.48
1030.79	1023.35
1031.078	1012.73
1031.367	1011.6
1031.656	996
1031.945	983.35
1032.233	1009.34
1032.522	971.37
1032.81	966.4
1033.099	965.95
1033.387	962.11
1033.675	959.17
1033.963	940.87
1034.251	962.11
1034.54	958.94
1034.828	941.32
1035.116	939.96
1035.403	924.14
1035.691	918.94
1035.979	923.24
1036.267	892.5
1036.554	920.07
1036.842	907.42
1037.129	882.34
1037.417	891.83
1037.704	881.43
1037.992	886.4
1038.279	873.07
1038.566	867.19
1038.853	867.19
1039.14	867.19
