Data from hue_300_FLMS001491_00059.txt Node
Date: Tue Feb 07 15:50:56 GMT 2017
User: dcchb
Spectrometer: FLMS00149
Trigger mode: 0
Integration Time (sec): 2.000000E-2
Scans to average: 10
Electric dark correction enabled: true
Nonlinearity correction enabled: false
Boxcar width: 0
XAxis mode: Wavelengths
Number of Pixels in Spectrum: 2048
>>>>>Begin Spectral Data<<<<<
341.393	-19.21
341.776	-19.21
342.16	-19.21
342.543	-83.84
342.927	-63.28
343.31	-57.4
343.693	-57.85
344.077	-66.66
344.46	-57.63
344.843	-47
345.226	-36.38
345.61	-46.55
345.993	-34.8
346.376	-16.72
346.759	-3.39
347.142	7.23
347.525	50.62
347.908	54.69
348.291	84.74
348.674	109.6
349.057	117.51
349.44	115.48
349.823	126.1
350.206	170.17
350.588	198.19
350.971	202.71
351.354	199.77
351.737	239.54
352.119	230.95
352.502	277.51
352.884	282.48
353.267	278.18
353.65	288.13
354.032	282.93
354.414	313.44
354.797	305.98
355.179	310.5
355.562	325.64
355.944	315.7
356.326	308.69
356.709	338.07
357.091	314.57
357.473	325.19
357.855	339.65
358.238	345.3
358.62	347.11
359.002	345.53
359.384	322.25
359.766	334.45
360.148	324.51
360.53	328.13
360.912	307.11
361.294	324.29
361.676	338.07
362.057	332.19
362.439	337.39
362.821	322.48
363.203	322.7
363.584	340.56
363.966	334.23
364.348	314.57
364.729	317.51
365.111	323.61
365.493	322.25
365.874	321.8
366.256	313.66
366.637	304.4
367.019	311.4
367.4	340.1
367.781	314.34
368.163	327.9
368.544	305.53
368.925	296.26
369.306	304.17
369.688	310.95
370.069	319.31
370.45	328.58
370.831	320.67
371.212	303.72
371.593	301.24
371.974	325.19
372.355	307.56
372.736	319.77
373.117	312.08
373.498	331.74
373.879	318.86
374.26	323.16
374.641	312.53
375.021	336.26
375.402	314.34
375.783	310.95
376.163	323.38
376.544	312.76
376.925	322.7
377.305	327.45
377.686	334.45
378.066	322.03
378.447	342.36
378.827	306.21
379.208	323.16
379.588	310.05
379.968	339.43
380.349	329.26
380.729	308.69
381.109	350.5
381.489	337.84
381.87	333.1
382.25	329.71
382.63	352.53
383.01	348.01
383.39	349.37
383.77	346.21
384.15	343.04
384.53	340.78
384.91	343.49
385.29	344.62
385.67	326.09
386.049	343.72
386.429	345.75
386.809	361.8
387.189	344.4
387.568	357.96
387.948	343.04
388.328	350.27
388.707	361.57
389.087	362.25
389.466	370.61
389.846	345.08
390.225	365.87
390.605	354.57
390.984	368.35
391.363	384.85
391.743	362.02
392.122	370.39
392.501	356.37
392.881	368.13
393.26	365.41
393.639	367.9
394.018	375.13
394.397	376.04
394.776	378.3
395.155	364.51
395.534	380.55
395.913	396.6
396.292	394.57
396.671	388.01
397.05	407.45
397.429	410.38
397.808	399.31
398.186	395.92
398.565	390.72
398.944	424.4
399.323	408.58
399.701	414.23
400.08	419.42
400.458	443.83
400.837	411.06
401.215	406.77
401.594	419.2
401.972	404.51
402.351	418.97
402.729	426.2
403.107	427.79
403.486	446.09
403.864	430.95
404.242	445.64
404.62	441.57
404.999	426.2
405.377	461.68
405.755	464.39
406.133	460.33
406.511	468.24
406.889	464.62
407.267	461
407.645	467.56
408.023	469.82
408.401	475.24
408.779	465.3
409.156	491.51
409.534	506.88
409.912	497.61
410.29	511.62
410.667	529.93
411.045	526.09
411.422	532.87
411.8	535.35
412.178	545.07
412.555	559.53
412.933	566.99
413.31	574
413.687	572.64
414.065	583.94
414.442	592.53
414.819	605.18
415.197	568.57
415.574	589.82
415.951	611.06
416.328	593.43
416.705	641.79
417.082	650.15
417.46	646.99
417.837	651.51
418.214	664.39
418.591	679.3
418.967	685.41
419.344	700.32
419.721	694.45
420.098	688.57
420.475	699.42
420.852	724.73
421.228	717.95
421.605	750.49
421.982	748.23
422.358	765.63
422.735	774.89
423.111	778.06
423.488	778.06
423.864	789.36
424.241	796.14
424.617	779.41
424.994	847.21
425.37	803.14
425.746	819.87
426.123	833.42
426.499	868.23
426.875	863.25
427.251	848.57
427.627	906.64
428.003	892.18
428.379	905.06
428.756	900.54
429.132	922.69
429.507	956.59
429.883	961.56
430.259	954.33
430.635	967.21
431.011	967.88
431.387	966.08
431.763	1006.98
432.138	1012.63
432.514	1013.08
432.89	1016.24
433.265	1035.68
433.641	1053.53
434.016	1073.87
434.392	1099.63
434.767	1113.42
435.143	1096.24
435.518	1101.44
435.894	1114.77
436.269	1122.91
436.644	1137.37
437.02	1133.98
437.395	1154.32
437.77	1139.63
438.145	1213.3
438.52	1215.56
438.895	1204.49
439.271	1231.38
439.646	1231.38
440.021	1237.71
440.395	1263.02
440.77	1237.71
441.145	1263.7
441.52	1267.09
441.895	1270.48
442.27	1259.18
442.645	1259.63
443.019	1288.1
443.394	1298.95
443.769	1313.64
444.143	1283.36
444.518	1308.67
444.892	1308.44
445.267	1312.51
445.641	1322.9
446.016	1320.87
446.39	1334.2
446.764	1309.34
447.139	1339.63
447.513	1369.23
447.887	1331.72
448.262	1365.39
448.636	1341.66
449.01	1362.9
449.384	1385.27
449.758	1379.62
450.132	1401.09
450.506	1385.05
450.88	1416.46
451.254	1368.33
451.628	1370.59
452.002	1421.43
452.376	1405.61
452.75	1434.99
453.123	1435.44
453.497	1462.56
453.871	1445.84
454.244	1437.7
454.618	1483.58
454.992	1492.62
455.365	1485.61
455.739	1504.59
456.112	1550.69
456.486	1518.83
456.859	1539.62
457.232	1543.24
457.606	1549.56
457.979	1563.12
458.352	1588.21
458.725	1590.47
459.099	1586.85
459.472	1602.67
459.845	1630.47
460.218	1638.15
460.591	1637.47
460.964	1639.28
461.337	1660.75
461.71	1696.45
462.083	1739.84
462.456	1729.9
462.829	1695.77
463.201	1726.51
463.574	1726.28
463.947	1721.54
464.32	1764.47
464.692	1787.52
465.065	1786.17
465.438	1803.79
465.81	1841.99
466.183	1828.43
466.555	1868.43
466.928	1838.14
467.3	1858.48
467.672	1881.76
468.045	1916.79
468.417	1933.06
468.789	1923.79
469.161	1930.8
469.534	1970.8
469.906	1982.32
470.278	1966.5
470.65	2009.66
471.022	2008.99
471.394	2066.84
471.766	2030.91
472.138	2061.64
472.51	2096.89
472.882	2120.17
473.253	2122.2
473.625	2142.99
473.997	2203.78
474.369	2196.1
474.74	2196.33
475.112	2218.7
475.484	2268.41
475.855	2275.65
476.227	2265.03
476.598	2313.39
476.97	2330.11
477.341	2386.15
477.713	2383.67
478.084	2371.46
478.455	2408.3
478.827	2429.09
479.198	2499.6
479.569	2493.72
479.94	2537.56
480.311	2534.17
480.682	2606.49
481.053	2627.28
481.424	2671.79
481.795	2651.91
482.166	2684.9
482.537	2727.16
482.908	2759.48
483.279	2757.67
483.65	2795.63
484.021	2852.35
484.391	2862.75
484.762	2883.09
485.133	2862.3
485.503	2925.35
485.874	2986.59
486.244	2968.06
486.615	3041.05
486.985	3021.39
487.356	3038.56
487.726	3108.39
488.097	3126.47
488.467	3149.75
488.837	3186.81
489.207	3233.36
489.578	3225.23
489.948	3240.59
490.318	3258.67
490.688	3303.87
491.058	3355.62
491.428	3324.88
491.798	3373.02
492.168	3420.02
492.538	3435.39
492.908	3463.86
493.278	3446.01
493.648	3497.31
494.017	3512
494.387	3510.64
494.757	3576.63
495.126	3594.26
495.496	3548.16
495.866	3622.28
496.235	3603.97
496.605	3658.43
496.974	3688.04
497.344	3691.2
497.713	3689.62
498.082	3741.14
498.452	3711.31
498.821	3712.22
499.19	3712.44
499.559	3729.17
499.928	3760.13
500.298	3779.34
500.667	3836.74
501.036	3804.87
501.405	3849.84
501.774	3810.75
502.143	3853.01
502.512	3809.84
502.88	3857.07
503.249	3880.35
503.618	3888.03
503.987	3916.96
504.356	3910.86
504.724	3991.08
505.093	3951.99
505.462	3964.42
505.83	4009.61
506.199	3960.12
506.567	3989.5
506.936	4031.31
507.304	4060.91
507.672	4066.33
508.041	4025.43
508.409	4076.05
508.777	4058.88
509.145	4078.76
509.514	4109.04
509.882	4111.98
510.25	4121.93
510.618	4136.39
510.986	4130.96
511.354	4160.79
511.722	4182.71
512.09	4219.55
512.458	4259.32
512.826	4232.43
513.193	4232.66
513.561	4244.41
513.929	4239.21
514.297	4251.87
514.664	4315.82
515.032	4296.61
515.4	4333.22
515.767	4315.14
516.135	4294.8
516.502	4307.23
516.869	4363.73
517.237	4328.25
517.604	4377.96
517.972	4403.5
518.339	4372.77
518.706	4390.39
519.073	4404.63
519.44	4397.4
519.808	4441.01
520.175	4400.56
520.542	4430.39
520.909	4434.91
521.276	4473.78
521.643	4455.25
522.009	4448.47
522.376	4542.25
522.743	4545.64
523.11	4589.94
523.477	4624.29
523.843	4621.35
524.21	4654.11
524.577	4655.7
524.943	4642.59
525.31	4676.26
525.676	4748.8
526.043	4721.46
526.409	4764.17
526.776	4794.45
527.142	4771.4
527.508	4815.24
527.874	4827.67
528.241	4875.13
528.607	4859.76
528.973	4881.68
529.339	4922.58
529.705	4979.53
530.071	4970.04
530.437	4991.51
530.803	4982.69
531.169	5038.74
531.535	5018.17
531.901	5014.56
532.267	5070.38
532.632	5109.02
532.998	5122.8
533.364	5133.2
533.73	5121.45
534.095	5179.98
534.461	5236.47
534.826	5221.78
535.192	5219.3
535.557	5291.84
535.923	5275.79
536.288	5306.08
536.653	5307.88
537.019	5311.95
537.384	5381.78
537.749	5336.13
538.114	5377.94
538.479	5457.48
538.845	5465.84
539.21	5389.91
539.575	5471.72
539.94	5477.82
540.305	5520.53
540.67	5511.49
541.034	5604.37
541.399	5564.37
541.764	5595.33
542.129	5635.56
542.494	5632.39
542.858	5697.25
543.223	5705.84
543.587	5717.82
543.952	5738.15
544.316	5788.55
544.681	5760.3
545.045	5815.21
545.41	5862.44
545.774	5867.87
546.138	5825.61
546.503	5862.44
546.867	5879.39
547.231	5909.9
547.595	5924.82
547.959	5948.32
548.324	5956.68
548.688	5983.35
549.052	6059.28
549.416	6044.36
549.779	6045.94
550.143	6080.52
550.507	6184.7
550.871	6120.07
551.235	6099.27
551.599	6178.14
551.962	6164.36
552.326	6150.12
552.689	6174.98
553.053	6228.99
553.417	6265.6
553.78	6325.94
554.143	6311.92
554.507	6317.8
554.87	6317.57
555.234	6357.35
555.597	6356.22
555.96	6342.88
556.323	6388.08
556.686	6412.49
557.05	6460.4
557.413	6447.06
557.776	6443.67
558.139	6457.46
558.502	6512.37
558.865	6468.76
559.228	6538.13
559.59	6539.49
559.953	6579.94
560.316	6661.52
560.679	6681.18
561.041	6646.83
561.404	6715.76
561.767	6689.77
562.129	6652.93
562.492	6748.3
562.854	6788.07
563.217	6733.83
563.579	6741.29
563.941	6790.1
564.304	6830.78
564.666	6895.19
565.028	6849.76
565.39	6930.44
565.753	6910.33
566.115	6953.94
566.477	6956.2
566.839	6962.98
567.201	6990.1
567.563	7064.45
567.925	7070.32
568.287	7110.55
568.648	7089.98
569.01	7145.8
569.372	7186.03
569.734	7191
570.095	7223.76
570.457	7337.89
570.819	7245.91
571.18	7310.77
571.542	7439.35
571.903	7410.88
572.265	7474.61
572.626	7480.48
572.987	7494.72
573.349	7577.2
573.71	7613.81
574.071	7659.91
574.432	7762.73
574.794	7825.78
575.155	7831.43
575.516	7906.23
575.877	7916.63
576.238	7934.25
576.599	8101.03
576.96	8149.62
577.32	8235.04
577.681	8309.84
578.042	8438.65
578.403	8488.59
578.763	8522.71
579.124	8717.51
579.485	8799.77
579.845	8909.82
580.206	8900.56
580.566	9082.02
580.927	9214.67
581.287	9370.38
581.648	9406.53
582.008	9654.44
582.368	9747.09
582.728	9958.83
583.089	10093.29
583.449	10245.61
583.809	10426.62
584.169	10630.23
584.529	10751.58
584.889	11034.74
585.249	11122.87
585.609	11352.24
585.969	11646.7
586.329	11822.29
586.688	12013.92
587.048	12319.9
587.408	12495.04
587.768	12707.46
588.127	12954.91
588.487	13149.48
588.846	13491.17
589.206	13746.53
589.565	13996.69
589.925	14220.42
590.284	14521.2
590.643	14694.08
591.003	15040.28
591.362	15364.79
591.721	15616.99
592.08	15924.33
592.44	16302.4
592.799	16601.6
593.158	16855.83
593.517	17195.25
593.876	17487.68
594.235	17747.78
594.593	18058.06
594.952	18414.43
595.311	18588.44
595.67	19013.29
596.029	19390.9
596.387	19665.25
596.746	20114.5
597.104	20201.05
597.463	20541.38
597.822	20933.23
598.18	21010.3
598.538	21467.23
598.897	21722.59
599.255	21884.17
599.613	22603.93
599.972	22711.95
600.33	23031.71
600.688	23248.2
601.046	23651.13
601.404	23916.66
601.762	24159.36
602.12	24583.76
602.478	24850.65
602.836	25055.16
603.194	25175.61
603.552	25604.3
603.91	25702.83
604.268	25976.72
604.625	26238.41
604.983	26732.86
605.341	26832.29
605.698	27118.38
606.056	27405.38
606.413	27611.93
606.771	27953.62
607.128	28176.43
607.485	28265.25
607.843	28501.17
608.2	28914.27
608.557	29110.2
608.914	29339.57
609.272	29586.79
609.629	29852.55
609.986	30094.58
610.343	30090.96
610.7	30649.36
611.057	30763.03
611.414	30881.9
611.771	30981.11
612.127	31478.04
612.484	31589.45
612.841	31671.71
613.198	31890.46
613.554	32119.16
613.911	32341.97
614.267	32574.28
614.624	32595.98
614.98	32812.92
615.337	33068.96
615.693	33210.43
616.05	33224.89
616.406	33534.94
616.762	33687.93
617.118	33819.9
617.475	33964.76
617.831	34169.95
618.187	34390.51
618.543	34486.55
618.899	34699.88
619.255	34839.08
619.611	34926.77
619.967	34919.08
620.323	35152.07
620.678	35192.07
621.034	35289.47
621.39	35398.62
621.746	35554.09
622.101	35930.13
622.457	35731.26
622.812	35788.21
623.168	36081.31
623.523	36168.99
623.879	36352.49
624.234	36134.87
624.589	36455.09
624.945	36485.37
625.3	36517.23
625.655	36702.31
626.01	36716.32
626.365	36759.71
626.72	36811.69
627.075	36931.91
627.43	36971.91
627.785	36907.28
628.14	37080.61
628.495	37162.19
628.85	37138.46
629.205	37125.8
629.559	37400.37
629.914	37397.89
630.269	37465.91
630.623	37245.8
630.978	37245.12
631.332	37425
631.687	37322.86
632.041	37502.29
632.396	37498.45
632.75	37430.65
633.104	37311.34
633.459	37390.88
633.813	37455.51
634.167	37457.09
634.521	37446.02
634.875	37490.77
635.229	37512.23
635.583	37383.88
635.937	37500.71
636.291	37405.34
636.645	37632.91
636.999	37448.73
637.352	37735.28
637.706	37412.58
638.06	37629.29
638.413	37579.8
638.767	37550.43
639.121	37595.4
639.474	37288.96
639.828	37500.26
640.181	37633.36
640.534	37590.42
640.888	37441.28
641.241	37258.46
641.594	37390.88
641.947	37561.5
642.301	37499.8
642.654	37476.3
643.007	37438.34
643.36	37355.85
643.713	37342.97
644.066	37533.48
644.419	37317.66
644.771	37038.35
645.124	36725.14
645.477	36775.08
645.83	36542.77
646.182	36463.45
646.535	36374.86
646.888	36520.85
647.24	36249.44
647.593	36580.96
647.945	36549.32
648.298	36359.5
648.65	36251.7
649.002	36178.03
649.355	36290.57
649.707	36439.95
650.059	36400.62
650.411	36917.22
650.763	37010.55
651.115	37193.15
651.467	37216.42
651.819	37302.52
652.171	36978.46
652.523	36970.55
652.875	37048.52
653.227	36884.91
653.578	37214.84
653.93	37167.61
654.282	36882.65
654.633	36902.98
654.985	37020.5
655.337	37018.01
655.688	36933.94
656.039	37125.35
656.391	36819.37
656.742	36960.38
657.094	36825.25
657.445	37052.59
657.796	36933.72
658.147	36855.53
658.498	36936.88
658.849	36960.38
659.2	36903.66
659.551	36690.79
659.902	36995.41
660.253	36820.5
660.604	36941.18
660.955	36732.37
661.306	36917.45
661.656	36841.97
662.007	36840.84
662.358	36856.21
662.708	36789.99
663.059	36865.92
663.409	36626.83
663.76	36816.89
664.11	36861.4
664.461	36921.97
664.811	36911.8
665.161	36903.21
665.511	36721.97
665.862	36755.87
666.212	36834.51
666.562	36847.62
666.912	36812.14
667.262	36741.18
667.612	36692.82
667.962	36773.95
668.312	36758.13
668.662	36989.99
669.011	36682.43
669.361	36682.88
669.711	36740.5
670.06	36547.29
670.41	36570.11
670.76	36660.73
671.109	36629.09
671.459	36620.96
671.808	36561.52
672.157	36566.04
672.507	36430.45
672.856	36452.37
673.205	36494.41
673.554	36656.89
673.904	36476.56
674.253	36694.85
674.602	36557.23
674.951	35996.34
675.3	35876.57
675.649	36422.55
675.998	36383.22
676.346	36319.05
676.695	36505.71
677.044	36218.26
677.393	36345.49
677.741	36381.19
678.09	36302.77
678.438	36297.8
678.787	36265.49
679.135	36222.78
679.484	36062.33
679.832	36164.02
680.181	35906.4
680.529	36098.49
680.877	36037.02
681.225	35861.43
681.573	36133.29
681.922	35851.71
682.27	35879.73
682.618	35829.11
682.966	35671.83
683.314	35851.49
683.661	35625.05
684.009	35474.55
684.357	35506.19
684.705	35504.83
685.053	35535.79
685.4	35437.26
685.748	35337.6
686.095	35172.41
686.443	35224.16
686.79	35061
687.138	35185.29
687.485	35102.35
687.832	34981.91
688.18	35072.3
688.527	34814.68
688.874	34745.3
689.221	34721.12
689.568	34674.57
689.915	34517.96
690.262	34537.62
690.609	34443.16
690.956	34410.85
691.303	34260.34
691.65	34105.32
691.997	34148.93
692.344	33958.2
692.69	34112.55
693.037	34092.21
693.383	33826.23
693.73	33870.07
694.077	33704.88
694.423	33747.59
694.769	33535.84
695.116	33520.02
695.462	33545.11
695.808	33412.68
696.155	33330.65
696.501	33063.54
696.847	33106.25
697.193	32962.07
697.539	33028.06
697.885	32789.42
698.231	32722.98
698.577	32778.12
698.923	32558.69
699.269	32459.71
699.614	32312.37
699.96	32277.57
700.306	32337.91
700.651	32172.71
700.997	32050.46
701.342	31954.41
701.688	31961.87
702.033	31898.14
702.379	31804.36
702.724	31611.15
703.069	31806.85
703.415	31449.57
703.76	31420.42
704.105	31487.99
704.45	31367.54
704.795	31172.06
705.14	31161.67
705.485	31090.48
705.83	31067.88
706.175	31007.32
706.52	30945.63
706.865	30827.66
707.209	30803.71
707.554	30788.12
707.899	30721.45
708.243	30561.23
708.588	30624.73
708.932	30340.9
709.277	30370.27
709.621	30431.06
709.966	30119.66
710.31	30179.77
710.654	30071.3
710.998	30046.44
711.342	29935.26
711.687	29971.64
712.031	29825.66
712.375	29751.53
712.719	29655.94
713.063	29734.13
713.407	29789.95
713.75	29539.56
714.094	29639.45
714.438	29416.18
714.782	29569.39
715.125	29362.39
715.469	29252.34
715.812	29240.36
716.156	29117.43
716.499	29079.24
716.843	29096.18
717.186	29073.13
717.53	28993.14
717.873	29094.83
718.216	29016.41
718.559	28796.76
718.902	28670.66
719.246	28612.58
719.589	28674.95
719.932	28516.76
720.275	28508.63
720.617	28502.75
720.96	28380.95
721.303	28479.7
721.646	28533.49
721.989	28253.04
722.331	28340.27
722.674	28178.02
723.016	28347.28
723.359	28240.84
723.701	28220.05
724.044	28010.34
724.386	27909.1
724.729	28103.44
725.071	27926.5
725.413	27831.81
725.755	27778.7
726.097	27732.15
726.439	27597.01
726.782	27708.2
727.124	27734.41
727.465	27686.05
727.807	27578.71
728.149	27481.99
728.491	27570.8
728.833	27496.9
729.175	27494.64
729.516	27434.08
729.858	27349.79
730.199	27324.93
730.541	27301.43
730.882	27191.38
731.224	27260.98
731.565	27140.08
731.906	27246.52
732.248	27020.98
732.589	26990.93
732.93	26910.7
733.271	26912.74
733.612	27020.53
733.953	27044.26
734.294	26898.5
734.635	26875
734.976	26857.82
735.317	26670.03
735.658	26691.73
735.999	26823.93
736.339	26738.96
736.68	26655.8
737.021	26649.24
737.361	26524.95
737.702	26581.9
738.042	26591.84
738.383	26541.22
738.723	26480.66
739.063	26422.13
739.404	26344.39
739.744	26383.26
740.084	26244.51
740.424	26317.73
740.764	26250.61
741.104	26221.23
741.444	26227.11
741.784	26082.48
742.124	26141.46
742.464	26145.75
742.804	26055.36
743.143	26007.45
743.483	26014.01
743.823	25855.14
744.162	25811.3
744.502	25874.57
744.841	25766.1
745.181	25892.2
745.52	25769.04
745.86	25851.3
746.199	25910.96
746.538	25693.79
746.877	25776.5
747.216	25699.21
747.556	25543.06
747.895	25721.13
748.234	25485.88
748.573	25527.92
748.911	25515.71
749.25	25385.77
749.589	25366.11
749.928	25547.58
750.267	25473
750.605	25437.07
750.944	25177.19
751.283	25267.36
751.621	25283.63
751.96	25173.12
752.298	25178.32
752.636	25089.28
752.975	25103.07
753.313	25045.22
753.651	25125.67
753.989	24975.16
754.327	25001.83
754.666	24757.32
755.004	24811.1
755.342	24848.61
755.679	24836.18
756.017	24656.53
756.355	24758.67
756.693	24653.36
757.031	24744.89
757.368	24543.54
757.706	24489.07
758.044	24371.56
758.381	24462.18
758.719	24409.53
759.056	24441.84
759.394	24348.96
759.731	24151.91
760.068	24202.08
760.405	23991.46
760.743	23971.35
761.08	24169.76
761.417	23986.49
761.754	23890.22
762.091	23812.48
762.428	23709.43
762.765	23631.24
763.102	23684.35
763.438	23521.87
763.775	23424.69
764.112	23581.3
764.449	23533.39
764.785	23401.19
765.122	23381.08
765.458	23116.91
765.795	23172.05
766.131	23076.23
766.467	22992.39
766.804	23020.86
767.14	22753.07
767.476	22921.88
767.812	22667.65
768.148	22722.57
768.485	22602.8
768.821	22566.41
769.157	22539.97
769.492	22350.15
769.828	22419.52
770.164	22156.93
770.5	22181.11
770.836	22149.7
771.171	22011.4
771.507	21947.22
771.842	21925.3
772.178	21831.06
772.513	21855.47
772.849	21761.24
773.184	21595.59
773.519	21590.84
773.855	21541.58
774.19	21362.15
774.525	21318.08
774.86	21307.69
775.195	21270.85
775.53	21215.26
775.865	21071.31
776.2	20879.68
776.535	20794.26
776.87	20866.57
777.205	20687.14
777.539	20632.23
777.874	20611.66
778.209	20473.81
778.543	20380.26
778.878	20342.06
779.212	20329.86
779.547	20188.62
779.881	20204.44
780.215	20043.99
780.55	20166.02
780.884	19892.36
781.218	19960.83
781.552	19877.9
781.886	19802.87
782.22	19740.95
782.554	19613.72
782.888	19523.1
783.222	19381.86
783.556	19292.6
783.889	19233.39
784.223	19154.07
784.557	19106.62
784.89	19119.05
785.224	18987.75
785.557	18913.18
785.891	18884.93
786.224	18832.05
786.558	18761.99
786.891	18655.55
787.224	18683.8
787.557	18501.66
787.891	18452.17
788.224	18517.03
788.557	18454.88
788.89	18388.67
789.223	18330.59
789.556	18206.98
789.888	18241.78
790.221	18112.74
790.554	17920.43
790.887	17992.3
791.219	17857.84
791.552	17755.69
791.884	17771.28
792.217	17711.85
792.549	17646.32
792.882	17568.13
793.214	17483.16
793.546	17411.07
793.879	17323.39
794.211	17265.53
794.543	17299.21
794.875	17202.49
795.207	17234.58
795.539	17150.96
795.871	17157.06
796.203	16988.93
796.535	16946.45
796.867	16824.42
797.198	16833.68
797.53	16783.06
797.862	16727.02
798.193	16691.31
798.525	16620.35
798.856	16523.86
799.188	16459
799.519	16369.51
799.85	16306.24
800.182	16430.3
800.513	16315.73
800.844	16151.89
801.175	16247.71
801.506	16254.94
801.837	16139.24
802.168	16034.83
802.499	16064.21
802.83	15982.18
803.161	15907.38
803.491	15890.66
803.822	15891.56
804.153	15780.15
804.483	15745.57
804.814	15653.83
805.145	15595.97
805.475	15611.57
805.805	15461.97
806.136	15484.34
806.466	15537.44
806.796	15469.65
807.126	15255.64
807.457	15312.59
807.787	15280.73
808.117	15235.76
808.447	15120.73
808.777	15267.4
809.107	15131.58
809.436	14981.98
809.766	15116.66
810.096	14928.87
810.426	14932.26
810.755	14952.15
811.085	14799.16
811.414	14893.17
811.744	14704.92
812.073	14787.18
812.403	14786.05
812.732	14650.46
813.061	14535.21
813.39	14561.65
813.719	14556.68
814.049	14562.55
814.378	14470.35
814.707	14444.37
815.036	14447.76
815.365	14361.88
815.693	14261.32
816.022	14268.55
816.351	14282.11
816.68	14177.93
817.008	14174.09
817.337	14065.62
817.665	14038.73
817.994	14055.45
818.322	14082.12
818.651	13931.39
818.979	13904.49
819.307	13971.61
819.636	13923.48
819.964	13807.55
820.292	13901.56
820.62	13838.73
820.948	13775.46
821.276	13877.15
821.604	13698.85
821.932	13768.68
822.259	13811.39
822.587	13748.57
822.915	13692.97
823.243	13738.4
823.57	13668.34
823.898	13837.38
824.225	13674.89
824.553	13739.07
824.88	13732.75
825.207	13652.07
825.535	13677.83
825.862	13802.57
826.189	13655.01
826.516	13704.05
826.843	13780.43
827.17	13704.05
827.497	13757.6
827.824	13697.72
828.151	13784.72
828.478	13716.02
828.805	13808
829.131	13728.68
829.458	13727.1
829.785	13581.34
830.111	13671.05
830.438	13752.86
830.764	13657.49
831.09	13682.8
831.417	13602.81
831.743	13645.29
832.069	13681.45
832.395	13632.64
832.722	13621.34
833.048	13584.73
833.374	13608.68
833.7	13530.72
834.026	13541.56
834.351	13627.66
834.677	13419.31
835.003	13565.07
835.329	13504.73
835.654	13528.01
835.98	13368.46
836.306	13522.58
836.631	13381.34
836.956	13429.7
837.282	13389.03
837.607	13408.24
837.932	13248.92
838.258	13365.75
838.583	13324.62
838.908	13339.08
839.233	13294.34
839.558	13240.56
839.883	13184.06
840.208	13147
840.533	13223.38
840.858	13168.47
841.182	13228.58
841.507	13021.8
841.832	13052.31
842.156	12986.1
842.481	13112.65
842.805	12933.45
843.13	12951.3
843.454	12981.81
843.778	12928.93
844.103	12936.61
844.427	12779.32
844.751	12852.09
845.075	12852.32
845.399	12715.6
845.723	12604.64
846.047	12729.16
846.371	12585.66
846.695	12526.45
847.019	12457.75
847.343	12412.1
847.666	12281.48
847.99	12323.29
848.313	12349.05
848.637	12178.44
848.96	12212.33
849.284	12197.65
849.607	12071.77
849.931	12077.65
850.254	12057.76
850.577	11900.7
850.9	11830.88
851.223	11874.04
851.546	11747.71
851.869	11685.79
852.192	11760.14
852.515	11600.37
852.838	11555.4
853.161	11552.69
853.483	11502.07
853.806	11412.81
854.129	11377.78
854.451	11390.21
854.774	11280.83
855.096	11308.63
855.419	11308.18
855.741	11267.73
856.063	11187.95
856.385	11188.63
856.708	11161.06
857.03	11110.89
857.352	11110.22
857.674	11069.99
857.996	11057.56
858.318	10977.79
858.64	10967.85
858.961	10916.1
859.283	10895.31
859.605	10854.18
859.926	10879.71
860.248	10834.74
860.57	10814.18
860.891	10815.99
861.212	10738.02
861.534	10662.32
861.855	10705.93
862.176	10663.9
862.498	10687.18
862.819	10673.84
863.14	10596.56
863.461	10550.68
863.782	10588.42
864.103	10519.5
864.424	10452.61
864.745	10560.63
865.065	10505.26
865.386	10437.92
865.707	10460.52
866.027	10383.68
866.348	10392.04
866.668	10475.2
866.989	10456.22
867.309	10426.62
867.63	10395.66
867.95	10300.97
868.27	10269.79
868.59	10175.33
868.91	10192.73
869.23	10232.27
869.55	10157.7
869.87	10221.88
870.19	10242.22
870.51	10254.87
870.83	10206.51
871.15	10102.33
871.469	10125.61
871.789	10099.62
872.109	10112.73
872.428	10054.42
872.748	10033.18
873.067	10057.81
873.386	10024.14
873.706	10091.49
874.025	9989.34
874.344	9934.65
874.663	10002.67
874.982	9846.97
875.301	9881.1
875.62	9837.03
875.939	9846.07
876.258	9865.73
876.577	9884.71
876.896	9846.07
877.214	9804.71
877.533	9844.03
877.852	9764.04
878.17	9825.28
878.489	9739.63
878.807	9802.68
879.125	9734.21
879.444	9715.45
879.762	9637.03
880.08	9689.69
880.398	9566.08
880.716	9621.67
881.034	9568.11
881.352	9628.9
881.67	9535.12
881.988	9568.79
882.306	9534.66
882.624	9517.49
882.941	9411.96
883.259	9494.21
883.577	9446.08
883.894	9441.33
884.212	9395.23
884.529	9430.03
884.846	9314.11
885.164	9382.35
885.481	9334.67
885.798	9282.47
886.115	9298.29
886.432	9310.04
886.75	9241.34
887.067	9180.78
887.383	9248.12
887.7	9215.35
888.017	9158.4
888.334	9148.91
888.651	9102.13
888.967	9182.58
889.284	9049.25
889.6	9072.53
889.917	8921.12
890.233	8998.63
890.55	9018.75
890.866	8934.68
891.182	8927.9
891.498	8840.45
891.815	8845.87
892.131	8807.45
892.447	8830.28
892.763	8755.25
893.079	8728.58
893.395	8700.34
893.71	8619.21
894.026	8659.89
894.342	8658.53
894.657	8505.99
894.973	8621.69
895.289	8597.74
895.604	8535.82
895.92	8414.24
896.235	8430.51
896.55	8460.79
896.865	8428.25
897.181	8387.8
897.496	8419.44
897.811	8330.85
898.126	8334.24
898.441	8278.2
898.756	8209.95
899.071	8225.32
899.386	8188.71
899.7	8158.43
900.015	8148.03
900.33	8066.23
900.644	8010.86
900.959	8070.07
901.273	8049.51
901.588	7951.43
901.902	7951.43
902.216	7927.02
902.531	7922.28
902.845	7842.28
903.159	7806.12
903.473	7789.85
903.787	7770.42
904.101	7735.39
904.415	7727.25
904.729	7664.43
905.042	7643.64
905.356	7568.61
905.67	7560.48
905.984	7620.82
906.297	7541.72
906.611	7534.49
906.924	7459.01
907.237	7434.15
907.551	7425.79
907.864	7457.43
908.177	7450.88
908.491	7362.07
908.804	7333.59
909.117	7273.71
909.43	7270.77
909.743	7157.33
910.056	7225.57
910.368	7180.6
910.681	7122.3
910.994	7146.48
911.307	7104.9
911.619	7036.65
911.932	7028.29
912.244	6929.31
912.557	6975.86
912.869	6904.23
913.181	6953.94
913.494	6897.9
913.806	6853.83
914.118	6841.18
914.43	6751.01
914.742	6695.42
915.054	6698.81
915.366	6690.22
915.678	6701.52
915.99	6658.13
916.302	6609.32
916.613	6557.34
916.925	6566.16
917.236	6530.9
917.548	6530.45
917.859	6507.17
918.171	6479.38
918.482	6423.33
918.794	6430.57
919.105	6468.08
919.416	6350.57
919.727	6330.23
920.038	6284.58
920.349	6293.62
920.66	6224.92
920.971	6207.29
921.282	6219.27
921.593	6151.25
921.903	6139.27
922.214	6122.32
922.525	6063.57
922.835	6024.02
923.146	6009.56
923.456	6006.85
923.767	6001.2
924.077	5971.82
924.387	5940.18
924.697	5898.6
925.008	5882.56
925.318	5859.51
925.628	5828.55
925.938	5806.18
926.248	5724.82
926.558	5760.53
926.867	5700.42
927.177	5708.55
927.487	5669.23
927.796	5648.89
928.106	5671.72
928.416	5589.68
928.725	5592.17
929.034	5553.75
929.344	5549.91
929.653	5586.97
929.962	5493.64
930.271	5468.33
930.581	5385.17
930.89	5424.49
931.199	5402.34
931.508	5403.93
931.817	5379.29
932.125	5353.53
932.434	5335.23
932.743	5260.65
933.051	5312.18
933.36	5278.96
933.669	5199.19
933.977	5177.04
934.286	5191.05
934.594	5162.58
934.902	5123.48
935.21	5089.81
935.519	5107.66
935.827	5016.59
936.135	5019.3
936.443	5050.71
936.751	4989.93
937.059	5007.78
937.367	5001.45
937.674	4940.21
937.982	4962.36
938.29	4912.87
938.597	4886.43
938.905	4848.91
939.213	4829.93
939.52	4794
939.827	4805.3
940.135	4759.65
940.442	4760.33
940.749	4776.6
941.056	4758.29
941.363	4688.46
941.67	4686.88
941.977	4658.18
942.284	4618.64
942.591	4634.45
942.898	4580.44
943.205	4562.37
943.511	4576.38
943.818	4514.23
944.125	4527.11
944.431	4465.19
944.738	4484.4
945.044	4484.63
945.35	4467
945.657	4361.69
945.963	4417.51
946.269	4396.27
946.575	4382.71
946.881	4322.6
947.187	4342.48
947.493	4285.99
947.799	4216.16
948.105	4265.88
948.41	4217.74
948.716	4285.54
949.022	4176.61
949.327	4222.49
949.633	4166.44
949.938	4150.4
950.244	4156.73
950.549	4077.63
950.854	4076.05
951.16	4074.24
951.465	4080.57
951.77	4017.3
952.075	4056.62
952.38	3992.66
952.685	3952.89
952.99	3945.21
953.294	3971.42
953.599	3928.71
953.904	3896.17
954.209	3916.51
954.513	3889.62
954.818	3876.06
955.122	3851.42
955.426	3866.57
955.731	3863.4
956.035	3787.92
956.339	3809.17
956.643	3789.05
956.948	3782.5
957.252	3748.15
957.556	3754.48
957.86	3700.69
958.163	3700.24
958.467	3692.33
958.771	3685.55
959.075	3632.45
959.378	3610.3
959.682	3647.81
959.985	3607.81
960.289	3593.13
960.592	3568.72
960.896	3556.06
961.199	3559.68
961.502	3538.89
961.805	3510.64
962.108	3469.51
962.411	3491.21
962.714	3465.22
963.017	3413.47
963.32	3462.06
963.623	3407.59
963.926	3479
964.228	3394.26
964.531	3380.02
964.833	3375.96
965.136	3319.69
965.438	3349.97
965.741	3296.86
966.043	3328.27
966.345	3264.55
966.648	3250.99
966.95	3312.68
967.252	3199.24
967.554	3216.64
967.856	3199.24
968.158	3218.22
968.46	3183.65
968.761	3163.76
969.063	3206.7
969.365	3124.44
969.666	3125.57
969.968	3082.86
970.269	3108.62
970.571	3112.01
970.872	3069.07
971.174	3058.68
971.475	3044.67
971.776	3085.34
972.077	3014.61
972.378	3040.15
972.679	2990.43
972.98	2998.11
973.281	2980.26
973.582	2931.45
973.883	2933.26
974.183	2952.01
974.484	2905.01
974.785	2904.56
975.085	2876.53
975.386	2887.61
975.686	2889.87
975.986	2853.48
976.287	2825.24
976.587	2813.26
976.887	2850.77
977.187	2797.44
977.487	2827.04
977.787	2774.62
978.087	2752.7
978.387	2708.4
978.687	2756.99
978.987	2742.3
979.286	2744.11
979.586	2709.08
979.885	2691
980.185	2676.54
980.484	2670.66
980.784	2628.18
981.083	2682.87
981.382	2616.43
981.682	2596.77
981.981	2588.41
982.28	2588.41
982.579	2585.92
982.878	2566.03
983.177	2587.5
983.475	2557.45
983.774	2539.14
984.073	2543.21
984.372	2488.52
984.67	2525.81
984.969	2510.67
985.267	2516.77
985.566	2497.34
985.864	2431.35
986.162	2484.23
986.461	2434.29
986.759	2432.48
987.057	2441.29
987.355	2421.86
987.653	2423.67
987.951	2390.67
988.249	2399.48
988.547	2365.36
988.844	2323.33
989.142	2326.49
989.44	2324.91
989.737	2304.35
990.035	2306.61
990.332	2296.89
990.63	2328.3
990.927	2251.69
991.224	2283.33
991.521	2285.82
991.819	2273.84
992.116	2227.96
992.413	2258.02
992.71	2223.44
993.006	2204.24
993.303	2203.78
993.6	2219.38
993.897	2147.29
994.193	2129.21
994.49	2212.6
994.787	2172.6
995.083	2171.02
995.379	2132.6
995.676	2131.02
995.972	2121.98
996.268	2123.56
996.565	2092.37
996.861	2080.17
997.157	2082.43
997.453	2070.91
997.749	2052.15
998.044	2027.74
998.34	2027.74
998.636	1985.48
998.932	2025.71
999.227	2034.75
999.523	1986.84
999.818	1971.25
1000.114	1973.96
1000.409	1943.23
1000.704	1931.47
1001	1936.45
1001.295	1931.02
1001.59	1903.23
1001.885	1907.07
1002.18	1874.08
1002.475	1835.88
1002.77	1873.62
1003.065	1833.17
1003.359	1837.69
1003.654	1848.76
1003.949	1806.96
1004.243	1813.06
1004.538	1808.99
1004.832	1811.48
1005.127	1800.18
1005.421	1788.88
1005.715	1793.4
1006.009	1775.55
1006.304	1740.97
1006.598	1765.83
1006.892	1738.71
1007.186	1703.23
1007.48	1729.45
1007.773	1734.87
1008.067	1705.27
1008.361	1712.27
1008.655	1677.02
1008.948	1662.56
1009.242	1658.49
1009.535	1660.52
1009.829	1649
1010.122	1653.97
1010.415	1638.6
1010.708	1642.89
1011.001	1613.29
1011.295	1572.61
1011.588	1589.56
1011.881	1569.22
1012.173	1571.71
1012.466	1544.82
1012.759	1568.55
1013.052	1543.24
1013.344	1543.91
1013.637	1511.37
1013.93	1533.07
1014.222	1514.54
1014.514	1504.14
1014.807	1494.88
1015.099	1507.53
1015.391	1471.6
1015.683	1476.8
1015.976	1485.16
1016.268	1445.16
1016.56	1394.54
1016.851	1419.17
1017.143	1421.88
1017.435	1437.02
1017.727	1408.55
1018.018	1425.73
1018.31	1424.14
1018.602	1367.42
1018.893	1377.82
1019.185	1338.27
1019.476	1366.97
1019.767	1359.29
1020.058	1338.27
1020.35	1342.79
1020.641	1316.35
1020.932	1314.09
1021.223	1313.86
1021.514	1296.24
1021.804	1228.22
1022.095	1286.97
1022.386	1282.68
1022.677	1269.57
1022.967	1249.91
1023.258	1242.23
1023.548	1240.19
1023.839	1253.07
1024.129	1218.5
1024.419	1233.87
1024.709	1227.09
1025	1175.34
1025.29	1172.62
1025.58	1159.07
1025.87	1185.28
1026.16	1152.29
1026.449	1117.03
1026.739	1147.54
1027.029	1138.73
1027.319	1123.13
1027.608	1141.89
1027.898	1129.01
1028.187	1117.48
1028.477	1080.2
1028.766	1130.14
1029.055	1090.14
1029.344	1085.85
1029.634	1102.34
1029.923	1077.71
1030.212	1044.27
1030.501	1048.11
1030.79	1040.65
1031.078	1040.88
1031.367	1036.81
1031.656	1025.06
1031.945	1063.93
1032.233	1034.32
1032.522	1029.8
1032.81	1019.86
1033.099	976.25
1033.387	1003.14
1033.675	997.49
1033.963	977.15
1034.251	989.35
1034.54	961.33
1034.828	954.55
1035.116	956.36
1035.403	945.51
1035.691	959.07
1035.979	945.06
1036.267	934.21
1036.554	929.47
1036.842	922.69
1037.129	914.55
1037.417	923.82
1037.704	916.81
1037.992	931.95
1038.279	891.5
1038.566	908.9
1038.853	908.9
1039.14	908.9
