Data from hue_210_FLMS001491_00041.txt Node
Date: Tue Feb 07 16:41:14 GMT 2017
User: dcchb
Spectrometer: FLMS00149
Trigger mode: 0
Integration Time (sec): 2.000000E-2
Scans to average: 10
Electric dark correction enabled: true
Nonlinearity correction enabled: false
Boxcar width: 0
XAxis mode: Wavelengths
Number of Pixels in Spectrum: 2048
>>>>>Begin Spectral Data<<<<<
341.393	-15.78
341.776	-15.78
342.16	-15.78
342.543	-79.28
342.927	-61.42
343.31	-72.95
343.693	-76.57
344.077	-81.54
344.46	-67.53
344.843	-57.13
345.226	-50.58
345.61	-29.56
345.993	-18.49
346.376	-1.99
346.759	7.95
347.142	37.33
347.525	54.05
347.908	72.81
348.291	63.09
348.674	103.99
349.057	117.1
349.44	134.5
349.823	150.77
350.206	154.84
350.588	196.2
350.971	204.33
351.354	213.37
351.737	230.77
352.119	233.93
352.502	278.45
352.884	257.89
353.267	269.19
353.65	272.13
354.032	300.37
354.414	309.19
354.797	324.55
355.179	305.8
355.562	327.72
355.944	318.45
356.326	325.46
356.709	329.3
357.091	322.75
357.473	331.11
357.855	319.36
358.238	327.72
358.62	343.99
359.002	320.03
359.384	330.88
359.766	308.28
360.148	344.44
360.53	318.23
360.912	330.2
361.294	346.47
361.676	336.08
362.057	338.34
362.439	339.69
362.821	318.68
363.203	320.26
363.584	324.78
363.966	319.81
364.348	315.06
364.729	322.29
365.111	325.46
365.493	325.01
365.874	309.64
366.256	309.86
366.637	311.67
367.019	284.33
367.4	319.13
367.781	319.36
368.163	309.41
368.544	306.7
368.925	336.08
369.306	292.92
369.688	330.43
370.069	296.53
370.45	299.02
370.831	316.64
371.212	315.51
371.593	304.44
371.974	318
372.355	289.3
372.736	301.5
373.117	305.12
373.498	304.22
373.879	295.85
374.26	303.09
374.641	325.91
375.021	301.05
375.402	316.19
375.783	311.9
376.163	343.31
376.544	335.85
376.925	332.69
377.305	313.48
377.686	317.32
378.066	325.46
378.447	301.5
378.827	319.13
379.208	319.58
379.588	319.81
379.968	308.51
380.349	336.98
380.729	346.02
381.109	350.77
381.489	332.24
381.87	323.88
382.25	337.66
382.63	340.82
383.01	331.11
383.39	344.44
383.77	336.08
384.15	350.09
384.53	347.15
384.91	333.59
385.29	327.04
385.67	359.13
386.049	364.55
386.429	351.45
386.809	350.77
387.189	344.67
387.568	342.41
387.948	347.6
388.328	353.93
388.707	354.38
389.087	360.48
389.466	365.23
389.846	345.34
390.225	362.74
390.605	349.19
390.984	361.84
391.363	359.58
391.743	364.55
392.122	352.58
392.501	365.91
392.881	361.39
393.26	384.21
393.639	383.08
394.018	377.89
394.397	388.73
394.776	380.37
395.155	383.31
395.534	389.41
395.913	391.67
396.292	393.48
396.671	367.49
397.05	372.46
397.429	399.58
397.808	390.77
398.186	395.29
398.565	386.25
398.944	390.09
399.323	408.17
399.701	417.43
400.08	387.15
400.458	405.46
400.837	442.29
401.215	404.78
401.594	416.08
401.972	412.91
402.351	416.75
402.729	423.31
403.107	411.11
403.486	436.42
403.864	423.53
404.242	436.42
404.62	430.31
404.999	440.71
405.377	455.62
405.755	451.1
406.133	452.91
406.511	463.31
406.889	465.11
407.267	478.67
407.645	488.17
408.023	478.45
408.401	481.84
408.779	489.75
409.156	472.12
409.534	509.63
409.912	499.01
410.29	546.69
410.667	522.06
411.045	535.85
411.422	550.76
411.8	557.77
412.178	554.6
412.555	554.38
412.933	575.85
413.31	591.44
413.687	602.51
414.065	607.26
414.442	607.71
414.819	624.43
415.197	628.05
415.574	638.9
415.951	644.32
416.328	629.63
416.705	639.35
417.082	659.46
417.46	641.16
417.837	683.41
418.214	681.15
418.591	683.64
418.967	719.57
419.344	704.66
419.721	716.63
420.098	737.42
420.475	728.16
420.852	764.54
421.228	784.43
421.605	786.46
421.982	784.65
422.358	819.91
422.735	807.48
423.111	821.72
423.488	843.64
423.864	844.54
424.241	883.41
424.617	893.58
424.994	933.13
425.37	924.31
425.746	914.37
426.123	949.62
426.499	946.23
426.875	957.08
427.251	987.81
427.627	1004.54
428.003	1036.17
428.379	1016.51
428.756	1043.4
429.132	1048.38
429.507	1048.38
429.883	1064.2
430.259	1090.64
430.635	1101.48
431.011	1097.87
431.387	1114.36
431.763	1144.87
432.138	1148.71
432.514	1200.91
432.89	1233.91
433.265	1223.29
433.641	1235.26
434.016	1260.35
434.392	1284.53
434.767	1307.58
435.143	1351.42
435.518	1314.36
435.894	1346.22
436.269	1423.96
436.644	1417.86
437.02	1428.93
437.395	1465.09
437.77	1465.31
438.145	1531.08
438.52	1508.7
438.895	1568.36
439.271	1548.02
439.646	1604.52
440.021	1635.03
440.395	1650.17
440.77	1648.81
441.145	1691.52
441.52	1680.68
441.895	1717.29
442.27	1765.87
442.645	1795.7
443.019	1798.19
443.394	1810.62
443.769	1831.18
444.143	1799.77
444.518	1848.13
444.892	1840.22
445.267	1844.29
445.641	1870.95
446.016	1901.24
446.39	1931.07
446.764	1938.07
447.139	1950.5
447.513	1980.56
447.887	1969.03
448.262	1976.94
448.636	2015.58
449.01	2026.43
449.384	2062.14
449.758	2051.51
450.132	2098.07
450.506	2087.22
450.88	2116.14
451.254	2112.76
451.628	2142.58
452.002	2162.7
452.376	2210.15
452.75	2227.55
453.123	2224.84
453.497	2295.12
453.871	2289.25
454.244	2298.51
454.618	2349.13
454.992	2359.75
455.365	2398.4
455.739	2442.46
456.112	2440.66
456.486	2479.98
456.859	2495.8
457.232	2485.63
457.606	2508
457.979	2557.26
458.352	2588.9
458.725	2583.48
459.099	2643.81
459.472	2709.12
459.845	2699.18
460.218	2732.4
460.591	2766.52
460.964	2771.72
461.337	2823.47
461.71	2858.05
462.083	2904.82
462.456	2900.08
462.829	2940.98
463.201	2975.56
463.574	2967.42
463.947	3013.3
464.32	3082.22
464.692	3096.46
465.065	3129.68
465.438	3202.67
465.81	3232.27
466.183	3260.3
466.555	3311.59
466.928	3319.5
467.3	3331.48
467.672	3371.93
468.045	3458.71
468.417	3496.22
468.789	3463.68
469.161	3510.91
469.534	3551.59
469.906	3641.08
470.278	3662.32
470.65	3712.94
471.022	3751.36
471.394	3844.91
471.766	3834.29
472.138	3901.18
472.51	3971.24
472.882	3998.13
473.253	4051.91
473.625	4131.01
473.997	4155.41
474.369	4218.01
474.74	4221.63
475.112	4336.43
475.484	4366.93
475.855	4430.21
476.227	4449.42
476.598	4577.55
476.97	4636.08
477.341	4706.36
477.713	4755.17
478.084	4808.5
478.455	4934.38
478.827	4971.89
479.198	5081.72
479.569	5080.36
479.94	5206.69
480.311	5251.88
480.682	5321.03
481.053	5414.14
481.424	5518.54
481.795	5544.76
482.166	5590.18
482.537	5678.09
482.908	5758.54
483.279	5797.4
483.65	5909.04
484.021	5990.85
484.391	6064.29
484.762	6107.68
485.133	6159.43
485.503	6245.75
485.874	6367.56
486.244	6398.97
486.615	6472.19
486.985	6555.35
487.356	6699.53
487.726	6730.94
488.097	6830.6
488.467	6852.74
488.837	6969.35
489.207	7018.84
489.578	7100.65
489.948	7149.01
490.318	7244.6
490.688	7265.16
491.058	7344.71
491.428	7416.34
491.798	7524.59
492.168	7612.72
492.538	7652.72
492.908	7697.02
493.278	7858.14
493.648	7756.22
494.017	7882.1
494.387	7963.9
494.757	7981.53
495.126	8068.98
495.496	8115.76
495.866	8083.45
496.235	8221.52
496.605	8263.1
496.974	8302.2
497.344	8337.9
497.713	8426.49
498.082	8450.89
498.452	8479.82
498.821	8545.13
499.19	8499.93
499.559	8617.44
499.928	8649.53
500.298	8623.77
500.667	8741.73
501.036	8633.49
501.405	8696.54
501.774	8738.57
502.143	8820.6
502.512	8813.14
502.88	8866.7
503.249	8868.96
503.618	8924.78
503.987	8991.9
504.356	8963.42
504.724	9040.03
505.093	9011.56
505.462	9005.46
505.83	9055.17
506.199	9159.8
506.567	9202.74
506.936	9160.93
507.304	9211.1
507.672	9260.82
508.041	9261.95
508.409	9246.58
508.777	9433.69
509.145	9394.6
509.514	9336.97
509.882	9381.26
510.25	9416.97
510.618	9435.05
510.986	9406.8
511.354	9482.05
511.722	9542.16
512.09	9587.36
512.458	9501.94
512.826	9569.73
513.193	9584.88
513.561	9582.39
513.929	9649.05
514.297	9643.86
514.664	9657.19
515.032	9658.32
515.4	9720.46
515.767	9691.09
516.135	9753.46
516.502	9640.01
516.869	9728.15
517.237	9848.37
517.604	9749.62
517.972	9756.4
518.339	9802.72
518.706	9781.71
519.073	9764.76
519.44	9797.98
519.808	9835.94
520.175	9764.76
520.542	9877.97
520.909	9974.24
521.276	9871.87
521.643	9977.86
522.009	9873.23
522.376	9937.86
522.743	9918.88
523.11	9993.9
523.477	10046.78
523.843	10064.64
524.21	10075.26
524.577	10148.25
524.943	10072.32
525.31	10098.99
525.676	10190.51
526.043	10094.24
526.409	10068.25
526.776	10153.67
527.142	10146.22
527.508	10174.69
527.874	10124.75
528.241	10146.89
528.607	10076.84
528.973	10146.89
529.339	10171.75
529.705	10215.14
530.071	10252.43
530.437	10167.23
530.803	10208.59
531.169	10232.32
531.535	10157.29
531.901	10117.74
532.267	10160
532.632	10183.73
532.998	10088.14
533.364	10104.18
533.73	10074.81
534.095	10179.21
534.461	10017.63
534.826	10103.73
535.192	10059.66
535.557	10082.49
535.923	10097.18
536.288	9993.45
536.653	9975.37
537.019	9946.22
537.384	9980.12
537.749	9892.44
538.114	9924.3
538.479	9876.17
538.845	9792.33
539.21	9775.15
539.575	9765.89
539.94	9849.05
540.305	9774.02
540.67	9809.95
541.034	9805.89
541.399	9753.01
541.764	9694.48
542.129	9694.7
542.494	9644.99
542.858	9582.39
543.223	9640.47
543.587	9554.59
543.952	9579.9
544.316	9527.48
544.681	9507.81
545.045	9513.24
545.41	9516.18
545.774	9442.96
546.138	9445.67
546.503	9359.57
546.867	9310.08
547.231	9369.06
547.595	9374.94
547.959	9367.93
548.324	9293.81
548.688	9289.29
549.052	9192.12
549.416	9212.91
549.779	9141.5
550.143	9130.88
550.507	9150.31
550.871	9087.49
551.235	9104.66
551.599	9058.11
551.962	9071.44
552.326	8959.58
552.689	9032.12
553.053	8917.77
553.417	8883.2
553.78	8966.13
554.143	8871.22
554.507	8896.53
554.87	8883.65
555.234	8946.25
555.597	8918
555.96	8821.73
556.323	8813.37
556.686	8772.24
557.05	8873.71
557.413	8765.69
557.776	8741.73
558.139	8788.96
558.502	8770.89
558.865	8718.91
559.228	8781.96
559.59	8735.41
559.953	8715.75
560.316	8775.63
560.679	8748.29
561.041	8766.59
561.404	8779.7
561.767	8753.03
562.129	8697.89
562.492	8783.99
562.854	8754.61
563.217	8746.71
563.579	8715.75
563.941	8792.35
564.304	8750.77
564.666	8803.88
565.028	8772.02
565.39	8759.13
565.753	8713.03
566.115	8798.91
566.477	8826.02
566.839	8783.99
567.201	8838.68
567.563	8797.1
567.925	8857.44
568.287	8874.61
568.648	8824.67
569.01	8849.98
569.372	8861.5
569.734	8861.28
570.095	8881.84
570.457	8878.9
570.819	8934.95
571.18	8904.89
571.542	8889.53
571.903	8989.18
572.265	8910.32
572.626	8964.55
572.987	8988.05
573.349	8964.33
573.71	9042.74
574.071	9038
574.432	9007.49
574.794	9080.26
575.155	9072.57
575.516	9058.11
575.877	9052.01
576.238	9063.31
576.599	9035.96
576.96	9177.2
577.32	9102.4
577.681	9165.23
578.042	9163.19
578.403	9090.42
578.763	9146.69
579.124	9155.73
579.485	9154.6
579.845	9220.82
580.206	9178.78
580.566	9147.6
580.927	9143.76
581.287	9240.03
581.648	9217.2
582.008	9214.72
582.368	9225.56
582.728	9190.99
583.089	9297.43
583.449	9223.98
583.809	9280.25
584.169	9251.78
584.529	9303.07
584.889	9314.37
585.249	9272.11
585.609	9248.84
585.969	9316.18
586.329	9235.05
586.688	9353.24
587.048	9241.38
587.408	9331.55
587.768	9260.14
588.127	9251.1
588.487	9237.77
588.846	9357.54
589.206	9311.89
589.565	9323.87
589.925	9336.07
590.284	9284.09
590.643	9370.42
591.003	9317.99
591.362	9402.28
591.721	9351.21
592.08	9335.62
592.44	9351.89
592.799	9419.91
593.158	9286.8
593.517	9375.84
593.876	9423.3
594.235	9322.96
594.593	9340.14
594.952	9397.31
595.311	9339.01
595.67	9419.23
596.029	9462.84
596.387	9409.06
596.746	9406.8
597.104	9371.55
597.463	9336.75
597.822	9475.05
598.18	9355.73
598.538	9289.97
598.897	9399.34
599.255	9348.05
599.613	9447.93
599.972	9431.43
600.33	9403.64
600.688	9361.83
601.046	9464.88
601.404	9444.09
601.762	9402.73
602.12	9462.17
602.478	9488.83
602.836	9494.03
603.194	9419
603.552	9439.57
603.91	9417.87
604.268	9456.29
604.625	9393.69
604.983	9411.55
605.341	9392.56
605.698	9455.39
606.056	9467.14
606.413	9463.75
606.771	9464.2
607.128	9508.27
607.485	9475.05
607.843	9388.04
608.2	9512.79
608.557	9524.76
608.914	9466.69
609.272	9513.92
609.629	9536.06
609.986	9539
610.343	9526.35
610.7	9528.15
611.057	9530.64
611.414	9538.1
611.771	9593.91
612.127	9589.85
612.484	9544.65
612.841	9595.5
613.198	9559.79
613.554	9584.42
613.911	9601.82
614.267	9593.46
614.624	9625.1
614.98	9585.1
615.337	9633.91
615.693	9632.33
616.05	9633.46
616.406	9686.79
616.762	9598.21
617.118	9603.41
617.475	9587.36
617.831	9678.66
618.187	9710.07
618.543	9702.84
618.899	9734.93
619.255	9676.4
619.611	9690.64
619.967	9749.62
620.323	9753.91
620.678	9755.72
621.034	9630.52
621.39	9663.29
621.746	9688.15
622.101	9831.65
622.457	9680.01
622.812	9755.04
623.168	9721.82
623.523	9706.23
623.879	9755.94
624.234	9671.88
624.589	9681.6
624.945	9682.05
625.3	9716.62
625.655	9670.52
626.01	9676.85
626.365	9706.45
626.72	9659.45
627.075	9664.42
627.43	9668.26
627.785	9635.04
628.14	9629.17
628.495	9703.97
628.85	9691.99
629.205	9684.31
629.559	9679.34
629.914	9642.05
630.269	9670.07
630.623	9598.66
630.978	9611.32
631.332	9623.52
631.687	9617.64
632.041	9587.13
632.396	9601.6
632.75	9526.12
633.104	9516.85
633.459	9522.5
633.813	9519.79
634.167	9561.37
634.521	9547.36
634.875	9508.04
635.229	9498.1
635.583	9397.99
635.937	9475.27
636.291	9439.12
636.645	9372.23
636.999	9389.4
637.352	9381.49
637.706	9404.99
638.06	9436.18
638.413	9373.81
638.767	9366.35
639.121	9404.31
639.474	9352.34
639.828	9353.02
640.181	9337.2
640.534	9421.26
640.888	9337.65
641.241	9319.8
641.594	9305.33
641.947	9339.01
642.301	9265.11
642.654	9282.28
643.007	9235.73
643.36	9259.91
643.713	9279.8
644.066	9287.48
644.419	9239.8
644.771	9122.74
645.124	9078.67
645.477	9110.31
645.83	9097.2
646.182	9026.47
646.535	8982.86
646.888	8929.07
647.24	8929.98
647.593	8987.83
647.945	8975.17
648.298	8906.93
648.65	8888.17
649.002	8848.17
649.355	8943.54
649.707	8937.89
650.059	8942.86
650.411	9092.46
650.763	9085
651.115	9148.28
651.467	9129.75
651.819	9061.05
652.171	9136.98
652.523	9127.03
652.875	9071.22
653.227	9082.29
653.578	9122.97
653.93	9199.8
654.282	9126.36
654.633	9085.68
654.985	9122.06
655.337	9151.67
655.688	9112.35
656.039	9174.72
656.391	9049.75
656.742	9106.92
657.094	9114.15
657.445	9103.76
657.796	9094.94
658.147	9083.65
658.498	9105.79
658.849	9145.11
659.2	9085
659.551	9091.1
659.902	9158.45
660.253	9106.47
660.604	9150.08
660.955	9094.72
661.306	9109.63
661.656	9094.04
662.007	9133.36
662.358	9141.5
662.708	9142.17
663.059	9101.95
663.409	9134.04
663.76	9144.21
664.11	9188.95
664.461	9086.13
664.811	9137.2
665.161	9131.55
665.511	9138.79
665.862	9080.48
666.212	9141.95
666.562	9189.18
666.912	9196.41
667.262	9152.8
667.612	9157.32
667.962	9176.75
668.312	9163.19
668.662	9226.24
669.011	9198.22
669.361	9108.73
669.711	9166.81
670.06	9145.11
670.41	9157.32
670.76	9142.85
671.109	9151.89
671.459	9094.49
671.808	9060.6
672.157	9070.31
672.507	9085
672.856	9068.05
673.205	9033.03
673.554	9162.29
673.904	9103.31
674.253	9134.72
674.602	9049.75
674.951	8967.72
675.3	8869.87
675.649	8998.68
675.998	9003.87
676.346	9014.49
676.695	9068.28
677.044	8998.68
677.393	8991.44
677.741	9005.46
678.09	8923.65
678.438	8938.34
678.787	8907.15
679.135	8986.7
679.484	8915.29
679.832	8938.11
680.181	8844.78
680.529	8877.55
680.877	8827.83
681.225	8839.36
681.573	8856.53
681.922	8811.34
682.27	8725.01
682.618	8833.93
682.966	8792.81
683.314	8778.79
683.661	8758.46
684.009	8701.96
684.357	8661.28
684.705	8636.65
685.053	8702.41
685.4	8674.39
685.748	8581.74
686.095	8609.53
686.443	8528.63
686.79	8600.04
687.138	8581.29
687.485	8535.41
687.832	8490.44
688.18	8474.85
688.527	8458.8
688.874	8462.87
689.221	8437.79
689.568	8401.18
689.915	8427.17
690.262	8357.11
690.609	8300.16
690.956	8320.95
691.303	8295.19
691.65	8287.96
691.997	8211.58
692.344	8176.1
692.69	8153.27
693.037	8171.8
693.383	8103.33
693.73	8175.19
694.077	8087.51
694.423	8042.32
694.769	8058.14
695.116	8025.37
695.462	8015.65
695.808	7941.08
696.155	7974.97
696.501	7915.99
696.847	7879.38
697.193	7826.28
697.539	7790.35
697.885	7810.46
698.231	7798.26
698.577	7703.57
698.923	7699.5
699.269	7669.67
699.614	7655.21
699.96	7577.24
700.306	7553.97
700.651	7533.18
700.997	7530.01
701.342	7472.39
701.688	7483.24
702.033	7447.76
702.379	7406.63
702.724	7403.69
703.069	7398.04
703.415	7328.44
703.76	7339.06
704.105	7320.98
704.45	7302.45
704.795	7269.68
705.14	7250.25
705.485	7259.06
705.83	7167.09
706.175	7187.88
706.52	7121.66
706.865	7094.09
707.209	7122.34
707.554	7078.73
707.899	7033.3
708.243	7085.28
708.588	7032.17
708.932	6996.92
709.277	6967.54
709.621	6982.23
709.966	6956.7
710.31	7016.13
710.654	6876.47
710.998	6920.31
711.342	6888.22
711.687	6912.85
712.031	6824.72
712.375	6807.55
712.719	6841.9
713.063	6753.54
713.407	6852.97
713.75	6763.93
714.094	6733.2
714.438	6724.84
714.782	6753.54
715.125	6713.31
715.469	6723.48
715.812	6695.23
716.156	6697.04
716.499	6654.33
716.843	6689.58
717.186	6602.81
717.53	6657.27
717.873	6640.32
718.216	6620.21
718.559	6615.01
718.902	6561
719.246	6619.08
719.589	6520.55
719.932	6549.02
720.275	6537.5
720.617	6471.74
720.96	6541.79
721.303	6518.29
721.646	6546.54
721.989	6524.62
722.331	6562.36
722.674	6518.06
723.016	6491.85
723.359	6532.98
723.701	6524.84
724.044	6495.92
724.386	6437.39
724.729	6447.78
725.071	6401.68
725.413	6458.86
725.755	6445.52
726.097	6422.47
726.439	6381.34
726.782	6369.59
727.124	6446.2
727.465	6421.57
727.807	6425.64
728.149	6370.72
728.491	6405.52
728.833	6416.6
729.175	6383.6
729.516	6363.94
729.858	6420.21
730.199	6372.08
730.541	6453.21
730.882	6372.08
731.224	6483.71
731.565	6400.55
731.906	6374.56
732.248	6382.7
732.589	6403.94
732.93	6354.68
733.271	6391.96
733.612	6348.12
733.953	6356.49
734.294	6375.69
734.635	6357.84
734.976	6377.5
735.317	6394.22
735.658	6398.74
735.999	6391.29
736.339	6410.04
736.68	6407.56
737.021	6353.1
737.361	6418.18
737.702	6408.46
738.042	6396.71
738.383	6446.88
738.723	6393.77
739.063	6447.33
739.404	6485.75
739.744	6474
740.084	6431.51
740.424	6481
740.764	6463.6
741.104	6485.75
741.444	6476.48
741.784	6519.42
742.124	6565.75
742.464	6542.7
742.804	6572.3
743.143	6535.01
743.483	6633.99
743.823	6622.92
744.162	6631.28
744.502	6645.74
744.841	6666.76
745.181	6739.07
745.52	6735.68
745.86	6779.98
746.199	6771.84
746.538	6882.8
746.877	6881.44
747.216	6897.04
747.556	6908.11
747.895	7008.22
748.234	6998.95
748.573	7098.39
748.911	7139.97
749.25	7179.97
749.589	7197.82
749.928	7242.79
750.267	7377.7
750.605	7443.24
750.944	7501.99
751.283	7528.66
751.621	7626.73
751.96	7626.73
752.298	7789.89
752.636	7862.89
752.975	7883.45
753.313	8017.01
753.651	8096.1
753.989	8240.28
754.327	8327.51
754.666	8438.46
755.004	8549.65
755.342	8668.74
755.679	8797.1
756.017	8882.29
756.355	9002.74
756.693	9125.23
757.031	9312.11
757.368	9442.96
757.706	9588.49
758.044	9677.3
758.381	9880.91
758.719	9978.31
759.056	10154.58
759.394	10289.72
759.731	10359.32
760.068	10572.42
760.405	10720.89
760.743	10889.7
761.08	11089.24
761.417	11276.58
761.754	11292.63
762.091	11500.3
762.428	11673.86
762.765	11877.47
763.102	12067.07
763.438	12202.89
763.775	12412.6
764.112	12615.53
764.449	12750.22
764.785	12949.08
765.122	12971.23
765.458	13172.35
765.795	13323.76
766.131	13486.24
766.467	13556.52
766.804	13714.03
767.14	13866.12
767.476	14036.74
767.812	14184.75
768.148	14429.95
768.485	14523.05
768.821	14588.13
769.157	14672.65
769.492	14820.44
769.828	15115.8
770.164	15059.31
770.5	15237.38
770.836	15342.92
771.171	15433.08
771.507	15571.16
771.842	15612.06
772.178	15794.2
772.513	15952.84
772.849	16036.91
773.184	16078.04
773.519	16191.26
773.855	16196.45
774.19	16298.37
774.525	16394.19
774.86	16485.48
775.195	16645.48
775.53	16552.83
775.865	16610.91
776.2	16654.97
776.535	16660.62
776.87	16770.9
777.205	16814.06
777.539	16896.32
777.874	16957.34
778.209	16895.42
778.543	16991.01
778.878	16854.74
779.212	17029.2
779.547	17057
779.881	17131.34
780.215	17115.3
780.55	17185.35
780.884	17111
781.218	17097.22
781.552	17173.83
781.886	17282.07
782.22	17211.34
782.554	17182.19
782.888	17160.04
783.222	17219.02
783.556	17146.94
783.889	17256.99
784.223	17052.48
784.557	17098.58
784.89	17247.95
785.224	17233.94
785.557	17162.3
785.891	17217.67
786.224	17175.86
786.558	17230.1
786.891	16976.09
787.224	17154.17
787.557	17082.08
787.891	17107.62
788.224	17115.3
788.557	17190.32
788.89	17134.06
789.223	17115.07
789.556	16978.58
789.888	17069.42
790.221	16968.86
790.554	16874.4
790.887	16928.64
791.219	16857.9
791.552	16845.7
791.884	16840.5
792.217	16867.62
792.549	16763.9
792.882	16722.54
793.214	16708.08
793.546	16664.91
793.879	16598.7
794.211	16536.56
794.543	16711.69
794.875	16553.28
795.207	16675.99
795.539	16623.56
795.871	16558.25
796.203	16386.96
796.535	16371.59
796.867	16335.88
797.198	16270.58
797.53	16366.17
797.862	16273.06
798.193	16373.85
798.525	16261.76
798.856	16238.71
799.188	16052.73
799.519	16158.26
799.85	16005.27
800.182	16045.95
800.513	16037.36
800.844	15978.15
801.175	16108.32
801.506	15936.35
801.837	15963.92
802.168	15870.36
802.499	15898.38
802.83	15783.36
803.161	15762.11
803.491	15745.62
803.822	15722.11
804.153	15678.05
804.483	15596.92
804.814	15567.32
805.145	15564.6
805.475	15537.26
805.805	15418.62
806.136	15474.21
806.466	15472.63
806.796	15542.46
807.126	15297.27
807.457	15307.89
807.787	15321.22
808.117	15118.97
808.447	15239.19
808.777	15268.34
809.107	15205.52
809.436	15121.45
809.766	15146.54
810.096	15060.89
810.426	15021.57
810.755	14982.93
811.085	15032.42
811.414	14999.65
811.744	14864.06
812.073	14917.16
812.403	14850.05
812.732	14860.44
813.061	14804.4
813.39	14824.74
813.719	14779.54
814.049	14790.39
814.378	14739.54
814.707	14677.17
815.036	14746.32
815.365	14520.79
815.693	14583.39
816.022	14552.65
816.351	14448.02
816.68	14472.88
817.008	14466.55
817.337	14353.34
817.665	14360.57
817.994	14462.71
818.322	14418.87
818.651	14345.88
818.979	14168.94
819.307	14317.63
819.636	14257.07
819.964	14126.9
820.292	14314.69
820.62	14211.87
820.948	14201.02
821.276	14215.04
821.604	14174.58
821.932	14165.55
822.259	14282.15
822.587	14106.56
822.915	14100.01
823.243	14154.25
823.57	14194.25
823.898	14164.19
824.225	14140.69
824.553	14123.96
824.88	14146.56
825.207	14213
825.535	14136.85
825.862	14236.5
826.189	14126.45
826.516	14285.99
826.843	14225.21
827.17	14187.92
827.497	14161.48
827.824	14206.9
828.151	14230.85
828.478	14202.15
828.805	14307.01
829.131	14202.15
829.458	14192.66
829.785	14112.67
830.111	14351.53
830.438	14283.73
830.764	14193.34
831.09	14219.56
831.417	14136.39
831.743	14267.69
832.069	14270.18
832.395	14122.38
832.722	14171.42
833.048	14134.59
833.374	14132.1
833.7	14080.8
834.026	14138.65
834.351	14084.87
834.677	14204.41
835.003	14172.33
835.329	14094.36
835.654	14102.04
835.98	14016.85
836.306	14094.14
836.631	13893.24
836.956	14081.71
837.282	14062.95
837.607	13951.31
837.932	13933.69
838.258	13955.61
838.583	14008.94
838.908	13858.21
839.233	13881.49
839.558	13862.95
839.883	13816.4
840.208	13789.74
840.533	13776.4
840.858	13770.98
841.182	13733.69
841.507	13770.98
841.832	13683.75
842.156	13658.89
842.481	13646.01
842.805	13571.66
843.13	13594.94
843.454	13542.74
843.778	13500.93
844.103	13488.5
844.427	13472
844.751	13402.18
845.075	13427.94
845.399	13447.37
845.723	13202.86
846.047	13254.61
846.371	13207.15
846.695	13099.58
847.019	13118.34
847.343	13005.12
847.666	12892.81
847.99	12933.04
848.313	12894.39
848.637	12759.71
848.96	12735.3
849.284	12733.72
849.607	12733.72
849.931	12661.63
850.254	12520.84
850.577	12497.34
850.9	12477
851.223	12481.07
851.546	12299.38
851.869	12279.49
852.192	12292.83
852.515	12266.84
852.838	12159.5
853.161	12210.34
853.483	12132.6
853.806	12046.73
854.129	12062.1
854.451	11935.77
854.774	11941.42
855.096	12003.12
855.419	11825.95
855.741	11900.29
856.063	11869.56
856.385	11747.98
856.708	11769.68
857.03	11720.19
857.352	11706.18
857.674	11615.78
857.996	11570.36
858.318	11613.97
858.64	11619.4
858.961	11521.77
859.283	11543.24
859.605	11442.23
859.926	11429.8
860.248	11401.32
860.57	11411.95
860.891	11341.67
861.212	11263.7
861.534	11264.83
861.855	11199.07
862.176	11247.66
862.498	11227.09
862.819	11201.78
863.14	11140.99
863.461	11158.17
863.782	11133.53
864.103	11088.56
864.424	11023.03
864.745	11061.9
865.065	10985.52
865.386	10977.61
865.707	10979.41
866.027	10965.63
866.348	10987.32
866.668	10908.91
866.989	10897.83
867.309	10800.89
867.63	10872.75
867.95	10873.65
868.27	10781.68
868.59	10778.52
868.91	10792.98
869.23	10757.73
869.55	10702.59
869.87	10716.82
870.19	10695.58
870.51	10821.45
870.83	10755.24
871.15	10643.15
871.469	10718.18
871.789	10588.24
872.109	10664.39
872.428	10615.81
872.748	10642.47
873.067	10624.62
873.386	10561.57
873.706	10538.3
874.025	10485.42
874.344	10557.5
874.663	10531.52
874.982	10473.89
875.301	10474.34
875.62	10464.4
875.939	10384.4
876.258	10454.23
876.577	10448.81
876.896	10373.1
877.214	10358.19
877.533	10413.55
877.852	10324.97
878.17	10323.61
878.489	10270.05
878.807	10285.87
879.125	10257.63
879.444	10283.61
879.762	10178.98
880.08	10230.51
880.398	10203.39
880.716	10244.29
881.034	10119.32
881.352	10129.72
881.67	10102.6
881.988	10152.54
882.306	10086.78
882.624	10086.56
882.941	10016.28
883.259	9966.33
883.577	9986.22
883.894	9908.71
884.212	9912.1
884.529	9902.38
884.846	9916.62
885.164	9785.1
885.481	9821.25
885.798	9814.93
886.115	9765.44
886.432	9764.08
886.75	9732.67
887.067	9679.56
887.383	9726.79
887.7	9684.76
888.017	9647.47
888.334	9685.44
888.651	9613.35
888.967	9533.35
889.284	9596.85
889.6	9503.52
889.917	9507.59
890.233	9569.06
890.55	9473.92
890.866	9440.02
891.182	9407.03
891.498	9357.54
891.815	9378.33
892.131	9253.36
892.447	9249.97
892.763	9237.99
893.079	9274.83
893.395	9266.24
893.71	9127.26
894.026	9172.46
894.342	9141.5
894.657	9060.82
894.973	9045
895.289	9003.2
895.604	9029.64
895.92	8917.77
896.235	8885.91
896.55	8960.48
896.865	8862.41
897.181	8854.95
897.496	8795.74
897.811	8801.17
898.126	8758.68
898.441	8688.63
898.756	8671
899.071	8612.02
899.386	8655.86
899.7	8609.08
900.015	8564.34
900.33	8493.6
900.644	8428.97
900.959	8447.73
901.273	8415.41
901.588	8403.21
901.902	8348.52
902.216	8352.14
902.531	8313.72
902.845	8283.67
903.159	8239.37
903.473	8201.18
903.787	8139.04
904.101	8183.33
904.415	8104.69
904.729	8082.54
905.042	7979.72
905.356	8012.71
905.67	8057.01
905.984	8010.68
906.297	7960.51
906.611	7922.32
906.924	7919.83
907.237	7850.46
907.551	7848.88
907.864	7896.11
908.177	7744.7
908.491	7723.91
908.804	7691.59
909.117	7618.15
909.43	7567.53
909.743	7564.59
910.056	7550.13
910.368	7562.1
910.681	7497.47
910.994	7438.26
911.307	7460.64
911.619	7353.3
911.932	7406.4
912.244	7296.57
912.557	7311.94
912.869	7281.21
913.181	7225.62
913.494	7201.89
913.806	7158.5
914.118	7180.42
914.43	7070.14
914.742	7078.73
915.054	7097.48
915.366	7024.94
915.678	7051.16
915.99	6982.23
916.302	6911.73
916.613	6900.88
916.925	6941.78
917.236	6847.55
917.548	6807.55
917.859	6830.15
918.171	6848.68
918.482	6783.37
918.794	6765.51
919.105	6766.64
919.416	6734.33
919.727	6708.79
920.038	6678.51
920.349	6554.9
920.66	6555.8
920.971	6581.79
921.282	6579.76
921.593	6475.35
921.903	6443.71
922.214	6466.09
922.525	6436.71
922.835	6385.19
923.146	6366.43
923.456	6336.15
923.767	6320.33
924.077	6302.93
924.387	6257.5
924.697	6288.92
925.008	6191.52
925.318	6174.8
925.628	6159.2
925.938	6189.26
926.248	6111.52
926.558	6033.33
926.867	6047.12
927.177	6067
927.487	6002.14
927.796	6007.79
928.106	5932.77
928.416	5944.07
928.725	5902.71
929.034	5901.81
929.344	5882.37
929.653	5889.15
929.962	5795.14
930.271	5778.42
930.581	5722.38
930.89	5757.63
931.199	5738.42
931.508	5726.45
931.817	5690.29
932.125	5699.1
932.434	5627.69
932.743	5607.8
933.051	5571.2
933.36	5588.6
933.669	5527.58
933.977	5508.6
934.286	5531.87
934.594	5480.8
934.902	5416.17
935.21	5466.57
935.519	5405.1
935.827	5420.46
936.135	5385.21
936.443	5362.84
936.751	5309.06
937.059	5310.41
937.367	5297.3
937.674	5263.41
937.982	5239.68
938.29	5261.6
938.597	5218.66
938.905	5145.44
939.213	5137.53
939.52	5154.26
939.827	5154.94
940.135	5060.7
940.442	5029.97
940.749	5069.29
941.056	5065.67
941.363	5020.93
941.67	5003.75
941.977	4971.21
942.284	4967.14
942.591	4883.98
942.898	4823.64
943.205	4904.77
943.511	4858.22
943.818	4825.23
944.125	4819.58
944.431	4819.12
944.738	4807.6
945.044	4754.95
945.35	4778.45
945.657	4713.59
945.963	4687.83
946.269	4640.37
946.575	4646.93
946.881	4626.14
947.187	4568.74
947.493	4541.84
947.799	4583.2
948.105	4542.52
948.41	4508.62
948.716	4483.77
949.022	4496.87
949.327	4493.71
949.633	4462.3
949.938	4450.77
950.244	4401.51
950.549	4376.42
950.854	4382.75
951.16	4324
951.465	4339.14
951.77	4320.61
952.075	4318.8
952.38	4302.53
952.685	4255.75
952.99	4220.04
953.294	4274.73
953.599	4211.46
953.904	4186.15
954.209	4142.31
954.513	4183.21
954.818	4114.51
955.122	4142.76
955.426	4111.35
955.731	4118.58
956.035	4030.9
956.339	4071.8
956.643	4009.65
956.948	4042.2
957.252	3989.32
957.556	3969.66
957.86	3951.12
958.163	3948.87
958.467	3957.45
958.771	3906.38
959.075	3888.08
959.378	3930.33
959.682	3922.65
959.985	3855.31
960.289	3846.04
960.592	3791.81
960.896	3777.34
961.199	3786.61
961.502	3774.41
961.805	3771.47
962.108	3715.42
962.411	3744.35
962.714	3660.51
963.017	3674.52
963.32	3679.27
963.623	3646.73
963.926	3657.8
964.228	3633.39
964.531	3618.03
964.833	3604.92
965.136	3580.74
965.438	3581.64
965.741	3542.55
966.043	3565.82
966.345	3494.87
966.648	3489.22
966.95	3479.27
967.252	3460.29
967.554	3446.28
967.856	3446.73
968.158	3392.5
968.46	3433.4
968.761	3397.92
969.063	3401.08
969.365	3375.32
969.666	3402.44
969.968	3325.38
970.269	3315.66
970.571	3320.86
970.872	3289.9
971.174	3288.54
971.475	3261.2
971.776	3240.18
972.077	3263.69
972.378	3231.82
972.679	3240.86
972.98	3211.03
973.281	3219.17
973.582	3173.29
973.883	3136.68
974.183	3102.11
974.484	3098.94
974.785	3135.1
975.085	3123.12
975.386	3091.71
975.686	3075.89
975.986	3053.97
976.287	3048.32
976.587	3023.24
976.887	2999.51
977.187	2983.47
977.487	2992.51
977.787	2997.7
978.087	2958.83
978.387	2981.43
978.687	2957.48
978.987	2917.71
979.286	2925.16
979.586	2875.45
979.885	2886.97
980.185	2870.48
980.484	2852.85
980.784	2851.72
981.083	2800.42
981.382	2839.29
981.682	2830.25
981.981	2788.44
982.28	2760.87
982.579	2754.09
982.878	2758.61
983.177	2742.12
983.475	2725.39
983.774	2729.46
984.073	2699.86
984.372	2696.24
984.67	2703.25
984.969	2702.34
985.267	2660.09
985.566	2640.65
985.864	2616.02
986.162	2601.56
986.461	2614.44
986.759	2601.78
987.057	2571.5
987.355	2538.05
987.653	2556.13
987.951	2562.46
988.249	2557.72
988.547	2541.44
988.844	2484.5
989.142	2499.41
989.44	2477.04
989.737	2479.98
990.035	2469.58
990.332	2470.94
990.63	2451.5
990.927	2458.73
991.224	2445.4
991.521	2418.06
991.819	2413.31
992.116	2379.19
992.413	2393.43
992.71	2381
993.006	2371.73
993.303	2359.3
993.6	2333.99
993.897	2355.01
994.193	2320.21
994.49	2295.8
994.787	2324.5
995.083	2289.7
995.379	2282.47
995.676	2285.86
995.972	2260.77
996.268	2252.41
996.565	2223.49
996.861	2193.43
997.157	2232.53
997.453	2192.3
997.749	2207.89
998.044	2186.88
998.34	2151.85
998.636	2173.54
998.932	2143.71
999.227	2127.9
999.523	2111.63
999.818	2098.97
1000.114	2112.76
1000.409	2099.2
1000.704	2081.34
1001	2100.33
1001.295	2067.33
1001.59	2056.03
1001.885	2033.89
1002.18	2007.22
1002.475	1996.6
1002.77	2015.36
1003.065	1970.84
1003.359	1976.26
1003.654	1961.8
1003.949	1944.62
1004.243	1951.86
1004.538	1916.6
1004.832	1956.6
1005.127	1917.05
1005.421	1903.27
1005.715	1901.24
1006.009	1895.36
1006.304	1894.91
1006.598	1866.66
1006.892	1846.32
1007.186	1835.7
1007.48	1837.28
1007.773	1815.59
1008.067	1789.6
1008.361	1804.51
1008.655	1762.93
1008.948	1771.3
1009.242	1775.14
1009.535	1775.81
1009.829	1749.83
1010.122	1737.85
1010.415	1741.69
1010.708	1713.22
1011.001	1679.77
1011.295	1694.01
1011.588	1675.7
1011.881	1711.64
1012.173	1661.02
1012.466	1649.94
1012.759	1674.57
1013.052	1638.42
1013.344	1635.25
1013.637	1619.21
1013.93	1619.21
1014.222	1611.07
1014.514	1563.62
1014.807	1580.11
1015.099	1571.53
1015.391	1573.33
1015.683	1559.1
1015.976	1561.13
1016.268	1535.37
1016.56	1535.82
1016.851	1523.17
1017.143	1505.77
1017.435	1493.79
1017.727	1486.1
1018.018	1498.53
1018.31	1491.08
1018.602	1465.09
1018.893	1443.39
1019.185	1447.91
1019.476	1446.56
1019.767	1422.38
1020.058	1429.16
1020.35	1404.3
1020.641	1408.82
1020.932	1386.9
1021.223	1369.05
1021.514	1397.52
1021.804	1372.21
1022.095	1355.49
1022.386	1347.58
1022.677	1324.53
1022.967	1353.68
1023.258	1334.47
1023.548	1318.43
1023.839	1304.19
1024.129	1308.26
1024.419	1287.92
1024.709	1261.25
1025	1281.36
1025.29	1260.8
1025.58	1260.12
1025.87	1252.21
1026.16	1238.43
1026.449	1223.06
1026.739	1222.16
1027.029	1207.47
1027.319	1207.24
1027.608	1169.05
1027.898	1211.99
1028.187	1168.37
1028.477	1153.23
1028.766	1172.44
1029.055	1158.43
1029.344	1162.27
1029.634	1166.79
1029.923	1111.88
1030.212	1158.88
1030.501	1144.19
1030.79	1130.41
1031.078	1107.13
1031.367	1111.88
1031.656	1091.31
1031.945	1096.51
1032.233	1094.25
1032.522	1095.15
1032.81	1087.7
1033.099	1058.09
1033.387	1054.93
1033.675	1048.38
1033.963	1038.66
1034.251	1017.19
1034.54	1039.34
1034.828	1024.42
1035.116	1008.83
1035.403	1002.73
1035.691	1015.83
1035.979	972.67
1036.267	979.23
1036.554	989.39
1036.842	977.87
1037.129	979.23
1037.417	977.19
1037.704	930.19
1037.992	932
1038.279	925.67
1038.566	941.26
1038.853	941.26
1039.14	941.26
