Data from hue_280_FLMS001491_00017.txt Node
Date: Tue Feb 07 15:54:55 GMT 2017
User: dcchb
Spectrometer: FLMS00149
Trigger mode: 0
Integration Time (sec): 2.000000E-2
Scans to average: 10
Electric dark correction enabled: true
Nonlinearity correction enabled: false
Boxcar width: 0
XAxis mode: Wavelengths
Number of Pixels in Spectrum: 2048
>>>>>Begin Spectral Data<<<<<
341.393	-20.28
341.776	-20.28
342.16	-20.28
342.543	-59.6
342.927	-57.57
343.31	-76.78
343.693	-55.54
344.077	-61.64
344.46	-66.38
344.843	-56.67
345.226	-39.72
345.61	-22.99
345.993	-12.6
346.376	-11.24
346.759	-6.5
347.142	42.77
347.525	29.89
347.908	58.13
348.291	77.34
348.674	103.1
349.057	98.81
349.44	103.78
349.823	131.58
350.206	165.48
350.588	181.29
350.971	190.56
351.354	218.36
351.737	205.7
352.119	252.48
352.502	252.93
352.884	263.33
353.267	260.39
353.65	258.58
354.032	279.6
354.414	292.93
354.797	312.14
355.179	324.12
355.562	311.91
355.944	326.6
356.326	310.33
356.709	333.61
357.091	313.04
357.473	319.82
357.855	315.08
358.238	343.32
358.62	345.36
359.002	343.55
359.384	349.43
359.766	345.58
360.148	319.82
360.53	333.83
360.912	342.19
361.294	327.73
361.676	321.4
362.057	328.18
362.439	319.82
362.821	319.82
363.203	336.32
363.584	336.32
363.966	329.31
364.348	321.18
364.729	318.69
365.111	314.4
365.493	318.01
365.874	313.95
366.256	313.49
366.637	318.92
367.019	300.61
367.4	309.43
367.781	292.03
368.163	325.92
368.544	304.23
368.925	303.78
369.306	299.71
369.688	303.33
370.069	314.17
370.45	322.53
370.831	299.71
371.212	308.3
371.593	318.47
371.974	315.08
372.355	299.03
372.736	312.82
373.117	317.11
373.498	306.72
373.879	304
374.26	313.72
374.641	304.46
375.021	300.39
375.402	314.62
375.783	320.27
376.163	318.69
376.544	313.04
376.925	332.25
377.305	332.48
377.686	324.34
378.066	334.74
378.447	317.11
378.827	343.1
379.208	332.03
379.588	305.36
379.968	333.83
380.349	344.68
380.729	319.14
381.109	338.58
381.489	323.21
381.87	315.3
382.25	328.18
382.63	353.49
383.01	346.94
383.39	335.64
383.77	341.52
384.15	346.49
384.53	336.32
384.91	351.69
385.29	353.49
385.67	334.96
386.049	351.46
386.429	347.17
386.809	339.26
387.189	337.67
387.568	344.23
387.948	331.12
388.328	369.76
388.707	372.25
389.087	369.31
389.466	365.7
389.846	366.6
390.225	351.69
390.605	377.67
390.984	380.84
391.363	387.16
391.743	390.55
392.122	382.87
392.501	374.51
392.881	412.7
393.26	384.23
393.639	384.23
394.018	372.7
394.397	379.71
394.776	404.79
395.155	401.85
395.534	391.91
395.913	394.62
396.292	401.63
396.671	406.15
397.05	383.55
397.429	411.35
397.808	385.81
398.186	400.05
398.565	409.31
398.944	400.95
399.323	418.58
399.701	418.12
400.08	405.92
400.458	399.14
400.837	417.45
401.215	414.28
401.594	435.98
401.972	422.64
402.351	429.88
402.729	413.38
403.107	439.82
403.486	447.05
403.864	439.59
404.242	451.57
404.62	435.3
404.999	452.93
405.377	486.37
405.755	445.69
406.133	465.35
406.511	478.69
406.889	453.38
407.267	468.74
407.645	497.9
408.023	500.38
408.401	485.69
408.779	500.61
409.156	505.35
409.534	499.93
409.912	518.46
410.29	528.4
410.667	534.73
411.045	551.68
411.422	538.57
411.8	532.25
412.178	554.39
412.555	552.13
412.933	585.58
413.31	588.97
413.687	602.75
414.065	588.29
414.442	602.98
414.819	592.81
415.197	600.94
415.574	610.66
415.951	620.15
416.328	625.35
416.705	644.11
417.082	664.22
417.46	677.33
417.837	655.41
418.214	682.07
418.591	679.59
418.967	690.89
419.344	700.6
419.721	705.12
420.098	728.17
420.475	709.87
420.852	749.64
421.228	746.93
421.605	751.22
421.982	752.81
422.358	755.06
422.735	789.87
423.111	762.75
423.488	809.3
423.864	786.7
424.241	815.4
424.617	833.71
424.994	828.74
425.37	845.23
425.746	863.54
426.123	867.6
426.499	899.02
426.875	871.22
427.251	894.04
427.627	869.41
428.003	934.27
428.379	932.91
428.756	932.91
429.132	943.31
429.507	955.06
429.883	949.64
430.259	985.57
430.635	947.6
431.011	1012.91
431.387	999.13
431.763	1022.18
432.138	1026.24
432.514	1052.68
432.89	1055.17
433.265	1082.29
433.641	1092.68
434.016	1104.43
434.392	1138.78
434.767	1132.91
435.143	1151.44
435.518	1167.03
435.894	1180.14
436.269	1181.49
436.644	1211.55
437.02	1241.15
437.395	1219.69
437.77	1259.01
438.145	1304.2
438.52	1283.19
438.895	1280.93
439.271	1311.89
439.646	1327.71
440.021	1332.22
440.395	1359.57
440.77	1357.76
441.145	1355.28
441.52	1388.27
441.895	1402.96
442.27	1383.3
442.645	1425.33
443.019	1407.7
443.394	1437.53
443.769	1433.69
444.143	1443.63
444.518	1449.96
444.892	1458.55
445.267	1436.63
445.641	1459.91
446.016	1458.78
446.39	1480.24
446.764	1496.06
447.139	1488.38
447.513	1521.6
447.887	1505.1
448.262	1544.87
448.636	1520.92
449.01	1538.55
449.384	1576.74
449.758	1592.33
450.132	1632.33
450.506	1596.17
450.88	1595.27
451.254	1601.82
451.628	1612.44
452.002	1623.97
452.376	1642.05
452.75	1676.4
453.123	1677.53
453.497	1681.37
453.871	1673.91
454.244	1724.3
454.618	1744.19
454.992	1759.78
455.365	1769.95
455.739	1816.51
456.112	1805.88
456.486	1806.79
456.859	1813.79
457.232	1842.04
457.606	1855.37
457.979	1856.5
458.352	1894.24
458.725	1922.49
459.099	1902.38
459.472	1931.76
459.845	1963.17
460.218	2004.52
460.591	2010.17
460.964	2000
461.337	1991.87
461.71	2058.08
462.083	2099.89
462.456	2064.63
462.829	2062.6
463.201	2100.11
463.574	2116.84
463.947	2145.31
464.32	2176.04
464.692	2191.64
465.065	2225.31
465.438	2214.46
465.81	2248.13
466.183	2306.44
466.555	2330.39
466.928	2330.84
467.3	2323.61
467.672	2349.15
468.045	2377.62
468.417	2371.29
468.789	2405.42
469.161	2423.5
469.534	2491.06
469.906	2504.62
470.278	2527.67
470.65	2537.62
471.022	2564.28
471.394	2607.9
471.766	2644.51
472.138	2630.27
472.51	2654.22
472.882	2713.21
473.253	2729.7
473.625	2738.74
473.997	2815.12
474.369	2818.51
474.74	2871.39
475.112	2939.41
475.484	2929.92
475.855	2951.84
476.227	3018.73
476.598	2999.3
476.97	3049.92
477.341	3129.01
477.713	3158.17
478.084	3186.41
478.455	3230.25
478.827	3246.3
479.198	3328.1
479.569	3336.92
479.94	3391.15
480.311	3410.36
480.682	3500.53
481.053	3519.74
481.424	3572.62
481.795	3629.57
482.166	3639.28
482.537	3640.19
482.908	3743.69
483.279	3790.92
483.65	3797.47
484.021	3852.38
484.391	3853.51
484.762	3900.07
485.133	3951.37
485.503	3978.93
485.874	4068.65
486.244	4081.08
486.615	4141.64
486.985	4181.42
487.356	4256.22
487.726	4309.77
488.097	4333.95
488.467	4321.98
488.837	4399.26
489.207	4447.85
489.578	4532.14
489.948	4549.09
490.318	4579.37
490.688	4573.5
491.058	4669.76
491.428	4686.03
491.798	4724.68
492.168	4832.92
492.538	4806.26
492.908	4861.17
493.278	4904.56
493.648	4906.59
494.017	4956.99
494.387	4966.48
494.757	5057.78
495.126	5068.85
495.496	5090.54
495.866	5082.63
496.235	5188.17
496.605	5200.82
496.974	5216.87
497.344	5274.27
497.713	5253.93
498.082	5284.89
498.452	5318.11
498.821	5303.87
499.19	5305
499.559	5384.55
499.928	5411.89
500.298	5424.77
500.667	5476.3
501.036	5416.19
501.405	5451.66
501.774	5500.7
502.143	5486.69
502.512	5547.26
502.88	5595.84
503.249	5595.39
503.618	5632.9
503.987	5644.88
504.356	5678.33
504.724	5672
505.093	5695.05
505.462	5712
505.83	5691.21
506.199	5802.84
506.567	5816.17
506.936	5808.72
507.304	5893.69
507.672	5903.86
508.041	5885.33
508.409	5903.86
508.777	5951.31
509.145	5970.07
509.514	5942.05
509.882	5973.01
510.25	5983.85
510.618	6026.11
510.986	5960.58
511.354	6062.27
511.722	6111.53
512.09	6153.12
512.458	6117.86
512.826	6210.51
513.193	6143.85
513.561	6252.55
513.929	6198.31
514.297	6221.36
514.664	6333.45
515.032	6312.43
515.4	6337.74
515.767	6297.52
516.135	6326.22
516.502	6291.87
516.869	6420.9
517.237	6406.22
517.604	6372.32
517.972	6491.41
518.339	6459.55
518.706	6464.29
519.073	6519.66
519.44	6492.54
519.808	6509.04
520.175	6518.53
520.542	6557.85
520.909	6631.07
521.276	6609.6
521.643	6637.85
522.009	6664.51
522.376	6703.16
522.743	6651.86
523.11	6771.4
523.477	6823.38
523.843	6805.75
524.21	6875.36
524.577	6898.41
524.943	6918.97
525.31	6989.03
525.676	6969.14
526.043	6976.37
526.409	6982.7
526.776	7052.07
527.142	7088.68
527.508	7088.91
527.874	7173.88
528.241	7154.22
528.607	7147.44
528.973	7193.77
529.339	7253.65
529.705	7261.11
530.071	7341.11
530.437	7292.75
530.803	7308.11
531.169	7361.22
531.535	7370.03
531.901	7378.39
532.267	7420.2
532.632	7454.1
532.998	7499.97
533.364	7496.36
533.73	7534.77
534.095	7573.42
534.461	7567.99
534.826	7611.16
535.192	7625.62
535.557	7661.1
535.923	7583.59
536.288	7659.74
536.653	7687.54
537.019	7587.88
537.384	7687.76
537.749	7746.29
538.114	7751.04
538.479	7758.95
538.845	7799.4
539.21	7782.45
539.575	7815.22
539.94	7875.56
540.305	7844.82
540.67	7808.44
541.034	7913.29
541.399	7930.24
541.764	7885.95
542.129	7929.34
542.494	7950.13
542.858	7986.06
543.223	7975.44
543.587	8033.52
543.952	8049.79
544.316	7985.84
544.681	8012.05
545.045	8071.71
545.41	8091.82
545.774	8094.98
546.138	8067.87
546.503	8114.19
546.867	8165.27
547.231	8165.27
547.595	8142.67
547.959	8127.3
548.324	8156
548.688	8252.72
549.052	8280.06
549.416	8188.09
549.779	8261.53
550.143	8240.74
550.507	8291.14
550.871	8295.88
551.235	8283
551.599	8330.23
551.962	8358.48
552.326	8341.31
552.689	8385.82
553.053	8406.62
553.417	8416.11
553.78	8417.91
554.143	8430.12
554.507	8446.39
554.87	8468.99
555.234	8587.4
555.597	8498.59
555.96	8548.31
556.323	8516.44
556.686	8543.11
557.05	8588.98
557.413	8542.88
557.776	8578.36
558.139	8666.72
558.502	8690.22
558.865	8667.63
559.228	8696.33
559.59	8691.35
559.953	8741.52
560.316	8794.18
560.679	8828.07
561.041	8935.87
561.404	8846.38
561.767	8986.26
562.129	8937.9
562.492	8947.84
562.854	8973.61
563.217	8986.26
563.579	9006.83
563.941	9066.48
564.304	9095.64
564.666	9140.16
565.028	9074.39
565.39	9188.97
565.753	9221.73
566.115	9286.37
566.477	9297.67
566.839	9287.95
567.201	9353.48
567.563	9361.17
567.925	9398.23
568.287	9417.66
568.648	9424.89
569.01	9547.6
569.372	9496.3
569.734	9515.06
570.095	9538.79
570.457	9654.94
570.819	9672.8
571.18	9614.49
571.542	9710.54
571.903	9728.16
572.265	9757.31
572.626	9756.41
572.987	9835.73
573.349	9796.41
573.71	9897.65
574.071	9921.38
574.432	10008.38
574.794	10015.16
575.155	10021.04
575.516	9988.04
575.877	10075.5
576.238	10137.87
576.599	10226.91
576.96	10194.59
577.32	10219.67
577.681	10350.52
578.042	10355.49
578.403	10357.07
578.763	10386.9
579.124	10418.31
579.485	10551.42
579.845	10591.87
580.206	10632.77
580.566	10626.67
580.927	10645.43
581.287	10791.19
581.648	10751.41
582.008	10841.81
582.368	10800.45
582.728	10893.56
583.089	10871.64
583.449	10962.25
583.809	11037.96
584.169	11131.97
584.529	11117.96
584.889	11289.7
585.249	11305.3
585.609	11260.78
585.969	11366.76
586.329	11465.74
586.688	11513.88
587.048	11543.93
587.408	11568.34
587.768	11692.4
588.127	11709.58
588.487	11772.4
588.846	11938.27
589.206	11963.58
589.565	11937.14
589.925	12098.27
590.284	12087.87
590.643	12193.63
591.003	12314.53
591.362	12305.04
591.721	12439.96
592.08	12393.63
592.44	12561.53
592.799	12641.76
593.158	12695.77
593.517	12693.28
593.876	12799.27
594.235	12887.63
594.593	12939.15
594.952	12976.66
595.311	13002.88
595.67	13086.49
596.029	13203.78
596.387	13273.83
596.746	13302.98
597.104	13314.73
597.463	13372.36
597.822	13548.4
598.18	13502.75
598.538	13570.77
598.897	13626.36
599.255	13630.43
599.613	13807.83
599.972	13852.57
600.33	13898.9
600.688	13839.24
601.046	13996.52
601.404	13988.39
601.762	14091.44
602.12	14135.28
602.478	14204.65
602.836	14135.73
603.194	14156.75
603.552	14321.71
603.91	14325.56
604.268	14359
604.625	14459.11
604.983	14462.05
605.341	14431.99
605.698	14529.17
606.056	14535.04
606.413	14576.62
606.771	14697.52
607.128	14768.93
607.485	14627.02
607.843	14657.3
608.2	14816.62
608.557	14872.89
608.914	14757.63
609.272	14915.6
609.629	14972.09
609.986	14974.35
610.343	14916.27
610.7	15066.55
611.057	15022.94
611.414	15075.14
611.771	15179.09
612.127	15221.35
612.484	15218.41
612.841	15368.01
613.198	15235.81
613.554	15303.38
613.911	15431.06
614.267	15374.79
614.624	15434.23
614.98	15330.73
615.337	15526.88
615.693	15518.07
616.05	15568.91
616.406	15631.96
616.762	15523.49
617.118	15561.46
617.475	15604.17
617.831	15733.88
618.187	15730.26
618.543	15791.05
618.899	15764.61
619.255	15701.34
619.611	15717.84
619.967	15766.65
620.323	15814.1
620.678	15781.56
621.034	15744.95
621.39	15779.3
621.746	15826.98
622.101	15966.64
622.457	15835.57
622.812	15843.93
623.168	15929.58
623.523	15885.29
623.879	15965.51
624.234	15890.26
624.589	15976.36
624.945	15983.82
625.3	16026.3
625.655	15947.66
626.01	16019.07
626.365	16040.31
626.72	15923.48
627.075	16013.42
627.43	16037.83
627.785	16045.28
628.14	15966.64
628.495	16007.55
628.85	15954.67
629.205	15998.05
629.559	15990.14
629.914	15947.66
630.269	15935.46
630.623	15894.33
630.978	15734.11
631.332	15942.91
631.687	15946.08
632.041	15952.86
632.396	15912.86
632.75	15826.08
633.104	15909.02
633.459	15830.15
633.813	15805.52
634.167	15791.05
634.521	15723.03
634.875	15769.59
635.229	15819.75
635.583	15715.35
635.937	15711.28
636.291	15690.72
636.645	15741.56
636.999	15634.45
637.352	15717.61
637.706	15613.66
638.06	15648.46
638.413	15663.6
638.767	15581.57
639.121	15568.91
639.474	15621.79
639.828	15534.34
640.181	15571.62
640.534	15635.35
640.888	15549.7
641.241	15479.2
641.594	15529.59
641.947	15561
642.301	15522.13
642.654	15519.2
643.007	15632.64
643.36	15439.42
643.713	15445.75
644.066	15545.86
644.419	15271.29
644.771	15318.75
645.124	15225.87
645.477	15058.42
645.83	15112.2
646.182	14928.03
646.535	14966.22
646.888	14932.32
647.24	14933
647.593	14946.1
647.945	14940.45
648.298	14875.37
648.65	14825.2
649.002	14898.65
649.355	14895.26
649.707	14858.2
650.059	14964.41
650.411	15238.75
650.763	15213.22
651.115	15507.67
651.467	15312.2
651.819	15353.1
652.171	15270.39
652.523	15297.51
652.875	15332.31
653.227	15257.73
653.578	15340.44
653.93	15288.47
654.282	15283.5
654.633	15289.82
654.985	15203.5
655.337	15267.9
655.688	15347.22
656.039	15350.61
656.391	15282.37
656.742	15285.53
657.094	15300.22
657.445	15298.41
657.796	15309.48
658.147	15331.4
658.498	15343.38
658.849	15311.97
659.2	15280.11
659.551	15271.07
659.902	15278.07
660.253	15346.55
660.604	15269.03
660.955	15202.59
661.306	15257.73
661.656	15319.65
662.007	15375.7
662.358	15307.9
662.708	15363.49
663.059	15346.09
663.409	15275.36
663.76	15450.05
664.11	15367.11
664.461	15367.79
664.811	15327.56
665.161	15381.35
665.511	15381.12
665.862	15357.62
666.212	15385.87
666.562	15440.1
666.912	15416.6
667.262	15371.63
667.612	15307.45
667.962	15410.05
668.312	15403.04
668.662	15423.61
669.011	15412.53
669.361	15381.12
669.711	15383.38
670.06	15333.21
670.41	15335.02
670.76	15340.22
671.109	15339.99
671.459	15266.1
671.808	15201.01
672.157	15355.58
672.507	15195.36
672.856	15258.41
673.205	15186.55
673.554	15332.08
673.904	15203.5
674.253	15295.02
674.602	15164.86
674.951	15022.94
675.3	14945.65
675.649	15120.11
675.998	15166.21
676.346	15224.74
676.695	15220
677.044	15089.83
677.393	15090.06
677.741	15108.81
678.09	15088.25
678.438	15139.09
678.787	15071.52
679.135	15016.16
679.484	14963.05
679.832	15023.84
680.181	14938.42
680.529	15002.37
680.877	14888.03
681.225	14843.96
681.573	15091.19
681.922	14873.56
682.27	14893.9
682.618	14754.02
682.966	14800.8
683.314	14789.5
683.661	14642.61
684.009	14659.56
684.357	14678.31
684.705	14590.63
685.053	14593.35
685.4	14620.46
685.748	14532.1
686.095	14641.93
686.443	14533.01
686.79	14436.74
687.138	14490.97
687.485	14441.71
687.832	14422.5
688.18	14444.65
688.527	14280.81
688.874	14329.85
689.221	14243.75
689.568	14232.22
689.915	14237.42
690.262	14144.54
690.609	14092.12
690.956	14022.06
691.303	13997.43
691.65	13912.01
691.997	13969.63
692.344	13834.49
692.69	13833.37
693.037	13912.69
693.383	13707.27
693.73	13728.51
694.077	13620.04
694.423	13651.45
694.769	13526.25
695.116	13590.89
695.462	13541.4
695.808	13409.87
696.155	13483.77
696.501	13387.95
696.847	13266.6
697.193	13294.62
697.539	13220.95
697.885	13199.71
698.231	13055.76
698.577	13113.84
698.923	13057.79
699.269	12943.44
699.614	12945.03
699.96	12825.48
700.306	12778.25
700.651	12768.31
700.997	12799.72
701.342	12708.2
701.688	12713.85
702.033	12629.78
702.379	12620.29
702.724	12487.86
703.069	12601.31
703.415	12331.94
703.76	12381.88
704.105	12355.89
704.45	12378.26
704.795	12217.59
705.14	12242.9
705.485	12231.37
705.83	12158.83
706.175	12119.74
706.52	12186.18
706.865	12049.91
707.209	12099.17
707.554	12017.59
707.899	12019.18
708.243	11973.3
708.588	11982.79
708.932	11864.38
709.277	11816.24
709.621	11904.15
709.966	11679.3
710.31	11830.48
710.654	11664.16
710.998	11687.66
711.342	11605.18
711.687	11649.69
712.031	11610.15
712.375	11520.66
712.719	11590.03
713.063	11509.13
713.407	11545.74
713.75	11562.24
714.094	11518.17
714.438	11372.19
714.782	11417.16
715.125	11336.93
715.469	11337.39
715.812	11294.67
716.156	11227.56
716.499	11279.31
716.843	11273.43
717.186	11264.17
717.53	11263.04
717.873	11332.64
718.216	11254.68
718.559	11287.9
718.902	11070.5
719.246	11182.81
719.589	11141.91
719.932	11078.86
720.275	11052.2
720.617	11035.25
720.96	11033.89
721.303	11026.21
721.646	11047.22
721.989	10976.27
722.331	10973.1
722.674	10910.28
723.016	10964.51
723.359	10921.13
723.701	10924.74
724.044	10882.93
724.386	10909.37
724.729	10936.94
725.071	10954.12
725.413	10945.98
725.755	10926.1
726.097	10779.21
726.439	10774.69
726.782	10848.36
727.124	10853.78
727.465	10795.7
727.807	10863.73
728.149	10784.18
728.491	10881.58
728.833	10823.73
729.175	10728.81
729.516	10707.57
729.858	10670.06
730.199	10794.12
730.541	10810.39
730.882	10756.61
731.224	10781.02
731.565	10731.53
731.906	10672.54
732.248	10724.07
732.589	10633
732.93	10700.11
733.271	10710.96
733.612	10677.06
733.953	10781.92
734.294	10739.89
734.635	10661.7
734.976	10723.39
735.317	10703.28
735.658	10649.95
735.999	10697.85
736.339	10659.21
736.68	10683.17
737.021	10698.31
737.361	10691.53
737.702	10778.08
738.042	10729.72
738.383	10771.3
738.723	10781.47
739.063	10725.2
739.404	10772.88
739.744	10782.82
740.084	10742.15
740.424	10783.28
740.764	10799.09
741.104	10752.77
741.444	10807.68
741.784	10748.47
742.124	10842.03
742.464	10865.76
742.804	10769.72
743.143	10871.41
743.483	10915.48
743.823	10881.13
744.162	10942.59
744.502	11031.86
744.841	10974.68
745.181	11073.89
745.52	10996.38
745.86	11064.17
746.199	11124.74
746.538	11200.89
746.877	11245.41
747.216	11353.2
747.556	11260.33
747.895	11468.46
748.234	11464.84
748.573	11497.61
748.911	11603.14
749.25	11630.26
749.589	11692.86
749.928	11759.3
750.267	11797.94
750.605	11898.27
750.944	11905.05
751.283	11994.32
751.621	12097.82
751.96	12111.38
752.298	12355.66
752.636	12452.61
752.975	12513.17
753.313	12488.99
753.651	12759.95
753.989	12833.17
754.327	12846.5
754.666	12959.72
755.004	13091.24
755.342	13208.75
755.679	13385.69
756.017	13425.47
756.355	13569.64
756.693	13644.67
757.031	13855.29
757.368	13987.03
757.706	14084.88
758.044	14252.79
758.381	14434.48
758.719	14470.64
759.056	14723.29
759.394	14782.94
759.731	14867.46
760.068	14983.84
760.405	15233.78
760.743	15253.21
761.08	15576.82
761.417	15588.57
761.754	15753.09
762.091	15935.68
762.428	16049.58
762.765	16196.69
763.102	16396.01
763.438	16417.25
763.775	16480.53
764.112	16649.79
764.449	16972.49
764.785	17026.05
765.122	16997.8
765.458	17258.36
765.795	17270.79
766.131	17443.21
766.467	17589.42
766.804	17586.71
767.14	17624.68
767.476	17882.07
767.812	17970.21
768.148	18124.33
768.485	18176.98
768.821	18222.63
769.157	18340.59
769.492	18421.94
769.828	18545.33
770.164	18431.66
770.5	18649.51
770.836	18753.91
771.171	18722.95
771.507	18868.71
771.842	18767.02
772.178	18981.93
772.513	19071.42
772.849	19063.96
773.184	19076.62
773.519	19149.84
773.855	19095.15
774.19	19132.89
774.525	19152.1
774.86	19204.07
775.195	19298.08
775.53	19388.47
775.865	19331.98
776.2	19334.69
776.535	19214.47
776.87	19315.03
777.205	19204.3
777.539	19327.46
777.874	19383.95
778.209	19271.41
778.543	19390.28
778.878	19233.22
779.212	19338.53
779.547	19333.56
779.881	19389.83
780.215	19355.71
780.55	19383.95
780.884	19348.7
781.218	19277.52
781.552	19341.02
781.886	19260.34
782.22	19221.47
782.554	19313.9
782.888	19080.46
783.222	19101.25
783.556	19091.31
783.889	19141.02
784.223	18984.42
784.557	19041.36
784.89	19061.93
785.224	19004.75
785.557	18929.73
785.891	19001.82
786.224	18897.64
786.558	18861.03
786.891	18781.48
787.224	18805.89
787.557	18769.96
787.891	18618.32
788.224	18630.3
788.557	18692.67
788.89	18704.42
789.223	18629.62
789.556	18527.7
789.888	18576.07
790.221	18487.48
790.554	18334.72
790.887	18458.33
791.219	18298.11
791.552	18296.98
791.884	18247.26
792.217	18246.13
792.549	18293.13
792.882	18130.88
793.214	18013.82
793.546	18006.14
793.879	17884.11
794.211	17807.5
794.543	17979.47
794.875	17860.38
795.207	18040.03
795.539	17848.63
795.871	17809.98
796.203	17682.3
796.535	17546.26
796.867	17626.94
797.198	17558.69
797.53	17528.18
797.862	17517.11
798.193	17521.4
798.525	17346.27
798.856	17504.68
799.188	17328.19
799.519	17278.47
799.85	17197.8
800.182	17155.76
800.513	17113.5
800.844	17003.23
801.175	17055.65
801.506	17069.44
801.837	16987.41
802.168	16876.45
802.499	16866.51
802.83	16820.86
803.161	16784.25
803.491	16787.86
803.822	16774.08
804.153	16668.77
804.483	16505.84
804.814	16478.04
805.145	16498.38
805.475	16446.63
805.805	16424.03
806.136	16365.28
806.466	16416.35
806.796	16304.49
807.126	16172.06
807.457	16127.54
807.787	16180.2
808.117	16115.79
808.447	16053.42
808.777	16175.9
809.107	16060.43
809.436	15967.55
809.766	15997.6
810.096	15897.49
810.426	15885.06
810.755	15835.35
811.085	15867.66
811.414	15819.75
811.744	15628.8
812.073	15683.94
812.403	15693.88
812.732	15657.27
813.061	15650.27
813.39	15539.08
813.719	15478.75
814.049	15612.75
814.378	15469.93
814.707	15460.21
815.036	15420.89
815.365	15347.45
815.693	15253.21
816.022	15254.34
816.351	15196.04
816.68	15169.6
817.008	15265.19
817.337	15070.39
817.665	15185.19
817.994	15053.9
818.322	15096.83
818.651	15044.63
818.979	14946.78
819.307	15019.77
819.636	14961.02
819.964	14912.88
820.292	14965.54
820.62	14881.93
820.948	14890.74
821.276	14919.21
821.604	14875.37
821.932	14853.23
822.259	14958.31
822.587	14887.12
822.915	14810.29
823.243	14901.81
823.57	14819.78
823.898	14856.39
824.225	14766.45
824.553	14833.34
824.88	14847.58
825.207	14913.11
825.535	14817.29
825.862	14901.59
826.189	14793.11
826.516	14872.43
826.843	14869.04
827.17	14886.22
827.497	14887.12
827.824	14883.96
828.151	14807.58
828.478	14833.11
828.805	14837.18
829.131	14799.89
829.458	14788.82
829.785	14682.83
830.111	14760.57
830.438	14811.19
830.764	14795.37
831.09	14855.03
831.417	14741.82
831.743	14820.23
832.069	14782.04
832.395	14684.42
832.722	14724.19
833.048	14718.31
833.374	14731.87
833.7	14663.4
834.026	14674.25
834.351	14718.54
834.677	14705.66
835.003	14615.49
835.329	14649.39
835.654	14656.39
835.98	14623.4
836.306	14604.64
836.631	14622.72
836.956	14603.06
837.282	14549.5
837.607	14578.2
837.932	14441.03
838.258	14516.51
838.583	14480.13
838.908	14401.71
839.233	14475.16
839.558	14440.13
839.883	14288.04
840.208	14341.15
840.533	14275.61
840.858	14292.11
841.182	14306.57
841.507	14304.31
841.832	14187.71
842.156	14148.16
842.481	14058.67
842.805	14189.29
843.13	14042.63
843.454	14057.77
843.778	14038.56
844.103	13965.11
844.427	13968.73
844.751	13977.99
845.075	13876.3
845.399	13882.86
845.723	13726.02
846.047	13761.28
846.371	13652.58
846.695	13700.49
847.019	13533.71
847.343	13511.11
847.666	13472.02
847.99	13425.47
848.313	13448.29
848.637	13288.75
848.96	13330.1
849.284	13305.02
849.607	13152.71
849.931	13132.37
850.254	13001.75
850.577	12951.35
850.9	12899.6
851.223	12871.58
851.546	12775.54
851.869	12800.4
852.192	12786.61
852.515	12712.26
852.838	12657.8
853.161	12682.66
853.483	12541.65
853.806	12553.4
854.129	12558.37
854.451	12506.17
854.774	12406.51
855.096	12386.62
855.419	12387.75
855.741	12306.63
856.063	12305.5
856.385	12154.99
856.708	12148.66
857.03	12161.09
857.352	12134.65
857.674	12146.18
857.996	12083.13
858.318	12031.15
858.64	11992.74
858.961	11896.24
859.283	11959.74
859.605	11786.19
859.926	11794.1
860.248	11820.99
860.57	11800.88
860.891	11764.49
861.212	11697.6
861.534	11658.51
861.855	11618.51
862.176	11623.93
862.498	11642.91
862.819	11630.26
863.14	11549.13
863.461	11524.95
863.782	11540.54
864.103	11428.91
864.424	11456.7
864.745	11486.76
865.065	11392.75
865.386	11413.77
865.707	11379.64
866.027	11454.22
866.348	11378.06
866.668	11381.23
866.989	11293.54
867.309	11288.12
867.63	11296.03
867.95	11290.61
868.27	11150.72
868.59	11224.85
868.91	11198.18
869.23	11135.36
869.55	11063.27
869.87	11180.55
870.19	11115.24
870.51	11140.33
870.83	11150.5
871.15	11027.79
871.469	11013.33
871.789	11041.35
872.109	10996.6
872.428	10973.1
872.748	10971.75
873.067	10977.17
873.386	11002.03
873.706	11006.32
874.025	10866.21
874.344	10870.05
874.663	10876.61
874.982	10916.83
875.301	10911.18
875.62	10772.65
875.939	10809.72
876.258	10760.23
876.577	10710.28
876.896	10744.86
877.214	10693.11
877.533	10694.01
877.852	10687.69
878.17	10678.65
878.489	10724.52
878.807	10675.48
879.125	10658.53
879.444	10606.56
879.762	10569.04
880.08	10565.43
880.398	10577.63
880.716	10500.12
881.034	10469.84
881.352	10553.68
881.67	10487.69
881.988	10502.15
882.306	10438.88
882.624	10390.07
882.941	10460.57
883.259	10281.14
883.577	10292.89
883.894	10291.31
884.212	10266.91
884.529	10249.05
884.846	10171.54
885.164	10213.35
885.481	10172.9
885.798	10217.87
886.115	10055.84
886.432	10031.21
886.75	10082.05
887.067	10095.38
887.383	10007.25
887.7	10004.31
888.017	10012.45
888.334	9991.88
888.651	9907.59
888.967	9937.87
889.284	9837.31
889.6	9865.33
889.917	9792.57
890.233	9769.97
890.55	9760.93
890.866	9776.97
891.182	9756.64
891.498	9693.59
891.815	9667.82
892.131	9682.51
892.447	9600.26
892.763	9562.74
893.079	9499.47
893.395	9473.71
893.71	9514.38
894.026	9450.2
894.342	9396.19
894.657	9337.89
894.973	9393.26
895.289	9353.26
895.604	9250.66
895.92	9274.61
896.235	9157.56
896.55	9237.78
896.865	9199.81
897.181	9171.11
897.496	9170.21
897.811	9081.4
898.126	9067.84
898.441	9030.55
898.756	8980.16
899.071	8955.08
899.386	8947.62
899.7	8889.77
900.015	8821.29
900.33	8783.33
900.644	8783.78
900.959	8793.27
901.273	8710.79
901.588	8687.29
901.902	8645.48
902.216	8618.36
902.531	8603.9
902.845	8603.67
903.159	8531.58
903.473	8424.69
903.787	8434.64
904.101	8422.21
904.415	8470.79
904.729	8376.56
905.042	8356.45
905.356	8348.54
905.67	8258.6
905.984	8243
906.297	8227.64
906.611	8240.07
906.924	8157.36
907.237	8103.8
907.551	8125.94
907.864	8108.09
908.177	8007.08
908.491	7972.73
908.804	7935.44
909.117	7899.51
909.43	7885.95
909.743	7801.43
910.056	7881.21
910.368	7796.91
910.681	7785.39
910.994	7786.29
911.307	7736.12
911.619	7627.88
911.932	7711.94
912.244	7637.37
912.557	7591.5
912.869	7533.19
913.181	7486.87
913.494	7540.88
913.806	7371.16
914.118	7415.68
914.43	7409.13
914.742	7385.4
915.054	7276.48
915.366	7280.09
915.678	7274.67
915.99	7273.31
916.302	7214.56
916.613	7138.4
916.925	7120.77
917.236	7104.28
917.548	7103.6
917.859	7084.39
918.171	7039.42
918.482	6981.12
918.794	6994.67
919.105	6977.5
919.416	6924.17
919.727	6926.43
920.038	6852.98
920.349	6863.38
920.66	6780.9
920.971	6787.22
921.282	6823.38
921.593	6693.21
921.903	6677.17
922.214	6640.79
922.525	6609.37
922.835	6622.48
923.146	6595.82
923.456	6566.66
923.767	6532.31
924.077	6497.74
924.387	6478.76
924.697	6451.41
925.008	6398.08
925.318	6383.39
925.628	6422.03
925.938	6363.96
926.248	6288.48
926.558	6233.34
926.867	6230.85
927.177	6247.58
927.487	6180.01
927.796	6152.21
928.106	6131.42
928.416	6083.29
928.725	6108.37
929.034	6005.55
929.344	6109.73
929.653	6031.31
929.962	5978.2
930.271	5984.53
930.581	5923.52
930.89	5920.58
931.199	5945.21
931.508	5893.46
931.817	5867.02
932.125	5807.59
932.434	5817.98
932.743	5777.98
933.051	5777.31
933.36	5732.79
933.669	5711.09
933.977	5671.77
934.286	5629.51
934.594	5644.43
934.902	5634.94
935.21	5559.01
935.519	5569.85
935.827	5552.45
936.135	5516.75
936.443	5469.74
936.751	5417.32
937.059	5487.6
937.367	5449.4
937.674	5416.41
937.982	5390.42
938.29	5336.41
938.597	5362.18
938.905	5332.8
939.213	5267.49
939.52	5221.84
939.827	5244.44
940.135	5216.19
940.442	5181.62
940.749	5161.05
941.056	5211.22
941.363	5109.53
941.67	5067.95
941.977	5090.77
942.284	5038.79
942.591	5002.41
942.898	5011.45
943.205	5032.69
943.511	4996.31
943.818	4983.43
944.125	4943.88
944.431	4914.05
944.738	4883.77
945.044	4853.94
945.35	4853.49
945.657	4846.48
945.963	4822.08
946.269	4764.23
946.575	4775.98
946.881	4756.54
947.187	4712.47
947.493	4687.84
947.799	4708.86
948.105	4638.13
948.41	4622.53
948.716	4620.05
949.022	4578.02
949.327	4569.65
949.633	4559.94
949.938	4556.32
950.244	4561.29
950.549	4498.24
950.854	4479.03
951.16	4461.63
951.465	4457.34
951.77	4460.28
952.075	4414.18
952.38	4366.5
952.685	4398.13
952.99	4344.8
953.294	4330.11
953.599	4288.53
953.904	4298.7
954.209	4260.96
954.513	4281.07
954.818	4234.07
955.122	4231.81
955.426	4225.03
955.731	4209.44
956.035	4171.47
956.339	4164.24
956.643	4150.23
956.948	4101.19
957.252	4082.21
957.556	4029.56
957.86	4053.74
958.163	4075.88
958.467	4010.8
958.771	4044.02
959.075	3945.49
959.378	3950.24
959.682	3961.53
959.985	3934.42
960.289	3889.22
960.592	3914.3
960.896	3893.06
961.199	3863.91
961.502	3808.09
961.805	3824.59
962.108	3869.11
962.411	3812.84
962.714	3752.73
963.017	3803.8
963.32	3756.12
963.623	3721.09
963.926	3747.3
964.228	3730.35
964.531	3666.63
964.833	3661.2
965.136	3628.89
965.438	3627.53
965.741	3606.74
966.043	3598.83
966.345	3551.6
966.648	3583.69
966.95	3578.95
967.252	3524.03
967.554	3503.24
967.856	3502.56
968.158	3491.72
968.46	3483.35
968.761	3485.61
969.063	3448.55
969.365	3444.71
969.666	3421.89
969.968	3440.87
970.269	3408.1
970.571	3411.27
970.872	3352.96
971.174	3370.82
971.475	3340.99
971.776	3275
972.077	3344.6
972.378	3312.96
972.679	3311.61
972.98	3300.99
973.281	3272.51
973.582	3236.36
973.883	3220.99
974.183	3217.37
974.484	3186.19
974.785	3191.39
975.085	3192.97
975.386	3166.07
975.686	3107.77
975.986	3146.19
976.287	3131.05
976.587	3109.81
976.887	3080.43
977.187	3088.79
977.487	3079.3
977.787	3052.18
978.087	3016.47
978.387	3018.73
978.687	3044.72
978.987	2988.23
979.286	2991.39
979.586	2955.91
979.885	2919.3
980.185	2916.59
980.484	2932.18
980.784	2911.84
981.083	2899.19
981.382	2933.76
981.682	2874.33
981.981	2850.6
982.28	2828.23
982.579	2824.39
982.878	2839.3
983.177	2811.73
983.475	2813.99
983.774	2768.8
984.073	2771.51
984.372	2744.84
984.67	2756.37
984.969	2734.22
985.267	2732.64
985.566	2679.76
985.864	2721.34
986.162	2672.08
986.461	2655.81
986.759	2674.34
987.057	2606.09
987.355	2646.77
987.653	2632.76
987.951	2608.35
988.249	2613.55
988.547	2592.08
988.844	2565.41
989.142	2559.99
989.44	2510.05
989.737	2532.42
990.035	2522.7
990.332	2504.17
990.63	2493.32
990.927	2470.73
991.224	2436.15
991.521	2462.82
991.819	2464.4
992.116	2483.61
992.413	2449.26
992.71	2438.64
993.006	2407.9
993.303	2377.62
993.6	2426.43
993.897	2350.05
994.193	2342.82
994.49	2344.63
994.787	2319.54
995.083	2299.43
995.379	2335.59
995.676	2336.27
995.972	2291.97
996.268	2303.05
996.565	2269.83
996.861	2271.86
997.157	2236.38
997.453	2217.17
997.749	2188.02
998.044	2193.45
998.34	2211.75
998.636	2214.91
998.932	2213.56
999.227	2143.05
999.523	2184.86
999.818	2140.11
1000.114	2126.78
1000.409	2118.19
1000.704	2116.39
1001	2077.06
1001.295	2047.01
1001.59	2090.62
1001.885	2082.04
1002.18	2057.63
1002.475	2047.01
1002.77	2058.99
1003.065	2048.14
1003.359	2024.86
1003.654	2014.47
1003.949	1987.35
1004.243	1984.64
1004.538	1960.91
1004.832	1945.54
1005.127	1955.71
1005.421	1954.36
1005.715	1936.5
1006.009	1903.28
1006.304	1891.08
1006.598	1921.59
1006.892	1899.22
1007.186	1866.22
1007.48	1880.01
1007.773	1866.22
1008.067	1829.84
1008.361	1822.61
1008.655	1817.86
1008.948	1795.72
1009.242	1763.85
1009.535	1781.03
1009.829	1780.12
1010.122	1756.39
1010.415	1731.08
1010.708	1743.97
1011.001	1746.9
1011.295	1724.3
1011.588	1726.34
1011.881	1694.02
1012.173	1674.81
1012.466	1704.64
1012.759	1656.74
1013.052	1663.52
1013.344	1638.21
1013.637	1635.49
1013.93	1641.37
1014.222	1629.62
1014.514	1623.52
1014.807	1599.79
1015.099	1585.78
1015.391	1603.18
1015.683	1582.61
1015.976	1581.94
1016.268	1548.04
1016.56	1533.12
1016.851	1539
1017.143	1535.16
1017.435	1533.35
1017.727	1520.69
1018.018	1488.15
1018.31	1468.72
1018.602	1473.46
1018.893	1477.31
1019.185	1453.13
1019.476	1450.64
1019.767	1470.53
1020.058	1451.54
1020.35	1408.61
1020.641	1423.52
1020.932	1421.04
1021.223	1375.61
1021.514	1372
1021.804	1384.2
1022.095	1385.1
1022.386	1394.37
1022.677	1329.97
1022.967	1341.94
1023.258	1338.1
1023.548	1313.47
1023.839	1311.66
1024.129	1301.27
1024.419	1321.38
1024.709	1271.66
1025	1296.75
1025.29	1291.1
1025.58	1252.45
1025.87	1233.92
1026.16	1244.09
1026.449	1256.07
1026.739	1247.71
1027.029	1240.02
1027.319	1248.84
1027.608	1210.19
1027.898	1216.07
1028.187	1203.19
1028.477	1216.52
1028.766	1162.96
1029.055	1173.58
1029.344	1185.11
1029.634	1130.87
1029.923	1153.92
1030.212	1142.85
1030.501	1116.41
1030.79	1128.61
1031.078	1098.78
1031.367	1104.89
1031.656	1116.19
1031.945	1108.73
1032.233	1098.11
1032.522	1090.88
1032.81	1065.11
1033.099	1103.76
1033.387	1061.95
1033.675	1047.94
1033.963	1090.88
1034.251	1042.97
1034.54	1035.74
1034.828	1014.95
1035.116	1011.1
1035.403	1021.95
1035.691	994.38
1035.979	1026.7
1036.267	965.91
1036.554	983.99
1036.842	985.57
1037.129	984.21
1037.417	982.63
1037.704	951.9
1037.992	950.54
1038.279	957.09
1038.566	954.38
1038.853	954.38
1039.14	954.38
